Wavelength	rt0802far00009.asd
350	 1.93031326861359E-02 
351	 1.84475057040891E-02 
352	 1.86689258926248E-02 
353	 1.94579329772618E-02 
354	 1.98247846349263E-02 
355	 1.87044503311056E-02 
356	 1.97840268455767E-02 
357	 2.10177535085923E-02 
358	 1.97874656685159E-02 
359	 0.019257334881427 
360	 2.01731034941455E-02 
361	 2.10120216064811E-02 
362	 0.019424065182163 
363	 2.08900106905137E-02 
364	 2.12784843216707E-02 
365	 1.93399514474444E-02 
366	 1.99409296201833E-02 
367	 2.07921956259849E-02 
368	 2.15213384060974E-02 
369	 2.18793762267351E-02 
370	 2.01504376952882E-02 
371	 2.03399636915331E-02 
372	 2.14107344375014E-02 
373	 2.00575659063687E-02 
374	 0.022129131830929 
375	 2.37457461407488E-02 
376	 2.31398847195261E-02 
377	 2.28756765475218E-02 
378	 2.21729101143638E-02 
379	 2.20892698285098E-02 
380	 2.31204197969162E-02 
381	 2.27986594583563E-02 
382	 2.31019497135174E-02 
383	 0.024123935374634 
384	 2.48140419519177E-02 
385	 2.32213806564543E-02 
386	 2.34483837784161E-02 
387	 2.53101305005193E-02 
388	 2.36082025115182E-02 
389	 2.51573655665827E-02 
390	 2.66796022769299E-02 
391	 2.54731162865598E-02 
392	 2.49627503926167E-02 
393	 2.56030244859129E-02 
394	 2.63722662777064E-02 
395	 2.61749351851486E-02 
396	 2.72424664059309E-02 
397	 2.68880154922852E-02 
398	 2.57361419923074E-02 
399	 2.71776754353075E-02 
400	 2.76594171731248E-02 
401	 2.75755786932022E-02 
402	 0.027643476272617 
403	 2.78116886212222E-02 
404	 2.79380850059673E-02 
405	 2.80571256304496E-02 
406	 2.82378462803352E-02 
407	 2.83244607433275E-02 
408	 2.83922227359857E-02 
409	 2.87100996524843E-02 
410	 2.96342431914468E-02 
411	 2.92572045980852E-02 
412	 2.91471300002539E-02 
413	 0.030163385911594 
414	 2.98550048411914E-02 
415	 3.00140482875059E-02 
416	 3.06660026707418E-02 
417	 3.11117020800794E-02 
418	 3.10165724065271E-02 
419	 3.07364058140987E-02 
420	 0.030723650298291 
421	 3.14272284513463E-02 
422	 3.19258114933273E-02 
423	 3.22260110738643E-02 
424	 0.032483150392617 
425	 3.26143039911783E-02 
426	 3.31037208931668E-02 
427	 3.38454294912777E-02 
428	 3.43978076714176E-02 
429	 3.43592915444518E-02 
430	 3.44337439357339E-02 
431	 3.49137533676016E-02 
432	 3.54753780528473E-02 
433	 3.59817411728223E-02 
434	 3.62692993239786E-02 
435	 3.63079656487244E-02 
436	 0.036347476604618 
437	 3.67718719711795E-02 
438	 3.74800147203215E-02 
439	 3.80369278198042E-02 
440	 3.77328409516638E-02 
441	 3.79815845303314E-02 
442	 0.039085959528537 
443	 3.93820600090743E-02 
444	 3.98400322111209E-02 
445	 4.02263172649257E-02 
446	 4.02689135969983E-02 
447	 4.07976198992715E-02 
448	 4.11683016932281E-02 
449	 4.14515901452414E-02 
450	 4.21733272750617E-02 
451	 4.22866646517678E-02 
452	 0.042362005896485 
453	 4.28207466481819E-02 
454	 4.33323482864927E-02 
455	 4.33621126284209E-02 
456	 4.34388776684755E-02 
457	 4.41438846383889E-02 
458	 4.39804525192362E-02 
459	 4.39233238638386E-02 
460	 4.43875726245492E-02 
461	 4.50516658552843E-02 
462	 0.044876930477525 
463	 4.47055236587503E-02 
464	 4.52511911010826E-02 
465	 4.58191310695823E-02 
466	 4.59449167386428E-02 
467	 4.58551719499816E-02 
468	 4.61059879293004E-02 
469	 4.65813704578646E-02 
470	 4.68411770514912E-02 
471	 4.68984151724438E-02 
472	 4.74083402575325E-02 
473	 4.74059533826705E-02 
474	 4.75166089382221E-02 
475	 4.82382975751654E-02 
476	 4.80221644686674E-02 
477	 4.81670031562972E-02 
478	 4.87863930081011E-02 
479	 4.91667237828251E-02 
480	 4.93463674545451E-02 
481	 4.97078698321282E-02 
482	 5.02452681408283E-02 
483	 5.00010625952394E-02 
484	 5.02692380167559E-02 
485	 5.09449064773712E-02 
486	 5.14228760627934E-02 
487	 5.15538626212083E-02 
488	 5.17759422548909E-02 
489	 5.23480725781536E-02 
490	 5.32694336475675E-02 
491	 5.33706618774428E-02 
492	 5.34955378272675E-02 
493	 5.42987736395539E-02 
494	 5.47530996671715E-02 
495	 5.57282609045888E-02 
496	 5.64696035393352E-02 
497	 5.58455703833652E-02 
498	 5.69760739090753E-02 
499	 0.057931228887154 
500	 5.79151804506386E-02 
501	 5.87334205073129E-02 
502	 5.88770358227582E-02 
503	 5.90155239867862E-02 
504	 6.00225065253516E-02 
505	 6.10132536339477E-02 
506	 0.061601744061277 
507	 6.19867524027726E-02 
508	 6.27984734179817E-02 
509	 6.40586001894365E-02 
510	 6.47717859685897E-02 
511	 6.47359735791977E-02 
512	 6.60525118266676E-02 
513	 6.64471387740237E-02 
514	 6.65161869426814E-02 
515	 6.77828962757033E-02 
516	 6.87639362826818E-02 
517	 6.93835372075433E-02 
518	 6.99149212949393E-02 
519	 7.08847910769259E-02 
520	 7.20614928062496E-02 
521	 7.28152329021546E-02 
522	 7.28972359925783E-02 
523	 7.35467099644176E-02 
524	 0.074709800435199 
525	 7.58379216118188E-02 
526	 7.61681912631849E-02 
527	 7.66428083846962E-02 
528	 7.76926483973346E-02 
529	 7.91017749381324E-02 
530	 7.95461480015517E-02 
531	 8.02040773129554E-02 
532	 8.10753120001402E-02 
533	 8.17848039377462E-02 
534	 8.24741910739556E-02 
535	 8.32230855817001E-02 
536	 8.40064140205224E-02 
537	 8.46828700234514E-02 
538	 8.53350300373131E-02 
539	 8.60620910056177E-02 
540	 8.69227230772213E-02 
541	 8.78497346413606E-02 
542	 8.87292201508081E-02 
543	 8.95195057485429E-02 
544	 9.02361204085172E-02 
545	 0.090905091436197 
546	 9.17090499399918E-02 
547	 9.26428368000681E-02 
548	 9.33040205277471E-02 
549	 9.41086282058441E-02 
550	 9.48516392811566E-02 
551	 9.52719679173479E-02 
552	 0.096051760786905 
553	 9.69792072949831E-02 
554	 9.78556792180465E-02 
555	 9.85607289520343E-02 
556	 9.94039184431367E-02 
557	 9.99592688572122E-02 
558	 0.10009610318195 
559	 0.101306915932653 
560	 0.101986704536308 
561	 0.102201329372411 
562	 0.102999448278505 
563	 0.103722292371817 
564	 0.104259355441439 
565	 0.104559212129543 
566	 0.104502991482063 
567	 0.104741333158881 
568	 0.105364009395293 
569	 0.106088688212671 
570	 0.10605759345364 
571	 0.106172434527466 
572	 0.106525749597893 
573	 0.106247380134363 
574	 0.106494670601201 
575	 0.10677378907088 
576	 0.106637068491224 
577	 0.107063323120121 
578	 0.107532767747529 
579	 0.107737284011946 
580	 0.107521384064627 
581	 0.106756869658083 
582	 0.106298129360207 
583	 0.10636859274119 
584	 0.10584893672818 
585	 0.105113874097921 
586	 0.104529028273522 
587	 0.104264564365811 
588	 0.102938603923424 
589	 0.101858133448063 
590	 0.10152862181204 
591	 0.101167676339009 
592	 0.100758713482163 
593	 9.98170191062586E-02 
594	 9.83402741577468E-02 
595	 0.097958522482326 
596	 9.71077472473845E-02 
597	 9.57665347118496E-02 
598	 9.47212976546672E-02 
599	 9.36016905805048E-02 
600	 9.25195693419514E-02 
601	 9.16316393387612E-02 
602	 9.10738797455165E-02 
603	 9.07760296767098E-02 
604	 9.04950805640041E-02 
605	 9.00926989130205E-02 
606	 9.02929613764737E-02 
607	 9.02345541624704E-02 
608	 8.97807240235879E-02 
609	 8.96160796815742E-02 
610	 8.97912561722971E-02 
611	 8.97658259342781E-02 
612	 8.92832559416418E-02 
613	 8.92967950598763E-02 
614	 0.08951032998733 
615	 8.97033434773853E-02 
616	 8.96993373801247E-02 
617	 8.95179665394421E-02 
618	 8.94553782525232E-02 
619	 8.94565320364083E-02 
620	 8.88246036247165E-02 
621	 8.86403169845133E-02 
622	 8.87767802599801E-02 
623	 8.87034040843093E-02 
624	 8.80295077658403E-02 
625	 0.087699509563523 
626	 8.79380498455797E-02 
627	 8.81866659785768E-02 
628	 8.79206247413631E-02 
629	 8.74226051512672E-02 
630	 0.087153734736914 
631	 8.76601229768069E-02 
632	 8.76717730583113E-02 
633	 0.087337555559555 
634	 8.73674181648874E-02 
635	 8.69040218940973E-02 
636	 8.67730270912656E-02 
637	 8.69557691912478E-02 
638	 8.59913629166066E-02 
639	 8.63584194606274E-02 
640	 8.67859891684374E-02 
641	 8.57536035736856E-02 
642	 8.55018186494862E-02 
643	 8.49704018559353E-02 
644	 8.41637556745882E-02 
645	 8.39565497208157E-02 
646	 8.30894379440077E-02 
647	 8.25293276296134E-02 
648	 8.28508569948708E-02 
649	 8.26703015896571E-02 
650	 8.23317155977758E-02 
651	 8.20216051840874E-02 
652	 8.17984229720182E-02 
653	 8.09163294068947E-02 
654	 7.97313934179396E-02 
655	 7.86595129839526E-02 
656	 7.81869873416393E-02 
657	 7.77103297963208E-02 
658	 7.72588732682402E-02 
659	 7.68554678678846E-02 
660	 7.60778958368215E-02 
661	 0.075329717793474 
662	 7.48345983463631E-02 
663	 7.46500689205216E-02 
664	 7.41865211215877E-02 
665	 7.37846665033075E-02 
666	 7.35948856598142E-02 
667	 7.32060173658257E-02 
668	 7.31461598747443E-02 
669	 7.30684695955017E-02 
670	 0.072515797758277 
671	 7.19392194832382E-02 
672	 7.18367399210697E-02 
673	 7.21990952612897E-02 
674	 7.25300794012705E-02 
675	 7.23131588795585E-02 
676	 7.20028171287791E-02 
677	 7.20267212986525E-02 
678	 0.072286567336517 
679	 7.21246128657997E-02 
680	 7.19315774604611E-02 
681	 7.23829017569698E-02 
682	 7.22809349796986E-02 
683	 7.26735693193465E-02 
684	 7.35042769124525E-02 
685	 7.29906032225287E-02 
686	 7.28631641314304E-02 
687	 7.31400839221801E-02 
688	 7.33512867778704E-02 
689	 7.38635979991505E-02 
690	 7.37732106948804E-02 
691	 7.33140886116331E-02 
692	 7.33427349787232E-02 
693	 0.072634817612494 
694	 0.072041417234396 
695	 7.18901339981199E-02 
696	 7.11867303758737E-02 
697	 7.07434419843689E-02 
698	 7.01491080262323E-02 
699	 6.89491397496057E-02 
700	 6.81777085669093E-02 
701	 6.73636070000749E-02 
702	 6.63137139748943E-02 
703	 6.50850680358833E-02 
704	 6.39463010444296E-02 
705	 6.29301425503209E-02 
706	 6.19902974733629E-02 
707	 6.08622223341187E-02 
708	 5.94240058674084E-02 
709	 0.057779183505845 
710	 0.056100696773224 
711	 5.42008733470671E-02 
712	 5.22182913491407E-02 
713	 5.04121359003849E-02 
714	 4.90955705862342E-02 
715	 4.69338333478018E-02 
716	 4.38771715282693E-02 
717	 4.09181623308635E-02 
718	 0.038954192132872 
719	 0.036539329702476 
720	 3.52199696490781E-02 
721	 3.56993882365073E-02 
722	 3.50600621752009E-02 
723	 3.21437127713433E-02 
724	 2.84608653609413E-02 
725	 2.88081159137542E-02 
726	 2.74995531380363E-02 
727	 2.53804186929254E-02 
728	 2.38483792768256E-02 
729	 0.021561377516232 
730	 1.99826858218166E-02 
731	 1.95987305945075E-02 
732	 1.97770056361592E-02 
733	 1.86406662044576E-02 
734	 1.72468583774009E-02 
735	 1.64411325171984E-02 
736	 1.66777800148016E-02 
737	 1.60390642018563E-02 
738	 1.56407750296655E-02 
739	 0.016224856538933 
740	 1.54103325103088E-02 
741	 0.015307870395758 
742	 1.57677008150549E-02 
743	 1.56476185544499E-02 
744	 1.55798245994248E-02 
745	 1.53154511935179E-02 
746	 1.49788141231832E-02 
747	 1.52687819820542E-02 
748	 1.52390692466982E-02 
749	 1.53940807274063E-02 
750	 1.59703785498437E-02 
751	 1.50416379838904E-02 
752	 1.47578144903328E-02 
753	 1.51681998296239E-02 
754	 1.52442618390032E-02 
755	 0.015768843576174 
756	 1.55115030582713E-02 
757	 1.45249116077293E-02 
758	 1.51828844475014E-02 
759	 1.45282959260067E-02 
760	 1.28845903029981E-02 
761	 1.37299527619326E-02 
762	 1.42832781780825E-02 
763	 1.49789659710806E-02 
764	 1.59213675991362E-02 
765	 0.016783821293504 
766	 1.53351045876165E-02 
767	 1.48945180046131E-02 
768	 1.56141442908413E-02 
769	 1.50745329132391E-02 
770	 1.57486635640482E-02 
771	 1.65352231782068E-02 
772	 1.63718628130632E-02 
773	 1.61200042950212E-02 
774	 1.62258858953365E-02 
775	 1.65913757721607E-02 
776	 1.68392288424235E-02 
777	 0.016805253057215 
778	 0.016497423855756 
779	 1.65071518037978E-02 
780	 1.78040732563056E-02 
781	 1.77900074942304E-02 
782	 1.72546557399062E-02 
783	 1.72089139171018E-02 
784	 1.77291987393333E-02 
785	 1.77083576478061E-02 
786	 1.74118934384166E-02 
787	 1.76027833278974E-02 
788	 1.84045735512831E-02 
789	 1.88491773595119E-02 
790	 1.89601531049486E-02 
791	 1.94932647317768E-02 
792	 1.89341422564986E-02 
793	 1.85962358864737E-02 
794	 1.91507690281255E-02 
795	 0.019702994505637 
796	 1.94133639006184E-02 
797	 1.94102907970245E-02 
798	 2.04613340261956E-02 
799	 1.99259945581168E-02 
800	 2.02824249433935E-02 
801	 0.021204264864243 
802	 2.09623979691718E-02 
803	 2.09364709383325E-02 
804	 2.11746997387836E-02 
805	 2.13680544289483E-02 
806	 2.09958625797124E-02 
807	 2.03643102768852E-02 
808	 2.02260811157384E-02 
809	 2.07759109309146E-02 
810	 0.020309499598436 
811	 1.96630858548847E-02 
812	 1.91200525505635E-02 
813	 0.018836062897497 
814	 1.92971252809162E-02 
815	 1.88599111291298E-02 
816	 0.017642436831401 
817	 1.74378764882288E-02 
818	 1.89229255177352E-02 
819	 1.89882480867365E-02 
820	 1.72691590882187E-02 
821	 1.64369712311327E-02 
822	 1.61517774674295E-02 
823	 1.61720679408892E-02 
824	 1.60941797884516E-02 
825	 1.55842096694665E-02 
826	 1.38193609765928E-02 
827	 0.012654474035673 
828	 0.014032450413989 
829	 1.23162107390712E-02 
830	 1.23084863841926E-02 
831	 1.33172507351293E-02 
832	 1.12182920019355E-02 
833	 1.10549458646177E-02 
834	 0.011596973139165 
835	 0.011778301224708 
836	 1.16647414882728E-02 
837	 0.011006593239051 
838	 1.02410015000651E-02 
839	 9.87850540906701E-03 
840	 1.02475617315729E-02 
841	 1.12085752611941E-02 
842	 1.16125946095782E-02 
843	 1.06604912423632E-02 
844	 1.06534974511274E-02 
845	 1.05876827727202E-02 
846	 1.04707849168623E-02 
847	 1.08586526149362E-02 
848	 9.99273517333251E-03 
849	 1.05911257817486E-02 
850	 1.23162799774671E-02 
851	 1.06582336932701E-02 
852	 1.00283565157146E-02 
853	 1.09159924128563E-02 
854	 1.20423321184402E-02 
855	 1.04517127951015E-02 
856	 9.49475755896733E-03 
857	 9.75433868356515E-03 
858	 1.06072950700595E-02 
859	 0.010386664716112 
860	 9.30880014397563E-03 
861	 8.88832964564296E-03 
862	 1.04653850225234E-02 
863	 1.04597957279688E-02 
864	 9.23430432093979E-03 
865	 8.60006561620011E-03 
866	 1.07625163645666E-02 
867	 1.09560139462463E-02 
868	 9.98431270022775E-03 
869	 9.45803187062449E-03 
870	 1.07700013272604E-02 
871	 1.02387686292052E-02 
872	 9.2631779480128E-03 
873	 9.20823554129758E-03 
874	 8.64454448649171E-03 
875	 9.85144512077495E-03 
876	 0.01096523596186 
877	 1.00241970655831E-02 
878	 9.57432773462223E-03 
879	 9.23662675584391E-03 
880	 8.97102377699921E-03 
881	 8.85247384361952E-03 
882	 8.85476229170602E-03 
883	 8.78155683206952E-03 
884	 9.02036216414186E-03 
885	 1.01377514704345E-02 
886	 1.05616823647488E-02 
887	 9.2932814270544E-03 
888	 7.68365971789342E-03 
889	 9.26698768707953E-03 
890	 9.70043241513294E-03 
891	 9.64145587142644E-03 
892	 9.90248448206126E-03 
893	 9.69385392416458E-03 
894	 8.24222458331285E-03 
895	 7.24058872062905E-03 
896	 8.44277542255868E-03 
897	 9.84587705057784E-03 
898	 1.04788497462962E-02 
899	 9.21164852733903E-03 
900	 6.91354229664008E-03 
901	 9.17463945691408E-03 
902	 0.010828929912655 
903	 1.03831721264882E-02 
904	 8.48718835213731E-03 
905	 8.95271717685671E-03 
906	 8.4359726233148E-03 
907	 6.41540802768894E-03 
908	 4.96325544445618E-03 
909	 5.06845269756551E-03 
910	 6.25434924687841E-03 
911	 5.41476098846007E-03 
912	-4.37264645432989E-04 
913	 7.64328212067775E-03 
914	 1.06791768670551E-02 
915	 4.52246384834073E-03 
916	 6.26754706641309E-03 
917	 8.9672579305658E-03 
918	 6.98373056143524E-03 
919	 2.97003731920909E-03 
920	 8.25708630714942E-03 
921	 5.00579469433545E-03 
922	 1.80821224096596E-03 
923	 5.54296518440309E-03 
924	 8.26642073117432E-03 
925	 4.94758120952917E-03 
926	-8.10631001859321E-04 
927	-2.07086880464795E-03 
928	 4.29809610125797E-03 
929	-7.86823065421212E-03 
930	-1.36142766939946E-02 
931	 0.038379048152421 
932	-8.17894265886671E-03 
933	-3.23673868197034E-02 
934	 2.02993646432872E-02 
935	 5.64713535735889E-02 
936	-3.84899209435303E-02 
937	-2.01820489589528E-02 
938	 2.35369988643527E-02 
939	-2.52196460058673E-02 
940	 4.10646364269799E-03 
941	 1.16831077049551E-02 
942	-5.89844257792017E-03 
943	-4.20034902209283E-03 
944	 1.76899049383383E-02 
945	 1.99138987781546E-02 
946	 0.010233120151184 
947	 2.04799550876406E-02 
948	 1.70315229833914E-02 
949	 1.20579709115269E-02 
950	 1.16444473920452E-02 
951	 1.65905573254217E-02 
952	 3.38417090486693E-02 
953	 1.79787204291733E-02 
954	-5.29760422289419E-03 
955	 2.06568194039392E-02 
956	 3.13731499878123E-02 
957	 3.31492770326629E-02 
958	 2.31710779475939E-02 
959	-1.80487922682715E-03 
960	-6.45676199376877E-03 
961	-6.33057440984768E-03 
962	-5.61871615763016E-03 
963	 9.25884003500335E-04 
964	 1.95775276611992E-02 
965	 2.29481487052395E-02 
966	 9.2216494378612E-03 
967	-4.77742462652346E-03 
968	 0.004967322891728 
969	 1.24774350336376E-02 
970	 8.31826500626034E-03 
971	 8.289808928828E-04 
972	-7.46896637944857E-04 
973	 3.96516513762353E-03 
974	 9.03235611279302E-03 
975	 5.53860503665989E-03 
976	 1.34593419762131E-03 
977	-4.45313710438761E-03 
978	-6.08313439306307E-03 
979	 4.19953629584406E-03 
980	 1.16846191684971E-02 
981	 8.66106818803461E-03 
982	-2.87180622590084E-03 
983	-1.23483766181455E-02 
984	 6.77605939056722E-04 
985	 1.47783845823495E-02 
986	 1.45626128134168E-02 
987	-1.25817465637896E-03 
988	-2.67499329854007E-03 
989	 7.65278689977011E-03 
990	 1.67706532758012E-02 
991	 1.06649223673598E-02 
992	-5.82109826940838E-03 
993	-1.36822718384031E-02 
994	-3.8836373761075E-03 
995	 0.016295482612115 
996	 0.010266997338077 
997	 1.89090425444474E-04 
998	-2.81265730812835E-03 
999	 1.25188007570196E-04 
1000	 3.45481915477702E-03 
1001	 5.54165825222725E-03 
1002	 7.9275360815642E-03 
1003	 9.79198761052916E-03 
1004	 1.45031690786765E-02 
1005	 1.33223766575056E-02 
1006	 9.53395501623054E-03 
1007	 4.67904897264326E-03 
1008	-2.67546393217087E-03 
1009	-8.93324129098095E-03 
1010	-9.78921902605063E-03 
1011	-6.56659293285944E-03 
1012	-3.54194152612049E-03 
1013	-2.78381542856077E-03 
1014	-3.10363660477878E-03 
1015	-6.61840548868549E-03 
1016	-6.82589637653128E-03 
1017	-7.50824047279817E-03 
1018	-5.7987145389123E-03 
1019	 7.98712698689971E-04 
1020	 2.7041417440634E-03 
1021	 3.50376547524577E-03 
1022	 3.57648778853412E-03 
1023	 1.92373183642169E-03 
1024	-4.60348237057852E-05 
1025	-3.08522326994196E-03 
1026	-5.80090523828409E-04 
1027	 4.17534987600184E-04 
1028	 3.23489088256124E-03 
1029	 1.70708447906557E-03 
1030	-2.94053484911418E-03 
1031	-3.94490805002152E-03 
1032	-7.4660990873812E-03 
1033	-6.68969729009909E-03 
1034	 1.43017778633076E-03 
1035	 4.58786096789277E-03 
1036	 7.85070251607772E-03 
1037	 8.58797005823398E-03 
1038	 6.45035570228371E-03 
1039	 0.003515444501577 
1040	 3.78236122362689E-04 
1041	-2.39050284808397E-03 
1042	-2.82222320473222E-03 
1043	-1.0214582881123E-03 
1044	-9.50022348216435E-04 
1045	-2.7222801689787E-04 
1046	-7.57658175025954E-05 
1047	-1.8028930035748E-03 
1048	-5.56916143584698E-04 
1049	 3.7204886384199E-03 
1050	 5.50228266209615E-03 
1051	 8.79505765151254E-03 
1052	 9.11701520046967E-03 
1053	 5.86043589817895E-03 
1054	 3.57826447154506E-03 
1055	-2.09052775317737E-04 
1056	-3.00948068683195E-03 
1057	-5.36566500315032E-03 
1058	-8.09963090407856E-03 
1059	-7.75259132131398E-03 
1060	-6.01840957293805E-03 
1061	-3.37235564424587E-03 
1062	 4.19800729277247E-03 
1063	 5.68360007658556E-03 
1064	 5.07773322171717E-03 
1065	 4.21970022457236E-03 
1066	-1.86450500823895E-03 
1067	-3.31536239256629E-03 
1068	-2.47669412844998E-03 
1069	-1.73143501275377E-03 
1070	 2.52257984625855E-03 
1071	 4.01294049475293E-03 
1072	 5.27230940920266E-03 
1073	 3.19972989013628E-03 
1074	 4.20583860086419E-03 
1075	 5.29523676155469E-03 
1076	 5.31273332014175E-03 
1077	 7.55590930191646E-03 
1078	 6.35291573792144E-03 
1079	-7.29572269120811E-04 
1080	-1.43031967149833E-03 
1081	 6.86920770836492E-04 
1082	 1.48364203903863E-03 
1083	 6.14184731629838E-03 
1084	 7.64309032155605E-03 
1085	 5.06474462825788E-03 
1086	 4.34308042545473E-03 
1087	 5.44884589442999E-03 
1088	 4.64458675931187E-03 
1089	 1.35408066564493E-03 
1090	 1.61193293125631E-03 
1091	-2.34345124234684E-04 
1092	-5.99146176976358E-03 
1093	-6.13795949597095E-03 
1094	-2.07331402450957E-03 
1095	-1.70224846556064E-03 
1096	 1.75994566190917E-03 
1097	 3.47412358630225E-04 
1098	-9.75976288984954E-03 
1099	-1.21139145391448E-02 
1100	-1.00625598143791E-02 
1101	-0.012152017968022 
1102	-1.11307478556312E-02 
1103	-1.14810448293044E-02 
1104	-1.65673970194059E-02 
1105	-2.50290808475308E-02 
1106	-2.09727524161547E-02 
1107	-2.71367898523277E-02 
1108	-0.027512620975327 
1109	-1.61984322411346E-02 
1110	-1.63820284141446E-02 
1111	-2.13060577103712E-02 
1112	-0.019361286761398 
1113	-0.017326358411248 
1114	-2.57227452410096E-02 
1115	-3.86798527613107E-02 
1116	-4.42600993859308E-02 
1117	-9.02756109559173E-02 
1118	-0.107581028056696 
1119	-1.22803928793839E-02 
1120	 2.31766111550745E-02 
1121	 2.15034269278288E-02 
1122	 0.064123642447336 
1123	-7.32928445472917E-02 
1124	-0.239549561164056 
1125	-0.143049666002051 
1126	-0.147099033044898 
1127	-0.139693385915167 
1128	-0.023153833689527 
1129	-5.06275214663319E-02 
1130	-0.223891302490107 
1131	-0.280509137856198 
1132	-0.332580492893089 
1133	-0.352700612081838 
1134	-0.335573615568844 
1135	-0.311612343648338 
1136	-0.286217221422609 
1137	-0.235113825787745 
1138	-0.153373360228293 
1139	-0.134893611308027 
1140	-0.122423830696016 
1141	-0.106638082595179 
1142	-0.114342804391321 
1143	-7.12776653046078E-02 
1144	-4.96675465779296E-02 
1145	-0.12828396003362 
1146	-0.130197512403928 
1147	-0.083877785561466 
1148	-0.122481550542258 
1149	-0.129913106446008 
1150	-0.108093819554737 
1151	-0.122039040039306 
1152	-0.106397536403746 
1153	-3.18928295541667E-02 
1154	-1.40313239749272E-02 
1155	-1.30934952615033E-02 
1156	-3.91302722764266E-02 
1157	-3.46221823422006E-02 
1158	-2.59115811057382E-02 
1159	-3.03370738775889E-02 
1160	-2.91166461496777E-02 
1161	-2.15253631110661E-02 
1162	-1.51795278914101E-02 
1163	-1.36350397572208E-02 
1164	-1.11554024353015E-02 
1165	-5.63066264161299E-03 
1166	-3.26230773324349E-03 
1167	-1.59512914948969E-03 
1168	 3.39696531545464E-03 
1169	 3.77860346915371E-03 
1170	 2.04390952725642E-03 
1171	 1.64365358507846E-03 
1172	 4.56158904280372E-03 
1173	 3.76342155316714E-03 
1174	 4.08060036389314E-04 
1175	-6.14101266583899E-04 
1176	 1.49711091219504E-04 
1177	 1.30634353464985E-04 
1178	 3.82774905112004E-03 
1179	 7.91441836206992E-03 
1180	 4.8863600417277E-03 
1181	 1.62503510644275E-04 
1182	-2.30138281942067E-04 
1183	-4.52710063394788E-03 
1184	-8.40785052502191E-03 
1185	-5.05870515032081E-03 
1186	-2.92335794024614E-03 
1187	 6.00140960277167E-04 
1188	 4.47719927287551E-03 
1189	 2.60175475528493E-03 
1190	 5.32943423936786E-04 
1191	 1.51257180488772E-03 
1192	 1.57291690124748E-03 
1193	 1.32701773573067E-03 
1194	 2.00729316143473E-03 
1195	 3.36624761137541E-03 
1196	 1.97764372009381E-03 
1197	-2.10713642404514E-03 
1198	-3.71555599679211E-03 
1199	-3.88868679523427E-04 
1200	 1.76543801735788E-03 
1201	 1.36268834442566E-03 
1202	 6.00100670910022E-03 
1203	 8.08358814608273E-03 
1204	 1.75894998051557E-03 
1205	-1.45846367035858E-03 
1206	 1.94234829031414E-03 
1207	 2.68414547593559E-03 
1208	-1.04219108975859E-03 
1209	 6.40841653813844E-04 
1210	 5.08136294755255E-03 
1211	 3.9695020917141E-03 
1212	 3.91112987981651E-03 
1213	 6.68845134025216E-03 
1214	 6.55664344594028E-03 
1215	 4.54682527683834E-04 
1216	-3.60772417941656E-03 
1217	 7.26298921701749E-05 
1218	 1.68978572312044E-03 
1219	 8.65936367594831E-04 
1220	 3.52433152622382E-03 
1221	 3.83600480318984E-03 
1222	-3.43636803210492E-04 
1223	-1.2162782010917E-03 
1224	 2.32670807803217E-03 
1225	 4.55699263799656E-03 
1226	 4.00810880177662E-03 
1227	 1.56204240067291E-03 
1228	-1.42732600595533E-03 
1229	-1.92367042932692E-03 
1230	 3.55201969492099E-04 
1231	 2.33818392937301E-03 
1232	 8.30250749990399E-04 
1233	 6.3868199615081E-04 
1234	 1.92432251351709E-03 
1235	 1.4622636012873E-03 
1236	 2.54517973412552E-03 
1237	 3.87935184658329E-03 
1238	 4.17807778568463E-03 
1239	 1.1373895432077E-03 
1240	 3.11262435867876E-03 
1241	 5.36787988426054E-03 
1242	 2.91024276527786E-03 
1243	 3.81989690970294E-03 
1244	 7.82375971076731E-03 
1245	 6.07124908510117E-03 
1246	 3.97770985299406E-03 
1247	 5.33696212025684E-03 
1248	 4.25044950824346E-03 
1249	 2.64002782607129E-03 
1250	 3.47973011430363E-03 
1251	 4.44774689029096E-03 
1252	 3.62608287199898E-03 
1253	 2.70855840390767E-03 
1254	 2.96928403060585E-03 
1255	 2.12704847452364E-03 
1256	 2.72610053863362E-03 
1257	 5.84779888531377E-03 
1258	 6.16027462312548E-03 
1259	 4.43365734247762E-03 
1260	 4.07505509336247E-03 
1261	 3.25286439020951E-03 
1262	 2.43746580353907E-03 
1263	 2.48717914282458E-03 
1264	 2.87462435994768E-03 
1265	 3.2978156136593E-03 
1266	 2.69109995024553E-03 
1267	 1.96310639970573E-03 
1268	 4.40652664194115E-03 
1269	 9.0419029139799E-03 
1270	 7.18937179359091E-03 
1271	 1.89854923834078E-03 
1272	 1.51199473156801E-03 
1273	 1.94847818157884E-03 
1274	 2.01292525703819E-04 
1275	-2.11341866313262E-04 
1276	 1.58501361327934E-03 
1277	 6.69107326438791E-04 
1278	-3.92003410526434E-03 
1279	-4.29111193976181E-03 
1280	-8.68537231622226E-04 
1281	 4.53745665660482E-04 
1282	 1.94351868475024E-03 
1283	 2.73773441258907E-03 
1284	 2.85726710714723E-03 
1285	 2.83537822305337E-03 
1286	 1.56929096691328E-03 
1287	 1.10816899378786E-03 
1288	 4.28468526144423E-04 
1289	 2.21250888923201E-03 
1290	 6.49960241285311E-03 
1291	 8.2010808164949E-03 
1292	 7.95225922177968E-03 
1293	 7.81348474535663E-03 
1294	 5.55589850384453E-03 
1295	 2.7780055448094E-03 
1296	 2.94012560325569E-03 
1297	 3.1323210067315E-03 
1298	 6.05120463550892E-04 
1299	-1.20445268285078E-03 
1300	-1.64024435120622E-03 
1301	-1.90890901678474E-03 
1302	-1.42032411062063E-03 
1303	-5.72485924714791E-04 
1304	 2.7527181196231E-03 
1305	 6.13292026359882E-03 
1306	 6.59865206475168E-03 
1307	 5.68135694788689E-04 
1308	 3.87474145788244E-04 
1309	 4.0909746152693E-03 
1310	 2.59071647854436E-03 
1311	-5.52747299758128E-04 
1312	-7.70642139552878E-04 
1313	-4.61716476484384E-03 
1314	-6.0482962314705E-03 
1315	 2.49000643062707E-03 
1316	-4.24547292489146E-04 
1317	-1.60139572308274E-02 
1318	-1.86871304316375E-02 
1319	-0.020550174108568 
1320	-2.28281223448376E-02 
1321	-1.33087665407798E-02 
1322	-1.06818340182367E-02 
1323	-2.13408273699502E-02 
1324	-1.83027499927153E-02 
1325	-8.51879433649961E-03 
1326	-1.16974584582603E-02 
1327	-1.29867472244475E-02 
1328	-4.03507979616777E-03 
1329	-8.55473815875802E-03 
1330	-9.06661981062086E-03 
1331	-3.67342586514729E-03 
1332	-1.07753923415263E-02 
1333	-2.21429481766591E-02 
1334	-4.62707026860282E-02 
1335	-5.52673449254781E-02 
1336	-5.41901915391307E-02 
1337	-5.91785675827668E-02 
1338	-0.053705456803479 
1339	-4.81397102470055E-02 
1340	-3.71144815655077E-02 
1341	-4.39128864658259E-02 
1342	-8.46551355450609E-02 
1343	-8.99263288363929E-02 
1344	-0.075371992635586 
1345	-9.84086372197768E-02 
1346	-0.118175130908221 
1347	-6.36347337757193E-02 
1348	 8.67400122634902E-02 
1349	 8.26249470731987E-02 
1350	-8.90979389794945E-02 
1351	-5.49103847605395E-02 
1352	-7.97229668771038E-02 
1353	-0.213683690892234 
1354	-8.40758951910246E-02 
1355	 0.532410731960838 
1356	 0.455220767300214 
1357	 8.63784622643738E-02 
1358	-0.140306977455672 
1359	-0.259798972821348 
1360	-0.109984968575872 
1361	 0.019272375333282 
1362	 6.85291279010783E-02 
1363	 0.247689077952383 
1364	-0.235128247132899 
1365	-0.897812176878942 
1366	 0.373338063356814 
1367	 0.483787760820911 
1368	 0.484485421202754 
1369	-0.212454719653168 
1370	-0.634619517505177 
1371	-3.617160074232 
1372	-2.95923620067457 
1373	-1.17066197487582 
1374	-1.30795639328667 
1375	-1.22017391703214 
1376	-1.37171289712377 
1377	-7.21249459988425 
1378	 4.58362996686081 
1379	 3.35172846137588 
1380	 3.57369260053002 
1381	 100.509886498849 
1382	-21.0919920475055 
1383	-7.88896893952988 
1384	-4.57681117564127 
1385	-6.24185369078658 
1386	-21.4163897542865 
1387	 3.19241776935696 
1388	 4.2751043106845 
1389	-0.254816675974881 
1390	 4.39887114757871 
1391	 6.13593585145858 
1392	-1.15257848536699E-02 
1393	 0.700234951458684 
1394	-3.35566881015569E-02 
1395	-7.92834038058707E-02 
1396	-0.142187276222958 
1397	-1.14969220032272 
1398	-8.83421499068917 
1399	-8.98351467487326 
1400	 7.38887745832219 
1401	 7.01179834838412 
1402	-3.28085988227486 
1403	-1.53062909795825 
1404	 7.17396951747477E-02 
1405	 0.520292923588409 
1406	 24.4546171582463 
1407	 2.47971104330548 
1408	 1.36471707752155 
1409	 2.71551273683759 
1410	-4.34988809839686 
1411	-6.34146360492954 
1412	 0.278824611855982 
1413	 1.20361501475104 
1414	-2.15658199670393 
1415	-1.08805504605493 
1416	-0.616683384920053 
1417	-1.66611008629786 
1418	 5.64670970729567 
1419	 1.92909072836667 
1420	 1.60419980813478 
1421	 2.23664525739695 
1422	 3.82662310746339 
1423	-2.00250006525233 
1424	-1.65278841635598 
1425	-1.48633930159512 
1426	-4.75290474269421 
1427	-3.57522313002015 
1428	-1.05164763054856 
1429	-0.748092580551777 
1430	-9.85105136986737E-02 
1431	-8.7818854072017E-03 
1432	-0.669197007784276 
1433	-0.543793667715419 
1434	-0.142536117224452 
1435	-0.302728377446343 
1436	-0.401465884009512 
1437	-0.345952038463978 
1438	-0.546374761744894 
1439	-0.437897897304449 
1440	-0.648669432873639 
1441	-3.43961898559923 
1442	-1.54447493645236 
1443	-1.40529193912283 
1444	-0.972931438162951 
1445	-5.10173805338348E-02 
1446	-0.350658302575783 
1447	-1.40512982793095 
1448	-1.97594879195663 
1449	-0.51633793323553 
1450	 0.52608127636461 
1451	 0.262986274868385 
1452	 6.94789875845148E-03 
1453	 0.103304456122878 
1454	 4.23315769104428E-02 
1455	-0.111119592573462 
1456	-0.122041030463379 
1457	 5.23264828697886E-03 
1458	-0.121834550243787 
1459	-0.537504678913214 
1460	-0.491456526018647 
1461	-0.241224257930252 
1462	-0.22792800440254 
1463	-0.105325132686676 
1464	-5.23584731569038E-02 
1465	-0.209772954554275 
1466	-0.264968859189208 
1467	-0.179893005631176 
1468	-0.150291813463887 
1469	-0.237129586641655 
1470	-0.228319879843504 
1471	-6.84692885868239E-02 
1472	-2.59505719098701E-02 
1473	-2.05093611469196E-02 
1474	-2.71791423963586E-02 
1475	-0.071164234990433 
1476	-0.131638358377536 
1477	-0.274669549740394 
1478	-0.252315914674056 
1479	-0.171438888492991 
1480	-0.130388731512343 
1481	 2.19231839087449E-02 
1482	 5.19501223601425E-02 
1483	-4.90302759040331E-02 
1484	-4.82231084630219E-02 
1485	-2.56106745666583E-02 
1486	-1.58461250879181E-02 
1487	 0.031604864344462 
1488	 2.29857193877975E-02 
1489	-4.22855518542277E-02 
1490	-2.97342850736685E-02 
1491	 2.00889057584976E-02 
1492	 2.32871541411647E-02 
1493	 3.49965420781695E-02 
1494	 3.53471453805337E-02 
1495	 5.65723957191848E-03 
1496	-3.98758241449479E-03 
1497	 9.90257562687448E-03 
1498	 5.01989788106907E-03 
1499	-1.89819988691851E-02 
1500	-2.65358899229885E-02 
1501	-3.22664867613273E-02 
1502	-3.73390466060784E-02 
1503	-3.53400829105482E-02 
1504	-2.78141151021731E-02 
1505	-1.73411627897759E-02 
1506	-1.39555357064402E-02 
1507	-2.07714397839816E-03 
1508	 3.97613637753391E-03 
1509	-3.93254629036394E-03 
1510	-5.22607738554677E-03 
1511	 9.39285522066706E-04 
1512	-3.65738209054876E-04 
1513	-3.89629989683592E-03 
1514	-1.66729486487836E-03 
1515	-2.70234993609352E-03 
1516	-4.40488887896009E-03 
1517	 1.80635109825023E-03 
1518	-3.49047868383326E-03 
1519	-1.36527771485274E-02 
1520	-1.69256494912328E-02 
1521	-1.83333430073185E-02 
1522	-1.29732421613183E-02 
1523	-1.17282525307674E-02 
1524	-1.13597500271494E-02 
1525	-8.93539645185443E-03 
1526	-1.01200468076687E-02 
1527	-4.92594915416336E-03 
1528	 2.20175857391273E-03 
1529	 2.83161738259242E-03 
1530	 2.62221427977671E-04 
1531	-4.80777800636879E-03 
1532	-6.48196827454757E-03 
1533	-5.07909974191777E-04 
1534	 1.77777192212407E-03 
1535	 1.67216309857152E-03 
1536	 2.71282421565137E-03 
1537	-1.64781485319342E-03 
1538	-1.58835434184086E-03 
1539	 2.35529616408171E-03 
1540	 7.02094937032113E-04 
1541	 1.91057393753558E-03 
1542	 1.60079038469132E-03 
1543	-6.41898508637018E-03 
1544	-7.8685014520249E-03 
1545	-5.39550413310395E-03 
1546	-7.88980522514644E-03 
1547	-6.20324906992754E-03 
1548	-1.77146552972787E-03 
1549	-1.60417733571844E-03 
1550	-2.23736151983646E-03 
1551	-1.55897357925422E-04 
1552	 2.86808136455546E-03 
1553	 2.41967093986843E-03 
1554	 1.60688521969168E-03 
1555	 2.08512300897202E-03 
1556	 8.86561879474958E-04 
1557	 4.28510291139841E-04 
1558	-1.55538664485178E-04 
1559	-2.0836654922044E-03 
1560	-8.37448194619726E-04 
1561	 1.55606740693388E-03 
1562	 1.25306131922963E-03 
1563	 1.37017789306774E-03 
1564	 2.25983993655255E-03 
1565	 6.27173208862625E-04 
1566	-3.46527637019339E-03 
1567	-2.24191784049751E-03 
1568	 3.73836139909829E-03 
1569	 6.58280374598131E-03 
1570	 8.48614626755726E-03 
1571	 7.23584630339539E-03 
1572	 1.17644856884243E-03 
1573	-2.64778387140301E-03 
1574	-1.99531158604523E-03 
1575	 3.5783367654819E-05 
1576	-2.29509016784437E-03 
1577	-6.54946914964323E-03 
1578	-4.78709858061214E-03 
1579	-5.98783206612942E-03 
1580	-1.21765670081525E-02 
1581	-1.14294563145926E-02 
1582	-8.6182778459386E-03 
1583	-6.75779993058098E-03 
1584	-5.94319097141791E-04 
1585	 6.41413038265847E-03 
1586	 4.91243919810742E-03 
1587	-1.38809158896302E-03 
1588	-1.10210380548894E-03 
1589	 8.65367124247391E-04 
1590	 1.0485245785216E-03 
1591	 1.11589169701047E-03 
1592	 2.01179735285978E-03 
1593	 3.39376534295194E-03 
1594	-7.35214065239346E-04 
1595	-3.97488705778478E-03 
1596	-1.20790655260384E-03 
1597	-3.24380994003935E-03 
1598	-7.32805650765836E-03 
1599	-6.66811801099492E-03 
1600	-3.81166604247046E-03 
1601	-1.32653128072714E-03 
1602	-9.25948831635221E-04 
1603	 2.61669573137404E-03 
1604	 4.28541499142759E-03 
1605	-8.89984812196237E-04 
1606	-1.84883012941247E-03 
1607	 4.00272806622439E-03 
1608	 6.35064978513944E-03 
1609	 1.74984967928067E-03 
1610	-3.61091079642853E-03 
1611	-7.53767012932784E-03 
1612	-8.35963995013134E-03 
1613	-9.66693330791056E-04 
1614	 7.07611530561135E-03 
1615	 3.72790899876874E-03 
1616	 5.99947949075534E-04 
1617	 4.16795207235464E-03 
1618	 5.26905275817444E-03 
1619	 6.47432282719264E-03 
1620	 7.9769597050824E-03 
1621	 6.43472199112269E-03 
1622	 4.08527839510017E-03 
1623	 5.70563242800077E-03 
1624	 7.00191016542482E-03 
1625	 7.87578465054611E-04 
1626	-6.6507431866283E-04 
1627	 7.02431773944144E-03 
1628	 1.05770651258845E-02 
1629	 9.0853725082195E-03 
1630	 5.72452919080723E-03 
1631	 3.0183395996297E-03 
1632	 2.66652809314028E-03 
1633	 3.03768693443235E-03 
1634	 5.71143258815444E-03 
1635	 6.17217340465871E-03 
1636	 2.50147048943106E-03 
1637	 1.33849632381592E-03 
1638	 3.6433417941584E-03 
1639	 5.15592285800679E-03 
1640	 6.20748267537844E-03 
1641	 7.2269919146723E-03 
1642	 5.3663851054394E-03 
1643	 4.76959777777693E-03 
1644	 5.55517627060811E-03 
1645	 3.91933272086026E-03 
1646	 4.16938159511318E-03 
1647	 4.79356940945138E-03 
1648	 3.34494565715654E-03 
1649	 2.86889819213755E-03 
1650	 6.7702261467119E-03 
1651	 1.10082302297751E-02 
1652	 7.41313076283362E-03 
1653	 3.70817098903114E-03 
1654	 3.31067573801574E-03 
1655	 4.62118015782643E-03 
1656	 2.35163843020513E-03 
1657	-2.51126484326445E-03 
1658	-7.39947525310579E-04 
1659	 3.80513327357635E-03 
1660	 6.44270673809423E-03 
1661	 1.44826203702062E-02 
1662	 1.26879501948699E-02 
1663	 1.83300324994157E-03 
1664	-4.57092555139807E-04 
1665	-3.4843170526616E-03 
1666	-3.96798989344393E-03 
1667	 1.55506051360733E-03 
1668	-1.94620638154286E-03 
1669	-1.87824425025896E-03 
1670	 3.00999336507347E-04 
1671	-0.003640634460627 
1672	-8.17285842429112E-03 
1673	-5.24812552228041E-03 
1674	-5.71480593235313E-03 
1675	-8.73801046356602E-03 
1676	-5.34003907641595E-03 
1677	-4.8018261135061E-03 
1678	-5.60589796694288E-03 
1679	-2.74168160656975E-03 
1680	-9.37775473792027E-04 
1681	 3.05807582633548E-03 
1682	 3.99287917324216E-03 
1683	 1.19325400651032E-03 
1684	 3.53131644475424E-03 
1685	 7.0670486879781E-03 
1686	 1.08796447944882E-02 
1687	 0.012612552155844 
1688	 1.03071167534321E-02 
1689	 5.8428877632965E-03 
1690	 1.86231605567953E-03 
1691	 7.07029780708346E-03 
1692	 1.32656356648187E-02 
1693	 9.97417776080111E-03 
1694	 2.07204670336081E-03 
1695	-3.15921950842419E-03 
1696	-3.92361288759778E-03 
1697	-0.002778044518823 
1698	 1.83220619475657E-03 
1699	 4.61761045282213E-03 
1700	 8.73111780556176E-04 
1701	 2.71336035884216E-03 
1702	 8.36631915667909E-03 
1703	 3.0752015009063E-03 
1704	-2.06606321077311E-03 
1705	-4.61062745196176E-03 
1706	-0.010318324203865 
1707	-9.50738830659519E-03 
1708	-8.55101470684197E-03 
1709	-7.30852826047252E-03 
1710	-4.77518180800434E-03 
1711	-3.57979281754746E-03 
1712	 6.45163164768146E-03 
1713	 1.07371458611129E-02 
1714	 9.89980591761463E-03 
1715	 9.6485577208794E-03 
1716	 9.67802616448822E-03 
1717	 4.11102427002297E-03 
1718	 9.71510116235047E-03 
1719	 1.83946548860901E-02 
1720	 9.03587707168385E-03 
1721	 4.98307810936877E-03 
1722	 9.28052484766823E-03 
1723	 2.44334364189473E-03 
1724	 6.46377627475767E-04 
1725	 5.52347922187899E-03 
1726	 1.41001891693748E-03 
1727	-2.16148334969734E-03 
1728	 2.99169400352309E-03 
1729	 8.45889381239036E-03 
1730	 0.012461625570494 
1731	 1.43255364716428E-02 
1732	 1.09676642051667E-02 
1733	 1.15479154438713E-02 
1734	 6.79034289528804E-03 
1735	-8.91069374844621E-03 
1736	-6.72707167621465E-03 
1737	 4.66264822897175E-03 
1738	 1.17359277156128E-02 
1739	 2.19923486723676E-02 
1740	 1.32600609332358E-02 
1741	-6.58749706440827E-05 
1742	-6.6603318605532E-03 
1743	-8.93830758610248E-03 
1744	-1.40217017444829E-04 
1745	-1.31196211855424E-03 
1746	 1.23804910976903E-02 
1747	 1.25987329865624E-02 
1748	 7.5910895742794E-03 
1749	 5.89757566871127E-03 
1750	-1.64503066820627E-02 
1751	-2.06986819764588E-02 
1752	 6.03886905118926E-03 
1753	 1.35777201568936E-02 
1754	 1.40767319248793E-02 
1755	 1.62452465511571E-02 
1756	-2.15791897605758E-04 
1757	 3.03814760286142E-04 
1758	 1.33919378933967E-02 
1759	 1.17123556129678E-02 
1760	 3.05651951338804E-02 
1761	 4.42463347087449E-02 
1762	 3.49105413099249E-02 
1763	 0.015199559906045 
1764	-2.27384997388463E-02 
1765	-4.08289378723334E-02 
1766	-2.07973823838373E-02 
1767	-4.88357569869085E-03 
1768	 2.40428992320621E-02 
1769	 0.055396845628562 
1770	 4.56835327680577E-02 
1771	 2.06734434764799E-02 
1772	 1.58362074286573E-02 
1773	-5.32657807586944E-03 
1774	-5.72326139170795E-02 
1775	-7.23432606880394E-03 
1776	-2.77516703261245E-03 
1777	-2.73524421118498E-02 
1778	-3.78163601049597E-02 
1779	-0.114669639560645 
1780	-0.119878370422255 
1781	-0.016857936798984 
1782	 2.28094441529112E-02 
1783	 9.15866463274132E-02 
1784	 0.114196928166106 
1785	 3.67214315059323E-02 
1786	 1.73978707385226E-02 
1787	 1.09492622430145E-02 
1788	 3.04228296771827E-02 
1789	 0.13821427991607 
1790	 0.106283951590564 
1791	 4.47017226158746E-02 
1792	-0.156496706118722 
1793	-0.286234286013642 
1794	-0.176142754373062 
1795	-0.107609772383596 
1796	 0.172861878930167 
1797	 0.705622733837707 
1798	-0.512148394784679 
1799	-0.686831257578223 
1800	-0.364183351157177 
1801	-0.353725024638304 
1802	-0.599197217323165 
1803	-0.540020385069909 
1804	-0.24813541695772 
1805	-0.339694725969344 
1806	-0.240804391604198 
1807	-0.541525701090556 
1808	-6.71319688330693 
1809	 113.651779671829 
1810	 4.3990846831416 
1811	 6.24613368931039 
1812	 0.732176521654785 
1813	 0.514030649794125 
1814	-4.88941261576281E-02 
1815	-2.41149151759244E-02 
1816	-0.091909183017988 
1817	-9.62316786635727 
1818	 0.516161745998731 
1819	 3.81272367719765 
1820	-21.2676597124157 
1821	-0.273938188687313 
1822	-0.252335652387882 
1823	-0.915071438017468 
1824	-1.65849817057509 
1825	 2.72868507661709 
1826	 1.97768440950631 
1827	-12.7690458600798 
1828	-2.33671868999602 
1829	-0.953982344451371 
1830	-0.988949490929597 
1831	-0.77213866422179 
1832	-0.6893422426831 
1833	 0.189249536153485 
1834	 0.307345370139255 
1835	 0.288722152973161 
1836	 0.164143531760852 
1837	-1.4959526922608 
1838	-1.89048368069833 
1839	-0.967129703683416 
1840	-0.643739493627749 
1841	-0.472393230014761 
1842	-0.199577927742485 
1843	-0.263867936081907 
1844	-2.87618614496624 
1845	-3.95022235435655 
1846	-0.124017333904109 
1847	 0.232445402137003 
1848	 0.346185747068896 
1849	 0.678101640906969 
1850	 0.731445519310767 
1851	 1.32332115168785 
1852	 8.65476269422677 
1853	-19.6212744812128 
1854	-6.62084157726106 
1855	-16.2015723666424 
1856	-14.4489082900507 
1857	-3.75223697956267 
1858	-1.93349154812278 
1859	-0.412042192909015 
1860	 0.334599458188426 
1861	-1.44353723518219 
1862	-1.05002257681747 
1863	-1.15254580960473 
1864	-0.421942765092643 
1865	-0.147774130099055 
1866	 0.298036181390078 
1867	 0.629136711341907 
1868	 0.765880988728745 
1869	 0.889373096555891 
1870	 1.21952843297652 
1871	 2.18300818439534 
1872	 4.0750955389041 
1873	-3.09266945365864 
1874	-6.10727204430778 
1875	-2.40863747280758 
1876	-1.58899426679786 
1877	-0.756820209004867 
1878	-0.639047329473235 
1879	-0.442627334034734 
1880	-0.648406401500355 
1881	-2.36585946855229 
1882	 21.1517650357626 
1883	 3.36709474934467 
1884	 2.27238108863921 
1885	 1.55394786437707 
1886	-2.29331195914222 
1887	-1.2683038237308 
1888	-0.51792817647297 
1889	-3.94923442020122 
1890	-1.12674296289966 
1891	-3.97771569615042 
1892	 113.267049067552 
1893	-2.45469090509906 
1894	-1.43160151485897 
1895	-0.547327011985843 
1896	 1.07351161839885 
1897	 3.68021148487611 
1898	-3.01615298019008 
1899	 9.32437567138239E-02 
1900	 0.519481656017677 
1901	 1.05038075428131 
1902	 1.07198362702284 
1903	 0.741390369483338 
1904	 0.435498017288755 
1905	 0.66195717658561 
1906	 0.64391016122175 
1907	-4.37412655160423 
1908	-0.787876058613466 
1909	 1.12642872568734 
1910	-0.180739194866965 
1911	-0.698582975085428 
1912	 5.33463018107151 
1913	 3.90476146815291 
1914	 6.33002548324478 
1915	 2.51940926264846 
1916	 0.544187913338629 
1917	 0.640486294980887 
1918	-0.363323322611968 
1919	-0.711860250706311 
1920	-1.1327948605637 
1921	-2.33468611710512 
1922	-0.78357627384697 
1923	-4.46872306175483E-02 
1924	 0.288087306761298 
1925	 0.877494767614651 
1926	 1.69263356753488 
1927	 5.86694269746152 
1928	 4518.4590688663 
1929	 5.86663270062907 
1930	 3.08121994752157 
1931	-3.51231991485462 
1932	-0.972621738041298 
1933	-1.263301777408 
1934	-1.27635754346339 
1935	-0.771804198503102 
1936	-0.250330758296573 
1937	 0.588056470983724 
1938	 2.04890414305692 
1939	 32.6786464197087 
1940	-1.74707674554576 
1941	-0.513369531394024 
1942	-0.302055582187859 
1943	-0.236351549896248 
1944	 8.08518008383174E-02 
1945	 0.163515129195686 
1946	-2.87965677539933E-02 
1947	 0.216722770942797 
1948	 0.396550685736905 
1949	 0.449371098657915 
1950	 0.996544679989238 
1951	-0.965624956871441 
1952	 0.480015260299046 
1953	 0.927158934251952 
1954	 0.738117519539922 
1955	 0.503801408993757 
1956	-0.524171327732279 
1957	 1.07945270353115 
1958	 0.934590571709023 
1959	 0.215254232514013 
1960	-0.202833335244794 
1961	-0.636590801370043 
1962	-0.286047838224206 
1963	-1.52456182651293 
1964	-1.11249688382754 
1965	-0.254908136842521 
1966	-0.133746871744989 
1967	-0.226049441564616 
1968	-0.155047462622546 
1969	-5.09803841685379E-02 
1970	 9.01431930874962E-04 
1971	-4.14558316257559E-02 
1972	-1.70618007941708E-02 
1973	 0.205702343245491 
1974	 0.161627526743814 
1975	 0.163287361676179 
1976	 0.248393228538315 
1977	 5.28622571736048E-02 
1978	 5.34917802088291E-03 
1979	 2.99847044865565E-03 
1980	 9.76062524948428E-03 
1981	-8.15369365840964E-03 
1982	 0.135927884173786 
1983	 0.197902964430525 
1984	 0.203611511186075 
1985	 0.181095484932002 
1986	 0.04579623570258 
1987	-5.85862235578364E-02 
1988	-1.12349549939812E-02 
1989	 0.044405216993926 
1990	 4.59243939840505E-02 
1991	 0.1566235332187 
1992	 0.136666558537801 
1993	-3.26863882169454E-02 
1994	-4.29580018436222E-02 
1995	 9.07409071277512E-02 
1996	 0.153126621028057 
1997	 1.02559451563357E-02 
1998	 2.30520947372667E-02 
1999	-8.65193691016469E-02 
2000	-0.336661421011767 
2001	-0.282811309874851 
2002	-0.194854709628285 
2003	-0.292612027454066 
2004	-0.231529915161181 
2005	-0.12474067445753 
2006	-0.238010709101209 
2007	-5.70998436593006E-02 
2008	 0.121962802322013 
2009	 0.231335293507926 
2010	 0.50504615294352 
2011	 0.625694670272464 
2012	 0.680342288721337 
2013	 0.564851499365134 
2014	 0.278277688461977 
2015	 0.147682889903154 
2016	 0.052847600069262 
2017	-9.78512672250243E-02 
2018	-0.124574628980198 
2019	-0.164123024006108 
2020	-8.86840912626644E-02 
2021	 5.97260146240087E-02 
2022	 7.91704404789564E-02 
2023	 0.142856053613305 
2024	 0.197694445492953 
2025	 0.19917820038091 
2026	 0.144979556812258 
2027	 0.108948997340034 
2028	 6.15421399418626E-02 
2029	-0.069174396118473 
2030	-9.07503867603886E-02 
2031	-5.89910451262798E-02 
2032	-5.27051241437311E-02 
2033	-2.32881423027264E-02 
2034	 3.86079823642429E-02 
2035	 5.25493184928768E-02 
2036	 5.98457182547769E-02 
2037	 7.60590322713841E-02 
2038	 0.030005796908623 
2039	 9.24413543275416E-03 
2040	 1.11076169699818E-02 
2041	 3.00028588619216E-03 
2042	-2.22196209089206E-02 
2043	-4.12739753172569E-02 
2044	-7.29751258880842E-02 
2045	-0.067168826736174 
2046	-0.060323248139582 
2047	-3.39585551824695E-02 
2048	 0.039506493736023 
2049	 7.35346129749954E-02 
2050	 0.101073959772325 
2051	 0.149076373740737 
2052	 0.144267620020817 
2053	 0.130338709678015 
2054	 0.143603941328145 
2055	 0.144150069937018 
2056	 0.12298514910931 
2057	 0.103540915774404 
2058	 7.88464035417562E-02 
2059	-2.95559983757262E-03 
2060	-2.30447706400709E-02 
2061	 1.06047224024491E-03 
2062	-3.47811697695108E-03 
2063	-3.22283931359727E-02 
2064	-2.27280813115367E-02 
2065	 9.09632409078646E-03 
2066	-1.39349145307085E-02 
2067	-3.07412550083691E-02 
2068	-7.91362535500068E-03 
2069	-2.47404026560253E-02 
2070	-5.72552407134534E-02 
2071	-1.93569172465972E-02 
2072	-1.03029493087111E-02 
2073	-1.59530826732355E-02 
2074	-4.26446279957654E-02 
2075	-2.53137276895871E-02 
2076	 9.89668832923663E-03 
2077	 3.98463577166574E-02 
2078	 0.105449069449924 
2079	 0.119102081287809 
2080	 0.117851333975494 
2081	 5.67501596651046E-02 
2082	 2.92612482701117E-02 
2083	 2.91377680447194E-02 
2084	 3.95485031723472E-02 
2085	 6.41318362167561E-02 
2086	 5.17123945277225E-02 
2087	 4.43579599784725E-02 
2088	 5.75846345534495E-02 
2089	 3.63905795838692E-02 
2090	 1.12790723099449E-02 
2091	 1.09970087437138E-02 
2092	 2.25334988942827E-03 
2093	-3.10706150273447E-02 
2094	-3.56571565310823E-02 
2095	-2.08159757616321E-02 
2096	-4.99133360693758E-03 
2097	 3.36944592067061E-02 
2098	 5.30412480391079E-02 
2099	 8.66477552879222E-02 
2100	 6.96110634469876E-02 
2101	 5.51795988761351E-02 
2102	 2.79455858394015E-02 
2103	-7.01129914668808E-03 
2104	-3.78407774211664E-02 
2105	-7.59203675897951E-02 
2106	-7.56650771107363E-02 
2107	-4.34540481193458E-02 
2108	-0.013803302464697 
2109	 7.53378062614362E-03 
2110	 1.67645521731059E-02 
2111	-3.07044609895012E-03 
2112	-1.17137033638338E-02 
2113	 6.98872887968211E-03 
2114	 7.65834734022779E-02 
2115	 7.78781106162544E-02 
2116	 7.58310356189667E-02 
2117	 5.10230858163942E-02 
2118	-5.98749716982935E-02 
2119	-9.46853393689159E-02 
2120	-9.73412587205767E-02 
2121	-9.88488166021994E-02 
2122	-6.44036770132718E-02 
2123	-4.24322753422979E-02 
2124	-4.55846476395547E-02 
2125	-4.66847865309962E-02 
2126	-3.22686917272576E-02 
2127	-2.17284605799058E-02 
2128	-1.74164381066192E-02 
2129	 3.08488189629758E-03 
2130	-4.00907226004902E-02 
2131	-8.63803444058824E-02 
2132	-8.20148937332513E-02 
2133	-0.09533599699839 
2134	-9.22399741486402E-02 
2135	-4.81145237799884E-02 
2136	-2.31281119036484E-02 
2137	-6.21230834966496E-03 
2138	 8.79738666987878E-03 
2139	 4.41392226104489E-02 
2140	 4.83498786839748E-02 
2141	 6.37001534155426E-03 
2142	-1.28530530559085E-03 
2143	 8.89269592535065E-04 
2144	 4.99856143505173E-03 
2145	-2.16154803370457E-03 
2146	-7.50842145275621E-03 
2147	-2.55981107550992E-02 
2148	-5.63047306309923E-02 
2149	-5.74357660361105E-02 
2150	-0.060006901955209 
2151	-5.08299410415325E-02 
2152	-0.022930753990772 
2153	-1.54409159398318E-02 
2154	 1.39206375224213E-02 
2155	 1.26204314379812E-02 
2156	 1.80258376720215E-03 
2157	-8.51647703310353E-03 
2158	-3.32358590732649E-02 
2159	-5.67465124306753E-02 
2160	-8.72089435079611E-02 
2161	-8.57827878677712E-02 
2162	-6.88666205175722E-02 
2163	-5.27743925868733E-02 
2164	-7.89400687590765E-03 
2165	 1.19339831034299E-02 
2166	 2.00919238594813E-02 
2167	 2.44783025029039E-02 
2168	 2.43814523023625E-02 
2169	 1.72050900145471E-02 
2170	-2.10904170561092E-02 
2171	-0.024314610370932 
2172	 2.44227046360903E-02 
2173	 0.04918029464347 
2174	 0.109524782397893 
2175	 0.181085104377825 
2176	 0.150265576914757 
2177	 0.144755479488274 
2178	 0.142338356420173 
2179	 0.116614769035363 
2180	 9.26968206821333E-02 
2181	 1.99070202795167E-02 
2182	-0.032480615689603 
2183	-0.049873011625671 
2184	-3.21216057037782E-02 
2185	-0.019341591552403 
2186	-2.48155247305822E-02 
2187	-6.79612363381347E-02 
2188	-6.58157983726386E-02 
2189	-3.75786846667775E-02 
2190	-2.64644371670205E-02 
2191	-3.20466135045004E-03 
2192	-2.1147145592573E-03 
2193	-3.46146865617814E-02 
2194	-3.91741283730686E-02 
2195	-4.54577044957247E-02 
2196	-1.35005176064533E-02 
2197	 7.26267840762874E-02 
2198	 0.105224313149955 
2199	 0.151784716365685 
2200	 0.157176868259894 
2201	 0.113486532660662 
2202	 7.41356642598247E-02 
2203	 3.92378496816325E-02 
2204	-1.11350252622103E-02 
2205	-9.38850039599256E-02 
2206	-9.51744486853819E-02 
2207	-0.102277206580442 
2208	-9.49844428416797E-02 
2209	 4.33956943157398E-02 
2210	 0.143668864470611 
2211	 0.183764786920177 
2212	 0.209887493682305 
2213	 0.185694576848081 
2214	 0.106908091592389 
2215	 2.80579922503765E-02 
2216	 1.49584576676987E-02 
2217	 1.57565900314074E-04 
2218	-1.64689411566384E-02 
2219	-2.01849153845085E-02 
2220	 1.64917441903237E-02 
2221	 2.69778948834802E-03 
2222	-5.15575320366425E-02 
2223	-7.22243358510208E-02 
2224	-0.11034296608295 
2225	-0.111002793257157 
2226	-7.08246445565691E-02 
2227	-2.98169459190279E-02 
2228	 6.49276032432441E-02 
2229	 9.54540169016061E-02 
2230	 0.107206267090769 
2231	 8.44189090183382E-02 
2232	-4.13625261669855E-02 
2233	-8.10933855135364E-02 
2234	-9.23803155835235E-02 
2235	-0.125045144798192 
2236	-5.60915288849858E-02 
2237	 6.72067921743612E-02 
2238	 6.63649439724794E-02 
2239	 0.101585543297814 
2240	 0.169451555848727 
2241	 0.158855760078453 
2242	 0.185722864939003 
2243	 0.236168648386909 
2244	 0.209564126454525 
2245	 0.211084998506427 
2246	 0.185472840311323 
2247	 0.126898486562488 
2248	 0.106633643970105 
2249	 4.59321009590753E-02 
2250	-5.42031722889707E-02 
2251	-5.62799069470883E-02 
2252	-6.77554747621111E-02 
2253	-0.155687753859876 
2254	-0.149097840222493 
2255	-8.17944911467601E-02 
2256	-7.55926158001695E-02 
2257	-8.36552262822077E-02 
2258	-1.03767846624319E-02 
2259	 2.99706801893932E-02 
2260	 7.96990904390528E-02 
2261	 0.177401705686845 
2262	 0.202041143382904 
2263	 0.196516586764459 
2264	 0.173460075593955 
2265	 7.89035134579804E-02 
2266	 3.57996479299351E-02 
2267	-0.039092933993777 
2268	-9.01703863265367E-02 
2269	-0.078015014750244 
2270	-9.92297237392577E-02 
2271	-0.129715540699938 
2272	-7.67017823298088E-02 
2273	 7.32466098679389E-04 
2274	 4.35105300706593E-04 
2275	 3.44407973594068E-02 
2276	 2.92196071679838E-04 
2277	-0.162279615599354 
2278	-0.176594337764797 
2279	-6.46771740839992E-02 
2280	-9.89933618106206E-02 
2281	-0.164946874915864 
2282	-0.231629227065241 
2283	-0.221081222966508 
2284	-0.198285899237596 
2285	-8.06788348584982E-02 
2286	 0.101779668605849 
2287	 5.75703446022339E-02 
2288	-1.11516879191462E-02 
2289	-1.48760819761889E-03 
2290	-3.45642383631072E-02 
2291	 9.11362389234051E-03 
2292	-4.96157891673517E-03 
2293	-7.57588825172946E-02 
2294	-9.35374198602662E-02 
2295	-0.046011280800288 
2296	-9.24149144826734E-03 
2297	-6.40974714754061E-02 
2298	-0.09516172004959 
2299	-0.180201620496095 
2300	-0.285013833720447 
2301	-0.242038293224923 
2302	-0.128799946817633 
2303	-1.23527247053279E-02 
2304	 0.10412158936587 
2305	 9.34573593930827E-02 
2306	 1.98811078902018E-02 
2307	-4.85050813607799E-02 
2308	-9.26792965664594E-02 
2309	 7.05249332871766E-02 
2310	 0.229958335584338 
2311	 0.2118105938522 
2312	 6.89978008389659E-02 
2313	-0.281688345614741 
2314	-0.405940980231955 
2315	-0.274813863825933 
2316	-0.194173497171688 
2317	-0.172797616210381 
2318	-0.233992076047869 
2319	-0.292316564913562 
2320	-0.23319878126523 
2321	-0.044069478514275 
2322	 0.189795763919745 
2323	 8.76531809366156E-02 
2324	-0.1737866590699 
2325	-0.336527679387763 
2326	-0.316336901296251 
2327	-0.21177457964957 
2328	-0.128929758195351 
2329	 5.27918052235398E-02 
2330	 2.92496521798662E-03 
2331	-0.102237256939569 
2332	-7.01457515959098E-02 
2333	-0.321155582260775 
2334	-0.471097976720668 
2335	-0.574943869781504 
2336	-0.672395965163243 
2337	-0.492757575558079 
2338	-0.487449150820431 
2339	-0.849970620543185 
2340	-5.03057065087916 
2341	-4.04193906865024 
2342	-5.2314580030267 
2343	-1.94482180040342 
2344	-0.774079530905406 
2345	-0.553319090528812 
2346	-0.434024890858765 
2347	-1.01434258845062 
2348	-1.78078674698665 
2349	-1.2495337646908 
2350	-1.11376780573572 
2351	-0.194130295220116 
2352	 0.113157739302781 
2353	-0.599427077669085 
2354	 0.254563847802201 
2355	 2.70150255473084 
2356	-2.05188331488317 
2357	-0.951632370512041 
2358	-1.15573807452145 
2359	-0.93650830093113 
2360	-0.888093631379354 
2361	-1.59119632638958 
2362	-1.68451149769145 
2363	-1.54925509109474 
2364	-1.03349806974981 
2365	-0.31843457973274 
2366	 4.66013386568528E-02 
2367	 0.405972430290727 
2368	 1.07251261837137 
2369	 1.12426623956916 
2370	 0.506301056728343 
2371	-0.228282613313953 
2372	-0.181592555316724 
2373	-8.15150386735685E-02 
2374	 4.94104597979926E-02 
2375	-0.357428981372822 
2376	-0.192498151519226 
2377	 0.107210614729766 
2378	 0.562052837217064 
2379	 1.00500268961928 
2380	-2.11229850402069 
2381	-1.74745403046671 
2382	 1.01764320671485 
2383	 22.6502850451769 
2384	-1.53001141786058 
2385	-1.21090737653886 
2386	-0.925586101429734 
2387	-0.278915926705738 
2388	 4.37512480607679E-02 
2389	 0.110043554598835 
2390	 1.14324060095172 
2391	-0.542865428541978 
2392	 1.73007614371283 
2393	 0.624684834982783 
2394	 0.767726504386642 
2395	-3.04011316216953E-02 
2396	-0.9649783012677 
2397	-10.9548915062726 
2398	-30.9434770551209 
2399	-133.136046056733 
2400	-1.49443621960057 
2401	 0.143775701355792 
2402	 0.058058087506369 
2403	-0.132611946010857 
2404	-1.52237969617124 
2405	-0.150239567841574 
2406	 2.62573463436091 
2407	 1.26082230545075 
2408	 1.39723404846785 
2409	 1.14577605682072 
2410	 1.02896530239598 
2411	 1.70900442773614 
2412	 1.99383350021718 
2413	 2.96413328702512 
2414	 7.71302157462474 
2415	 2.02294765376963 
2416	 0.566356773620142 
2417	 0.707494410244383 
2418	 0.868253507376415 
2419	 0.81172334198218 
2420	 1.33220496223843 
2421	 2.06094561196763 
2422	 2.1922758929 
2423	 2.15531116284533 
2424	 1.65373966059579 
2425	-8.80520763433054 
2426	-19.4445130513209 
2427	 5.06129880445091 
2428	 15.6788496731731 
2429	-1.54461977482004 
2430	-0.589595406272115 
2431	-5.02895167351314E-02 
2432	 0.436633810756532 
2433	 2.55871380655102 
2434	-8.84977737959333 
2435	-1.15837406184769 
2436	-0.668656594173235 
2437	-0.680014959016437 
2438	-15.2208197711904 
2439	-10.0353981797773 
2440	-9.06959713421843 
2441	-9.27548172782237 
2442	-4.41305420889065 
2443	 47.1237087316073 
2444	 5.13333882257768 
2445	 2.54860816913821 
2446	 1.81455543577777 
2447	 2.00539211650601 
2448	 2.10109275255635 
2449	 26.0493733822363 
2450	-11.5929925877036 
2451	 5.62473109302342 
2452	 12.7957209078432 
2453	 1.95262914622075 
2454	 1.82515617705041 
2455	 1.95190069489317 
2456	 2.66803354206489 
2457	-13.2476737371319 
2458	-1.97075241331355 
2459	-1.09697623717476 
2460	-0.94404853217349 
2461	-2.0335710695362 
2462	-7.29366312834726 
2463	-4.22324455566096 
2464	-3.8558625298181 
2465	-2.11820011795459 
2466	-2.48909195052839 
2467	-6.91539963936746 
2468	 7.61317898323905 
2469	 0.827715837016573 
2470	 0.261100921598331 
2471	-5.84044048779775E-02 
2472	 0.210118901003459 
2473	-6.00303818634825E-02 
2474	-1.06421134303249 
2475	-0.425798010139125 
2476	-0.256208985053934 
2477	-0.556826227576402 
2478	-1.11633211010618 
2479	-28.3884510384783 
2480	 1.51668397894422 
2481	 0.325873535578452 
2482	-0.824317495893646 
2483	-1.26673720134468 
2484	-0.507269535826594 
2485	-0.976988079077813 
2486	 12.5550004494395 
2487	 1.56681633035171 
2488	 1.0368514876213 
2489	 0.981647885502824 
2490	-0.466081546987498 
2491	 0.260263668225104 
2492	 0.362289436802398 
2493	 0.454864347908984 
2494	 0.222347413512331 
2495	 1.98527468891665E-02 
2496	-0.294875181255177 
2497	-0.615419488165092 
2498	-0.915496243803297 
2499	 0.610004275790623 
2500	-0.412796314413092 
