Wavelength	rt0802close00007.asd
350	 0.026285550326372 
351	 2.42439477109764E-02 
352	 2.46036949170357E-02 
353	 2.57444188191082E-02 
354	 0.02607570962552 
355	 0.026518744781486 
356	 2.64715864505623E-02 
357	 2.61551179904382E-02 
358	 2.59033796960966E-02 
359	 2.51270365926075E-02 
360	 2.60801047620151E-02 
361	 2.78433485882327E-02 
362	 2.76233972515852E-02 
363	 0.027525870382791 
364	 2.72478821673893E-02 
365	 2.68292337962354E-02 
366	 2.72678729497619E-02 
367	 2.78839675104774E-02 
368	 0.0279305953894 
369	 2.71257778510694E-02 
370	 2.66628511031357E-02 
371	 2.74713681495511E-02 
372	 0.028162565593257 
373	 2.67387893038208E-02 
374	 2.87734209465499E-02 
375	 3.07189784263012E-02 
376	 0.030319807570431 
377	 2.85569554710755E-02 
378	 2.90256752944461E-02 
379	 3.02192274850141E-02 
380	 3.00844215683952E-02 
381	 2.90026540346467E-02 
382	 3.02580956772009E-02 
383	 3.26041824262377E-02 
384	 3.27908630983768E-02 
385	 3.11852421838277E-02 
386	 3.16618512521432E-02 
387	 3.37008697511758E-02 
388	 0.031905824828071 
389	 3.30426654596763E-02 
390	 3.40106461783209E-02 
391	 0.032498746473906 
392	 3.28672350389882E-02 
393	 0.033297718709324 
394	 3.40684399472989E-02 
395	 3.55785437809538E-02 
396	 3.48997802214623E-02 
397	 3.40051165112538E-02 
398	 3.39617229649136E-02 
399	 3.47036142351137E-02 
400	 3.52504188717552E-02 
401	 3.56009058618152E-02 
402	 3.59344533049966E-02 
403	 3.64619285498992E-02 
404	 3.64052751184319E-02 
405	 3.61164963685682E-02 
406	 3.62930626499203E-02 
407	 3.69568760106261E-02 
408	 3.69634756784668E-02 
409	 3.65451954817342E-02 
410	 3.72615425417766E-02 
411	 3.83230453329103E-02 
412	 3.88132834077918E-02 
413	 3.84371972476147E-02 
414	 0.038254563719023 
415	 3.88336339017924E-02 
416	 3.97027721838988E-02 
417	 4.00112378250272E-02 
418	 3.97648169997937E-02 
419	 3.95403448402611E-02 
420	 3.98372380085827E-02 
421	 4.09604721252714E-02 
422	 4.10911438711275E-02 
423	 4.11327132086787E-02 
424	 4.19404574983616E-02 
425	 4.26129405707128E-02 
426	 4.26185626098485E-02 
427	 4.27779413380414E-02 
428	 4.41323793291591E-02 
429	 4.40187675008936E-02 
430	 4.40359436558777E-02 
431	 4.47133385803153E-02 
432	 4.48547197401039E-02 
433	 4.54902010330985E-02 
434	 4.60105315050405E-02 
435	 4.59465919350785E-02 
436	 4.62683454167492E-02 
437	 4.69216119642934E-02 
438	 4.75040354480181E-02 
439	 4.75579163440961E-02 
440	 4.80188351027695E-02 
441	 4.86727308283957E-02 
442	 4.92254365213593E-02 
443	 4.94431930947721E-02 
444	 5.04736861891545E-02 
445	 5.11487667777469E-02 
446	 5.05416294787319E-02 
447	 5.12331247285681E-02 
448	 5.19047675207989E-02 
449	 5.22594319976487E-02 
450	 5.27818597549403E-02 
451	 5.30851636239112E-02 
452	 5.32199927938767E-02 
453	 5.34671314243143E-02 
454	 5.45461056292314E-02 
455	 5.47005271395722E-02 
456	 5.44827912064079E-02 
457	 5.49621536645555E-02 
458	 5.48902895934906E-02 
459	 5.50501771289698E-02 
460	 5.56062009034682E-02 
461	 0.055993150277255 
462	 5.58128037936544E-02 
463	 5.57505666560546E-02 
464	 5.62700225861628E-02 
465	 5.66123477289376E-02 
466	 5.67820159686941E-02 
467	 5.68209130561402E-02 
468	 5.68918203856448E-02 
469	 0.057689334819794 
470	 5.80163857808259E-02 
471	 5.77609378215256E-02 
472	 5.84783683607761E-02 
473	 5.87806011810532E-02 
474	 5.88572499097462E-02 
475	 5.91243925801981E-02 
476	 5.92391521339236E-02 
477	 5.94764705672536E-02 
478	 6.00023273316786E-02 
479	 6.08072688633126E-02 
480	 6.08994011164137E-02 
481	 6.11471267273186E-02 
482	 0.061845040512265 
483	 6.15309992374044E-02 
484	 0.061910472502043 
485	 6.26919887711112E-02 
486	 6.30211793492731E-02 
487	 6.34007790629317E-02 
488	 0.063817526540337 
489	 6.42929205864105E-02 
490	 6.48898909810946E-02 
491	 6.53113401897993E-02 
492	 6.55564472092094E-02 
493	 6.58330323492229E-02 
494	 6.67774331976112E-02 
495	 6.76580714800805E-02 
496	 6.82243612835135E-02 
497	 6.85735789979723E-02 
498	 6.94232297765023E-02 
499	 6.99842623380108E-02 
500	 0.070087913613015 
501	 7.07705054348784E-02 
502	 7.12808011632791E-02 
503	 7.18210638587578E-02 
504	 7.27232899814621E-02 
505	 7.37798932289618E-02 
506	 7.42697857859811E-02 
507	 7.45894542281616E-02 
508	 7.58928990114001E-02 
509	 7.67591258190451E-02 
510	 7.70445498527297E-02 
511	 7.71704006545244E-02 
512	 7.84126051561836E-02 
513	 7.93860457912946E-02 
514	 7.99920139706116E-02 
515	 8.06798651286641E-02 
516	 8.15546867163729E-02 
517	 8.20982727507347E-02 
518	 8.25173487939353E-02 
519	 8.39445888520466E-02 
520	 8.50574792067009E-02 
521	 8.58077931603217E-02 
522	 0.086442537933918 
523	 8.69824779998932E-02 
524	 8.80869311596852E-02 
525	 8.94504094012138E-02 
526	 9.01398545065927E-02 
527	 0.090396690568096 
528	 0.091194830060991 
529	 9.27561239665264E-02 
530	 9.37119115657111E-02 
531	 9.42647968110031E-02 
532	 0.095032819159086 
533	 9.64979950852489E-02 
534	 9.70636846838242E-02 
535	 9.77879830012207E-02 
536	 9.89772956501871E-02 
537	 9.98958790238841E-02 
538	 0.100872404658923 
539	 0.101789488594539 
540	 0.102582668572261 
541	 0.103707794399192 
542	 0.104692035595562 
543	 0.105461596277924 
544	 0.106219700710295 
545	 0.107152300700106 
546	 0.108198481286949 
547	 0.109281069277165 
548	 0.110392540389933 
549	 0.111275838562907 
550	 0.112071638040477 
551	 0.113028041456031 
552	 0.114053961674926 
553	 0.115031682638698 
554	 0.115975058169981 
555	 0.117036577079243 
556	 0.118027825067045 
557	 0.118633313517018 
558	 0.118922927033044 
559	 0.12037128577245 
560	 0.121238268595668 
561	 0.121686140200459 
562	 0.122936754492348 
563	 0.123623634781221 
564	 0.124189167838056 
565	 0.12489944886737 
566	 0.125183130672568 
567	 0.125619847445047 
568	 0.126363292768275 
569	 0.127273940512453 
570	 0.12763687518772 
571	 0.127947718410169 
572	 0.128403197145326 
573	 0.128788167980327 
574	 0.129199375644951 
575	 0.129633800331352 
576	 0.130036957489078 
577	 0.130257650101981 
578	 0.130569162349814 
579	 0.130932232006778 
580	 0.131119986706034 
581	 0.131156764642828 
582	 0.130970850321331 
583	 0.13068621479008 
584	 0.13086095901752 
585	 0.130329083376518 
586	 0.129575710150528 
587	 0.129484580830141 
588	 0.129010631819944 
589	 0.128300499707065 
590	 0.127883728234794 
591	 0.128381374924959 
592	 0.128074959237746 
593	 0.127237385699862 
594	 0.126459163884514 
595	 0.12597748450944 
596	 0.125082823647255 
597	 0.124018950585033 
598	 0.123488414776982 
599	 0.123103976605457 
600	 0.122360676252795 
601	 0.121387786464613 
602	 0.12140481477248 
603	 0.121135384733291 
604	 0.120600482283332 
605	 0.120227467749774 
606	 0.120204219754192 
607	 0.120523215282504 
608	 0.120897053500863 
609	 0.120796042984759 
610	 0.120841987977525 
611	 0.120858523079593 
612	 0.120680726717457 
613	 0.120673697972326 
614	 0.120734602177062 
615	 0.120829702407869 
616	 0.12095583558396 
617	 0.121136919743278 
618	 0.121126053973811 
619	 0.120870528878555 
620	 0.120650401854861 
621	 0.12058810109512 
622	 0.120576309451852 
623	 0.120488173386555 
624	 0.120645848900931 
625	 0.120235212314991 
626	 0.119524244460562 
627	 0.119817880854555 
628	 0.120243426772817 
629	 0.120318532678604 
630	 0.119974015050576 
631	 0.119930846348997 
632	 0.119927343196681 
633	 0.119976142739583 
634	 0.120165557843427 
635	 0.120285928045435 
636	 0.120060110010325 
637	 0.119634705173691 
638	 0.119742211496385 
639	 0.120110658930926 
640	 0.120146514525677 
641	 0.119514376435762 
642	 0.119319087330667 
643	 0.119083745425977 
644	 0.118578047831065 
645	 0.117830408873427 
646	 0.117474376406311 
647	 0.11725629565326 
648	 0.116976547309246 
649	 0.11703257430813 
650	 0.117157640041728 
651	 0.116854170458289 
652	 0.115836765145046 
653	 0.11567624968088 
654	 0.115049151248176 
655	 0.113793836874805 
656	 0.113732917249947 
657	 0.113103026903532 
658	 0.112365568058121 
659	 0.11203410168427 
660	 0.111517679122503 
661	 0.111018129687859 
662	 0.11064717874046 
663	 0.110434251294587 
664	 0.110000203056062 
665	 0.109663785437171 
666	 0.109596206784134 
667	 0.109561597252533 
668	 0.109718274322999 
669	 0.109340883847586 
670	 0.107971882219865 
671	 0.10783492591424 
672	 0.10800703400619 
673	 0.108150239014398 
674	 0.108574378425053 
675	 0.108416536928709 
676	 0.10817033027836 
677	 0.10825592472189 
678	 0.108240726876089 
679	 0.108111353825591 
680	 0.10802194307996 
681	 0.108159109477366 
682	 0.108239945812951 
683	 0.108455154890104 
684	 0.108783611751355 
685	 0.108891498056529 
686	 0.108639888123346 
687	 0.108191213164357 
688	 0.107923683156812 
689	 0.108195678114904 
690	 0.108026535326796 
691	 0.10740013674267 
692	 0.106874775389618 
693	 0.106179151015015 
694	 0.105442919637002 
695	 0.104973034362059 
696	 0.105226159806044 
697	 0.104142937940208 
698	 0.102315068337653 
699	 0.101136625101088 
700	 0.100135096999493 
701	 9.94564701696665E-02 
702	 9.88059520023405E-02 
703	 0.09759101622398 
704	 9.60253047398528E-02 
705	 9.43607211361211E-02 
706	 0.092896644092413 
707	 9.17995866732071E-02 
708	 9.05159759510782E-02 
709	 8.88294782082232E-02 
710	 8.67675084830889E-02 
711	 8.47251225337083E-02 
712	 8.23622038149971E-02 
713	 7.98442633794564E-02 
714	 7.78425478326414E-02 
715	 7.53684754837303E-02 
716	 7.18595479200042E-02 
717	 6.78407292384431E-02 
718	 6.57791577210317E-02 
719	 6.34368869273898E-02 
720	 6.15839869932457E-02 
721	 6.07546356760776E-02 
722	 5.89997097923319E-02 
723	 5.54591216405555E-02 
724	 5.15176483223692E-02 
725	 5.05683556817563E-02 
726	 4.85037868261321E-02 
727	 4.61078884008187E-02 
728	 4.42891528740312E-02 
729	 4.11304469905849E-02 
730	 3.80181337414045E-02 
731	 3.60492390298574E-02 
732	 3.51244261950151E-02 
733	 0.033585986222635 
734	 3.16020227391505E-02 
735	 2.98514201666754E-02 
736	 2.95802289760249E-02 
737	 2.90006397373303E-02 
738	 2.83588710962541E-02 
739	 2.80870659813568E-02 
740	 2.77101339636382E-02 
741	 2.76188303322567E-02 
742	 2.76609972473617E-02 
743	 2.74970183749667E-02 
744	 2.75923192373513E-02 
745	 2.76244500210611E-02 
746	 2.74573827492697E-02 
747	 2.72949450879999E-02 
748	 2.72705809004731E-02 
749	 2.73862268757498E-02 
750	 2.74849097972264E-02 
751	 2.70071204424219E-02 
752	 2.68945589840989E-02 
753	 2.70286161349859E-02 
754	 2.68404050171028E-02 
755	 2.73895062044132E-02 
756	 2.76535375156092E-02 
757	 2.72743696461017E-02 
758	 2.70307860518225E-02 
759	 2.62394466613314E-02 
760	 2.53310711692527E-02 
761	 2.56223571737138E-02 
762	 0.024941827223418 
763	 2.61652034499195E-02 
764	 2.76238561019286E-02 
765	 2.74662129286089E-02 
766	 2.76448393132749E-02 
767	 2.75991923343288E-02 
768	 0.027449112371989 
769	 2.79647982699625E-02 
770	 2.86940064644745E-02 
771	 2.91447294153676E-02 
772	 2.91042340672454E-02 
773	 2.90842384038858E-02 
774	 2.90291976056679E-02 
775	 2.91791669576744E-02 
776	 2.97277915876139E-02 
777	 2.99211223391476E-02 
778	 3.01355930925313E-02 
779	 3.05604263265902E-02 
780	 3.10977756723528E-02 
781	 3.15216097905935E-02 
782	 3.16116909411662E-02 
783	 3.14526289568785E-02 
784	 3.18037266532346E-02 
785	 3.20789537416674E-02 
786	 0.032217203672927 
787	 3.24016013266393E-02 
788	 0.03299610807337 
789	 3.36521168490358E-02 
790	 3.44292296830131E-02 
791	 3.55728313751752E-02 
792	 3.51024423483117E-02 
793	 3.45945320422933E-02 
794	 3.51300111991206E-02 
795	 3.63250193045699E-02 
796	 3.64458108978436E-02 
797	 3.62648422086176E-02 
798	 3.68005482044049E-02 
799	 3.69674635084293E-02 
800	 3.78246979289413E-02 
801	 3.88118593428376E-02 
802	 3.86596022114331E-02 
803	 3.83998722604032E-02 
804	 3.84436594213151E-02 
805	 3.87216939918776E-02 
806	 3.87483897937685E-02 
807	 3.82691556578316E-02 
808	 0.038027731187238 
809	 3.83628304816583E-02 
810	 3.77926651413982E-02 
811	 3.70639480165993E-02 
812	 0.036927254987535 
813	 3.75610459143336E-02 
814	 3.44542502668651E-02 
815	 3.38543303943439E-02 
816	 3.56084025222214E-02 
817	 3.39902182160872E-02 
818	 3.40962713453691E-02 
819	 3.38419417750586E-02 
820	 3.24369664930679E-02 
821	 3.11199484349196E-02 
822	 3.05087642894258E-02 
823	 0.03041377021958 
824	 2.99235976829159E-02 
825	 2.71806796957268E-02 
826	 2.55409857415422E-02 
827	 2.45901098459335E-02 
828	 2.28533610620225E-02 
829	 2.13740447228302E-02 
830	 0.020905163795038 
831	 2.02116995457271E-02 
832	 1.74701581852048E-02 
833	 1.80618461644833E-02 
834	 1.85933197198562E-02 
835	 1.77622717659434E-02 
836	 1.79416517575397E-02 
837	 0.017791425938111 
838	 1.70292887701933E-02 
839	 1.60696126848197E-02 
840	 1.64898022958915E-02 
841	 1.71342628997923E-02 
842	 1.69995078282419E-02 
843	 1.57244900054873E-02 
844	 1.52938158950322E-02 
845	 1.56809034958774E-02 
846	 0.016014854013929 
847	 1.52357906792447E-02 
848	 0.015564841467451 
849	 1.62595128783332E-02 
850	 1.61894433623772E-02 
851	 1.44121349850887E-02 
852	 0.014425250205508 
853	 1.52609337974287E-02 
854	 1.55165333750488E-02 
855	 1.51288917840727E-02 
856	 1.50424843532652E-02 
857	 1.46498637618055E-02 
858	 1.35232693053665E-02 
859	 1.33795655875289E-02 
860	 1.40446386030443E-02 
861	 1.44161425263634E-02 
862	 1.34719820828458E-02 
863	 1.36595597841411E-02 
864	 1.35063704525186E-02 
865	 1.31254297652109E-02 
866	 1.40615307349988E-02 
867	 1.48736688935208E-02 
868	 1.45877023814179E-02 
869	 1.34364031924803E-02 
870	 1.29999901488758E-02 
871	 0.013088558391625 
872	 1.29903426675234E-02 
873	 1.23917199150238E-02 
874	 1.20908516141805E-02 
875	 1.36010959946284E-02 
876	 1.44028359851595E-02 
877	 0.012367326199947 
878	 1.13459341797149E-02 
879	 1.20498478059414E-02 
880	 1.29893288745629E-02 
881	 1.21876079240768E-02 
882	 1.17430695134835E-02 
883	 1.13411844736573E-02 
884	 1.08766005112915E-02 
885	 1.06014835106928E-02 
886	 1.17727799491173E-02 
887	 1.20389319990605E-02 
888	 1.11824161893844E-02 
889	 1.16813386909854E-02 
890	 1.07231582707408E-02 
891	 1.03059107540242E-02 
892	 1.13995066362831E-02 
893	 1.09005850795644E-02 
894	 7.23445815770633E-03 
895	 6.34942228715333E-03 
896	 1.24477815953075E-02 
897	 1.23185326319454E-02 
898	 9.52650078848707E-03 
899	 7.76742386253984E-03 
900	 9.06087137794643E-03 
901	 1.00975299063365E-02 
902	 8.65887312424127E-03 
903	 6.96823346376871E-03 
904	 8.05600367272513E-03 
905	 0.010782741237995 
906	 1.07798817239877E-02 
907	 8.60256141010078E-03 
908	 8.34514142732613E-03 
909	 5.00380115938511E-03 
910	 6.96421771882021E-03 
911	 1.02833344263329E-02 
912	 2.05572639427871E-03 
913	 9.20589539799063E-03 
914	 1.18898938908474E-02 
915	 5.15776123859614E-03 
916	 6.65714772967483E-03 
917	 8.91153211486086E-03 
918	 7.73611715142306E-03 
919	 5.03372328681025E-03 
920	 8.77321745355128E-03 
921	 8.7262279419843E-03 
922	 5.02361383865414E-03 
923	 2.20383070118678E-03 
924	 1.07831765046098E-02 
925	 1.42252198059088E-02 
926	 9.27061450851297E-03 
927	 1.10471863635216E-03 
928	 1.00820386358013E-02 
929	 1.44896946007994E-02 
930	 1.81036397296041E-02 
931	 3.39657299407103E-02 
932	-2.18315977686695E-02 
933	-4.54772111752109E-02 
934	 9.08198302953903E-03 
935	 0.04789096916674 
936	-3.19554144468784E-02 
937	-4.44903386821367E-02 
938	-9.96900896455029E-03 
939	-3.61763695712496E-03 
940	 3.79365553195863E-03 
941	-7.45498186646454E-03 
942	-0.015279625025943 
943	 1.05280420088457E-02 
944	-7.13076732723641E-03 
945	-4.7774786904953E-03 
946	 2.03657867185601E-02 
947	 2.38729972244313E-02 
948	-9.89693267083833E-03 
949	 8.58956403516467E-04 
950	 3.25669689971786E-02 
951	 1.97495509820358E-02 
952	 2.62525665601211E-02 
953	 1.52040590367395E-02 
954	-1.27401051325931E-02 
955	-2.33915774078377E-02 
956	 1.47313228624491E-02 
957	-4.76317797515602E-03 
958	-4.54206150575039E-02 
959	 1.03239172515147E-03 
960	 4.65162144954358E-03 
961	-1.50975973782124E-02 
962	-2.46441476903819E-02 
963	-2.43498049891567E-03 
964	 7.33361696894942E-03 
965	 8.0549193239047E-03 
966	 7.13874776392025E-04 
967	-1.27233651861838E-02 
968	 4.80507791870803E-03 
969	 1.21752671186591E-02 
970	 3.52548028197591E-03 
971	 4.26294174152608E-03 
972	 1.05657979690645E-02 
973	 1.05520224277991E-02 
974	 6.08439348789228E-03 
975	 1.07947781402701E-02 
976	 7.25062405699194E-03 
977	 9.83990201603892E-03 
978	 1.19358693638227E-02 
979	-0.004104682155068 
980	 7.62129187107921E-03 
981	 1.14307226631406E-02 
982	 2.5577281234366E-03 
983	 2.30755635077384E-03 
984	-9.72997288563923E-04 
985	 3.08089564232415E-03 
986	 7.79096980655691E-03 
987	-1.30130190343376E-03 
988	 9.92796563677041E-04 
989	 5.57601021343631E-03 
990	 9.63303683555678E-03 
991	 1.41396008788775E-02 
992	-3.97859063887517E-03 
993	-1.10055203166651E-02 
994	 2.11963526047541E-03 
995	 1.78115049984517E-02 
996	 4.7780969697472E-03 
997	 3.81530729881021E-05 
998	 4.49869104864327E-03 
999	-9.78149665232951E-04 
1000	 1.34259989472885E-02 
1001	 2.18809048589184E-02 
1002	 2.01108846563529E-02 
1003	 1.92396206830422E-02 
1004	 1.95826485016295E-02 
1005	 0.018465896232562 
1006	 1.65910278884653E-02 
1007	 1.44609063411499E-02 
1008	 1.17436763417826E-02 
1009	 1.13639693085225E-02 
1010	 1.06952430323912E-02 
1011	 8.60991676689103E-03 
1012	 7.77002333339104E-03 
1013	 6.15995568601564E-03 
1014	 4.95121995993056E-03 
1015	 3.33293768702035E-03 
1016	 3.7600644711875E-03 
1017	 5.42668522935691E-03 
1018	 6.53872291797194E-03 
1019	 8.2763554610086E-03 
1020	 1.12308627486309E-02 
1021	 1.64749169539038E-02 
1022	 0.017716458588355 
1023	 1.75420557758983E-02 
1024	 1.69050041765085E-02 
1025	 1.30703248418016E-02 
1026	 9.51635237954765E-03 
1027	 7.43640933572038E-03 
1028	 7.4826425295381E-03 
1029	 5.64165668934923E-03 
1030	 2.48285276975086E-03 
1031	 1.35580276600192E-03 
1032	 7.62296686862671E-04 
1033	 1.03019734509688E-03 
1034	 3.40702492276091E-03 
1035	 4.17856839534383E-03 
1036	 4.59551543193801E-03 
1037	 4.89870115564037E-03 
1038	 4.17899144033268E-03 
1039	 3.51936218237881E-03 
1040	 7.2451606141555E-03 
1041	 1.02286310496849E-02 
1042	 9.80479952699662E-03 
1043	 8.49831054362532E-03 
1044	 8.17055024657771E-03 
1045	 3.46703321807135E-03 
1046	 4.07230804597121E-03 
1047	 0.011249036340165 
1048	 1.25062694522181E-02 
1049	 1.16030315740779E-02 
1050	 1.14054184897936E-02 
1051	 7.5695003146351E-03 
1052	 7.22383286454601E-03 
1053	 1.01903500374513E-02 
1054	 1.19096021587701E-02 
1055	 1.77501736903579E-02 
1056	 1.80134903293947E-02 
1057	 1.55187410416547E-02 
1058	 8.05841884524755E-03 
1059	 6.94445794318372E-03 
1060	 3.61465583407388E-03 
1061	 4.34512527388325E-03 
1062	 1.38872715928784E-02 
1063	 1.46831901589633E-02 
1064	 1.00576773642555E-02 
1065	 9.60028747165615E-03 
1066	 7.1177388821572E-03 
1067	 7.27206085532184E-03 
1068	 1.47462251850534E-02 
1069	 1.53000411822901E-02 
1070	 1.11718879082446E-02 
1071	 8.98376585099644E-03 
1072	 3.8012863324728E-03 
1073	-1.81971077322396E-03 
1074	-1.40599009236543E-03 
1075	 4.50695749300793E-03 
1076	 6.59231542703353E-03 
1077	 1.21570659766198E-02 
1078	 1.23114978651915E-02 
1079	 5.59451060317681E-03 
1080	 6.08804253340393E-03 
1081	 8.50697623740932E-03 
1082	 1.01833234312379E-02 
1083	 1.97104442037415E-02 
1084	 2.03744588586942E-02 
1085	 9.86685653694657E-03 
1086	 7.93113149644375E-03 
1087	 7.16563653680656E-03 
1088	 5.93542366293335E-03 
1089	 9.38768197283494E-03 
1090	 1.51554822502347E-02 
1091	 1.49368213245555E-02 
1092	 8.17739816495401E-03 
1093	 6.80739081478178E-03 
1094	 5.66794376202017E-03 
1095	 5.87123223503127E-03 
1096	 8.21061815106146E-03 
1097	 1.05220262984449E-02 
1098	 1.59979733770252E-02 
1099	 1.56839002448983E-02 
1100	 1.31544028395438E-02 
1101	 0.012090904851356 
1102	 9.66667366687433E-04 
1103	-1.76735518741921E-04 
1104	 0.01324587884065 
1105	 1.62029682366899E-02 
1106	 1.06898503605135E-02 
1107	 1.67648398275249E-02 
1108	 1.09510198629057E-02 
1109	-3.73513862949324E-03 
1110	-5.40841217310191E-03 
1111	 9.62770135766548E-03 
1112	 1.04068368223999E-02 
1113	 8.52760188589921E-03 
1114	 9.31587030422173E-03 
1115	 1.31448246418795E-03 
1116	-7.04534878721559E-04 
1117	 1.02420539193127E-02 
1118	 1.97198243978531E-02 
1119	 2.09242955415498E-02 
1120	 2.69083289851736E-02 
1121	 1.81994221283469E-02 
1122	 0.133780914689457 
1123	 0.158542516148911 
1124	 7.25762748159403E-03 
1125	-1.73508346170356E-03 
1126	-0.218074594118586 
1127	-0.392406397097579 
1128	-0.1473091190942 
1129	-0.042957562759626 
1130	 5.78844787510858E-02 
1131	 0.10606271421029 
1132	 0.220299160159932 
1133	 0.149254317735446 
1134	-5.65523843287331E-02 
1135	-3.96441386607166E-02 
1136	 2.52561193389412E-02 
1137	 2.68382486145514E-02 
1138	 0.104714860030437 
1139	 8.45286866142864E-02 
1140	-3.34510148366245E-02 
1141	-3.84007682067686E-02 
1142	 0.022343231370052 
1143	 0.126352168391135 
1144	 0.133116091117825 
1145	 7.42147653331491E-02 
1146	 7.46730867669936E-02 
1147	 4.87839561740311E-02 
1148	 6.25345244117416E-02 
1149	 0.133050970261716 
1150	 0.11894174220441 
1151	 4.28049081789146E-03 
1152	 5.28596569460074E-05 
1153	 2.64005773635082E-02 
1154	 3.03794207317521E-02 
1155	 4.97190904963731E-02 
1156	 0.05363587708879 
1157	 0.037313259804215 
1158	 0.022011608509999 
1159	 9.41532842212072E-03 
1160	 9.98938924094623E-03 
1161	 1.59968741062458E-02 
1162	 1.81181046173979E-02 
1163	 2.33265940126246E-02 
1164	 2.55338469407891E-02 
1165	 1.61910615893707E-02 
1166	 8.7798837822107E-03 
1167	 7.2948236620676E-03 
1168	 6.35047307957138E-03 
1169	 1.45463626619308E-02 
1170	 1.74680643234422E-02 
1171	 0.015228872016686 
1172	 6.57179187695511E-03 
1173	 6.31512191340834E-03 
1174	 5.33287847170625E-03 
1175	 3.62614886280748E-03 
1176	 8.74872154363354E-03 
1177	 7.42851185060975E-03 
1178	 2.98339838176179E-03 
1179	 7.27924021276372E-03 
1180	 1.11377246790524E-02 
1181	 1.09586842754874E-02 
1182	 1.31738123951598E-02 
1183	 1.32226197979755E-02 
1184	 1.03067512183111E-02 
1185	 1.04922985724223E-02 
1186	 9.98102537264227E-03 
1187	 5.91860618961704E-03 
1188	 6.28816695145476E-03 
1189	 8.5651102183129E-03 
1190	 6.95915758888178E-03 
1191	 8.22287617951785E-03 
1192	 9.25333899407727E-03 
1193	 1.11037277613298E-02 
1194	 9.40342445952806E-03 
1195	 7.48073515177733E-03 
1196	 7.90648569457422E-03 
1197	 6.88737148501732E-03 
1198	 5.22885844898472E-03 
1199	 8.14478157042193E-03 
1200	 1.22227021933632E-02 
1201	 1.29412282486546E-02 
1202	 1.13291984687682E-02 
1203	 9.93066881477062E-03 
1204	 7.69449056956248E-03 
1205	 6.24544115343066E-03 
1206	 8.30192408081633E-03 
1207	 0.010529870347822 
1208	 0.008033189585103 
1209	 2.71338224969749E-03 
1210	 9.67206947035443E-04 
1211	 3.4516498669312E-03 
1212	 3.68265208703037E-03 
1213	 3.81283290727658E-03 
1214	 5.32585373800566E-03 
1215	 7.55775454567837E-03 
1216	 6.44886739802742E-03 
1217	 5.02124784406498E-03 
1218	 5.77600025982204E-03 
1219	 6.9524588501425E-03 
1220	 5.19393603284675E-03 
1221	 5.40413621539079E-03 
1222	 6.97826122080114E-03 
1223	 4.78953238388183E-03 
1224	 6.04305915031068E-03 
1225	 9.43193848469782E-03 
1226	 9.00002889418028E-03 
1227	 7.9421320137843E-03 
1228	 6.67622356142848E-03 
1229	 4.8231810063348E-03 
1230	 7.04080689463163E-03 
1231	 1.17700668457529E-02 
1232	 0.012618084053363 
1233	 1.07474932579109E-02 
1234	 8.8879846441384E-03 
1235	 8.80122434123298E-03 
1236	 9.53380705245782E-03 
1237	 8.94849492173793E-03 
1238	 9.06382349371639E-03 
1239	 9.77894251253682E-03 
1240	 9.28440320135986E-03 
1241	 8.06967008341778E-03 
1242	 0.011570664487144 
1243	 1.32421408608994E-02 
1244	 1.08575193166045E-02 
1245	 1.02685814443343E-02 
1246	 1.02716644170902E-02 
1247	 1.04101408431914E-02 
1248	 8.67343766754386E-03 
1249	 5.22792256360726E-03 
1250	 5.49268467118745E-03 
1251	 7.51916405890095E-03 
1252	 9.26790123959843E-03 
1253	 1.20550576063715E-02 
1254	 1.21973483524308E-02 
1255	 1.03116005612267E-02 
1256	 9.59605406978123E-03 
1257	 1.02476663295935E-02 
1258	 1.11618685297542E-02 
1259	 1.25621813487878E-02 
1260	 1.20641511596848E-02 
1261	 1.12915519435251E-02 
1262	 1.19052450841416E-02 
1263	 1.21198698844233E-02 
1264	 1.08442666839485E-02 
1265	 1.29178274327041E-02 
1266	 1.13830203335978E-02 
1267	 6.57103468529454E-03 
1268	 7.63482082223462E-03 
1269	 8.80453056511954E-03 
1270	 8.15370482046728E-03 
1271	 9.22679160103409E-03 
1272	 8.72787897111924E-03 
1273	 9.25733350615749E-03 
1274	 1.24248788559519E-02 
1275	 1.21806061814054E-02 
1276	 1.07719391220912E-02 
1277	 1.12945294696477E-02 
1278	 9.51385761920823E-03 
1279	 7.6282078410415E-03 
1280	 9.24783366351762E-03 
1281	 9.69196821885777E-03 
1282	 7.16493755039033E-03 
1283	 5.86931581900144E-03 
1284	 6.58913939618099E-03 
1285	 7.36157947707977E-03 
1286	 7.39751180373546E-03 
1287	 6.64522690128224E-03 
1288	 8.23120748229647E-03 
1289	 8.69578366963588E-03 
1290	 6.77002288442947E-03 
1291	 2.28787670096293E-03 
1292	 7.61229387053933E-03 
1293	 1.13668342877859E-02 
1294	 8.32658637098609E-03 
1295	 1.22900694711677E-02 
1296	 1.52790190111818E-02 
1297	 1.16422576753147E-02 
1298	 1.02814847183264E-02 
1299	 1.33247814035913E-02 
1300	 1.38048518832038E-02 
1301	 0.011330178320759 
1302	 9.35178618439043E-03 
1303	 5.81808754108654E-03 
1304	 8.71191274161303E-03 
1305	 1.40859403067759E-02 
1306	 1.37298551365598E-02 
1307	 1.43820511572422E-02 
1308	 1.50217616024264E-02 
1309	 6.88926200486601E-03 
1310	 2.94058909024831E-03 
1311	 2.4562692303171E-03 
1312	 7.48832990755295E-03 
1313	 2.09449599210274E-02 
1314	 2.18409190302427E-02 
1315	 0.020752503092659 
1316	 2.15768422216697E-02 
1317	 5.46345621457729E-03 
1318	 2.55211200351889E-03 
1319	 2.33185879485622E-02 
1320	 0.02794098600722 
1321	 2.48511858047575E-02 
1322	 2.01341572537775E-02 
1323	 1.50106830241386E-02 
1324	 6.16207005907925E-03 
1325	 1.36853914399181E-02 
1326	 3.34496937586833E-02 
1327	 4.35844956516602E-02 
1328	 4.09149696766121E-02 
1329	 3.57886020327767E-02 
1330	 3.27849619670006E-02 
1331	 2.86561683549479E-02 
1332	 3.24163956513473E-02 
1333	 3.85596379232197E-02 
1334	 2.64283149660986E-02 
1335	 2.24857769250193E-02 
1336	 0.01580525882053 
1337	 4.00442701328857E-02 
1338	 0.102140426206762 
1339	 0.10544975611901 
1340	 9.32872260402941E-02 
1341	 0.109346084972243 
1342	 8.42160105645811E-02 
1343	 6.15837183401522E-02 
1344	 7.07186879126939E-02 
1345	 0.120471343458948 
1346	 0.209366890075804 
1347	 0.239988255528488 
1348	 0.402881151835597 
1349	 0.546177880841073 
1350	 0.248457563973112 
1351	 0.174514583741563 
1352	 0.475260541925782 
1353	 0.622273012181559 
1354	 0.744013882763042 
1355	 0.773028120012774 
1356	 9.80764596991934E-02 
1357	-5.98617200516895E-02 
1358	 0.286042694325825 
1359	 0.454713523604957 
1360	 0.111382041460922 
1361	 0.127914888424423 
1362	 0.414327374984923 
1363	 3.11434574977547E-02 
1364	 6.95170236942721E-02 
1365	 0.322603457874552 
1366	-0.310246881762646 
1367	 6.88610870757023E-02 
1368	 0.306910702537947 
1369	 1.73946548715838 
1370	 2.62688560781654 
1371	 8.63564513319002 
1372	 6.20809373644951 
1373	 2.47301515096523 
1374	 2.21331229794396 
1375	 1.37580516061919 
1376	 1.3935072166253 
1377	 8.66920699962989 
1378	-5.3501928919026 
1379	-3.71053612670372 
1380	-3.41653981259987 
1381	-32.0415730115153 
1382	 8.24646271827876 
1383	 7.51294045689748 
1384	 6.5088496803881 
1385	-17.8067839564787 
1386	-33.8341468119956 
1387	 1.37701317174619 
1388	 1.01977139044675 
1389	-7.33741931659353 
1390	-18.3044341006998 
1391	-18.230827612064 
1392	 6.88079962863187 
1393	 3.67597771964414 
1394	 3.03449872438547 
1395	 3.36215850434808 
1396	 4.35420621778978 
1397	 6.8157348938804 
1398	 57.9059008265702 
1399	 13.5766311571448 
1400	-10.705223136079 
1401	-12.8395883476396 
1402	 5.20880001708642 
1403	 3.3129280349838 
1404	 2.45407845467086 
1405	 2.6346813746981 
1406	-23.916317566661 
1407	 0.389568294555049 
1408	-0.214009187975382 
1409	-2.35310990723314 
1410	 6.10645972903894 
1411	 13.3073076492686 
1412	-5.3424979724915 
1413	-9.81105509285107 
1414	 5.97177015588063 
1415	 3.43048353735784 
1416	 0.123288727881289 
1417	 0.223638818493028 
1418	-1.80066063924189 
1419	-0.645109368970727 
1420	-0.458908402628245 
1421	-1.44644155351595 
1422	-24.6369617070197 
1423	 15.1107938710045 
1424	 2.19494119766963 
1425	 1.74303401534002 
1426	 2.32466173430983 
1427	 0.850675441967448 
1428	 0.749430648296282 
1429	 0.748706127954362 
1430	 0.409922236634484 
1431	 0.456188752306683 
1432	 1.8663202837438 
1433	 2.31936872901964 
1434	 0.677992392123441 
1435	 0.76203149340697 
1436	 1.19042649579367 
1437	 1.41320215849572 
1438	 1.9068835009283 
1439	 2.01402726181458 
1440	 2.21694212985438 
1441	 7.02196879294065 
1442	 4.58198086987097 
1443	 2.9258500382318 
1444	 2.33626782149432 
1445	 1.98246174435567 
1446	 1.6476370906458 
1447	 1.37479244217726 
1448	 1.8255081372766 
1449	 1.45786986261863 
1450	 0.703632530364734 
1451	 0.816841556955343 
1452	 0.973607174010716 
1453	 0.814512735513813 
1454	 0.554348718160156 
1455	 0.52465992885659 
1456	 0.596370174783994 
1457	 0.513792075021368 
1458	 0.434480122237605 
1459	 0.562163438316837 
1460	 0.500781131841368 
1461	 0.108409731938371 
1462	 7.86639307346882E-02 
1463	 0.291759536263142 
1464	 0.297537470396186 
1465	 0.246280975189388 
1466	 0.267666913640097 
1467	 0.324937448510174 
1468	 0.256296265956213 
1469	 0.13601495295757 
1470	 0.170209330130536 
1471	 0.226699094247591 
1472	 0.21705699279042 
1473	 0.351341522426739 
1474	 0.449568057362613 
1475	 0.395354025815699 
1476	 0.293128989085489 
1477	 0.211964396358651 
1478	 0.201413351529182 
1479	 0.126120540062788 
1480	 0.12161262004124 
1481	 0.204569753791209 
1482	 0.26433716217923 
1483	 0.375988882455555 
1484	 0.314063074626684 
1485	 0.207410021322447 
1486	 0.18565482611814 
1487	 0.133095343643602 
1488	 8.37150995448126E-02 
1489	 7.40047900362164E-02 
1490	 5.31150607223587E-02 
1491	 7.61088401505837E-03 
1492	 3.32712861768667E-03 
1493	 1.62682744285643E-02 
1494	 2.42267045917755E-02 
1495	 4.06847800587901E-02 
1496	 4.60247931717634E-02 
1497	 4.56242477271965E-02 
1498	 5.09032566724988E-02 
1499	 5.93716345760016E-02 
1500	 5.95546765931239E-02 
1501	 6.76928537956764E-02 
1502	 6.07801274472265E-02 
1503	 0.028994433092459 
1504	 0.020547641158819 
1505	 2.50140137944831E-02 
1506	 1.62975026358077E-02 
1507	 6.83752639223322E-03 
1508	 5.91411848135117E-03 
1509	 1.43337338517729E-02 
1510	 1.28842967733742E-02 
1511	 3.09894585449348E-03 
1512	 1.57679799661778E-02 
1513	 2.69214948499978E-02 
1514	 1.82654036650512E-02 
1515	 9.94029713701212E-03 
1516	 9.92714096628441E-03 
1517	 1.03887901449958E-02 
1518	 7.45573501796474E-03 
1519	 1.14439747912709E-02 
1520	 1.80166508395375E-02 
1521	 1.92169073078381E-02 
1522	 1.63033533576402E-02 
1523	 1.78289810286633E-02 
1524	 2.11692088593846E-02 
1525	 9.6860489166147E-03 
1526	 1.29931641080962E-03 
1527	 4.00342596551068E-03 
1528	 6.90244351191969E-03 
1529	 1.37264140792691E-02 
1530	 1.25213604916098E-02 
1531	 8.96015685540762E-03 
1532	 1.31333983981897E-02 
1533	 1.15733174724823E-02 
1534	 6.90740169294857E-03 
1535	 3.45055627084484E-03 
1536	-1.4817284221406E-03 
1537	-2.85476047657466E-03 
1538	 2.74616053936573E-03 
1539	 1.06911044064981E-02 
1540	 1.05355456955342E-02 
1541	 5.2540287395681E-03 
1542	 3.87965933473747E-03 
1543	 4.25208697973768E-03 
1544	 2.97215290097474E-03 
1545	 3.48657136386909E-03 
1546	 4.89861097577093E-03 
1547	 2.25801528688504E-03 
1548	 7.72496316342072E-05 
1549	 2.11322436114875E-03 
1550	 2.8068078265405E-03 
1551	-1.56944292517336E-03 
1552	-2.72573956414974E-03 
1553	 3.99603326985587E-04 
1554	-3.33875404737446E-04 
1555	-7.69880108117214E-05 
1556	 4.15942824021442E-03 
1557	 8.20728823259563E-03 
1558	 9.50178974851202E-03 
1559	 6.05883027778535E-03 
1560	 6.06363559430883E-03 
1561	 9.44100754032028E-03 
1562	 5.59678404421595E-03 
1563	 3.04965310203738E-03 
1564	 0.005109001038945 
1565	 3.08273181789288E-03 
1566	-1.70515195171774E-04 
1567	 1.55998629700454E-03 
1568	 6.12730881522702E-03 
1569	 5.12431794014375E-03 
1570	 2.93211828779094E-03 
1571	 6.42665132215348E-03 
1572	 5.05096833739904E-03 
1573	 1.3916214240053E-03 
1574	 9.24601860986523E-03 
1575	 1.27745342268277E-02 
1576	 7.4235299844216E-03 
1577	 9.24526380346949E-03 
1578	 8.48633467644431E-03 
1579	 3.4771222376965E-03 
1580	 4.21742622453982E-03 
1581	 7.32217139426807E-03 
1582	 8.36616196557819E-03 
1583	 7.65091221476096E-03 
1584	 1.08252855174631E-02 
1585	 0.01294114996826 
1586	 8.64659527503196E-03 
1587	 9.26880529266713E-03 
1588	 1.04098266254749E-02 
1589	 8.10976674368312E-03 
1590	 1.04076888757862E-02 
1591	 1.15598457455872E-02 
1592	 1.48290191959425E-02 
1593	 1.89325547387938E-02 
1594	 1.36196945670322E-02 
1595	 8.06273954509431E-03 
1596	 7.5026518855109E-03 
1597	 5.26293713280417E-03 
1598	 6.11629144197597E-03 
1599	 1.10161483828518E-02 
1600	 1.19743151083467E-02 
1601	 0.013089298815113 
1602	 1.25270185525351E-02 
1603	 8.46727908590329E-03 
1604	 8.79333946665127E-03 
1605	 9.8869716765164E-03 
1606	 7.85516279719731E-03 
1607	 9.1734501872731E-03 
1608	 1.05564534797875E-02 
1609	 4.53984380931899E-03 
1610	 3.9955461604261E-03 
1611	 9.47014908000325E-03 
1612	 8.42639905941612E-03 
1613	 7.02106877346784E-03 
1614	 8.0535974257227E-03 
1615	 9.05212615870089E-03 
1616	 9.06484620866915E-03 
1617	 6.62844273224118E-03 
1618	 7.86525139476187E-03 
1619	 9.43346339532427E-03 
1620	 7.91887632922173E-03 
1621	 1.17233309188357E-02 
1622	 1.34070200282424E-02 
1623	 7.5270684595083E-03 
1624	 6.33563935126036E-03 
1625	 9.28713137478177E-03 
1626	 8.77917600522792E-03 
1627	 7.88104419835953E-03 
1628	 8.50533719562465E-03 
1629	 9.27094711167723E-03 
1630	 8.3605443582614E-03 
1631	 8.54645306194543E-03 
1632	 1.03662083085891E-02 
1633	 8.93016161032414E-03 
1634	 8.80575232507988E-03 
1635	 1.36525013038055E-02 
1636	 1.89476905253232E-02 
1637	 1.91027597658213E-02 
1638	 1.46415011273703E-02 
1639	 9.21771659092659E-03 
1640	 5.39966845766964E-03 
1641	 2.84262273209567E-03 
1642	 3.93189645056778E-03 
1643	 9.57892683889967E-03 
1644	 1.12833078658327E-02 
1645	 8.66236350761766E-03 
1646	 7.64656447463806E-03 
1647	 8.68236688822374E-03 
1648	 6.75437382301622E-03 
1649	 6.10319193104983E-03 
1650	 8.33019445381527E-03 
1651	 7.66614347497319E-03 
1652	 9.26325591407731E-03 
1653	 0.013405355759811 
1654	 1.36818137985602E-02 
1655	 1.54618370860427E-02 
1656	 1.44979627942528E-02 
1657	 5.57343524647437E-03 
1658	 3.78904245063884E-03 
1659	 8.83875527347378E-03 
1660	 9.41657243715445E-03 
1661	 8.09179356094741E-03 
1662	 6.84123843157528E-03 
1663	 5.38970300669024E-03 
1664	 7.3325569235174E-03 
1665	 1.02628795004841E-02 
1666	 9.20315813638839E-03 
1667	 8.13008035632564E-03 
1668	 7.08324989742494E-03 
1669	 6.11744401666599E-03 
1670	 6.34555036762167E-03 
1671	 8.46405395286733E-03 
1672	 8.64554623703911E-03 
1673	 1.16329821359809E-02 
1674	 2.11769787421225E-02 
1675	 0.015445087060725 
1676	-2.13413383840318E-05 
1677	-1.98746044777471E-04 
1678	 1.5174181378468E-03 
1679	 6.32453877371847E-04 
1680	 1.10506131057599E-02 
1681	 1.61203522814336E-02 
1682	 7.64928610061779E-03 
1683	 4.80774379829375E-03 
1684	 5.13068839832527E-03 
1685	 9.19950885562122E-03 
1686	 1.64582704382255E-02 
1687	 1.23976209690552E-02 
1688	 8.8658269113151E-03 
1689	 5.2592634463776E-03 
1690	-5.85542781503059E-03 
1691	-5.17012904926612E-04 
1692	 1.58750648613736E-02 
1693	 1.10701844246646E-02 
1694	 1.41558519762787E-03 
1695	 9.87102680755159E-03 
1696	 1.11436753703161E-02 
1697	 3.28566216736153E-03 
1698	 1.09047694187441E-02 
1699	 1.63657713222455E-02 
1700	 1.16335466083907E-02 
1701	 0.015358586597358 
1702	 2.08442647389671E-02 
1703	 2.07076763623209E-02 
1704	 1.60409793514974E-02 
1705	 1.31575607321325E-02 
1706	 2.05743034229837E-02 
1707	 2.23524791038365E-02 
1708	 1.28155297347399E-02 
1709	 1.21982743514632E-02 
1710	 1.18815496850189E-02 
1711	 3.88611563255623E-03 
1712	 2.60597526509072E-03 
1713	 4.69374485391329E-04 
1714	-1.04161500270776E-03 
1715	-2.02903157269395E-03 
1716	 3.75357161636327E-03 
1717	 4.02151521032105E-03 
1718	 9.33580890151854E-03 
1719	 1.28365065550538E-02 
1720	 1.08599970098653E-02 
1721	 1.49571416389556E-02 
1722	 1.48069213747011E-02 
1723	 1.42819139266127E-02 
1724	 1.58763853909595E-02 
1725	 1.13725267196658E-02 
1726	 5.73643715028136E-03 
1727	 5.11811342111501E-04 
1728	 3.03177028366377E-03 
1729	 1.41504742145434E-02 
1730	 1.92223592171404E-02 
1731	 1.11396438752964E-02 
1732	 8.07311779989658E-05 
1733	-7.51343284076723E-03 
1734	-9.74649561372734E-03 
1735	-1.82620873443863E-03 
1736	 9.53542407886858E-03 
1737	 2.29101387998431E-02 
1738	 2.47101453727188E-02 
1739	 1.36123553949206E-02 
1740	 2.51070686010306E-02 
1741	 3.50426936940152E-02 
1742	 2.18402591082509E-02 
1743	 0.036193450147348 
1744	 4.15318407279681E-02 
1745	 7.45203676750377E-03 
1746	 2.05511661377604E-02 
1747	 2.25465408396047E-02 
1748	 2.31260776796806E-02 
1749	 2.59662112105381E-02 
1750	 2.88863965308616E-02 
1751	 2.16188985074013E-02 
1752	-1.00715462509763E-02 
1753	-1.50944875782966E-02 
1754	-3.18789045685277E-03 
1755	 2.27236824086879E-04 
1756	 2.35606299146102E-02 
1757	 2.20561682449608E-02 
1758	 3.70246772956505E-03 
1759	-1.19626962007229E-03 
1760	 5.54260017770999E-03 
1761	 0.010094882528393 
1762	 5.8112956749376E-03 
1763	 3.91909446393969E-03 
1764	-7.66926312371193E-03 
1765	-1.77245808655422E-02 
1766	 1.47395314266907E-03 
1767	 7.12574132405761E-03 
1768	 2.12642863617614E-03 
1769	-1.36700919978872E-03 
1770	-0.051038136672824 
1771	-8.54215518756426E-02 
1772	-5.17734069765418E-02 
1773	-2.10333104198353E-02 
1774	 2.27285299782183E-02 
1775	 3.13951221533363E-02 
1776	 3.13816120816985E-02 
1777	 2.98085963244843E-03 
1778	 3.99724357116772E-03 
1779	 5.49311228014769E-02 
1780	 8.23559646014429E-02 
1781	 9.17888548428709E-02 
1782	 0.114202744174051 
1783	 0.120810921505331 
1784	 0.075949923443323 
1785	 3.85285452619841E-02 
1786	 3.91043485496867E-02 
1787	-2.14154578261018E-02 
1788	-3.14420713580269E-02 
1789	 3.99445498987454E-02 
1790	-0.13106754367432 
1791	 7.86949021612615E-02 
1792	 0.133591011415848 
1793	 5.91525588253498E-02 
1794	 0.261948538344289 
1795	 0.215916851462484 
1796	-0.278642104228257 
1797	-0.356444615480127 
1798	-0.299595438702243 
1799	-0.275517644257699 
1800	 0.207292841923707 
1801	 0.316294230196261 
1802	 6.29307192096626E-02 
1803	 5.03032880619523E-02 
1804	 0.244834298302072 
1805	 0.310008758101205 
1806	 0.661829770058477 
1807	 1.04658087554737 
1808	 1.66587711743984 
1809	-36.4820757113113 
1810	-4.00294013209632 
1811	-8.80001420175932 
1812	 4.01346848860068 
1813	 1.61273663805658 
1814	 0.444783279529084 
1815	 0.390742149116913 
1816	 0.543189689299007 
1817	 19.8624224644967 
1818	-1.64215299627722 
1819	-6.19043779158427 
1820	 14.7408943357881 
1821	 0.323490009699301 
1822	 0.267029028317639 
1823	 0.737064873974202 
1824	 1.48908095105239 
1825	-2.58837122874228 
1826	-1.83743820113991 
1827	 16.8674062316157 
1828	 3.6115338082677 
1829	 1.06855317458286 
1830	 0.853364212706642 
1831	 1.06119526097866 
1832	 0.955202070039309 
1833	 0.410534151258056 
1834	-3.74189511336746E-02 
1835	-0.791764987747282 
1836	-0.995767417510595 
1837	-3.42397689817604 
1838	-2.77403398439436 
1839	-0.723704924433013 
1840	-0.168580640676522 
1841	 0.187514891582447 
1842	 0.155448277860834 
1843	 0.152882338824387 
1844	-0.070018609436999 
1845	-0.848676739490285 
1846	-1.09439827765433 
1847	-1.2595950493376 
1848	-0.91400321893404 
1849	-0.556487469004245 
1850	-0.940632203175971 
1851	-2.15513577890691 
1852	-4.90517164480281 
1853	 1.98880641735809 
1854	-0.190712598490856 
1855	-4.23252601591341 
1856	-5.1981820049535 
1857	-0.338086581765722 
1858	 0.25092635249711 
1859	 0.769641524825426 
1860	 0.550625786223527 
1861	-1.72284607332781 
1862	-0.98531034642142 
1863	-0.197885866955077 
1864	-0.314225606113003 
1865	-0.39749377128653 
1866	-0.754247060020136 
1867	-0.671329429983766 
1868	-0.343177903755911 
1869	-0.377685271169377 
1870	-0.40620765824823 
1871	-0.804159041736307 
1872	-3.58708235304386 
1873	 5.68622539644645 
1874	 5.9465241211348 
1875	-0.412736466288005 
1876	-0.894924330631988 
1877	-1.4693664526198 
1878	-1.38499522183059 
1879	-0.211279958675425 
1880	-5.21019708561167E-02 
1881	-0.166174454706031 
1882	 5.7758243052656 
1883	 1.78503714266647 
1884	 0.730780849035691 
1885	-0.190356382530002 
1886	 0.480449114265361 
1887	 1.71524903724998 
1888	-7.13885867610709 
1889	-7.31949025933283 
1890	-2.19514530571389 
1891	-2.78367892958428 
1892	 47.068243815706 
1893	-0.79450733042932 
1894	-0.291227897970322 
1895	-0.150851571319066 
1896	-0.721431771939933 
1897	-1.96684389676074 
1898	 0.995219861306033 
1899	-0.287772350325024 
1900	-0.378458460354434 
1901	-0.417976241151009 
1902	-0.573037462648669 
1903	-0.682441495737522 
1904	-0.615954495054015 
1905	-0.781194231712543 
1906	-1.17366629883237 
1907	-1.98428356233223 
1908	-2.10552401088155 
1909	-2.38257260928207 
1910	-0.507915809024168 
1911	 0.876426245286893 
1912	-2.6572630769301 
1913	-1.90424790918272 
1914	-2.58871793483205 
1915	-1.5740134240437 
1916	-1.1744827254307 
1917	-2.92497995211136 
1918	-3.27785241138952 
1919	-0.3831684850637 
1920	 0.876794708914638 
1921	 1.40842945963501 
1922	 0.571134282205505 
1923	-6.59499607770983E-02 
1924	-1.13327780384343 
1925	-1.12411233744171 
1926	-1.6452384541262 
1927	-5.6892577864007 
1928	-5011.71299453142 
1929	-6.40117196142215 
1930	-4.73447196973131 
1931	 3.2791887893837 
1932	 0.118509379932692 
1933	-0.145671491481443 
1934	-0.543076746202688 
1935	-0.531133558423326 
1936	-0.310789407287792 
1937	-9.00558627688267E-02 
1938	-0.575873282237932 
1939	-0.882024270153546 
1940	-0.897802526418626 
1941	-0.677144046795617 
1942	-0.507758102550379 
1943	-0.596014202725707 
1944	-0.660113458743042 
1945	-0.632235610616575 
1946	-0.343353809972852 
1947	-0.184450426072144 
1948	-6.29322119824065E-02 
1949	 0.206681686482888 
1950	 0.303488899752464 
1951	 2.80838537774035 
1952	 0.617791368097251 
1953	 0.085905878587506 
1954	 0.235966558576385 
1955	 0.516332137007498 
1956	-4.4365145395907 
1957	-4.22246230971594 
1958	-3.06502001271434 
1959	-0.907183802540379 
1960	-0.753267638632767 
1961	 0.694690961659933 
1962	 0.948477851478923 
1963	 1.90146135933812 
1964	 2.04693904709727 
1965	 0.79528757980752 
1966	 0.665831349814648 
1967	 0.827258771228653 
1968	 0.702366868022057 
1969	 0.315973776931692 
1970	 0.158245536966079 
1971	 0.162789815957417 
1972	 0.162307070051624 
1973	 9.24899514148686E-02 
1974	 7.20937875486941E-02 
1975	 2.15320128033723E-02 
1976	 4.65003294955443E-02 
1977	-1.65754275126412E-02 
1978	-0.164373290213088 
1979	-0.188245983792748 
1980	-0.171716829125076 
1981	-0.208539226414838 
1982	-0.196678394648898 
1983	-8.91598519628304E-02 
1984	-3.90674904061083E-02 
1985	-0.105338248452975 
1986	-0.205351800688461 
1987	-0.193099197775371 
1988	-0.202911878697972 
1989	-0.332559069877437 
1990	-0.326631764983187 
1991	-0.291428188477749 
1992	-0.35774804675902 
1993	-0.298099029758977 
1994	-0.263732036409384 
1995	-0.251863992563147 
1996	-0.262513408015871 
1997	-0.173866400667059 
1998	-2.04593815342913E-02 
1999	 0.29102598344289 
2000	 0.428197863270391 
2001	 0.379047182787277 
2002	 0.372318598958936 
2003	 0.254478306303195 
2004	 9.57803981306276E-02 
2005	 7.43975474195096E-02 
2006	 0.167966627595549 
2007	 0.11695572947306 
2008	-3.81256876890309E-02 
2009	-2.58761108545431E-02 
2010	 8.63393826446708E-02 
2011	 0.130961133521392 
2012	 0.248763424769368 
2013	 0.590679259664699 
2014	 0.635408085689955 
2015	 0.400963903046654 
2016	 0.239329302435874 
2017	 0.146364893756116 
2018	 5.00937193714695E-02 
2019	-3.28276027417036E-02 
2020	-0.102447446586849 
2021	-0.152137175362439 
2022	-0.257823140458646 
2023	-0.283134906637244 
2024	-0.288873366277678 
2025	-0.296185103789166 
2026	-0.249774057838402 
2027	-9.38384113675869E-02 
2028	-0.117185985628092 
2029	-0.146585532600487 
2030	-9.34756027812383E-02 
2031	-0.132300350030996 
2032	-0.124285843984586 
2033	-4.26394555480572E-02 
2034	 3.69651167452616E-02 
2035	 6.92515704670093E-02 
2036	 7.03483776080349E-02 
2037	 4.16460192274879E-02 
2038	-2.04041094416646E-02 
2039	-2.46108554502245E-02 
2040	 2.67992282865621E-02 
2041	 0.039162849321552 
2042	 6.30271975150797E-02 
2043	 6.45025327423811E-02 
2044	 2.46813224469105E-02 
2045	 3.58563560171656E-02 
2046	 0.041143970977209 
2047	 4.07949620737677E-02 
2048	 8.14621793227096E-02 
2049	 8.82325439384494E-02 
2050	 6.01176057838916E-02 
2051	 4.88475715343573E-02 
2052	 1.48445438950264E-02 
2053	 0.007438887432461 
2054	 5.21769097938354E-02 
2055	 8.83507943598108E-02 
2056	 0.105006737598503 
2057	 0.122056798151764 
2058	 0.110428547947606 
2059	 6.54010319171455E-02 
2060	 3.59962128125253E-02 
2061	-4.47429555934981E-04 
2062	-2.88132772575338E-02 
2063	-8.94850852808598E-02 
2064	-8.20452849746214E-02 
2065	-8.12414924564181E-03 
2066	-3.70579833817635E-02 
2067	-2.98673444081059E-02 
2068	 4.65406800773459E-03 
2069	-1.71202803086169E-02 
2070	 0.040568219461132 
2071	 7.73705013960092E-02 
2072	 3.31970454132921E-02 
2073	 1.00565562763729E-02 
2074	-4.58347482846678E-02 
2075	-6.39082435691171E-02 
2076	-5.68770368914948E-02 
2077	-6.11975082298056E-02 
2078	-9.56223714610928E-02 
2079	-7.41235019695686E-02 
2080	-2.12364452602711E-02 
2081	 1.35629991290438E-02 
2082	 5.91142723414741E-02 
2083	 0.126188229398364 
2084	 0.128156582562049 
2085	 0.11649281049012 
2086	 0.128055930573797 
2087	 0.100859645069699 
2088	 5.43671319822885E-02 
2089	 7.62288074293262E-02 
2090	 7.63029863307264E-02 
2091	 5.41515627217683E-02 
2092	 4.64175152925474E-02 
2093	 2.41949604249757E-02 
2094	 2.48248068524222E-02 
2095	 5.72185016850966E-02 
2096	 6.91460878585988E-02 
2097	 9.94311634518893E-02 
2098	 0.104925206359655 
2099	 8.53979780169937E-02 
2100	 5.69627174113506E-02 
2101	 3.66604399774564E-02 
2102	-9.89569365022798E-03 
2103	-4.98727988284748E-02 
2104	-6.09910967221968E-02 
2105	-4.86258732048514E-02 
2106	-1.14682932652577E-03 
2107	 2.52821982823305E-02 
2108	 3.14896056299263E-02 
2109	 2.23294963134589E-02 
2110	 5.08137416308375E-03 
2111	-6.06600808848981E-03 
2112	-0.037381830141403 
2113	-4.31414590093691E-02 
2114	-5.04664730749804E-02 
2115	-3.71049815174695E-02 
2116	 3.42035233848285E-02 
2117	 4.22430883131747E-02 
2118	 1.50228719309028E-02 
2119	-5.8068070770427E-04 
2120	-5.65047756455514E-02 
2121	-6.75087329094663E-02 
2122	-7.37502255175925E-02 
2123	-0.066741620950978 
2124	-3.20689251140787E-02 
2125	-3.18341481995681E-02 
2126	-3.40693831945743E-02 
2127	-1.06148668271279E-02 
2128	-1.63855307579534E-02 
2129	-4.19813635973767E-02 
2130	-0.061360392405395 
2131	-7.34336138503486E-02 
2132	-8.23021066571184E-02 
2133	-7.93723354939273E-02 
2134	-7.34087301465802E-02 
2135	-5.57998256388227E-02 
2136	-3.78814136143617E-02 
2137	-9.19369060837148E-03 
2138	 5.66208354763349E-05 
2139	 6.92382074140983E-03 
2140	 1.84309443378822E-02 
2141	 3.15957101667652E-02 
2142	 2.25408899406187E-02 
2143	 1.84006007833046E-03 
2144	-6.98755301980108E-03 
2145	-3.87033332536088E-02 
2146	-5.81807753119636E-02 
2147	 0.012240291708552 
2148	 6.05501106747635E-02 
2149	 7.56532774492174E-02 
2150	 4.85038759088532E-02 
2151	 5.62967651558107E-03 
2152	 1.13095100697465E-03 
2153	-1.35395807747867E-02 
2154	 1.87968271700139E-02 
2155	 4.10134944088292E-02 
2156	 3.57347769243648E-02 
2157	 4.53863454102571E-02 
2158	 8.67285146222468E-02 
2159	 9.01413693175455E-02 
2160	 0.046410231417785 
2161	 3.93570764874611E-02 
2162	 0.041837056893551 
2163	 3.69203496005956E-02 
2164	 5.83254856171919E-02 
2165	 7.39594590688882E-02 
2166	 8.36969304951767E-02 
2167	 7.86376845467981E-02 
2168	 5.69135371239309E-02 
2169	 4.99586172154962E-02 
2170	 3.93399012086292E-02 
2171	 2.91472228729562E-02 
2172	 0.020338691256014 
2173	 5.86919482690026E-03 
2174	-2.40378233776239E-02 
2175	-4.12790169511306E-02 
2176	 1.47776137133366E-02 
2177	 6.34550336889339E-02 
2178	 6.31136355401389E-02 
2179	 7.34359099315461E-02 
2180	 0.040777411017618 
2181	 1.08506787885152E-02 
2182	 4.19026774680656E-02 
2183	-2.83485831325473E-03 
2184	-2.44284662839821E-02 
2185	-1.75092208792545E-02 
2186	-3.06425700400471E-02 
2187	-4.14239465837123E-02 
2188	-2.83086777195301E-02 
2189	-6.37680470438176E-03 
2190	-1.86754581859882E-02 
2191	-0.044287168809364 
2192	-0.047230404510637 
2193	-5.36731948400662E-02 
2194	-7.01870126429046E-02 
2195	-6.59635933470356E-02 
2196	-6.64127509764498E-02 
2197	-0.12846351163688 
2198	-0.150516388424243 
2199	-0.142548030499245 
2200	-0.101258977657668 
2201	-0.033932082893145 
2202	 3.68927660778743E-02 
2203	 4.59338913594415E-02 
2204	 8.48143434528614E-02 
2205	 0.108131191796072 
2206	 8.53264669533056E-02 
2207	 9.57907914412516E-02 
2208	 0.08934484912855 
2209	 7.41719541156799E-03 
2210	-2.14150411661807E-02 
2211	 2.95356120650282E-03 
2212	-2.56503568122454E-02 
2213	-3.48658492449039E-02 
2214	-6.51152968469502E-02 
2215	-0.100764310235822 
2216	-3.04930340513025E-02 
2217	-5.40750746709378E-03 
2218	 5.15923550653907E-02 
2219	 4.79565355600604E-02 
2220	-9.75324079758629E-03 
2221	-2.92103971585946E-02 
2222	-8.34790163086485E-02 
2223	-8.80624198970419E-02 
2224	-2.37498438941237E-02 
2225	-1.02004396630749E-02 
2226	 9.60478758090215E-03 
2227	 1.32604310191295E-02 
2228	-2.28803593048956E-03 
2229	-3.04975431703761E-02 
2230	-9.57950507236162E-02 
2231	-0.10044809644084 
2232	-6.97354151268564E-02 
2233	-8.44355262325964E-02 
2234	-9.05128312686717E-02 
2235	-0.119087755653387 
2236	-0.147311035384914 
2237	-0.145802634954347 
2238	-0.106536212473412 
2239	-7.09713734100492E-02 
2240	-6.66259205927063E-02 
2241	-5.46787115773349E-02 
2242	-0.021348886951927 
2243	 2.38277733305356E-02 
2244	 3.31138780131498E-02 
2245	 2.84343911883407E-02 
2246	-0.012680342096668 
2247	-4.33409537784994E-02 
2248	-7.75902892953696E-03 
2249	 1.15307427476674E-02 
2250	 7.92776773882758E-02 
2251	 0.187223725326673 
2252	 0.163813521821802 
2253	 0.103530345782165 
2254	-3.44861318274606E-02 
2255	-0.170426714670397 
2256	-0.181314647852239 
2257	-0.145346746546099 
2258	-0.110826753552073 
2259	-0.131202578525846 
2260	-0.157610789833508 
2261	-0.267833387774199 
2262	-0.309750370248242 
2263	-0.290392670390531 
2264	-0.290268613935457 
2265	-0.35914288558578 
2266	-0.347201287546732 
2267	-0.225753396483172 
2268	-0.201316867657809 
2269	-0.147014888436517 
2270	-8.81164570385928E-02 
2271	-0.14737341980754 
2272	-0.193311896089182 
2273	-0.172321253254259 
2274	-0.179647746090679 
2275	-0.216437453428332 
2276	-0.234128832840284 
2277	-0.244498584211236 
2278	-0.284687327192771 
2279	-0.396633233920902 
2280	-0.371432100491206 
2281	-0.263456817225928 
2282	-0.19851107377822 
2283	-7.60186086038203E-02 
2284	-0.118378859775529 
2285	-0.263523717626141 
2286	-0.31591287609532 
2287	-0.295783948939842 
2288	-0.261082409190096 
2289	-0.229875231399854 
2290	-0.19246487588212 
2291	-0.249854971209337 
2292	-0.339723224576521 
2293	-0.479603157982055 
2294	-0.574647876140261 
2295	-0.483357919415408 
2296	-0.46804453535698 
2297	-0.360318770421541 
2298	-0.1600353946385 
2299	-0.123475234020263 
2300	 4.22014622905322E-02 
2301	 0.125515293771163 
2302	 0.147487398940113 
2303	 0.187393634741865 
2304	 7.33500097116341E-02 
2305	-4.43264778818176E-02 
2306	-0.146646339166761 
2307	-0.259992030988894 
2308	-0.273677781552816 
2309	-0.231111246796289 
2310	-0.296986601093618 
2311	-0.438551267431974 
2312	-0.487477547041336 
2313	-0.52337200286032 
2314	-0.542874380648195 
2315	-0.443820030634759 
2316	-0.191784490626813 
2317	 9.68791114136839E-03 
2318	 5.18992625018031E-02 
2319	-4.64099820681299E-02 
2320	-0.183643218241442 
2321	-0.146121561000992 
2322	 0.065385559149126 
2323	 7.68837566826666E-02 
2324	 0.118404147640361 
2325	 0.184140410162233 
2326	 2.91759611091158E-02 
2327	 7.08988079150549E-02 
2328	 9.68926293147648E-02 
2329	-0.148612272721626 
2330	-0.286783942002555 
2331	-0.406725478447826 
2332	-0.503114484577868 
2333	-0.418175399299985 
2334	-0.343487278803524 
2335	-0.348569316083233 
2336	-0.409174729563727 
2337	-0.53395917049195 
2338	-0.963962850734321 
2339	-1.96574066611045 
2340	-3.54500316289486 
2341	-1.2174974724877 
2342	-0.680772509930254 
2343	-7.73924465033304E-02 
2344	-0.145544284865224 
2345	-0.220249835811634 
2346	-0.344162796004585 
2347	-0.836434700466962 
2348	-2.10945249439671 
2349	-2.70743372883326 
2350	-2.17299331031473 
2351	-1.26133445329659 
2352	-1.38751675926914 
2353	-4.82446724678117 
2354	 2.45033925412749 
2355	 3.93050626912499 
2356	-0.253034294872156 
2357	 0.805332561887554 
2358	 0.169849147569296 
2359	-0.184152805376236 
2360	-0.338255290000664 
2361	-0.632905597116995 
2362	-0.852726699218671 
2363	-0.555264871632312 
2364	-0.916202183004885 
2365	-1.4267287898771 
2366	-1.27680838858077 
2367	-1.46891242512476 
2368	-2.48646892155961 
2369	-0.842643577623542 
2370	-0.173900915227486 
2371	 0.387288677711451 
2372	 0.379396772412091 
2373	 0.341243280864234 
2374	 0.045488988172286 
2375	 0.775433653266987 
2376	 0.779513095583261 
2377	 1.27248525613979 
2378	 1.35828565233145 
2379	 1.32212097640487 
2380	-0.491374556828138 
2381	 2.68788664559662 
2382	-2.24082467010951 
2383	-22.7955596330311 
2384	 0.637413506912282 
2385	-0.460044529290114 
2386	-0.825253193705354 
2387	-1.28527299939949 
2388	-1.8430904004029 
2389	-1.66840768984393 
2390	-2.86022952977265 
2391	-5.65063471231453 
2392	 4.77997974415635 
2393	 4.65161357341552 
2394	 3.03545369375404 
2395	 0.606262822558635 
2396	 0.577903702524613 
2397	 5.93366123137129 
2398	 41.3097873767513 
2399	 227.067185934096 
2400	 4.09679345530455 
2401	 1.98112784723516 
2402	 0.873769416137815 
2403	 0.54628425946004 
2404	 5.66772892964498 
2405	-6.98373648525139 
2406	-0.355213428076508 
2407	 0.153410302515058 
2408	 0.505438897046407 
2409	 0.562204108618346 
2410	 0.76178337915289 
2411	 1.69285599906002 
2412	 2.34909412659132 
2413	 2.98039707313165 
2414	 5.1297182748817 
2415	 1.89677108637075 
2416	 1.12901431311998 
2417	 1.15646973381982 
2418	 1.30011403490034 
2419	 1.26677246989291 
2420	 1.5067131832668 
2421	 1.81038172077868 
2422	 2.51614866502774 
2423	 3.02304614496636 
2424	 2.50860791749215 
2425	 11.6987926765367 
2426	 11.1517789877296 
2427	-2.87113078261787 
2428	-5.32088960990105 
2429	 0.433064013444677 
2430	-0.344700135767009 
2431	-0.535056359688389 
2432	-0.505388471357074 
2433	-1.50156165321525 
2434	 5.54373284773158 
2435	 0.598430395640131 
2436	 0.204811395263544 
2437	 0.113411533776176 
2438	-0.995396675425618 
2439	 3.00775036416931 
2440	 2.62848036604844 
2441	 2.21848976083826 
2442	 2.06630133371973 
2443	-7.45545281477149 
2444	-3.05507294173209 
2445	-1.41634045058114 
2446	-0.545933054170229 
2447	-0.720322562426795 
2448	-0.533388175283241 
2449	-12.9958218113488 
2450	 5.37536743676081 
2451	-0.520559757828348 
2452	 0.829793924443523 
2453	 0.58658895509529 
2454	 0.828170927100177 
2455	 1.27742753829081 
2456	 1.28306403725296 
2457	-4.54529326367165 
2458	-0.674220348867437 
2459	-9.81386583215208E-02 
2460	-0.376053553191035 
2461	-2.20111204860405 
2462	-8.09405726388266 
2463	-5.96249574526615 
2464	-2.54939451541079 
2465	 4.35986092045976E-02 
2466	-1.23040182675171 
2467	-5.46046754035208 
2468	 12.0823158625911 
2469	 2.17025914590653 
2470	 0.505369739664878 
2471	-0.354114352815123 
2472	-0.362961128727543 
2473	-0.840131723910799 
2474	-0.519395418157146 
2475	 0.325865473338017 
2476	 0.111349327449487 
2477	-9.02279027141144E-02 
2478	-0.713017033588259 
2479	-27.5446818036292 
2480	 1.41508449382455 
2481	 0.287207870661484 
2482	-0.441696959062767 
2483	-0.803061008211009 
2484	-0.750141351523676 
2485	-0.79550955220607 
2486	-0.149822134667021 
2487	-0.513023602187651 
2488	-0.271298023561305 
2489	-0.310018872345515 
2490	-0.255349672057684 
2491	-0.154364685871175 
2492	 0.310621004995101 
2493	 0.639178603113051 
2494	 0.594890365695445 
2495	 0.417094903211303 
2496	 0.639229783741694 
2497	 1.2829297978344 
2498	 2.75776647312546 
2499	-3.03586109142003 
2500	-2.07824141119112 
