Wavelength	rt0802far00007.asd
350	 1.54526371055811E-02 
351	 1.59720241737597E-02 
352	 1.46597879252048E-02 
353	 1.46327993866418E-02 
354	 1.70345643024499E-02 
355	 1.77236972529949E-02 
356	 1.70777490471623E-02 
357	 1.70841574922048E-02 
358	 1.87767911686401E-02 
359	 1.63661114727069E-02 
360	 1.59099118125312E-02 
361	 1.76043388007396E-02 
362	 1.75930338818153E-02 
363	 1.75792765973148E-02 
364	 1.71367239547082E-02 
365	 1.67783078111623E-02 
366	 1.88394243826124E-02 
367	 1.88681015268652E-02 
368	 1.83008481344033E-02 
369	 1.89131753912547E-02 
370	 1.74778077804758E-02 
371	 1.73979483990193E-02 
372	 1.81526472329946E-02 
373	 1.73641883961517E-02 
374	 0.018989081468488 
375	 1.99648749843374E-02 
376	 1.91806528553333E-02 
377	 1.91992896526552E-02 
378	 1.94919202241751E-02 
379	 2.00112368642787E-02 
380	 2.05894651912862E-02 
381	 2.04745142415316E-02 
382	 2.05481923180877E-02 
383	 2.15564790489172E-02 
384	 2.34112326898635E-02 
385	 2.11834597988991E-02 
386	 2.05298611553791E-02 
387	 2.22165773564309E-02 
388	 2.07928498006274E-02 
389	 2.24149056642367E-02 
390	 2.33241563198425E-02 
391	 2.12303887757902E-02 
392	 0.022081130804657 
393	 2.27656640837593E-02 
394	 2.33929875297725E-02 
395	 2.48249651081368E-02 
396	 2.55308334521823E-02 
397	 2.49164852035611E-02 
398	 2.39549956576982E-02 
399	 0.024687513878712 
400	 2.52989546125697E-02 
401	 2.52280322090478E-02 
402	 2.48005434863797E-02 
403	 2.58990335911118E-02 
404	 0.026226674265178 
405	 0.025903934163788 
406	 2.59027294431962E-02 
407	 2.63456010798015E-02 
408	 2.65771913041374E-02 
409	 2.66082416861473E-02 
410	 2.71071803380298E-02 
411	 2.73387311839351E-02 
412	 2.73853760841141E-02 
413	 2.74487795745608E-02 
414	 2.76533742230214E-02 
415	 2.76666515460512E-02 
416	 2.77773856655585E-02 
417	 2.83374431644539E-02 
418	 2.84419055311566E-02 
419	 2.83352010577362E-02 
420	 2.85131256093185E-02 
421	 2.95836489980454E-02 
422	 2.97747218545679E-02 
423	 2.97382244027516E-02 
424	 3.01858677383914E-02 
425	 3.04910947233826E-02 
426	 3.06668659649532E-02 
427	 3.09264531701765E-02 
428	 3.15181243556033E-02 
429	 3.21288855704073E-02 
430	 3.26794344013749E-02 
431	 3.31003609984606E-02 
432	 3.33185301008664E-02 
433	 3.38945002894717E-02 
434	 3.40572796387348E-02 
435	 3.34728797591277E-02 
436	 3.39375562458505E-02 
437	 3.48063786151897E-02 
438	 3.54495787459655E-02 
439	 3.54280124646566E-02 
440	 3.59442139413279E-02 
441	 3.64412298002304E-02 
442	 3.66594605616319E-02 
443	 3.70562043408356E-02 
444	 0.038093918761042 
445	 3.86238460054554E-02 
446	 3.79315978453729E-02 
447	 3.87687139555489E-02 
448	 3.94687582020546E-02 
449	 3.96245093063239E-02 
450	 3.98467263074409E-02 
451	 4.03543034143733E-02 
452	 4.05764560550302E-02 
453	 4.04503332185646E-02 
454	 4.12483732598403E-02 
455	 4.16018114829246E-02 
456	 4.16771936827564E-02 
457	 4.20228640706953E-02 
458	 4.19826764679083E-02 
459	 4.21033229487248E-02 
460	 4.25691859673105E-02 
461	 4.31091052713131E-02 
462	 4.28974014900966E-02 
463	 4.27347392385378E-02 
464	 4.32598117732478E-02 
465	 4.37700965464981E-02 
466	 4.38493259818252E-02 
467	 4.37903851081447E-02 
468	 4.41757709989467E-02 
469	 4.45961100895582E-02 
470	 4.47255279121531E-02 
471	 4.46704554805571E-02 
472	 4.50914444189238E-02 
473	 4.54213379015301E-02 
474	 4.57425501540582E-02 
475	 4.61866491832731E-02 
476	 4.64648737388097E-02 
477	 4.64796112258183E-02 
478	 4.65746853290146E-02 
479	 4.72683378560501E-02 
480	 4.74213644181018E-02 
481	 4.76102424525124E-02 
482	 4.81192637434004E-02 
483	 4.81339222002824E-02 
484	 4.83487685051359E-02 
485	 4.88706461861114E-02 
486	 4.95036230861105E-02 
487	 4.97197513746382E-02 
488	 5.01239787623685E-02 
489	 5.07494490522684E-02 
490	 0.051047356938263 
491	 5.15027803392896E-02 
492	 5.21331398211086E-02 
493	 5.28253118630804E-02 
494	 5.33927560837144E-02 
495	 5.39375167582717E-02 
496	 5.43215441415225E-02 
497	 5.44356051947721E-02 
498	 5.54676210925826E-02 
499	 0.056093250122774 
500	 5.60866403816247E-02 
501	 5.73473307008513E-02 
502	 5.78115834141006E-02 
503	 5.78019899723512E-02 
504	 5.82313119263772E-02 
505	 5.93846132913873E-02 
506	 6.00517690529747E-02 
507	 6.03320350469816E-02 
508	 6.13198677337549E-02 
509	 6.22717082821593E-02 
510	 6.29917411180564E-02 
511	 6.34727840152289E-02 
512	 6.38750982475838E-02 
513	 6.45860260535057E-02 
514	 6.54923439127625E-02 
515	 6.62702328633473E-02 
516	 6.70170085104714E-02 
517	 6.77990262235212E-02 
518	 0.068549204467854 
519	 6.90427128741091E-02 
520	 7.00052046469561E-02 
521	 7.08983029955849E-02 
522	 7.12442090600351E-02 
523	 7.17053557830754E-02 
524	 7.28850783743053E-02 
525	 7.42756856647985E-02 
526	 7.47047705805383E-02 
527	 7.50527614683578E-02 
528	 7.59433016159951E-02 
529	 7.73104078496839E-02 
530	 7.78394902755254E-02 
531	 0.078407801895212 
532	 7.91895750692246E-02 
533	 8.00734200761001E-02 
534	 8.08432558239944E-02 
535	 8.13454082283173E-02 
536	 8.18530421880679E-02 
537	 8.30873287478557E-02 
538	 8.38678630142641E-02 
539	 8.43780764325042E-02 
540	 8.51099707852951E-02 
541	 8.64604023484028E-02 
542	 8.72325171304419E-02 
543	 8.74574788527124E-02 
544	 8.79593726189185E-02 
545	 8.89887828178827E-02 
546	 8.97704238551474E-02 
547	 9.01522656265526E-02 
548	 9.14926556128067E-02 
549	 9.23979284434171E-02 
550	 0.092884135489926 
551	 9.34681597291179E-02 
552	 9.44189483150968E-02 
553	 9.52546790099353E-02 
554	 9.58948525739877E-02 
555	 9.67473596399931E-02 
556	 9.72975835177031E-02 
557	 9.77852511258418E-02 
558	 0.09848650161303 
559	 9.92282548025518E-02 
560	 9.96396296333841E-02 
561	 0.100018046342519 
562	 0.100978404592128 
563	 0.101686083500715 
564	 0.101864698901016 
565	 0.101744066480327 
566	 0.102411577836149 
567	 0.102850792512105 
568	 0.103138910370788 
569	 0.10362456075687 
570	 0.103747908878504 
571	 0.103941301161425 
572	 0.104189122006708 
573	 0.103949925389509 
574	 0.103959788545299 
575	 0.104273255670756 
576	 0.104704230313031 
577	 0.104930155385001 
578	 0.104659844849305 
579	 0.104342962759425 
580	 0.104706989631508 
581	 0.104374191430286 
582	 0.10366404857041 
583	 0.10303417546623 
584	 0.102848530899187 
585	 0.102288985029102 
586	 0.101413557584968 
587	 0.100623245115621 
588	 0.100213282000459 
589	 9.95448058260677E-02 
590	 9.85694038749938E-02 
591	 9.78738221722396E-02 
592	 9.74280978250414E-02 
593	 9.65385492982888E-02 
594	 9.49750271770599E-02 
595	 9.42324225165106E-02 
596	 9.34680614945555E-02 
597	 9.23029181643753E-02 
598	 9.07490639980267E-02 
599	 8.97618748637606E-02 
600	 8.88297127026772E-02 
601	 8.77249551063547E-02 
602	 8.69607083035457E-02 
603	 8.65336753380465E-02 
604	 0.086167624221484 
605	 8.56470909458098E-02 
606	 8.56038984991113E-02 
607	 8.56737973288574E-02 
608	 8.55584934902706E-02 
609	 8.51169332771244E-02 
610	 8.52830610627606E-02 
611	 0.085357292420269 
612	 8.48090062637927E-02 
613	 8.46389326997661E-02 
614	 8.46693777702921E-02 
615	 8.48131457496342E-02 
616	 8.49855895401952E-02 
617	 8.49777043958755E-02 
618	 8.46637599003274E-02 
619	 8.42055239547304E-02 
620	 8.42088137613822E-02 
621	 8.41073259663466E-02 
622	 8.39817185501506E-02 
623	 8.39978459644373E-02 
624	 0.083675041846045 
625	 8.34857895135295E-02 
626	 8.34070207451848E-02 
627	 8.29407941529226E-02 
628	 8.28111470559222E-02 
629	 8.28435399948813E-02 
630	 8.28212574817517E-02 
631	 8.29781402669909E-02 
632	 8.25720857937504E-02 
633	 8.23230503879214E-02 
634	 0.083183979322958 
635	 8.20400312347156E-02 
636	 8.14512919904454E-02 
637	 8.21378083052777E-02 
638	 0.081445423503847 
639	 8.15490272576224E-02 
640	 8.16955539397262E-02 
641	 8.08520364867149E-02 
642	 8.03486661437171E-02 
643	 7.99463498718903E-02 
644	 7.94879136850277E-02 
645	 7.89127321916395E-02 
646	 7.84266834998418E-02 
647	 7.80425076224056E-02 
648	 7.77496664765585E-02 
649	 7.75554785532229E-02 
650	 7.74562492250161E-02 
651	 7.71712328334908E-02 
652	 7.64486646127227E-02 
653	 7.58251811373142E-02 
654	 7.46985433090644E-02 
655	 7.32689577296683E-02 
656	 7.30653022179701E-02 
657	 7.27325045775629E-02 
658	 0.072201920835586 
659	 7.16103941665997E-02 
660	 7.08659091023074E-02 
661	 6.99765037622617E-02 
662	 0.069341118116018 
663	 0.069470788983058 
664	 6.91727564437124E-02 
665	 6.88940309748212E-02 
666	 6.87657017774892E-02 
667	 6.79224781907514E-02 
668	 6.78523499427598E-02 
669	 6.79091521541498E-02 
670	 6.71307305522084E-02 
671	 6.67339676727928E-02 
672	 6.66648840928145E-02 
673	 6.69823244355452E-02 
674	 6.78103046048465E-02 
675	 6.72710505669883E-02 
676	 6.67831166663499E-02 
677	 6.73171140134009E-02 
678	 6.70246526398472E-02 
679	 6.70640848539796E-02 
680	 6.72956297147759E-02 
681	 0.067129658029785 
682	 6.71443680346777E-02 
683	 6.72565238965734E-02 
684	 6.75106248128288E-02 
685	 6.82666702728698E-02 
686	 6.76825367388206E-02 
687	 6.69174613641954E-02 
688	 6.75819654634331E-02 
689	 0.068670401245485 
690	 6.84402378693141E-02 
691	 6.74244801484269E-02 
692	 6.74812795661403E-02 
693	 6.68633061876449E-02 
694	 6.62006140472269E-02 
695	 6.59502938992612E-02 
696	 6.57215566064869E-02 
697	 0.064476959959294 
698	 6.30716369067458E-02 
699	 6.27143010016256E-02 
700	 6.16459682508018E-02 
701	 6.06200550190947E-02 
702	 5.98466992648718E-02 
703	 5.89427880544233E-02 
704	 5.74968861647312E-02 
705	 5.62150613201674E-02 
706	 5.54289158519124E-02 
707	 5.41093572170039E-02 
708	 5.27295795079175E-02 
709	 5.13750212776392E-02 
710	 4.99287460536847E-02 
711	 4.76922209289135E-02 
712	 4.57071723459796E-02 
713	 4.42526798021731E-02 
714	 4.26633128624716E-02 
715	 4.06861522710386E-02 
716	 3.79927099477479E-02 
717	 3.49043121067392E-02 
718	 0.032511237844357 
719	 3.16504078664781E-02 
720	 3.10789725307795E-02 
721	 2.95654599441218E-02 
722	 2.86737022746304E-02 
723	 2.66468987534209E-02 
724	 2.39006583175588E-02 
725	 2.37855288636975E-02 
726	 2.26135217688341E-02 
727	 2.11154595128488E-02 
728	 0.020080654083296 
729	 1.74734315980192E-02 
730	 1.61427881426355E-02 
731	 1.58443843395362E-02 
732	 1.50578620943841E-02 
733	 1.43406209523115E-02 
734	 1.35247491244379E-02 
735	 1.28213968271354E-02 
736	 1.29493880490076E-02 
737	 1.26024366907381E-02 
738	 0.012259128667414 
739	 1.23228680876757E-02 
740	 1.17048815082503E-02 
741	 1.18511622014443E-02 
742	 1.23231184665067E-02 
743	 1.19589889880961E-02 
744	 1.18464221190798E-02 
745	 1.16109697246329E-02 
746	 1.13556657226659E-02 
747	 1.19729375590224E-02 
748	 1.21778249941317E-02 
749	 1.21334767972207E-02 
750	 1.21359172732075E-02 
751	 1.15516198136118E-02 
752	 1.15582471030839E-02 
753	 1.18755919694954E-02 
754	 1.15816454973159E-02 
755	 1.17458669432135E-02 
756	 1.19189017423334E-02 
757	 0.011802300251064 
758	 1.13836217970852E-02 
759	 1.09434934126747E-02 
760	 1.02836796975906E-02 
761	 9.66590930168075E-03 
762	 9.87500545140911E-03 
763	 1.16252190269734E-02 
764	 1.27743430462211E-02 
765	 1.19443372247094E-02 
766	 1.18989420015013E-02 
767	 1.19479118291768E-02 
768	 1.18331295136479E-02 
769	 0.0117405466169 
770	 1.23184605902218E-02 
771	 1.29946421743762E-02 
772	 1.31636942274747E-02 
773	 1.27915427568283E-02 
774	 1.22795137884107E-02 
775	 1.21855213476698E-02 
776	 1.28421645637949E-02 
777	 1.30730455270884E-02 
778	 0.012817575417767 
779	 1.26526214804815E-02 
780	 1.35759260228441E-02 
781	 1.38692053344662E-02 
782	 1.38302301318122E-02 
783	 1.38980873807055E-02 
784	 1.39627018345503E-02 
785	 1.36736508066811E-02 
786	 1.35311813390872E-02 
787	 1.41119154954913E-02 
788	 1.43897878036817E-02 
789	 1.45576578071059E-02 
790	 1.48452685074335E-02 
791	 1.53706443235313E-02 
792	 1.53057400391939E-02 
793	 1.52703593817997E-02 
794	 1.55338705474394E-02 
795	 1.54843900703564E-02 
796	 1.54405546120804E-02 
797	 1.58551836966298E-02 
798	 1.66358171463885E-02 
799	 1.55663955820006E-02 
800	 1.59674512915967E-02 
801	 1.70726895249441E-02 
802	 1.62890203372747E-02 
803	 1.73168956882646E-02 
804	 1.73592276791912E-02 
805	 1.62733918442813E-02 
806	 0.017008877739179 
807	 1.66034435815511E-02 
808	 1.61984662724345E-02 
809	 0.016703296323734 
810	 1.59292371680297E-02 
811	 1.54038780000187E-02 
812	 1.55370374040321E-02 
813	 0.016014778790985 
814	 1.51599288170429E-02 
815	 1.46373023550556E-02 
816	 1.44477240313448E-02 
817	 1.33875421557322E-02 
818	 1.56062099503789E-02 
819	 1.51673499848353E-02 
820	 0.012092551033678 
821	 1.37026493527315E-02 
822	 1.32016374507569E-02 
823	 1.26908291126846E-02 
824	 1.37906756037231E-02 
825	 1.18106803795671E-02 
826	 1.03783282780279E-02 
827	 1.01624603829496E-02 
828	 0.010478990764421 
829	 9.35107953728963E-03 
830	 8.60048955713521E-03 
831	 8.5931013875545E-03 
832	 8.51853876356538E-03 
833	 8.01841951293168E-03 
834	 8.63499093156506E-03 
835	 9.91418155374892E-03 
836	 8.9230139005788E-03 
837	 8.30473287263075E-03 
838	 8.02376900515604E-03 
839	 7.78892324853641E-03 
840	 8.09777724975628E-03 
841	 8.89965777079688E-03 
842	 9.06576989580965E-03 
843	 7.8835870650969E-03 
844	 8.19285682077553E-03 
845	 8.11755952212234E-03 
846	 7.49889036824696E-03 
847	 7.41906257261905E-03 
848	 8.09604738933584E-03 
849	 8.4141951412413E-03 
850	 8.03866780029274E-03 
851	 7.84562423870886E-03 
852	 8.03767533544591E-03 
853	 0.008370108208263 
854	 8.48253435146367E-03 
855	 8.06724699511967E-03 
856	 7.85386570076982E-03 
857	 7.8842510267443E-03 
858	 7.83694605085671E-03 
859	 6.83461516732602E-03 
860	 6.38479126015988E-03 
861	 6.64215057375332E-03 
862	 6.99450016306598E-03 
863	 7.09929989193767E-03 
864	 7.02247225229243E-03 
865	 7.05836265709836E-03 
866	 7.59433127942946E-03 
867	 8.33761806085517E-03 
868	 8.06038384732409E-03 
869	 6.83810779431292E-03 
870	 6.47282390403107E-03 
871	 7.12723386499493E-03 
872	 0.007363800546577 
873	 6.43345044074155E-03 
874	 5.87687366966364E-03 
875	 7.13409921960011E-03 
876	 8.13031008434039E-03 
877	 6.90674761596334E-03 
878	 6.13929269385729E-03 
879	 6.42491023876298E-03 
880	 7.0720627074552E-03 
881	 6.88732642821876E-03 
882	 6.03929512986004E-03 
883	 5.63058172913861E-03 
884	 5.95414694818668E-03 
885	 6.57753993059868E-03 
886	 7.33402576819336E-03 
887	 7.24604456924508E-03 
888	 6.64947132461266E-03 
889	 7.30795158786305E-03 
890	 7.64158252663544E-03 
891	 7.74793564569006E-03 
892	 7.56834445605379E-03 
893	 6.11671231107126E-03 
894	 3.70245669197277E-03 
895	 0.003946688897454 
896	 8.35942110887266E-03 
897	 6.54534497074289E-03 
898	 4.69544814140518E-03 
899	 3.70565827424106E-03 
900	 2.97247109389239E-03 
901	 4.51748797731474E-03 
902	 5.67842864984301E-03 
903	 5.7379737365195E-03 
904	 5.1915422263634E-03 
905	 6.54050594806915E-03 
906	 7.53487080460637E-03 
907	 6.88352290067036E-03 
908	 4.73840416515428E-03 
909	 4.9129539141306E-03 
910	 4.73076758445221E-03 
911	 1.83436308615423E-03 
912	-3.47493365177747E-03 
913	 4.41589088976964E-03 
914	 4.3844839902091E-03 
915	-4.29349964297997E-03 
916	 2.63891185435379E-03 
917	 8.81251188901848E-04 
918	-2.37736973245244E-03 
919	-4.21622784193981E-04 
920	 7.37031240895895E-03 
921	 2.13846659736558E-03 
922	-1.75748538169791E-03 
923	 4.91887766798838E-03 
924	 5.60225087000679E-03 
925	 3.91871053921763E-03 
926	 4.24147406046553E-03 
927	 9.45332448210038E-03 
928	 1.03575866648962E-02 
929	 8.98667934159112E-03 
930	 1.04244040540714E-02 
931	 1.83347345746596E-02 
932	-5.13892241601362E-03 
933	-8.62566355409158E-03 
934	 9.73128771041708E-03 
935	-7.5391932507992E-04 
936	-5.24510318804219E-02 
937	-3.84885361881657E-02 
938	-0.008418058361969 
939	-1.68647668538504E-02 
940	 3.91515523313993E-02 
941	 1.00820962600962E-02 
942	-4.47589230344931E-02 
943	 1.28177810273728E-02 
944	 2.92507219847513E-02 
945	 1.83316400855403E-02 
946	 1.97652728645823E-02 
947	 5.17697885448915E-02 
948	-3.55103756637313E-02 
949	-2.76978414799705E-02 
950	 5.39346138980256E-02 
951	 6.73539850131997E-02 
952	 3.81518826213116E-02 
953	 1.30799175904771E-02 
954	 7.72848229049581E-03 
955	 1.00886569001323E-02 
956	-4.45890306789978E-03 
957	-1.23196306537042E-02 
958	-1.34807392047439E-02 
959	-1.95620704522409E-02 
960	-4.35309633901841E-03 
961	-2.02981361791982E-03 
962	-1.09095371245823E-02 
963	-8.56604178223596E-03 
964	-4.3101945028362E-03 
965	 5.59585436944355E-03 
966	 1.34681522591303E-02 
967	 7.63981162776711E-03 
968	 5.7923983901076E-04 
969	-1.23817243377961E-03 
970	 1.18575709983933E-03 
971	 1.83159989692903E-03 
972	 1.48544903142115E-03 
973	-1.42758003558422E-03 
974	-2.90999433836888E-03 
975	 3.54896151299575E-03 
976	 1.49019295480135E-04 
977	-1.67437644084442E-03 
978	 1.35256683601031E-03 
979	 2.98230054869227E-03 
980	 3.12620488003478E-03 
981	 6.09891322041432E-03 
982	 4.92927255111122E-03 
983	-9.87584782904246E-03 
984	-5.88662489970221E-03 
985	 6.8383312663527E-03 
986	 0.012704174236163 
987	 1.38115500770892E-03 
988	-6.16224188991292E-03 
989	-1.31335352627797E-03 
990	 7.41989032326666E-03 
991	 4.08804898853635E-03 
992	-1.8748119864382E-03 
993	-1.94060060751864E-03 
994	 7.02274250062581E-03 
995	 1.90826363358147E-02 
996	 8.16534483057338E-03 
997	-2.79551274953667E-03 
998	-2.38437189325453E-03 
999	 5.98096348039714E-03 
1000	 5.23609812750486E-03 
1001	 1.39439391048326E-02 
1002	 6.62324756318843E-03 
1003	 3.7870322823175E-03 
1004	-2.07667165570937E-03 
1005	-3.6495878128663E-03 
1006	-1.07201903319386E-03 
1007	 2.43423287584062E-03 
1008	 2.69357960292242E-03 
1009	 6.26680150678332E-03 
1010	 1.16129581997042E-02 
1011	 1.28447510570752E-02 
1012	 1.55517995111653E-02 
1013	 1.63144933124121E-02 
1014	 0.014751949747179 
1015	 9.09324440668602E-03 
1016	 6.20995512633646E-03 
1017	 1.15295820342572E-03 
1018	-5.28722914153397E-04 
1019	 2.66476907553828E-04 
1020	 1.9072783137618E-04 
1021	 4.31325248745505E-04 
1022	 3.75762157351183E-03 
1023	 4.07852399101564E-03 
1024	 1.96951191507093E-03 
1025	 5.27629260748527E-03 
1026	 6.36257939970227E-03 
1027	 6.22937559391985E-03 
1028	 7.23647528377696E-03 
1029	 6.33345911423887E-03 
1030	 2.05954905265075E-03 
1031	-6.53941094419031E-04 
1032	-4.63706886328207E-03 
1033	-4.89950531441992E-03 
1034	-3.82454730750162E-03 
1035	-2.60851771521759E-03 
1036	 2.51978434710148E-03 
1037	 5.1390916903669E-03 
1038	 4.37748039036308E-03 
1039	 7.71463645201859E-03 
1040	 1.13534644663405E-02 
1041	 1.18209111905417E-02 
1042	 1.12441969737922E-02 
1043	 1.01737427302406E-02 
1044	 7.12382988964475E-03 
1045	-1.08857615085188E-03 
1046	-2.5706725470835E-03 
1047	-1.61651858273947E-03 
1048	-1.52792948930894E-03 
1049	 1.31832688359118E-03 
1050	 3.3865109726925E-03 
1051	 4.60525429398369E-03 
1052	 5.65803997609231E-03 
1053	 9.19409040633167E-03 
1054	 1.02073297620961E-02 
1055	 7.3504357856632E-03 
1056	 6.66354575103685E-03 
1057	 6.3255663848408E-03 
1058	 5.80816508075718E-03 
1059	 5.5219156675718E-03 
1060	 7.16951580690276E-03 
1061	 6.31323048693055E-03 
1062	 3.19964971883043E-03 
1063	 2.19378910104379E-03 
1064	 1.09706538537093E-03 
1065	 5.88863379519692E-04 
1066	 7.72584141204376E-04 
1067	 1.83505292653354E-03 
1068	 4.42528987455891E-03 
1069	 5.49405246373166E-03 
1070	 7.20330091394054E-03 
1071	 7.87239789882941E-03 
1072	 4.44927661891621E-03 
1073	 5.34757624925015E-03 
1074	 5.80726495420748E-03 
1075	 7.74098071925477E-03 
1076	 7.72354012718838E-03 
1077	 8.01751527172261E-03 
1078	 6.88808694657296E-03 
1079	 2.21101527139327E-03 
1080	 2.00646119366369E-03 
1081	 4.90777692507307E-03 
1082	 5.26066480873913E-03 
1083	 7.74285075164804E-03 
1084	 7.38871172977884E-03 
1085	 7.32828592548794E-04 
1086	-4.34695637066139E-04 
1087	 8.98295898943439E-04 
1088	 1.59236910472181E-03 
1089	 4.85618682778797E-03 
1090	 1.02731127610806E-02 
1091	 1.03646507358442E-02 
1092	 7.76608435711756E-03 
1093	 5.99935516289325E-03 
1094	-9.56577969649175E-04 
1095	-2.55829790384035E-03 
1096	-9.58740626683314E-04 
1097	-1.19258944193364E-03 
1098	 1.28961635573643E-03 
1099	 2.70558513063429E-03 
1100	 3.82304302656012E-03 
1101	 2.86968808144708E-03 
1102	-2.73883717698509E-03 
1103	-3.28157034377208E-03 
1104	-3.28153119061565E-03 
1105	-1.49132830066487E-03 
1106	 5.59018269594517E-03 
1107	 1.52395203338167E-02 
1108	 0.016361478110019 
1109	 6.02343911140203E-03 
1110	 3.61989232577542E-03 
1111	-1.04682774585119E-03 
1112	-3.63725722515255E-03 
1113	 4.38344823524966E-03 
1114	 2.09562310782865E-03 
1115	-1.55073138576658E-02 
1116	-2.77720464195165E-02 
1117	-6.02429978264443E-02 
1118	-6.18866438031479E-02 
1119	 1.14495023658105E-02 
1120	 3.17565024712359E-02 
1121	 0.063044368006667 
1122	 0.112313091255786 
1123	-0.186458525042153 
1124	-0.305895872028061 
1125	-0.287453274123112 
1126	-0.283277801256345 
1127	-7.66413425349394E-02 
1128	 9.80784636068461E-03 
1129	-1.21382389238509E-02 
1130	-0.20067242005292 
1131	-0.177589679589313 
1132	-0.120443878776632 
1133	-9.58732622004971E-02 
1134	 1.67663915710899E-03 
1135	 1.24513408300323E-03 
1136	-0.132343121083059 
1137	-0.12681866445091 
1138	-7.16933135727133E-02 
1139	-1.01924988232572E-02 
1140	-4.02694350089622E-02 
1141	-3.10660552334609E-02 
1142	-2.93043414975515E-02 
1143	-0.026228161073643 
1144	 5.57826523068054E-02 
1145	 0.036431982881457 
1146	 1.60827587648634E-02 
1147	-0.012017342152306 
1148	-0.127913603009201 
1149	-9.50223446968829E-02 
1150	-5.70949893294967E-02 
1151	-2.00225018516161E-02 
1152	-1.42326208037347E-03 
1153	 7.02253737220821E-02 
1154	 5.88964549068072E-02 
1155	 9.92438551184494E-03 
1156	-9.50393473516713E-03 
1157	-9.9890729550467E-03 
1158	-4.97246780837063E-03 
1159	 3.22446919751454E-03 
1160	 2.29186817670836E-03 
1161	 1.19697174746903E-03 
1162	 4.54177445467047E-04 
1163	-1.83216989668497E-03 
1164	 3.45942051138623E-03 
1165	 5.85599472862089E-03 
1166	 3.46020422275256E-04 
1167	 2.37870742812834E-03 
1168	 0.010912821294895 
1169	 1.13786032547966E-02 
1170	 7.09531531972303E-03 
1171	 5.46633938602353E-03 
1172	-1.49926495780484E-03 
1173	-2.74388599610118E-03 
1174	-1.60755562202616E-04 
1175	 4.0741166402317E-03 
1176	 3.14833457269073E-03 
1177	 6.85907991740275E-04 
1178	-2.69980554288623E-04 
1179	 3.71232506000296E-04 
1180	 4.6593697511547E-03 
1181	 6.82294698406035E-03 
1182	 3.68794926990861E-03 
1183	 2.98105707684846E-03 
1184	 1.67376109107544E-03 
1185	-1.50199939447196E-03 
1186	 1.73869370692324E-03 
1187	 4.09798580933637E-03 
1188	 9.19839286311036E-04 
1189	 2.30162378332863E-03 
1190	 2.55886270376464E-03 
1191	-4.94917421011051E-04 
1192	 7.88431212180512E-05 
1193	 4.47026927028379E-03 
1194	 7.55194430749507E-03 
1195	 3.92611497505814E-03 
1196	 5.96103295964899E-04 
1197	 2.25927164810863E-04 
1198	-1.04983149181117E-03 
1199	 9.21665204875352E-04 
1200	 5.41609689837386E-03 
1201	 5.65506594340248E-03 
1202	 2.62278654597815E-03 
1203	 6.46412544185321E-04 
1204	 1.43243745166742E-03 
1205	 2.28188457337359E-03 
1206	 1.87745864560406E-03 
1207	 2.55713176099744E-03 
1208	 3.71895644695108E-03 
1209	 4.10127508736486E-03 
1210	 6.00538908777773E-03 
1211	 5.30784723072456E-03 
1212	-1.02043778641005E-03 
1213	-3.43160772082054E-03 
1214	-2.92671714062738E-03 
1215	-8.31898839877105E-04 
1216	 1.2366240531717E-03 
1217	 4.83932484667731E-03 
1218	 4.26912296546211E-03 
1219	 2.33441861302424E-03 
1220	 2.75755784977545E-03 
1221	 2.45283757511201E-03 
1222	 5.77864060365375E-03 
1223	 7.45082404388369E-03 
1224	 4.07601452900509E-03 
1225	 4.82778374288521E-03 
1226	 6.23121746966078E-03 
1227	 5.19287891873665E-03 
1228	 4.85079017517316E-03 
1229	 4.84571733611595E-03 
1230	 4.83519274940729E-03 
1231	 0.001985966966955 
1232	-1.05344463984375E-03 
1233	 8.47522905328676E-04 
1234	 1.74948041410371E-03 
1235	 1.21214888540364E-03 
1236	 1.72118502158156E-03 
1237	 2.6445418510708E-03 
1238	 2.28151930924773E-03 
1239	 4.07155917385803E-04 
1240	 1.91620108177543E-03 
1241	 3.15338848628067E-03 
1242	 3.68454588878839E-03 
1243	 4.87006496532465E-03 
1244	 4.72243940813199E-03 
1245	 3.64472088187268E-03 
1246	 3.06261809677333E-03 
1247	 4.03220203881035E-03 
1248	 5.94556007840413E-03 
1249	 6.62924193553819E-03 
1250	 4.83299090806152E-03 
1251	 2.12759582234141E-03 
1252	 6.04285426410485E-04 
1253	 1.31588908273471E-05 
1254	 1.88084608769009E-03 
1255	 2.56665316943315E-03 
1256	 1.66422107872441E-03 
1257	-1.33132267001275E-03 
1258	-1.31491836922705E-03 
1259	-2.73075215441326E-03 
1260	-2.01469533731222E-03 
1261	 3.80098412337086E-03 
1262	 0.005269896504708 
1263	 4.89093571562452E-03 
1264	 5.44062149652679E-03 
1265	 4.73282735318928E-03 
1266	 2.97200999105386E-03 
1267	 1.92750301244705E-03 
1268	 3.28820194888273E-03 
1269	 4.26240239944999E-03 
1270	 2.3680882779565E-03 
1271	 2.43037097401403E-03 
1272	 2.39502414617355E-03 
1273	 2.24269063077404E-03 
1274	 3.73586520700653E-03 
1275	 3.52805890010663E-03 
1276	 4.38068593889976E-03 
1277	 5.33703189427298E-03 
1278	 3.51302980407901E-03 
1279	 2.70807299206326E-03 
1280	 4.1763328846162E-03 
1281	 5.01889317276964E-03 
1282	 0.00642634307304 
1283	 7.4939652990312E-03 
1284	 9.17107592107399E-03 
1285	 9.08673366896408E-03 
1286	 7.97573547883874E-03 
1287	 7.15674711960787E-03 
1288	 5.09375813832709E-03 
1289	 4.43625126283526E-03 
1290	 3.94551601381991E-03 
1291	 4.42279469105658E-03 
1292	 6.56376150316067E-03 
1293	 4.65199827074509E-03 
1294	 2.77433574536586E-03 
1295	 5.48539420772052E-03 
1296	 8.0059744556712E-03 
1297	 8.81259697305045E-03 
1298	 6.6617182668297E-03 
1299	 2.96964319536184E-03 
1300	 2.96030005836598E-03 
1301	 3.51674901659172E-03 
1302	 5.84623826475803E-03 
1303	 9.66613503225631E-03 
1304	 7.58371952205407E-03 
1305	 4.06104492618022E-03 
1306	 2.98577380101413E-03 
1307	 1.77823010712009E-03 
1308	 2.28585682162562E-03 
1309	 8.84524497735543E-03 
1310	 1.01053648979168E-02 
1311	 6.79043574126826E-03 
1312	 6.91561635629582E-03 
1313	 9.24761347268984E-03 
1314	 4.09814689515955E-03 
1315	-9.34748194007225E-03 
1316	-7.94583428834052E-03 
1317	 6.29951076973198E-04 
1318	-1.32663218536775E-03 
1319	 1.72301113910406E-03 
1320	 7.87604473494334E-03 
1321	 1.15944034701079E-02 
1322	 1.15056370975035E-03 
1323	-8.01834585334618E-03 
1324	-7.78174534464701E-03 
1325	-1.39152386685465E-02 
1326	-2.14812315321519E-02 
1327	-1.27057951569639E-02 
1328	-4.31984190255582E-04 
1329	 6.49513113611347E-03 
1330	 4.15181366828002E-04 
1331	 1.08757646723766E-02 
1332	 4.22680186007501E-02 
1333	 2.30278127771608E-02 
1334	-8.16229430616465E-03 
1335	-1.20560886199935E-02 
1336	-0.021723677498834 
1337	-1.12624749511575E-02 
1338	 6.19455554464546E-02 
1339	 7.64632197551535E-02 
1340	 5.07030619515076E-02 
1341	 5.85482320160702E-02 
1342	 6.30315766574889E-02 
1343	 5.86856160627364E-02 
1344	 8.51882146998419E-02 
1345	 9.98196783705023E-02 
1346	 0.044516534708946 
1347	 1.80074955219839E-02 
1348	 7.3698180838577E-03 
1349	 0.041636001472291 
1350	 0.196708750481931 
1351	 0.294489658531436 
1352	 0.562667403697115 
1353	 0.785254373774655 
1354	 1.00285990767415 
1355	 0.303894427035265 
1356	 0.318494487365833 
1357	 0.489205216785243 
1358	 0.108956994567979 
1359	 0.301415214165589 
1360	 0.29767010264704 
1361	-0.153009698043075 
1362	-0.260889626334325 
1363	-0.248819545267324 
1364	-0.297307393469437 
1365	-0.763863133145108 
1366	-0.656859228775037 
1367	 0.193413910718553 
1368	 0.69221112421032 
1369	 1.45685387868262 
1370	 1.63322034344597 
1371	 3.28273391578249 
1372	 1.79140343553096 
1373	 9.63677708869781E-02 
1374	-0.169269955123518 
1375	 0.208228491687229 
1376	 0.502059572388122 
1377	 3.44108916087098 
1378	-2.32305434121184 
1379	-1.8921894268276 
1380	-2.38854938329794 
1381	-68.4635065882855 
1382	 12.8095709521324 
1383	 4.45798388499118 
1384	 3.90133582349575 
1385	-5.37925064297438 
1386	-6.42190851905584 
1387	 1.55983464444424 
1388	 1.45671683039242 
1389	-1.2769150533291 
1390	-1.15573911365426 
1391	 2.29275910791482 
1392	-3.12970452400117 
1393	-0.17493824546482 
1394	 0.273936467239507 
1395	 0.171155708457434 
1396	 1.46644052760189 
1397	 0.696883916329598 
1398	-9.23855001251803 
1399	 1.90846679135997 
1400	-2.45200291812405 
1401	-5.26533175254993 
1402	 2.37788993358237 
1403	 1.46421101731211 
1404	 1.38456374457522 
1405	 1.4194565549626 
1406	-29.2070903832991 
1407	-3.73842002453225 
1408	-1.26560653128739 
1409	-1.64532616876496 
1410	 2.29025385661142 
1411	 4.61095034663873 
1412	-1.57823967163637 
1413	-2.182545601852 
1414	 0.033668692964796 
1415	 0.540514990117894 
1416	 0.783229154218983 
1417	 0.529043135780231 
1418	-1.77932565277165 
1419	-0.742673781114619 
1420	 0.143507452600758 
1421	 0.246236760839617 
1422	-6.33135775808391 
1423	 2.84056223650593 
1424	-0.686103808619252 
1425	-0.687872566960239 
1426	-2.04065011231956 
1427	-1.66092117739732 
1428	-0.3628899780781 
1429	-0.191747911050804 
1430	-5.52661595492233E-02 
1431	-2.83971319150281E-02 
1432	-0.179182971985866 
1433	 6.07644932886975E-02 
1434	 0.273261213508041 
1435	 0.243221590172308 
1436	 0.293296626270893 
1437	 0.3761847256864 
1438	 1.20783854242993 
1439	 0.737033460958584 
1440	-1.06491463113756 
1441	-6.46871977950518 
1442	-2.63036135753693 
1443	-2.6749670975071 
1444	-0.990889587333122 
1445	 0.788856494724107 
1446	 0.751790625444823 
1447	-0.419630905682458 
1448	-1.37082951391414 
1449	-0.908445470398186 
1450	-0.049127582503086 
1451	 0.184260700692352 
1452	 0.323858170798808 
1453	-8.18710503114226E-02 
1454	-0.287297586486792 
1455	-0.78862935895034 
1456	-0.743867464548559 
1457	-0.439692704596604 
1458	-0.320708974493742 
1459	-0.119037219620968 
1460	 1.42130568346432E-02 
1461	 0.147678588976334 
1462	 0.121299150248752 
1463	-1.48219650487993E-02 
1464	-2.66752983162028E-02 
1465	-8.06848982058117E-02 
1466	-8.90726325942197E-02 
1467	 3.78402798684664E-02 
1468	 2.76223131857511E-02 
1469	-0.132673002085704 
1470	-0.094915644696963 
1471	 7.86358003911164E-02 
1472	 0.143915268371421 
1473	 0.392483963261496 
1474	 0.412534812957424 
1475	 2.90205539386468E-02 
1476	-4.33930062351275E-02 
1477	-1.33132597619594E-02 
1478	-4.86699576812659E-02 
1479	-0.064835600859881 
1480	-3.81971543496371E-02 
1481	-8.3831946534875E-03 
1482	-2.71084102216971E-02 
1483	-0.03807095506308 
1484	-1.62370594039063E-02 
1485	-3.15995890522955E-02 
1486	-2.32739144499662E-02 
1487	 1.74557550845908E-02 
1488	 4.96810818200852E-02 
1489	 8.96010258483563E-02 
1490	 7.88280947832069E-02 
1491	 4.91551863764854E-02 
1492	 4.56047238448642E-02 
1493	 3.54671063385049E-02 
1494	 1.93223684737535E-02 
1495	 2.57487180568287E-03 
1496	 4.94863217546606E-03 
1497	 1.21596543089516E-02 
1498	 1.37703353897215E-02 
1499	 3.36050857822419E-02 
1500	 3.48099829150794E-02 
1501	 8.2544830699248E-03 
1502	 2.41905977527864E-03 
1503	 7.18997139198307E-03 
1504	 9.70566322559095E-03 
1505	 2.01853166863606E-02 
1506	 2.30227033338237E-02 
1507	 2.33831178658109E-02 
1508	 2.14278629035119E-02 
1509	 1.18032565506433E-02 
1510	 4.39863550296721E-03 
1511	 3.48946376206232E-03 
1512	 4.32760854146036E-03 
1513	 7.92784160846118E-03 
1514	 1.72033488903248E-02 
1515	 2.12491164055127E-02 
1516	 0.014027188936827 
1517	 5.40874181050171E-03 
1518	 1.39212373544685E-04 
1519	 1.30206514863296E-03 
1520	 2.32298044136157E-03 
1521	 2.99703136831888E-03 
1522	 7.31791523958403E-03 
1523	 8.19010452846811E-03 
1524	 1.14590660163261E-02 
1525	 1.66130225831197E-02 
1526	 1.51243595059982E-02 
1527	 5.55400969345899E-03 
1528	-4.50749891322612E-03 
1529	-4.62360384303077E-03 
1530	-2.84716315716372E-03 
1531	 2.57455092822266E-03 
1532	 1.03858399812971E-02 
1533	 1.11581141510026E-02 
1534	 8.45958669058415E-03 
1535	 9.86022577331558E-04 
1536	-1.66434746897606E-03 
1537	 3.20866120752272E-03 
1538	 3.22929093471241E-03 
1539	 1.90067546584199E-03 
1540	 2.82248921476637E-03 
1541	 8.12741968358761E-04 
1542	-4.81631071773334E-04 
1543	 0.001645732492028 
1544	 2.74205952766699E-03 
1545	 2.69122048720873E-03 
1546	 5.28183756552771E-05 
1547	-1.27324938361791E-03 
1548	 2.43819127897938E-03 
1549	 8.94366301310182E-04 
1550	-2.7711903098644E-03 
1551	-5.47658545000744E-04 
1552	-7.30469824351608E-04 
1553	-1.12271731366514E-03 
1554	 2.66507402730227E-03 
1555	 7.22769367955999E-03 
1556	 9.76431944722256E-03 
1557	 1.04862727868847E-02 
1558	 9.23852508139473E-03 
1559	 7.10624175777772E-03 
1560	 7.48917991063074E-03 
1561	 3.54120761529429E-03 
1562	-9.34604191938135E-06 
1563	-1.8743721671512E-04 
1564	-1.24364082691485E-03 
1565	 1.38157548357506E-04 
1566	 1.12991802731772E-03 
1567	 1.30779463710472E-03 
1568	 5.60013079121568E-03 
1569	 1.16389686303111E-02 
1570	 9.99295461160571E-03 
1571	 6.79638844301678E-03 
1572	 6.33095351909888E-03 
1573	 6.02402035325374E-04 
1574	-1.62629525430078E-03 
1575	 8.55243459800445E-04 
1576	-6.61217305557512E-04 
1577	-0.001114484532739 
1578	-1.01484623096167E-03 
1579	-1.37769175953365E-03 
1580	 2.42559333458232E-03 
1581	 8.11198537700707E-03 
1582	 9.70425647995321E-03 
1583	 7.97046300174487E-03 
1584	 8.19845119513086E-03 
1585	 5.7313821855956E-03 
1586	 3.20881352249814E-03 
1587	 6.5215783259555E-03 
1588	 6.50915304339122E-03 
1589	 4.09792832376456E-03 
1590	 7.52059629103491E-03 
1591	 1.16317105860311E-02 
1592	 9.52771885122239E-03 
1593	 4.83653669025258E-03 
1594	 4.16664662227128E-03 
1595	 7.58390865526165E-03 
1596	 5.19405999140482E-03 
1597	 6.73562560816562E-04 
1598	 5.06611777737975E-03 
1599	 7.09377741437586E-03 
1600	 3.46564110381299E-03 
1601	 8.85840671731275E-04 
1602	-3.66847615705692E-03 
1603	-5.9056057280736E-03 
1604	-3.42597090479051E-03 
1605	 6.45287870238836E-04 
1606	 3.17045552158761E-03 
1607	 2.01519787970019E-04 
1608	 7.23829438913026E-04 
1609	 4.99903207055866E-03 
1610	 2.2852065574951E-03 
1611	-4.21991333419444E-04 
1612	 4.58456154373289E-03 
1613	 8.91085494151617E-03 
1614	 6.18224551052194E-03 
1615	 4.27488610192881E-03 
1616	 4.78972339775765E-03 
1617	 6.88114995026539E-04 
1618	-1.27358921243137E-03 
1619	 4.85558898329012E-03 
1620	 6.25138600186127E-03 
1621	 2.22834837018503E-03 
1622	 7.16781097788113E-03 
1623	 1.35004015665756E-02 
1624	 9.99359705467466E-03 
1625	 7.59790944441438E-03 
1626	 9.8367011135574E-03 
1627	 9.9178518800676E-03 
1628	 7.72673919149046E-03 
1629	 5.98002735866177E-03 
1630	 4.50444537090524E-03 
1631	 8.11999892455079E-04 
1632	-2.51051521126778E-04 
1633	 1.61088345197132E-03 
1634	 3.81685969425356E-03 
1635	 5.64465668026365E-03 
1636	 5.01845330358968E-03 
1637	 6.76639833152369E-03 
1638	 8.69040432852056E-03 
1639	 7.14148126494851E-03 
1640	 8.07524684301367E-03 
1641	 6.89669638638071E-03 
1642	 2.41840136268826E-03 
1643	 6.26099128402872E-03 
1644	 1.16156196403397E-02 
1645	 9.92494949093537E-03 
1646	 6.94177673507851E-03 
1647	 4.90189664732982E-03 
1648	 9.4903362743124E-04 
1649	-2.22809729136848E-03 
1650	 3.12162449808421E-03 
1651	 9.12897666246385E-03 
1652	 5.92853510260621E-03 
1653	 3.74157789426005E-03 
1654	 3.80771584128725E-03 
1655	 2.11395805799382E-03 
1656	 8.35892833350794E-04 
1657	-8.25839878593761E-04 
1658	 1.58167567597472E-03 
1659	 7.89412187815945E-03 
1660	 7.49225474199043E-03 
1661	 7.97750252920635E-03 
1662	 7.78809317572212E-03 
1663	-4.97260009404764E-04 
1664	-1.7570881985425E-03 
1665	 3.66363091389598E-03 
1666	 3.75442676720953E-03 
1667	 2.11525626860547E-03 
1668	 1.01877521172278E-04 
1669	 4.31305288690822E-03 
1670	 6.67279841784151E-03 
1671	-2.21034887638148E-03 
1672	-6.57126341682239E-03 
1673	-3.68246325618352E-03 
1674	-3.47184821832031E-03 
1675	 8.65502150240544E-04 
1676	 9.34992525981264E-03 
1677	 8.10424469275326E-03 
1678	 3.17122956618902E-03 
1679	-9.68115363901925E-04 
1680	-2.16149715276787E-03 
1681	 7.20224597006437E-04 
1682	-7.73036765645735E-04 
1683	 1.16371859701094E-03 
1684	 3.59483395718847E-03 
1685	-4.08312885861717E-04 
1686	 6.63400632053888E-04 
1687	 2.00912612504937E-03 
1688	 7.69598097049639E-05 
1689	 5.08746416779977E-03 
1690	 8.7944606745612E-03 
1691	 5.54492810383208E-03 
1692	 3.94418894762157E-03 
1693	 5.29353605002215E-03 
1694	 5.70543112199128E-03 
1695	 5.08259773847736E-03 
1696	 1.04787433254871E-02 
1697	 1.09887895553846E-02 
1698	 2.35260027007163E-03 
1699	 8.04512221802487E-03 
1700	 1.72457728491691E-02 
1701	 1.16665055286761E-02 
1702	 9.58635472335842E-03 
1703	 1.16727377233736E-02 
1704	 3.24080258904712E-03 
1705	-3.16084492020939E-04 
1706	 8.45178058743654E-03 
1707	 8.21899951724573E-03 
1708	 2.12645397888996E-03 
1709	 1.90710285029894E-03 
1710	-5.34442172513822E-03 
1711	-1.04592062309422E-02 
1712	 6.7362421476593E-04 
1713	-3.86881396842456E-03 
1714	-1.98232676652133E-03 
1715	 7.58573290196737E-03 
1716	 7.14578988572229E-03 
1717	 4.20426300658834E-03 
1718	 4.5250688195061E-03 
1719	 1.74072729415076E-03 
1720	-1.54588229352539E-03 
1721	 6.94812635389311E-03 
1722	 1.14179984159975E-02 
1723	 1.05943944653699E-02 
1724	 1.58365725057033E-02 
1725	 1.53349109220505E-02 
1726	 1.48489721585604E-02 
1727	 1.62863435040206E-02 
1728	 7.17607423962961E-03 
1729	 7.88483036866884E-03 
1730	 0.01208304339868 
1731	 8.98882004405552E-03 
1732	 1.23573338491112E-02 
1733	 9.49985513381751E-03 
1734	-4.9432530036175E-03 
1735	-1.84177246240416E-02 
1736	-1.21719535969871E-02 
1737	 4.77148958537628E-03 
1738	 6.04202794301418E-03 
1739	 1.55545277715195E-02 
1740	 3.30540657242607E-02 
1741	 1.43060334717382E-02 
1742	-6.29783065779241E-03 
1743	 2.57085527992675E-03 
1744	-6.20786885756169E-03 
1745	-1.19547595590227E-02 
1746	 1.71031035075846E-02 
1747	 1.69539333690429E-02 
1748	-1.67670287905647E-02 
1749	-1.83844667733597E-02 
1750	-1.07023046143678E-02 
1751	-8.18594291561905E-03 
1752	 2.15310517519824E-02 
1753	 2.69722943556329E-02 
1754	 5.68240972020343E-03 
1755	 2.89219976592726E-03 
1756	-3.87143915402576E-03 
1757	-6.22697175568675E-03 
1758	 9.66348791080905E-03 
1759	 2.27030817874843E-02 
1760	 2.95308456294342E-02 
1761	 1.50510484192483E-02 
1762	 1.04087891996989E-02 
1763	 1.47567869155507E-02 
1764	 1.40917846607902E-03 
1765	 4.02952246327159E-04 
1766	 1.04820970879997E-02 
1767	 1.22418465545718E-02 
1768	 2.70805501490696E-02 
1769	 0.055499993272885 
1770	 6.83637918967482E-02 
1771	 6.40174243169859E-02 
1772	 3.64391563266295E-02 
1773	 2.04193860196309E-03 
1774	 1.66338978913678E-02 
1775	 0.06426502469855 
1776	 7.06259939738836E-02 
1777	 5.42281066378817E-02 
1778	 5.40063173306149E-02 
1779	 3.93940102191092E-02 
1780	 2.57772809080402E-02 
1781	 5.26974980998119E-02 
1782	 2.02992804945934E-02 
1783	-0.136382091672791 
1784	-0.12458995347036 
1785	-4.03287999043637E-03 
1786	 1.72050304320987E-03 
1787	 5.05972468754306E-02 
1788	 9.50386808631902E-02 
1789	 3.40102493301912E-02 
1790	 0.372591046442659 
1791	 0.33190808026445 
1792	 0.196406444792759 
1793	 5.85286703697108E-02 
1794	-0.176202403576464 
1795	-0.2266350735903 
1796	-3.59113880388309E-02 
1797	 0.736045625823981 
1798	 0.623177010276959 
1799	 0.226146681894478 
1800	 0.264032629527465 
1801	 0.27049979750156 
1802	 0.955819692264728 
1803	 1.30563625802211 
1804	 0.479504758266121 
1805	 0.366127876163128 
1806	 0.248125233502189 
1807	 0.298617146370204 
1808	 2.93559679176322 
1809	-46.8765551633968 
1810	-1.88524278754176 
1811	-2.88883500770332 
1812	 0.209395257967051 
1813	-0.193953878320891 
1814	-0.240107667325347 
1815	-0.237835942904807 
1816	-0.255271391191007 
1817	 1.9896122835269 
1818	-0.974824072008738 
1819	-2.24256331292683 
1820	 7.49396516357217 
1821	-2.9514503222286E-03 
1822	-0.140200599540297 
1823	-0.411780488320053 
1824	-0.710785524219838 
1825	 1.15199144127688 
1826	 0.638690207632621 
1827	 4.7354162853963 
1828	 2.01084051763885 
1829	 0.669954262406365 
1830	 0.738853723089185 
1831	-1.80745690591719 
1832	-1.7453155811022 
1833	-0.68926934557694 
1834	-0.411847334754786 
1835	-0.502098731797972 
1836	-0.227200920987762 
1837	 1.07906895912895 
1838	 1.37655567088063 
1839	 0.632125533673369 
1840	 0.62649369326381 
1841	 0.773476444889201 
1842	 0.456587874711533 
1843	 0.439495293669843 
1844	 2.00215784886522 
1845	 3.66096859216891 
1846	 1.53100062142027 
1847	 0.896546693682319 
1848	 0.518971816204804 
1849	 6.04236515468677E-02 
1850	-0.318249683177495 
1851	-1.43531251145562 
1852	-5.36141189537136 
1853	 5.7351193896829 
1854	 1.32088184282737 
1855	-0.784729633998029 
1856	-1.61192274163275 
1857	-3.56291642758931E-03 
1858	 0.43022571225453 
1859	 0.929473122387985 
1860	 2.57804825946186 
1861	-9.12231510598696 
1862	-2.00503033157511 
1863	-1.77004855759206 
1864	-0.77715039484789 
1865	-0.408393680665845 
1866	-0.193204741228169 
1867	-0.326684450650544 
1868	-0.469035971751554 
1869	-0.543838286789314 
1870	-1.39713630846213 
1871	-2.79161278102784 
1872	-2.80736365575825 
1873	 1.47903599786463 
1874	 3.9356608109982 
1875	 1.7304556442955 
1876	 0.972202853377563 
1877	 0.381541431607292 
1878	-1.57206281906602E-02 
1879	-0.721340115399041 
1880	-1.30090513992866 
1881	-3.43259960305589 
1882	 28.5200979350702 
1883	 5.38428411550641 
1884	 2.89637786581696 
1885	 2.8903909801941 
1886	-5.842035797033 
1887	-2.11807137387831 
1888	 6.59954831576615 
1889	 8.27557937056608 
1890	-1.01180029102715 
1891	 5.41147649782677E-03 
1892	 18.6351553640271 
1893	-0.224504604817316 
1894	 0.71897566464909 
1895	 1.21332631314924 
1896	 0.922150204558279 
1897	 2.00729242478787 
1898	-1.78463109632681 
1899	 0.149230737745513 
1900	-1.31806797283532E-04 
1901	-0.808964993410196 
1902	-1.10195703229924 
1903	-1.72358265523735 
1904	-2.64702218237479 
1905	-2.48285967569528 
1906	-3.08434901601959 
1907	 9.26126448828894 
1908	 3.2684447484573 
1909	 2.53251728948829 
1910	 0.816601144846942 
1911	 6.15595464080072E-02 
1912	-3.73732244799457E-02 
1913	 0.801353782935412 
1914	 4.12047865038695 
1915	 2.57560641833128 
1916	 1.868641268294 
1917	 3.17151435754054 
1918	 2.2505758244661 
1919	 0.397173357658713 
1920	 0.719019339274401 
1921	 0.213201133331217 
1922	-0.394543836921003 
1923	-0.693924319019662 
1924	-1.40758582130686 
1925	-1.73805407828865 
1926	-1.99097920126317 
1927	-2.82193471494555 
1928	-2200.4612982046 
1929	-2.99688515927213 
1930	-0.632109486628888 
1931	-0.43704318071709 
1932	-0.313405173520853 
1933	-0.476858414982605 
1934	-0.324034177500662 
1935	 2.45455904299812E-02 
1936	 0.287903047559589 
1937	 0.301521789497436 
1938	-1.62752988714084E-02 
1939	 2.31185623728337 
1940	-0.540423589616202 
1941	-8.48806326415589E-02 
1942	 0.201332620748276 
1943	 0.395002581282472 
1944	 0.587057683900091 
1945	 1.00426670553968 
1946	 0.910342765226536 
1947	 0.262176615362514 
1948	 0.213670593670199 
1949	 0.549156588368521 
1950	 1.67182252272029 
1951	-11.3841949664522 
1952	-2.16842971336848 
1953	-0.848164202351938 
1954	-0.355323208623338 
1955	-0.282254668709304 
1956	-2.61895543076948 
1957	-1.43505303468542 
1958	-0.80804814537204 
1959	-0.68049022646413 
1960	-0.659277214756902 
1961	-3.32520659452471E-02 
1962	-0.58340505246236 
1963	-1.48566519857478 
1964	-0.223135156311953 
1965	-0.163803959295867 
1966	-0.152835768178765 
1967	 8.6974416545585E-03 
1968	-4.46327872189825E-02 
1969	-0.36510667029839 
1970	-0.539866370480149 
1971	-0.715782694546549 
1972	-0.638637843053095 
1973	-0.251689160102074 
1974	-7.92856017799693E-02 
1975	-6.68381569892728E-02 
1976	-0.10959998675147 
1977	-0.200789386308865 
1978	-0.180609102032887 
1979	-0.175430437654377 
1980	 6.26191780634968E-03 
1981	-0.15494002737471 
1982	-0.164877790564909 
1983	-6.79702396304831E-02 
1984	-0.268056055168245 
1985	-0.147844773160419 
1986	 4.2688433001415E-03 
1987	-6.21095231488099E-02 
1988	-7.14211480209809E-03 
1989	 0.106772251476124 
1990	 1.87314915718075E-02 
1991	-0.17237677030865 
1992	-0.28605129724035 
1993	-0.523590847175158 
1994	-0.621571643172325 
1995	-0.619151436797668 
1996	-0.500351323120699 
1997	-0.462677457117349 
1998	-0.241656943912918 
1999	-0.347264886062698 
2000	-0.53767972669124 
2001	-0.465714838185288 
2002	-0.385866012610917 
2003	-0.233921525291493 
2004	-0.303308327673429 
2005	-0.399025979827744 
2006	-0.484047882605469 
2007	-0.665576711977677 
2008	-0.52475268137019 
2009	-0.406186075550618 
2010	-0.191731780940873 
2011	-0.015045623345542 
2012	 0.338677445637449 
2013	 0.716196051258866 
2014	 0.863129352149185 
2015	 0.742889096222875 
2016	 0.522050483036798 
2017	 0.368733889433854 
2018	 0.232851390740372 
2019	 2.00743198137106E-02 
2020	 6.01785382364957E-03 
2021	 9.79207587072108E-02 
2022	 0.141413040050638 
2023	 0.229797714947877 
2024	 0.272184620258222 
2025	 0.31574975902199 
2026	 0.281961846241138 
2027	 0.182755951705843 
2028	 0.135891937875595 
2029	 7.19278141982474E-02 
2030	 3.31111810192509E-02 
2031	 4.04734558412947E-02 
2032	 4.73508428372589E-02 
2033	 0.115140086099406 
2034	 0.128980622641662 
2035	 8.85325969065049E-02 
2036	 6.12193922194642E-02 
2037	 2.52180946265408E-02 
2038	 1.52717553042007E-02 
2039	 1.13731183544674E-02 
2040	 6.60012392545697E-02 
2041	 7.75273467571988E-02 
2042	 6.18263995587056E-02 
2043	 5.44904774389144E-02 
2044	 4.95561102870921E-02 
2045	 5.84476404715507E-02 
2046	 3.68864292931769E-02 
2047	 3.16309931290238E-02 
2048	 6.69687011480476E-02 
2049	 0.04781370173366 
2050	 1.64127012877734E-02 
2051	-1.39908386263994E-02 
2052	-2.18593428774846E-02 
2053	-7.54970034741966E-03 
2054	 1.76234184551272E-02 
2055	 0.065758342559591 
2056	 7.31739130986664E-02 
2057	 1.34880834818053E-02 
2058	-3.60850110043095E-03 
2059	 2.31613331661855E-03 
2060	-3.36046760745706E-03 
2061	-2.59403548018237E-02 
2062	 2.58179924172279E-04 
2063	-1.12794010727207E-02 
2064	-0.085598655690937 
2065	-0.145876672248197 
2066	-0.147914717365616 
2067	-0.108830433020276 
2068	-9.64086688031682E-02 
2069	-8.73942071268302E-02 
2070	-8.06310886457834E-02 
2071	-9.65985343633925E-02 
2072	-8.34867204743769E-02 
2073	-0.043455727648641 
2074	 4.23049636757155E-02 
2075	 4.84874078445917E-02 
2076	 4.05422095409436E-02 
2077	 4.51442404088534E-02 
2078	 3.39440733298114E-03 
2079	-3.05414317795766E-02 
2080	-5.80292665195433E-02 
2081	-3.89177583647671E-02 
2082	-7.02962328507981E-02 
2083	-4.75417585169316E-02 
2084	 1.76101426639165E-02 
2085	 2.63483532423015E-02 
2086	 1.70874807817386E-02 
2087	-7.64334345123211E-03 
2088	-3.02605734710976E-02 
2089	-0.001884041807865 
2090	 4.56421122553668E-02 
2091	 6.63583816627232E-02 
2092	 7.05946181973083E-02 
2093	 4.53770319318532E-02 
2094	 0.043291554182395 
2095	 4.27919588532533E-02 
2096	 0.028348268087798 
2097	 2.48169326354069E-03 
2098	 4.3610302321026E-03 
2099	-3.08834090915882E-03 
2100	 2.07761483753374E-02 
2101	 5.12734301076549E-02 
2102	 0.0943538936122 
2103	 8.92994014025682E-02 
2104	 7.59845917255412E-02 
2105	 6.52855397594683E-02 
2106	 2.17659495264796E-02 
2107	-2.15557112120676E-02 
2108	-4.95340508541206E-02 
2109	-5.82782170867876E-02 
2110	-5.03369219693232E-02 
2111	-1.28285561747003E-02 
2112	 2.26215538516291E-02 
2113	 2.61315573880639E-02 
2114	 1.13202749124417E-02 
2115	 9.39143785757051E-03 
2116	-2.55791088793274E-02 
2117	-3.97300919640201E-02 
2118	-2.58553825031151E-02 
2119	-0.022744633324836 
2120	-2.53526233860547E-02 
2121	-0.020201880695633 
2122	-1.69355644781524E-02 
2123	-3.90034113796577E-02 
2124	-6.47219602686556E-02 
2125	-4.98563176412462E-02 
2126	-3.80448590969615E-02 
2127	-1.48679451274375E-02 
2128	 8.5203488159952E-04 
2129	-3.17556304893608E-02 
2130	-1.86478479731072E-02 
2131	 3.41045039710393E-03 
2132	 1.71838185830264E-02 
2133	 6.58281826779336E-02 
2134	 6.33220653742844E-02 
2135	-5.02829100605215E-03 
2136	-1.05339248911092E-02 
2137	-2.31407230529435E-03 
2138	 0.001551582645373 
2139	 3.76259247711276E-02 
2140	 5.68721676886897E-02 
2141	 6.46366605185505E-02 
2142	 6.00259391018302E-02 
2143	 5.35037454365247E-02 
2144	 3.71139250700976E-02 
2145	-2.12966445838085E-02 
2146	-4.46531121509151E-02 
2147	-4.24708775265818E-02 
2148	-4.96997050019134E-02 
2149	-1.00629574729671E-02 
2150	 3.04362836133036E-02 
2151	 2.83325068058357E-02 
2152	 3.59237117160287E-02 
2153	 2.10782589435392E-02 
2154	-1.25621772336596E-02 
2155	-3.95835312387538E-03 
2156	 3.93483983044893E-03 
2157	-4.70731422835874E-04 
2158	 6.94133272284095E-03 
2159	 1.13779158091824E-03 
2160	-3.40855106348577E-02 
2161	-4.63731383226002E-02 
2162	-4.89349119934645E-02 
2163	-5.54725016455364E-02 
2164	-5.94387939805851E-02 
2165	-6.11584834619028E-02 
2166	-7.40897812937978E-02 
2167	-6.96423014358834E-02 
2168	-3.51772104893252E-02 
2169	-2.77496886154091E-02 
2170	-3.72656588009374E-02 
2171	-1.44434367563298E-02 
2172	-1.02551583474098E-03 
2173	 1.55364423718245E-03 
2174	 4.45403522903377E-02 
2175	 7.49589044708887E-02 
2176	 8.06741239355424E-02 
2177	 0.111871706732934 
2178	 7.97480526341487E-02 
2179	 1.74620716099138E-02 
2180	-7.60391792649555E-03 
2181	-3.71457092283235E-02 
2182	-2.90576146632792E-02 
2183	 5.21027915839235E-02 
2184	 7.94647179948533E-02 
2185	 4.06213793729023E-02 
2186	 2.05019611446982E-02 
2187	-3.05733630830805E-02 
2188	-4.03527701839798E-02 
2189	-0.033335414239697 
2190	-2.90973186979531E-02 
2191	 6.19304874269535E-04 
2192	 3.33674673254226E-03 
2193	-1.55222901517641E-03 
2194	-1.01321076590092E-02 
2195	-5.02384573557948E-02 
2196	-7.60968112108652E-02 
2197	-0.108689701728151 
2198	-0.11703228879249 
2199	-0.097246064255143 
2200	-7.08389439948741E-02 
2201	-5.99115890495982E-02 
2202	-6.42155540907253E-02 
2203	-0.130109454297113 
2204	-0.145295424826045 
2205	-0.110774546244133 
2206	-8.54272516274757E-02 
2207	-3.19754107075502E-02 
2208	 2.58662889941838E-02 
2209	 6.70065698074546E-02 
2210	 8.26550213342395E-02 
2211	 6.09874048310565E-02 
2212	 3.97726992396815E-02 
2213	 2.74901479887894E-02 
2214	 1.32252725148305E-02 
2215	 9.47693268302478E-03 
2216	 1.08728824807313E-02 
2217	 2.78450217834523E-02 
2218	 6.14342782289594E-02 
2219	 0.060665128847985 
2220	 4.95232732961175E-02 
2221	 0.059061115716345 
2222	 6.34565849532754E-02 
2223	 3.79913410512314E-02 
2224	 1.64580011210683E-02 
2225	 7.65805499658976E-03 
2226	-5.66018797035935E-02 
2227	-7.88648521062682E-02 
2228	-4.48870636838259E-02 
2229	-1.31645320661855E-02 
2230	 4.29364038930182E-02 
2231	 5.69917049271543E-02 
2232	 6.89406435728235E-02 
2233	 7.10407013862245E-02 
2234	 5.13102612932611E-02 
2235	-3.78053173330725E-02 
2236	-3.13119332895447E-02 
2237	-2.11677245089262E-03 
2238	 6.13607698246248E-03 
2239	 8.74630046840765E-02 
2240	 0.100278914449166 
2241	 0.106817190733746 
2242	 0.125703407886467 
2243	 6.34593886990599E-02 
2244	 3.05761203154062E-02 
2245	 2.90591776375204E-02 
2246	 3.31212090292904E-02 
2247	 3.07601317376526E-02 
2248	 1.28862784391222E-02 
2249	 1.38004879016903E-02 
2250	 5.92001220525882E-02 
2251	 0.127598425406172 
2252	 0.183229780813243 
2253	 0.167604931044354 
2254	 8.85541151155947E-02 
2255	 1.86713782398032E-02 
2256	-2.02671281188729E-02 
2257	-1.59363307006457E-02 
2258	-3.11922321871053E-02 
2259	 9.54888689706717E-03 
2260	 3.44179748914516E-02 
2261	 5.49189064481846E-02 
2262	 9.56935632797309E-02 
2263	 0.166169041974585 
2264	 0.15231256876258 
2265	 0.128427295937667 
2266	 0.127910582839324 
2267	 0.031081640172165 
2268	 1.14656588565934E-02 
2269	 8.97599908973997E-02 
2270	 0.110681266641758 
2271	 0.167964166737806 
2272	 0.157439084777625 
2273	 9.15811752012942E-02 
2274	 2.39854409268478E-02 
2275	-0.076158115270877 
2276	-0.125751922206056 
2277	-0.17793225253477 
2278	-0.212330345863228 
2279	-0.223187786880967 
2280	-0.242361493623319 
2281	-0.274352838415942 
2282	-0.282624343197664 
2283	-0.234665138493484 
2284	-0.241939437176655 
2285	-0.156857887619502 
2286	-4.14198530881383E-02 
2287	-1.97820449041597E-02 
2288	-5.05415369674132E-02 
2289	-2.57003309539726E-02 
2290	-0.031858981004049 
2291	-5.14023314670249E-02 
2292	 0.045702928333296 
2293	 1.71730978261536E-02 
2294	-0.188203191449257 
2295	-0.269259795005112 
2296	-0.310566616022946 
2297	-0.412661760080623 
2298	-0.463536449640224 
2299	-0.518613326831795 
2300	-0.447427355704309 
2301	-0.219985924799489 
2302	-0.14324890072343 
2303	-1.23736021615249E-02 
2304	 8.14233162925823E-02 
2305	-0.011060977951162 
2306	-0.080131197990651 
2307	-9.60537373795657E-02 
2308	-0.124782098977284 
2309	-0.130403786373461 
2310	-2.47239729931126E-02 
2311	 8.72739919493166E-02 
2312	-7.52980611614167E-03 
2313	 5.66836929243389E-03 
2314	 0.214430561523019 
2315	 0.229899255708861 
2316	 0.164019785982117 
2317	 2.66063059595996E-02 
2318	-0.299897135881315 
2319	-0.273384893587502 
2320	-0.21094907780664 
2321	-0.155961900553281 
2322	 5.59665055150757E-02 
2323	 0.105241974046728 
2324	 0.179336622900067 
2325	 0.26335665296626 
2326	 0.28608627738739 
2327	 0.219504540059809 
2328	 0.151353750209951 
2329	 0.137682358609185 
2330	-0.132749279299239 
2331	-0.275966257839732 
2332	-0.213833619405639 
2333	-0.230011213860173 
2334	-3.86678985870896E-02 
2335	 0.219129618943761 
2336	 0.269767237920737 
2337	 0.346606603608657 
2338	 0.622637154976221 
2339	 0.862027051288742 
2340	 0.502898407912785 
2341	-0.58331264674707 
2342	-2.04135155112061 
2343	-0.968374416012298 
2344	-0.475945461386907 
2345	-0.541240152338463 
2346	-0.530406553749829 
2347	-0.699503493951974 
2348	-1.45586878674285 
2349	-1.27364586575842 
2350	-1.14606605173831 
2351	-1.9958309149575 
2352	-3.0316107119963 
2353	-8.43645074812931 
2354	 10.6390307786612 
2355	 17.4123049626893 
2356	-7.43437549057108 
2357	-1.86815299125131 
2358	-1.25726677595831 
2359	-0.855129927634799 
2360	-0.675663856555106 
2361	-1.28712971682388 
2362	-1.5218014056868 
2363	-1.36902002637314 
2364	-1.23453243892311 
2365	-0.508124565920387 
2366	-0.444452280984858 
2367	-0.507063285106544 
2368	-0.206411495437923 
2369	 0.100757819516881 
2370	-0.12889001086983 
2371	-0.049561626523836 
2372	-0.283647429794477 
2373	-0.531425777894251 
2374	-0.988552275169176 
2375	 1.02436111936543 
2376	 0.530413540328267 
2377	 0.595525744103046 
2378	 0.630363253126169 
2379	 0.685315695920928 
2380	-2.97305907533981 
2381	-3.51514253303266 
2382	-0.333243361999831 
2383	-0.253829878995492 
2384	 0.745301952670365 
2385	 0.948328554644369 
2386	 0.592991547420697 
2387	 0.714393544853572 
2388	 1.47291482775406 
2389	 2.19198595785585 
2390	 3.13082851393137 
2391	 3.09664684667881 
2392	 0.987328179748333 
2393	 2.51050958164502 
2394	 4.02460450935365 
2395	 0.92507473968075 
2396	 5.56906633990522E-02 
2397	-5.64599503973253 
2398	-22.6088431539137 
2399	-20.7828259477044 
2400	 0.789818351633014 
2401	 1.77177830600895 
2402	 1.56359407744426 
2403	 2.47884122950496 
2404	 26.3224891045194 
2405	-21.3871696337652 
2406	 3.97429831090917 
2407	 0.295041169191009 
2408	-3.98925149286951E-02 
2409	-5.14769444998681E-02 
2410	-0.208024635364676 
2411	-0.25131859810941 
2412	 8.57584838400229E-02 
2413	 1.31743672848504 
2414	 7.27248376512322 
2415	 3.37104703384376 
2416	 1.42323198275932 
2417	 0.39606947108479 
2418	-0.204705130457496 
2419	-0.430695080191296 
2420	-0.929740574589332 
2421	-1.14941644633095 
2422	-0.828181004743797 
2423	-0.482540427060464 
2424	-0.025511167421039 
2425	 8.83680363514545 
2426	 14.3724307470284 
2427	-2.49420757947379 
2428	 0.808392341381318 
2429	-0.590444938055148 
2430	-0.759313245688792 
2431	-0.832249274919116 
2432	-0.503078097385719 
2433	-0.589760748853475 
2434	 4.60134675047041 
2435	 0.355956113065614 
2436	-0.357030317163389 
2437	-0.858798013340293 
2438	-14.4612790230526 
2439	-6.85071160299283 
2440	-7.07018083073301 
2441	-9.41209499344033 
2442	-7.19354581861532 
2443	 100.933666768832 
2444	 9.25312826570326 
2445	 1.54461958098266 
2446	 0.425693663910384 
2447	 1.01126990060518 
2448	 0.771641770730383 
2449	 7.74740475338394 
2450	-4.3354915300993 
2451	 0.522810113422427 
2452	 2.01086222738127 
2453	 1.08541913256965 
2454	 0.810115762850187 
2455	 0.591979557214595 
2456	 0.909680898362208 
2457	-4.92976444763506 
2458	-0.677412364033084 
2459	-0.405163969981746 
2460	-0.419418315655509 
2461	-1.17426264581811 
2462	-5.35267670359542 
2463	-2.76884578876865 
2464	-0.901747752262124 
2465	-0.286153913657667 
2466	-0.437518043119343 
2467	-2.46355416500426 
2468	 9.08897717347995 
2469	 1.31090666333579 
2470	 0.811461707224934 
2471	 1.21741539310247 
2472	 0.933507072224464 
2473	 0.801936424176584 
2474	 1.15641682142942 
2475	 0.91391826270908 
2476	 1.07705321170229 
2477	 1.70203807613175 
2478	 3.10143330306084 
2479	 46.1118912674948 
2480	-1.24244411117049 
2481	-0.153261496692407 
2482	 0.654427379742995 
2483	-4.41702022516705E-02 
2484	-0.480359119082563 
2485	-1.11225650602299 
2486	 8.5664898650709 
2487	 1.61158536172817 
2488	 1.4059232062507 
2489	 1.78140265127125 
2490	-6.47130007780795 
2491	-1.03869092554181 
2492	-0.291697026871564 
2493	-0.30566388279216 
2494	-3.00057637057703E-02 
2495	 4.35996754282825E-02 
2496	-2.98217016707763E-02 
2497	 0.647148310276471 
2498	 1.38539636079228 
2499	-1.01640863814487 
2500	-0.475323787653881 
