Wavelength	rt0802close00005.asd
350	 2.62853567600529E-02 
351	 2.94895716886868E-02 
352	 2.76989372313997E-02 
353	 2.56866029367022E-02 
354	 2.70275954449877E-02 
355	 2.88787194424204E-02 
356	 0.029075581537988 
357	 2.85097772697331E-02 
358	 2.86675911381449E-02 
359	 2.83420266412404E-02 
360	 2.88464650005445E-02 
361	 2.94112383843276E-02 
362	 2.82602437428239E-02 
363	 2.93290899475469E-02 
364	 2.95111601269554E-02 
365	 2.82243270543157E-02 
366	 3.00636608738062E-02 
367	 2.94127576914578E-02 
368	 2.86291638061993E-02 
369	 3.01623847439977E-02 
370	 2.87485034864895E-02 
371	 2.88347601587936E-02 
372	 3.01384380653587E-02 
373	 2.98679088896899E-02 
374	 0.030407427450305 
375	 3.15834266007593E-02 
376	 3.23101116709521E-02 
377	 3.07371263878148E-02 
378	 3.05184104344441E-02 
379	 3.12671424729643E-02 
380	 3.17602853960197E-02 
381	 0.031451815743309 
382	 3.24663475240458E-02 
383	 3.36933724685991E-02 
384	 3.29470545382174E-02 
385	 3.26815148642755E-02 
386	 0.033180169897773 
387	 3.39377527002434E-02 
388	 3.38833511573975E-02 
389	 3.49241927269876E-02 
390	 3.51151246565219E-02 
391	 3.36721671678443E-02 
392	 3.43678461332499E-02 
393	 3.52841209609646E-02 
394	 3.57327929840212E-02 
395	 0.035774181488896 
396	 3.69012781305382E-02 
397	 3.64323984058091E-02 
398	 3.51291126961276E-02 
399	 0.036580908566541 
400	 3.72989034480403E-02 
401	 3.71898237502802E-02 
402	 3.69128886515329E-02 
403	 3.75102729899793E-02 
404	 3.79882251322492E-02 
405	 3.79420268547778E-02 
406	 3.74752455197418E-02 
407	 3.81776243489238E-02 
408	 3.86229063224922E-02 
409	 3.84952856661579E-02 
410	 3.87485049994705E-02 
411	 3.97329977457931E-02 
412	 4.02269512265953E-02 
413	 3.96861608022738E-02 
414	 0.039808392269238 
415	 4.00799613271029E-02 
416	 4.07133718842196E-02 
417	 4.18344200929183E-02 
418	 0.041428884094467 
419	 4.10461845953877E-02 
420	 0.041486360885974 
421	 4.24198862419123E-02 
422	 4.27750004355321E-02 
423	 4.28661319889399E-02 
424	 4.31593044458699E-02 
425	 4.36576404894449E-02 
426	 4.37482850849504E-02 
427	 4.40578604794091E-02 
428	 0.045427388731048 
429	 4.55978876249904E-02 
430	 4.56393285316662E-02 
431	 4.60417298962595E-02 
432	 4.62300809775207E-02 
433	 4.69804021591002E-02 
434	 4.77247871930304E-02 
435	 4.78983860394023E-02 
436	 4.77342238214912E-02 
437	 4.81619312211063E-02 
438	 4.90116265656144E-02 
439	 4.95292130058209E-02 
440	 4.98946976222686E-02 
441	 5.02615275350922E-02 
442	 5.07295067993683E-02 
443	 5.13147012358837E-02 
444	 5.20759694278411E-02 
445	 5.24813367309337E-02 
446	 5.22547342627745E-02 
447	 5.26510220474415E-02 
448	 5.33491032031082E-02 
449	 5.39946340314152E-02 
450	 5.42720545308007E-02 
451	 5.44456194032535E-02 
452	 5.45235098522925E-02 
453	 5.46717970199802E-02 
454	 5.55209846075303E-02 
455	 5.58573593653854E-02 
456	 5.58892104761991E-02 
457	 5.62153560833261E-02 
458	 5.64178554356482E-02 
459	 5.64922568080133E-02 
460	 5.67170545948094E-02 
461	 5.75601595435731E-02 
462	 5.75030893085683E-02 
463	 5.71543884994708E-02 
464	 5.72220974576747E-02 
465	 5.73751685261558E-02 
466	 5.80504742600807E-02 
467	 5.86530192750286E-02 
468	 5.83507050699372E-02 
469	 5.87099471759677E-02 
470	 5.89849668967748E-02 
471	 5.89657172061136E-02 
472	 5.94411911429451E-02 
473	 5.98919000474044E-02 
474	 6.01578470169302E-02 
475	 6.02028665194023E-02 
476	 5.99663063476935E-02 
477	 6.05016155902269E-02 
478	 6.14255220229872E-02 
479	 6.14793677173381E-02 
480	 0.061629174431453 
481	 6.19118552384736E-02 
482	 6.22745255151341E-02 
483	 6.27365515001117E-02 
484	 6.32959169156684E-02 
485	 6.37600026123359E-02 
486	 6.39713263423319E-02 
487	 6.43038217363969E-02 
488	 6.47959660303564E-02 
489	 6.53911804414294E-02 
490	 6.59624295603432E-02 
491	 0.066364488836102 
492	 6.67513147047739E-02 
493	 6.73065182914785E-02 
494	 6.82030109031572E-02 
495	 6.86438656145056E-02 
496	 6.87434988594462E-02 
497	 6.91074968045561E-02 
498	 6.99659564594084E-02 
499	 7.08561857842719E-02 
500	 7.14738981461072E-02 
501	 7.18835306333439E-02 
502	 7.21290962419929E-02 
503	 7.26621624762245E-02 
504	 0.073762879367868 
505	 7.46845473888354E-02 
506	 7.49771895198371E-02 
507	 7.52198253764982E-02 
508	 7.66298732392661E-02 
509	 7.73980838404996E-02 
510	 7.78450156285314E-02 
511	 7.85006912195835E-02 
512	 7.96219577834755E-02 
513	 8.03154250677738E-02 
514	 8.07050015939634E-02 
515	 8.13730745065673E-02 
516	 0.082582228985837 
517	 8.32495867311747E-02 
518	 8.34694082844088E-02 
519	 8.48910361885918E-02 
520	 8.60483637463009E-02 
521	 8.67510334503643E-02 
522	 8.72178315018472E-02 
523	 0.087854599376315 
524	 8.90247060962754E-02 
525	 9.04119128580382E-02 
526	 9.12441593691281E-02 
527	 9.13534998907893E-02 
528	 9.19548989373574E-02 
529	 9.34442298972757E-02 
530	 0.094261892487842 
531	 9.52306338790848E-02 
532	 9.61830539986299E-02 
533	 9.67929075622727E-02 
534	 9.79555529297281E-02 
535	 9.87890861411995E-02 
536	 9.93410791647744E-02 
537	 0.100807690066388 
538	 0.101797126273363 
539	 0.102498864250228 
540	 0.103352596097275 
541	 0.104254932046917 
542	 0.105252029573354 
543	 0.10632169298516 
544	 0.107393586775271 
545	 0.108383949701714 
546	 0.109243429729834 
547	 0.110105853971009 
548	 0.111500201994257 
549	 0.112396511208569 
550	 0.113039241988614 
551	 0.114001652860934 
552	 0.11479388125775 
553	 0.115882050987901 
554	 0.117244922550244 
555	 0.118257583145329 
556	 0.118923925080658 
557	 0.119538635720196 
558	 0.120375152841462 
559	 0.121390648883808 
560	 0.122145585251849 
561	 0.122813055966217 
562	 0.123894813424989 
563	 0.124927393283032 
564	 0.125387794397849 
565	 0.125348662212282 
566	 0.126053325454799 
567	 0.126728830155209 
568	 0.127466031852563 
569	 0.128467460524848 
570	 0.128834809244061 
571	 0.129190325377162 
572	 0.129673073001346 
573	 0.129807501661936 
574	 0.130124124496543 
575	 0.130663617216527 
576	 0.131303347214097 
577	 0.131867154472926 
578	 0.132017178946116 
579	 0.132060598909157 
580	 0.13257566037938 
581	 0.132500903170771 
582	 0.132475131286192 
583	 0.13269374135003 
584	 0.132107653695092 
585	 0.13188086909432 
586	 0.131673949308854 
587	 0.130805526575967 
588	 0.130365266041394 
589	 0.129996485348173 
590	 0.129701754535961 
591	 0.129895662559257 
592	 0.129488771284911 
593	 0.12875454647534 
594	 0.128144226245186 
595	 0.127728779813205 
596	 0.127214416435267 
597	 0.126457080641143 
598	 0.125499425127757 
599	 0.125146941604081 
600	 0.124517802092372 
601	 0.12347977033819 
602	 0.12348907784919 
603	 0.123266196193408 
604	 0.12284379302924 
605	 0.122661011597408 
606	 0.123013330290312 
607	 0.123139708728236 
608	 0.122952480472195 
609	 0.123090298408867 
610	 0.123018369945783 
611	 0.122963228638324 
612	 0.123057289197371 
613	 0.12256855276377 
614	 0.123064950963275 
615	 0.123841530178087 
616	 0.123211433945483 
617	 0.123477935601914 
618	 0.123664203444638 
619	 0.123296505272927 
620	 0.123281532008391 
621	 0.123201654694399 
622	 0.123133881837207 
623	 0.123219424083172 
624	 0.123265678879579 
625	 0.122672274263073 
626	 0.121982146475073 
627	 0.122732788070892 
628	 0.122526373408972 
629	 0.122341915635463 
630	 0.122926607311583 
631	 0.122669504226467 
632	 0.122368094155544 
633	 0.122404884418883 
634	 0.122822200278678 
635	 0.122597311320874 
636	 0.122324080328516 
637	 0.122348799031918 
638	 0.122443622369793 
639	 0.122408836387474 
640	 0.122390862050268 
641	 0.122507966144697 
642	 0.122316751106439 
643	 0.121927346508223 
644	 0.121313883525849 
645	 0.120378833244371 
646	 0.120135925132679 
647	 0.120094159174102 
648	 0.119731808476559 
649	 0.119129584167005 
650	 0.119868523855044 
651	 0.120483748673436 
652	 0.11900325485943 
653	 0.11864149624222 
654	 0.118160979884559 
655	 0.116965686745762 
656	 0.115928562987612 
657	 0.115588803304224 
658	 0.115363861114911 
659	 0.11480236469846 
660	 0.114512585859793 
661	 0.114110647583383 
662	 0.1135985819765 
663	 0.113238010203379 
664	 0.113249287056839 
665	 0.113152779052016 
666	 0.112758506411148 
667	 0.112536334498 
668	 0.112514108880933 
669	 0.11245077075626 
670	 0.112067233874869 
671	 0.111368847959259 
672	 0.111292114010499 
673	 0.111723856091537 
674	 0.111603645816316 
675	 0.111893064009085 
676	 0.111725309158012 
677	 0.110824048710968 
678	 0.111264601221177 
679	 0.111624423426033 
680	 0.111766208407453 
681	 0.111986300451049 
682	 0.111276641229518 
683	 0.111181593219059 
684	 0.111944127870875 
685	 0.111822488337814 
686	 0.11098632360939 
687	 0.110494731010488 
688	 0.111153702640617 
689	 0.111766141031073 
690	 0.111589148212252 
691	 0.110627609345428 
692	 0.109403887458196 
693	 0.108551682148282 
694	 0.108383340510847 
695	 0.108520809124055 
696	 0.107952368737323 
697	 0.106699486862837 
698	 0.105176912198912 
699	 0.104099281955266 
700	 0.103552077634451 
701	 0.102437724374543 
702	 0.101134244262445 
703	 0.100856844880924 
704	 9.89581539727609E-02 
705	 9.68856884497232E-02 
706	 9.58547719470394E-02 
707	 9.50470755071277E-02 
708	 9.37378867790816E-02 
709	 9.18224415176145E-02 
710	 8.96503672740699E-02 
711	 8.82705445885046E-02 
712	 8.60680669661195E-02 
713	 8.31181200862136E-02 
714	 8.13417396720135E-02 
715	 7.86577170289666E-02 
716	 0.074710697805406 
717	 7.06911773634753E-02 
718	 0.069147092911821 
719	 0.067042873467669 
720	 6.50326590932879E-02 
721	 6.39582185524832E-02 
722	 6.22381648063501E-02 
723	 5.88889841829625E-02 
724	 0.05505676870098 
725	 5.38476008138995E-02 
726	 5.20831514868109E-02 
727	 4.97067418500497E-02 
728	 4.70352939358698E-02 
729	 4.31795873404481E-02 
730	 4.04609059087954E-02 
731	 3.90701000238353E-02 
732	 3.77682670287075E-02 
733	 3.59588335558518E-02 
734	 3.39432031451788E-02 
735	 3.23882234871183E-02 
736	 3.23648972074082E-02 
737	 3.16015509197911E-02 
738	 3.07490788681099E-02 
739	 3.05661354668813E-02 
740	 3.01194666153786E-02 
741	 2.97358029816344E-02 
742	 2.97483934065047E-02 
743	 0.030279688485206 
744	 2.99154965351585E-02 
745	 2.93024705706958E-02 
746	 2.91283895748797E-02 
747	 2.98391177152812E-02 
748	 3.01462686603091E-02 
749	 3.00987494359452E-02 
750	 2.99760133285312E-02 
751	 2.95127600009676E-02 
752	 0.02936671066347 
753	 2.94687717212284E-02 
754	 2.94383695247936E-02 
755	 0.030104108264812 
756	 3.00646855997341E-02 
757	 2.92397961452335E-02 
758	 0.029947860916979 
759	 2.97331151344196E-02 
760	 2.79842390975128E-02 
761	 2.73630352695118E-02 
762	 2.78391167343672E-02 
763	 2.93753203831606E-02 
764	 3.06821940540764E-02 
765	 3.08880320124571E-02 
766	 3.05355215296601E-02 
767	 3.02118085137806E-02 
768	 0.03017649923665 
769	 3.05095141488033E-02 
770	 3.11890872959706E-02 
771	 3.16733740322277E-02 
772	 3.16571311462546E-02 
773	 0.031677866931338 
774	 3.18722816630696E-02 
775	 3.21274454431422E-02 
776	 3.22851642053426E-02 
777	 3.27902398090965E-02 
778	 3.29578315379248E-02 
779	 3.29963405786264E-02 
780	 3.39766060467386E-02 
781	 3.44603847842048E-02 
782	 3.43698327420258E-02 
783	 3.41387733502465E-02 
784	 3.47994478298478E-02 
785	 3.51857992773678E-02 
786	 0.035149670593587 
787	 3.50656055441351E-02 
788	 3.57676603251075E-02 
789	 3.68332308421159E-02 
790	 3.76795694072809E-02 
791	 3.78339723483008E-02 
792	 3.79522058974239E-02 
793	 3.80901144996502E-02 
794	 3.83532303069639E-02 
795	 3.90755924350526E-02 
796	 3.96227341799125E-02 
797	 3.97911461699265E-02 
798	 3.97410037169952E-02 
799	 4.01583088257899E-02 
800	 4.08709032883114E-02 
801	 4.13437329304406E-02 
802	 4.11885091905765E-02 
803	 4.26174054695506E-02 
804	 4.27997162268241E-02 
805	 4.16300456267343E-02 
806	 4.20403943048739E-02 
807	 4.15370847112284E-02 
808	 4.10829174882199E-02 
809	 4.14847205225694E-02 
810	 4.11497894018383E-02 
811	 4.02629897611728E-02 
812	 3.96080688761569E-02 
813	 0.039887702383605 
814	 3.78319593185644E-02 
815	 0.037094851798634 
816	 3.76244967962107E-02 
817	 3.62300297878611E-02 
818	 3.71243801878856E-02 
819	 3.68170129921531E-02 
820	 3.47694726967215E-02 
821	 3.42628334841647E-02 
822	 0.03382817619112 
823	 0.033154780901577 
824	 3.21180255663449E-02 
825	 0.030105746844594 
826	 2.81865758365167E-02 
827	 2.65056475905438E-02 
828	 2.50112527778465E-02 
829	 2.34993171183469E-02 
830	 2.23445448611149E-02 
831	 2.15505237365766E-02 
832	 2.08556476216272E-02 
833	 1.97148257105164E-02 
834	 1.97222029860426E-02 
835	 2.05209154145264E-02 
836	 1.93114404540297E-02 
837	 1.87622902580103E-02 
838	 1.82159600215728E-02 
839	 1.72441137320472E-02 
840	 1.76794441206969E-02 
841	 1.86539949574177E-02 
842	 0.01909522085572 
843	 0.018330065474419 
844	 1.77148646383039E-02 
845	 1.77487229416277E-02 
846	 1.76484657078979E-02 
847	 1.62829245433533E-02 
848	 1.75242536028268E-02 
849	 1.84089974161676E-02 
850	 1.74850280833321E-02 
851	 1.63378179707069E-02 
852	 1.64693511166893E-02 
853	 1.70636549316016E-02 
854	 1.70186059431746E-02 
855	 1.58623371919837E-02 
856	 1.60784848536887E-02 
857	 1.67596301913434E-02 
858	 1.63940306037488E-02 
859	 0.014746397929799 
860	 1.48304127781572E-02 
861	 1.57207836100616E-02 
862	 1.50374139493108E-02 
863	 0.01521657233154 
864	 0.01558891325007 
865	 1.53411237909578E-02 
866	 1.40961768506494E-02 
867	 1.52342731723232E-02 
868	 1.58191083665044E-02 
869	 1.49065457220133E-02 
870	 1.51540257929062E-02 
871	 1.48641751201406E-02 
872	 1.37751987296021E-02 
873	 1.26489208125026E-02 
874	 1.38434642536306E-02 
875	 1.45781499676538E-02 
876	 1.44154261893584E-02 
877	 1.37234056500881E-02 
878	 1.26008544825858E-02 
879	 1.28549153615741E-02 
880	 1.36976467383912E-02 
881	 1.33526941807455E-02 
882	 1.25285159901928E-02 
883	 1.21668340253449E-02 
884	 1.17773077866315E-02 
885	 1.04399394947869E-02 
886	 1.38881330526377E-02 
887	 1.38742861164748E-02 
888	 9.96960214656752E-03 
889	 1.18581764664551E-02 
890	 1.34798493965023E-02 
891	 1.30737012247131E-02 
892	 1.12340148297105E-02 
893	 0.012159251566052 
894	 9.24466566937236E-03 
895	 8.08519299578864E-03 
896	 1.36221943308194E-02 
897	 1.15160172852678E-02 
898	 1.04869668118423E-02 
899	 1.03961567364011E-02 
900	 9.14586454157614E-03 
901	 1.04883690952121E-02 
902	 1.10448760210055E-02 
903	 1.03643918883268E-02 
904	 9.15696271131589E-03 
905	 7.86734612691745E-03 
906	 8.24971356956834E-03 
907	 9.11330132269617E-03 
908	 7.56436703820888E-03 
909	 8.82256728556469E-03 
910	 9.41823431545161E-03 
911	 6.15580601325816E-03 
912	-9.29377344932562E-04 
913	 6.41187956068162E-03 
914	 0.012191666347525 
915	 9.15674188514144E-03 
916	 6.00199363910097E-03 
917	 6.97980154228638E-03 
918	 0.007016685310631 
919	 5.36079818908133E-03 
920	 7.67620471833033E-03 
921	 0.009950248601926 
922	 8.20774710770302E-03 
923	 3.58063670201699E-03 
924	 9.07882227738553E-03 
925	 0.011039886004007 
926	 1.05008879039191E-02 
927	 1.15403555559195E-02 
928	 6.95997120916996E-03 
929	 7.45705314398219E-03 
930	 1.68916619799657E-02 
931	 0.026170414122079 
932	-6.02418161407099E-03 
933	 1.59301352745637E-02 
934	 5.73384509430765E-02 
935	 1.87347483826748E-02 
936	-6.80332054124068E-03 
937	-1.48057084664839E-02 
938	-9.15643329142586E-03 
939	 2.56751558668076E-04 
940	 1.88366108797115E-02 
941	-6.5915817156552E-03 
942	-2.60548996839769E-02 
943	 2.99893662807228E-02 
944	-3.82942148171341E-02 
945	-0.015924253792825 
946	 0.06037348228402 
947	 1.20395570321925E-02 
948	-2.92447280238733E-02 
949	-5.01770245598516E-03 
950	 4.21942721551453E-02 
951	 3.31388818907393E-02 
952	-9.62502083176305E-03 
953	-3.62501363665785E-02 
954	-2.97262458089517E-02 
955	-4.5531421537513E-03 
956	 1.67588904611211E-02 
957	 3.29385371760192E-03 
958	-2.13144693066571E-02 
959	-6.63111914929138E-03 
960	 4.65355396185247E-03 
961	-1.23299223967395E-02 
962	-3.00326086696613E-02 
963	-5.23674133337448E-03 
964	 1.95191223706139E-02 
965	 1.44040979310167E-02 
966	-2.38043897135443E-03 
967	 6.51750338366472E-03 
968	 9.62415498821445E-03 
969	 6.64925635115127E-03 
970	 4.82289644405054E-04 
971	-4.5138578271459E-03 
972	 4.86743493253892E-03 
973	 1.37737005772767E-02 
974	 1.31367887254276E-02 
975	 4.49842037371111E-03 
976	-1.21628129740426E-02 
977	-1.28364468185892E-02 
978	 2.6671082826061E-03 
979	 1.23313570168329E-02 
980	 2.24989978358635E-03 
981	-3.66594781032346E-03 
982	-7.85132789705781E-04 
983	-1.08140372567324E-03 
984	-2.70495671134032E-03 
985	-7.75526517765302E-04 
986	 2.95282290968764E-03 
987	 2.69443684936617E-03 
988	-8.65489882838517E-04 
989	 2.20706165385793E-03 
990	 8.78581898872415E-03 
991	 0.007549309924868 
992	-2.22007429592959E-05 
993	-3.22376505925384E-03 
994	 3.49817357088579E-03 
995	 1.54306573784192E-02 
996	 2.85063707608822E-03 
997	-1.34395853368697E-03 
998	 7.53158453987066E-03 
999	 1.18456459522353E-02 
1000	 3.9198621180117E-03 
1001	 0.010343428619209 
1002	 5.11294998202489E-03 
1003	 4.49145584661168E-03 
1004	 5.65960304089525E-03 
1005	 5.31553664475081E-03 
1006	 7.99405321404196E-03 
1007	 7.79157825738713E-03 
1008	 2.90064867151321E-03 
1009	 1.10660093224509E-03 
1010	-4.33948827106093E-04 
1011	-5.34906383380652E-05 
1012	 2.9453205479813E-03 
1013	 3.88804617764645E-03 
1014	 3.66350529373771E-03 
1015	 1.66913353223499E-03 
1016	 2.45838268318418E-03 
1017	 3.44882884143813E-03 
1018	 3.66512516859426E-03 
1019	 4.4548670209396E-03 
1020	 6.62381033062192E-03 
1021	 7.61035470429464E-03 
1022	 1.07680553062127E-02 
1023	 1.78021963582479E-02 
1024	 2.01660214979437E-02 
1025	 1.62483918674438E-02 
1026	 1.03200760314482E-02 
1027	 7.4071753476008E-03 
1028	 6.57162096092397E-04 
1029	 1.11372504310797E-03 
1030	 9.10350030033362E-03 
1031	 1.06399290177959E-02 
1032	 1.29530359295518E-02 
1033	 1.23202563461584E-02 
1034	 5.56839789633409E-03 
1035	 3.42616401647018E-03 
1036	 7.5013166756443E-04 
1037	 1.39464436048497E-03 
1038	 4.06660202693715E-03 
1039	 0.01168029210855 
1040	 1.63619346748766E-02 
1041	 1.64685976187976E-02 
1042	 0.016288902683617 
1043	 1.18848617023771E-02 
1044	 1.07163940741299E-02 
1045	 1.10779734764367E-02 
1046	 9.60404999619222E-03 
1047	 6.12568981803365E-03 
1048	 5.46654407107397E-03 
1049	 4.78829941981157E-03 
1050	 5.27709179852041E-03 
1051	 0.010188199549422 
1052	 1.15586411452563E-02 
1053	 1.22604285688307E-02 
1054	 0.011271437914078 
1055	 0.00505897475141 
1056	 3.21068663254532E-03 
1057	 2.65028294837837E-03 
1058	 2.96999659955436E-03 
1059	 2.68993534501049E-03 
1060	 5.22786232912114E-03 
1061	 5.52603570842131E-03 
1062	 3.18741593748302E-03 
1063	 2.90971499623132E-03 
1064	 4.27972600375753E-03 
1065	 4.37765207306269E-03 
1066	 3.81182901906236E-03 
1067	 3.85328533964006E-03 
1068	 1.64459417602081E-03 
1069	 3.24419504779362E-03 
1070	 1.13439524572098E-02 
1071	 1.30064051700556E-02 
1072	 1.16605978344714E-02 
1073	 1.33699886488657E-02 
1074	 1.17494445842875E-02 
1075	 3.55007140210587E-03 
1076	 2.09779200637395E-03 
1077	 4.5287257179421E-03 
1078	 4.38027335329236E-03 
1079	 3.29743043767283E-03 
1080	 4.81743204899939E-03 
1081	 9.49617440508568E-03 
1082	 9.86831242717921E-03 
1083	 8.9641950226014E-03 
1084	 9.33017693040311E-03 
1085	 6.51641849783659E-03 
1086	 5.32652592915248E-03 
1087	 7.94972556165547E-03 
1088	 9.15702594509563E-03 
1089	 1.12236821359189E-02 
1090	 8.80315948383294E-03 
1091	 6.43920691434405E-03 
1092	 1.81200418564968E-03 
1093	 1.18883495346775E-03 
1094	 2.2028585745471E-04 
1095	 1.20445576027402E-03 
1096	 8.25058296236523E-03 
1097	 9.97853290763381E-03 
1098	 9.64181814684556E-03 
1099	 8.08564459821166E-03 
1100	 2.0231965980628E-03 
1101	-3.57179309072302E-04 
1102	-6.52192126414846E-03 
1103	-5.34953620518341E-03 
1104	 6.13096140319403E-03 
1105	 1.67591396143403E-02 
1106	 1.89631945499445E-02 
1107	 1.84627022929968E-02 
1108	 5.6626601730517E-03 
1109	-7.88078513568619E-03 
1110	-1.21256338617418E-02 
1111	-4.13311067763993E-03 
1112	 2.60305298397756E-03 
1113	 2.45479379856308E-02 
1114	 2.65956254783034E-02 
1115	 1.63027598411145E-02 
1116	 1.08777328601546E-02 
1117	-2.69074710377992E-02 
1118	-4.82868851314691E-02 
1119	-4.61651834464389E-02 
1120	-3.75195185052514E-02 
1121	 2.55365012818654E-02 
1122	 5.43207288374206E-02 
1123	 7.03308271940261E-03 
1124	 7.42199808278949E-02 
1125	 5.90127008573388E-02 
1126	-1.95056719916008E-02 
1127	 0.124974829562625 
1128	 0.200210492701539 
1129	 0.116549353386574 
1130	-0.141031081482305 
1131	-0.115397055929073 
1132	-4.87022660282735E-02 
1133	-3.93716909683249E-02 
1134	 6.96404312169951E-02 
1135	 7.22786274812233E-02 
1136	-4.73850935358462E-02 
1137	-7.51713037036324E-02 
1138	-8.63124109551604E-02 
1139	-2.40951768365739E-02 
1140	-1.87541279431161E-02 
1141	 2.47421991291311E-03 
1142	 9.59076229423074E-02 
1143	 0.1383720390086 
1144	 8.24441873266226E-02 
1145	 3.78459675206801E-02 
1146	 2.42597435506831E-02 
1147	-9.35573095393497E-03 
1148	 0.011260499880616 
1149	 6.74122660938378E-02 
1150	 6.28032645490016E-02 
1151	-2.11698368433252E-02 
1152	-2.16215975106411E-02 
1153	 9.34609962035229E-03 
1154	 2.06248323008392E-02 
1155	 4.31843302454077E-02 
1156	 3.58351694250789E-02 
1157	 1.74879203562705E-02 
1158	 7.88523105305675E-03 
1159	 1.61919716173535E-03 
1160	 4.64461116608314E-03 
1161	 2.05809234472161E-02 
1162	 2.62307427486892E-02 
1163	 1.90212410939165E-02 
1164	 0.012344149221829 
1165	 6.4499432611243E-03 
1166	 3.40233713968357E-03 
1167	 3.40904758481139E-03 
1168	 3.80185476112833E-03 
1169	 6.15315174611334E-03 
1170	 4.27581218180292E-03 
1171	 4.0253784180294E-03 
1172	 6.23666302165636E-03 
1173	 7.60361164393051E-03 
1174	 9.01793725044182E-03 
1175	 7.23808678638119E-03 
1176	 8.75214053828826E-03 
1177	 1.01692551233484E-02 
1178	 1.11498511859808E-02 
1179	 9.68276962194132E-03 
1180	 6.58377965167606E-03 
1181	 3.86649269019494E-03 
1182	 4.5813867635372E-03 
1183	 7.05522862461175E-03 
1184	 6.6257440326635E-03 
1185	 2.61853654428644E-03 
1186	-3.66674355333453E-03 
1187	-4.2851322303116E-03 
1188	 2.24970398021009E-03 
1189	 5.17680145830345E-03 
1190	 3.62119558740109E-03 
1191	 3.99628409515948E-03 
1192	 4.47870227337644E-03 
1193	 2.2850157683862E-03 
1194	 4.20830703284993E-03 
1195	 7.66831203746754E-03 
1196	 6.83209533377389E-03 
1197	 7.08896880893226E-03 
1198	 5.53851721039329E-03 
1199	 5.64297188875608E-03 
1200	 6.75147361233574E-03 
1201	 5.79658271759665E-03 
1202	 4.86280827058087E-03 
1203	 3.96759650621885E-03 
1204	 5.41212459068683E-03 
1205	 2.83206421928582E-03 
1206	 1.57064686182537E-03 
1207	 7.41571546190981E-03 
1208	 9.93140197534362E-03 
1209	 7.67651097698359E-03 
1210	 2.3842239272802E-03 
1211	-2.61336173045667E-03 
1212	-3.84489744416732E-03 
1213	-2.15599663407669E-03 
1214	-5.37882749896074E-04 
1215	 6.00675719242718E-03 
1216	 7.36429603688053E-03 
1217	 4.87579535698248E-03 
1218	 6.09029950605353E-03 
1219	 7.89982438988792E-03 
1220	 6.4986100458946E-03 
1221	 3.89221030839193E-03 
1222	 3.40842335611783E-03 
1223	 5.52109797326956E-03 
1224	 5.98441175932854E-03 
1225	 7.26450896323472E-03 
1226	 9.09146069127346E-03 
1227	 7.79633380735742E-03 
1228	 1.01629564816583E-02 
1229	 1.27166216364372E-02 
1230	 1.02031715781617E-02 
1231	 6.69911418323388E-03 
1232	 2.54798640624965E-03 
1233	 1.62664701739409E-03 
1234	 4.79290267523017E-03 
1235	 4.98789196360905E-03 
1236	 3.72222017349881E-03 
1237	 5.44812481056439E-03 
1238	 7.84932236577179E-03 
1239	 8.80756510940893E-03 
1240	 1.02591720825665E-02 
1241	 1.12515988284813E-02 
1242	 9.22189733291445E-03 
1243	 6.07869960490352E-03 
1244	 4.8549920278662E-03 
1245	 5.86106124876083E-03 
1246	 6.13278327544257E-03 
1247	 6.02833181105688E-03 
1248	 6.26949072679443E-03 
1249	 5.49950442865954E-03 
1250	 3.23912386380423E-03 
1251	 1.59870064803391E-03 
1252	 2.76835967752084E-03 
1253	 5.07739828168032E-03 
1254	 7.1897580497303E-03 
1255	 9.6868479973731E-03 
1256	 9.59629009997334E-03 
1257	 3.91993892545422E-03 
1258	 3.38056728668724E-03 
1259	 5.29859843528184E-03 
1260	 5.38368053461342E-03 
1261	 7.5788479477113E-03 
1262	 8.65204206716928E-03 
1263	 9.06873696632703E-03 
1264	 6.13238141303472E-03 
1265	 3.20749150371281E-03 
1266	 3.73850661166983E-03 
1267	 4.53232869604539E-03 
1268	 3.48326619781145E-03 
1269	 6.03964332531362E-03 
1270	 9.77220710987491E-03 
1271	 1.16997508506962E-02 
1272	 1.24064541082653E-02 
1273	 0.010019913453287 
1274	 7.27039715774042E-03 
1275	 6.49420796201537E-03 
1276	 6.26360780058416E-03 
1277	 6.01683283786029E-03 
1278	 3.81522192338119E-03 
1279	 3.55549243435797E-03 
1280	 8.67478914749524E-03 
1281	 9.15045612332327E-03 
1282	 1.09065560459922E-02 
1283	 1.04396991409453E-02 
1284	 4.95062918200167E-03 
1285	 2.06986479601225E-03 
1286	-4.96636851323632E-04 
1287	 2.99363428621269E-04 
1288	 4.29122063293309E-03 
1289	 4.62412043827396E-03 
1290	 5.03536024788366E-03 
1291	 7.34147048975971E-03 
1292	 5.88959747449245E-03 
1293	 7.74001457160867E-04 
1294	-7.96122945038848E-04 
1295	 2.46924215047573E-03 
1296	 6.25053532879448E-03 
1297	 8.94102384428876E-03 
1298	 8.19217899679071E-03 
1299	 3.69796336541416E-03 
1300	 4.93359987116912E-04 
1301	 1.52313183052175E-03 
1302	 1.93289671936455E-03 
1303	-6.26392183761003E-04 
1304	 2.10666402282833E-04 
1305	 5.34442839339032E-03 
1306	 6.06172723502204E-03 
1307	 7.80122977898368E-03 
1308	 9.77722007965158E-03 
1309	 7.09330362267749E-03 
1310	 5.38265272086498E-03 
1311	 7.09466921183037E-03 
1312	 8.59097757837698E-03 
1313	 8.85184122244418E-03 
1314	 8.94404968892392E-03 
1315	 8.75271327292095E-03 
1316	 9.96616379278124E-03 
1317	 1.30285444285693E-02 
1318	 1.31238440263168E-02 
1319	 1.19489923599718E-02 
1320	 1.26021676341395E-02 
1321	 1.51696385738108E-02 
1322	 8.63269603779387E-03 
1323	 1.02372848724474E-02 
1324	 1.89992067035764E-02 
1325	 1.40592681206122E-02 
1326	 4.85888222075283E-03 
1327	-5.18191366652376E-04 
1328	-5.67852685642551E-03 
1329	-6.81849450424533E-03 
1330	-4.07073217985014E-03 
1331	 1.33789172449199E-03 
1332	 5.88678881858305E-03 
1333	-1.33933775090719E-02 
1334	-3.31724623068635E-02 
1335	-3.52342273648672E-02 
1336	-5.48862258912146E-02 
1337	-5.91669599548815E-02 
1338	-9.21655909499983E-03 
1339	-7.34947385626716E-03 
1340	-4.25345687801174E-02 
1341	-5.22204043999237E-02 
1342	-7.11255015648229E-02 
1343	-7.19524665126057E-02 
1344	-6.01577778522918E-02 
1345	-4.38723396459947E-02 
1346	 2.26942999302618E-02 
1347	 5.56768256407841E-02 
1348	 0.100934109219977 
1349	 0.145432199017646 
1350	 8.65301997196487E-02 
1351	 8.50030747642636E-02 
1352	 0.107460367800555 
1353	 0.22848717458721 
1354	 0.74438313738961 
1355	 0.632520495333216 
1356	 0.548169483142909 
1357	 0.501042678122431 
1358	-0.331241715608745 
1359	-0.932222352772375 
1360	-0.545675824122482 
1361	-0.548574299027433 
1362	-0.392044131841046 
1363	 0.349420491695524 
1364	 0.222313846441028 
1365	 0.606538628592612 
1366	 0.495633382847111 
1367	-1.23258819639083 
1368	-1.36146428865046 
1369	-1.29799307831917 
1370	-1.6213973795282 
1371	-2.25511829060936 
1372	-0.699278259172937 
1373	-0.690183896777848 
1374	-0.933452227834681 
1375	-0.782919966297428 
1376	-0.72687499702854 
1377	-6.29800546842866 
1378	 3.3686426830553 
1379	-0.658201991591079 
1380	-0.45060847169396 
1381	 54.5759740081046 
1382	-12.7315959715345 
1383	-4.39019034681943 
1384	-4.84191192985416 
1385	 14.5276065116512 
1386	 21.7724145058956 
1387	-2.57729164380418 
1388	-3.65274991978291 
1389	 4.36291416730156 
1390	 8.56350297684411 
1391	 17.1629884578919 
1392	-8.18379015313395 
1393	-2.87508456353679 
1394	-1.20364465802648 
1395	 0.625913401370935 
1396	 0.935663973529479 
1397	 6.00449318587982E-02 
1398	-26.6326360167729 
1399	-14.2809407982989 
1400	 9.14754553916139 
1401	 5.46228087401254 
1402	-1.16564635815581 
1403	-0.487949504720764 
1404	-0.208394133998384 
1405	-0.16488187480165 
1406	 122.130682273717 
1407	 10.4056521733432 
1408	-0.922887895622485 
1409	-1.67681404089246 
1410	 0.125643452101748 
1411	 0.808020849694554 
1412	-0.498214772829152 
1413	-0.282748864686402 
1414	 0.911339887525817 
1415	 1.76577573072418 
1416	-0.668257708224811 
1417	-0.78567622718986 
1418	-2.01340483053432 
1419	-0.944039517283532 
1420	-0.155454050458203 
1421	-0.318388388285615 
1422	-5.33475640557751 
1423	 3.66525275300858 
1424	 0.799874890638894 
1425	 0.690143692921176 
1426	 1.86545354071989 
1427	 0.95729300050352 
1428	 0.170241090948305 
1429	 1.37226097703337E-02 
1430	-0.314681230098861 
1431	-0.514132708154863 
1432	-1.54575624682972 
1433	-1.88618910143529 
1434	-0.419713257193398 
1435	-0.313811603182433 
1436	-0.378868152397247 
1437	-0.296616594354625 
1438	-0.59320878633255 
1439	-0.225816665006697 
1440	-1.14664474334082E-02 
1441	-1.51198909160431 
1442	-0.314599001025225 
1443	-0.13019279674968 
1444	-0.130043469289877 
1445	 0.814208563672164 
1446	 1.18786436502845 
1447	 0.546626872493167 
1448	 0.682482647767113 
1449	 1.16747428827072 
1450	 1.23873023141593 
1451	 0.962746335726941 
1452	 0.737057260113317 
1453	 0.998709190961571 
1454	 0.774388046246788 
1455	 0.505725154658194 
1456	 0.364782864207841 
1457	 0.234249207446769 
1458	 0.179207992776783 
1459	 0.161180053815821 
1460	 5.04035411298761E-02 
1461	-0.106485152397722 
1462	-0.163841234014532 
1463	-0.208417566216328 
1464	-0.26204356575488 
1465	-0.311987909426243 
1466	-0.262263445020535 
1467	-0.199273701429913 
1468	-6.48943821212513E-02 
1469	 0.353736572799332 
1470	 0.409084514545546 
1471	 4.66503498368941E-02 
1472	 2.20950274593872E-02 
1473	 4.09163283690826E-02 
1474	 6.09746967548161E-02 
1475	 0.345153303734783 
1476	 0.328053212668765 
1477	 0.121316969477758 
1478	 9.02055526891296E-02 
1479	 9.52328541367458E-02 
1480	 0.069974443100095 
1481	 5.83578183029694E-02 
1482	 5.84031162861654E-02 
1483	 7.10855470961763E-02 
1484	 5.06831647182996E-02 
1485	 2.34528624283871E-02 
1486	 3.06920512882306E-02 
1487	 4.06872015488956E-02 
1488	 2.16840361388222E-02 
1489	 1.27416867758796E-02 
1490	 9.33269962189053E-03 
1491	-2.40912082425605E-02 
1492	-1.36665022932059E-02 
1493	 4.32164839600708E-02 
1494	 4.81725638205271E-02 
1495	 2.93133252514937E-02 
1496	 2.97120393449622E-02 
1497	 2.47186427166047E-02 
1498	 1.73560427114917E-02 
1499	 2.23683702545589E-02 
1500	 2.19386227610732E-02 
1501	 4.70545835909266E-03 
1502	 3.3576889752505E-04 
1503	 8.3942121322495E-03 
1504	 1.08484013186199E-02 
1505	 0.014121888710601 
1506	 1.59492327273329E-02 
1507	 0.013445790094941 
1508	 3.73116294220593E-03 
1509	 4.32766684400376E-03 
1510	 0.012482243537772 
1511	 7.94014705697015E-03 
1512	 5.26714596938078E-03 
1513	 8.00863312488808E-03 
1514	 6.45658689307954E-03 
1515	 1.11184795558371E-02 
1516	 1.38356449756516E-02 
1517	 8.58799483082043E-03 
1518	 5.63847190663591E-03 
1519	-3.75100872713901E-04 
1520	-3.9760979668743E-03 
1521	-2.71175774413374E-03 
1522	-5.66082746127422E-03 
1523	-9.84131282305657E-03 
1524	-5.72361159282806E-03 
1525	 6.38602532792441E-03 
1526	 9.34985092265003E-03 
1527	 6.88923558637549E-03 
1528	 9.75962023144785E-03 
1529	 4.45638657948741E-03 
1530	-1.78048088708169E-03 
1531	 7.09084100821377E-03 
1532	 1.24120695227915E-02 
1533	 7.81872002930378E-03 
1534	 8.05219717942959E-03 
1535	 8.72431281636372E-03 
1536	 7.31959767132749E-03 
1537	 1.22589165016658E-02 
1538	 1.48751492852001E-02 
1539	 1.09874281500049E-02 
1540	 9.40420693024879E-03 
1541	 6.65149020651276E-03 
1542	 4.57089224926857E-03 
1543	 5.73322219935567E-03 
1544	 4.24191935910587E-03 
1545	 2.03325470618082E-03 
1546	 9.55610274877242E-04 
1547	-9.24681297044139E-04 
1548	-3.11878292903993E-04 
1549	 4.88854299984666E-04 
1550	 1.32263945793878E-03 
1551	 4.4282245757781E-03 
1552	 1.23066881600448E-03 
1553	-2.42575162467711E-03 
1554	 3.2617813619603E-03 
1555	 8.1170061308726E-03 
1556	 6.34270675903909E-03 
1557	 5.32462084806076E-03 
1558	 4.67486365924279E-03 
1559	-8.28299031683954E-04 
1560	-1.72646021848537E-03 
1561	 4.58723803518234E-03 
1562	 3.01521973237444E-03 
1563	-8.01059739922466E-04 
1564	 2.30517052745099E-03 
1565	-5.73001008672811E-04 
1566	-5.19020394923825E-03 
1567	-1.86997848310246E-04 
1568	 1.04997845556095E-03 
1569	-2.05603111830666E-03 
1570	 6.16703042668396E-04 
1571	 1.38459584023294E-03 
1572	-1.67317010762392E-03 
1573	-3.32800028816304E-03 
1574	-3.44655425885256E-03 
1575	-5.16253734281355E-03 
1576	-5.9309109982866E-03 
1577	-2.70334222737217E-03 
1578	 5.7448647362348E-04 
1579	 2.8096902174697E-03 
1580	 4.02847734479776E-03 
1581	 2.66218577487722E-03 
1582	 3.59658709329269E-03 
1583	 8.76939317038324E-03 
1584	 9.25269180658667E-03 
1585	 8.14943475793539E-03 
1586	 0.009074199948412 
1587	 6.70331790264268E-03 
1588	 5.1934118431947E-03 
1589	 5.65176322382653E-03 
1590	 5.34590081829873E-03 
1591	 6.66778349184143E-03 
1592	 8.76226918863255E-03 
1593	 8.89587209673231E-03 
1594	 9.11669826324107E-03 
1595	 8.39766338502544E-03 
1596	 4.32397844095615E-03 
1597	 4.67771540791067E-03 
1598	 5.11462371502063E-03 
1599	-1.50620972739857E-03 
1600	-5.02882299605146E-03 
1601	-6.02376428025411E-03 
1602	-5.59235524128997E-03 
1603	 1.17901464718626E-03 
1604	 6.02834215452139E-03 
1605	 6.23551409974611E-03 
1606	 5.65451850845668E-03 
1607	 2.24346426894816E-03 
1608	 2.51416830406737E-03 
1609	 4.02802501708325E-03 
1610	 1.51894136612077E-03 
1611	 1.00424061223106E-03 
1612	 2.6688811856013E-03 
1613	 5.59428131920446E-03 
1614	 7.63891354558582E-03 
1615	 1.16383236788264E-02 
1616	 1.40607499016471E-02 
1617	 9.2662796824437E-03 
1618	 7.45985314377615E-03 
1619	 1.03833119237976E-02 
1620	 9.17412282031379E-03 
1621	 7.6770338808615E-03 
1622	 0.007279083413064 
1623	 4.07159785682761E-03 
1624	 2.00249037467301E-03 
1625	-9.01306240162477E-04 
1626	-9.49460912027478E-04 
1627	 5.45537757268365E-04 
1628	-1.84360840740239E-03 
1629	 9.33319090646994E-04 
1630	 4.79084092343863E-03 
1631	 4.60971012374649E-03 
1632	 5.65142221244142E-03 
1633	 7.07764403295047E-03 
1634	 6.91687203792729E-03 
1635	 3.09674102676122E-03 
1636	-1.23663031900985E-03 
1637	-9.38871822269336E-04 
1638	 6.98231440936709E-04 
1639	 3.30477488922434E-03 
1640	 2.67327534681935E-03 
1641	-3.41901735964407E-03 
1642	-2.96306214702213E-03 
1643	 2.57441983401024E-03 
1644	 3.12857642754772E-03 
1645	-1.30970703267098E-03 
1646	-3.2118325610527E-03 
1647	-3.25129661323975E-03 
1648	-1.42348357525803E-03 
1649	 8.82378491675571E-03 
1650	 1.40325456421428E-02 
1651	 5.69382776575038E-03 
1652	-2.45961624160966E-03 
1653	 2.68201480338501E-03 
1654	-6.75309158209513E-04 
1655	-0.004735981381426 
1656	-4.98198970948147E-04 
1657	 1.35169664750654E-03 
1658	-1.20614842873413E-03 
1659	 1.04991304472001E-03 
1660	 3.2449627861185E-03 
1661	-1.52569081927005E-03 
1662	-1.51596426897814E-03 
1663	 7.14527337043839E-03 
1664	 1.05768597923979E-02 
1665	 8.86208804127865E-03 
1666	 8.47869664239693E-03 
1667	 1.27136014739681E-02 
1668	 3.81472218900801E-03 
1669	-3.88662084937576E-03 
1670	-1.14961066051443E-03 
1671	 9.26052554800139E-04 
1672	-2.49914159671431E-03 
1673	-1.42577773115581E-03 
1674	 2.79670247229542E-03 
1675	 6.05008825675203E-03 
1676	 1.20800713192742E-02 
1677	 0.010552901548134 
1678	 7.8686053968234E-03 
1679	 9.62048667590222E-03 
1680	 4.29290713012696E-03 
1681	 1.30695987463817E-03 
1682	 5.68005172262144E-03 
1683	 3.84548107002542E-03 
1684	 1.97599421862778E-03 
1685	 4.87983630725804E-03 
1686	 6.41841180646005E-03 
1687	 7.97266633315152E-03 
1688	 3.76383015505244E-03 
1689	 4.61907886673636E-03 
1690	 9.57493065751884E-03 
1691	-2.26386054509852E-03 
1692	-1.03418687920254E-02 
1693	-4.09584236780172E-03 
1694	-1.07950423696102E-03 
1695	 7.20766324966195E-04 
1696	 6.85897999017229E-03 
1697	 8.89627184511074E-03 
1698	 5.59284293758076E-04 
1699	-1.99834272574425E-03 
1700	 3.27268725138887E-03 
1701	 4.22305932627374E-03 
1702	 4.60028514150862E-03 
1703	 4.25938243587569E-03 
1704	 1.52668863551128E-03 
1705	 3.22450881277397E-03 
1706	 9.22676433307511E-03 
1707	 9.10177047329249E-03 
1708	 6.30020669470916E-03 
1709	 4.27930816337743E-03 
1710	 1.34335295249878E-03 
1711	 5.94245655024241E-03 
1712	 1.36377426093494E-02 
1713	-3.36770892732845E-03 
1714	-6.81645799943956E-03 
1715	-1.16145986622605E-03 
1716	 3.7650574899566E-03 
1717	 7.47393835941277E-03 
1718	 1.45114652022732E-02 
1719	 9.18926375284688E-03 
1720	-3.78935519777679E-03 
1721	 9.70736173514027E-04 
1722	 8.40811362071502E-03 
1723	 1.84033088654847E-03 
1724	 2.85161021537288E-03 
1725	 5.30359509261804E-03 
1726	 1.16516380926749E-03 
1727	 1.90054410096896E-03 
1728	 4.32010990185603E-03 
1729	 8.98351380864399E-04 
1730	-6.87745623177287E-03 
1731	-5.05657518132554E-03 
1732	 3.66419867177082E-03 
1733	 8.48263157525248E-03 
1734	 1.16474673408284E-02 
1735	 7.57397799472561E-03 
1736	 2.55978664824339E-04 
1737	 7.17888794115614E-03 
1738	 1.13435640600196E-02 
1739	-3.66596425659442E-03 
1740	-1.31925783296769E-02 
1741	-1.74687896790061E-02 
1742	-9.18709598703579E-03 
1743	 1.75902969844484E-02 
1744	 1.51283315092846E-02 
1745	 8.0154546154986E-04 
1746	-7.50378255848408E-03 
1747	-1.63634503140412E-02 
1748	-6.91907591809873E-03 
1749	 1.20393581813425E-03 
1750	-2.87014449135568E-03 
1751	-5.42009234205553E-03 
1752	 1.60994830499995E-03 
1753	 9.03923751056122E-03 
1754	 1.45901046194897E-02 
1755	 1.55707071556294E-02 
1756	 2.41350235292522E-02 
1757	 2.23223948665448E-02 
1758	-5.23586747351966E-03 
1759	-1.01012128628213E-02 
1760	-3.47644380339223E-03 
1761	-1.47766036911215E-02 
1762	-1.08448145849805E-02 
1763	-8.22345397375487E-03 
1764	-2.42848909281334E-02 
1765	-1.49369870777673E-02 
1766	 6.80222885917034E-03 
1767	 1.24907413862522E-02 
1768	 2.51354592121947E-02 
1769	 1.67370493000142E-02 
1770	-1.57133692184735E-02 
1771	-2.23033451240453E-02 
1772	-2.45834233763249E-02 
1773	-3.47209578699966E-02 
1774	-2.11098519933225E-02 
1775	-2.72984850313808E-02 
1776	-3.56600044316298E-02 
1777	-6.72437308076635E-02 
1778	-0.064738262177503 
1779	-3.48311101187289E-02 
1780	-2.82721133452331E-02 
1781	 2.69136379264401E-02 
1782	 6.38258874875106E-02 
1783	 4.71316963536071E-02 
1784	 4.08724305483995E-02 
1785	 2.34413134243587E-02 
1786	 2.01517110131203E-02 
1787	 1.34381054117527E-02 
1788	 5.29294829072828E-02 
1789	 0.230983154714934 
1790	 0.198762530243681 
1791	 0.153359171192626 
1792	-2.42404857955891E-02 
1793	-0.140312095788421 
1794	-4.75937969244413E-02 
1795	-5.86226563071317E-02 
1796	-0.275544799391842 
1797	-0.901198228835905 
1798	-1.03850504466753 
1799	-0.619701815236509 
1800	 0.43143035373491 
1801	 0.638094661002824 
1802	 0.755966065339453 
1803	 0.620256017866941 
1804	-0.539097426918381 
1805	-0.765252885071078 
1806	-0.594288124505357 
1807	-0.659598280154943 
1808	-0.189214666414185 
1809	-26.8452226586351 
1810	-3.55311620471465 
1811	-5.59559968061367 
1812	 0.830080168318498 
1813	 7.57433778351334E-02 
1814	-0.624879311941487 
1815	-0.481429962671838 
1816	 0.447059797543887 
1817	 6.79188118012724 
1818	-0.91867020951214 
1819	 0.29304896303381 
1820	-7.27831282002129 
1821	 0.226598941717593 
1822	 0.192359634684409 
1823	-5.16749045665296E-02 
1824	-0.257128308779583 
1825	 1.35149083754153 
1826	 0.920861598294237 
1827	 1.54696273154585 
1828	 1.80225594170268 
1829	 1.7463688149616 
1830	 1.22635146518812 
1831	 1.43696782961931 
1832	 1.76334381998495 
1833	 2.07742113124055 
1834	 2.1133014347704 
1835	 1.18614298220175 
1836	 0.932445946891327 
1837	 2.01464464342482 
1838	 1.44538795106785 
1839	 0.25312575086775 
1840	 0.730323375310636 
1841	 0.821384827134236 
1842	 0.418454379534881 
1843	 0.602443339520088 
1844	 3.94674616034383 
1845	 7.04763197718352 
1846	 3.55427923662126 
1847	 2.93544626991708 
1848	 1.26016295732053 
1849	 0.632064638102861 
1850	 0.65303031597885 
1851	 1.73527335579987 
1852	 10.2177833779854 
1853	-17.352191237016 
1854	-5.13426726871649 
1855	-10.3077251714794 
1856	-9.61673323340794 
1857	-2.54992626396113 
1858	-1.92475002517437 
1859	-2.20159507259553 
1860	-4.62532272666814 
1861	 11.9858415938062 
1862	 2.57585661354701 
1863	 2.09832221242207 
1864	 1.31203767129846 
1865	 0.698316288803283 
1866	 0.172801686537568 
1867	-0.12866129639078 
1868	-0.557433755318243 
1869	-0.76107400769275 
1870	-0.54174312485324 
1871	-1.15112008620698 
1872	-2.97331465148266 
1873	 0.425997906834738 
1874	-0.348339990426208 
1875	-0.940361847153944 
1876	-0.899868092673748 
1877	-0.515042426481609 
1878	-0.43705905963699 
1879	-0.404281983053958 
1880	-0.328615026856606 
1881	 0.064707162523589 
1882	-0.474667183260723 
1883	-0.614166899404029 
1884	-1.82101124755672E-02 
1885	 1.43950740367119 
1886	-5.36343257405307 
1887	-4.67101401882137 
1888	 29.305066734175 
1889	 80.0272578830134 
1890	-16.2049868360424 
1891	-13.8148092761044 
1892	 94.8067633946362 
1893	-1.0073079377419 
1894	 0.433717595551282 
1895	 1.31163637180938 
1896	 0.645863780458796 
1897	 0.525079208599525 
1898	 0.996380874290272 
1899	 1.93188938822255 
1900	 1.38698577665686 
1901	 1.62383195640929E-02 
1902	-4.74904737173904E-02 
1903	 0.204945682038454 
1904	-0.291890206152703 
1905	-0.316598628927394 
1906	 1.06644603032717 
1907	-4.92100613497319 
1908	-2.86234036997849 
1909	-3.55911149161599 
1910	-1.05940600443919 
1911	-1.21101410710117 
1912	 4.47929704700811 
1913	 3.21954460751527 
1914	 8.14044816384983 
1915	 4.37962109932895 
1916	 3.56905104230068 
1917	 4.29993905371889 
1918	 1.3057795421109 
1919	 0.224744600688745 
1920	-0.177889229676193 
1921	-0.185597758423853 
1922	 0.918622871560641 
1923	 1.16222620384565 
1924	 1.46562824367794 
1925	 2.31982171026185 
1926	 2.74253123238329 
1927	 4.8900288998097 
1928	 2448.37575984658 
1929	 4.99442116143209 
1930	 2.86458327172257 
1931	-3.43938881767411 
1932	-1.12975925675531 
1933	-0.342217672134441 
1934	 0.369524669390066 
1935	 0.715852382500542 
1936	 0.912899675233187 
1937	 0.630687233576181 
1938	-0.063356247093739 
1939	-11.638991960902 
1940	 1.45433727889304 
1941	 0.712528248868926 
1942	 0.558403670979958 
1943	 0.859162004087946 
1944	 1.09886708545234 
1945	 1.19295468184965 
1946	 1.36035637900529 
1947	 0.946662465225921 
1948	 0.485443760516559 
1949	 0.697082692498253 
1950	 1.77349492150209 
1951	-7.94918979406353 
1952	-1.08373354888729 
1953	-0.314579937926256 
1954	-7.78095817889729E-02 
1955	 0.333227864766998 
1956	-2.03216573370743 
1957	 1.21043740836377 
1958	 0.694579867952567 
1959	 0.364109974352518 
1960	 0.492293082735187 
1961	 0.272367608381158 
1962	 0.331912281355848 
1963	-4.34302467927513E-02 
1964	-0.382436637642935 
1965	-0.417881202485794 
1966	-0.516523898123695 
1967	-0.766017394202417 
1968	-0.624181744071763 
1969	-0.627233195894947 
1970	-0.696237773201337 
1971	-0.561018307972037 
1972	-0.399015189238149 
1973	-0.196754782992083 
1974	 1.20322190876636E-02 
1975	 0.109307507182976 
1976	 0.137182586464225 
1977	 0.177231940319139 
1978	 0.189365184194641 
1979	 0.199791844145008 
1980	 0.180130017199234 
1981	 0.306930870525323 
1982	 0.51435618287732 
1983	 0.444048985515507 
1984	 0.343198920365956 
1985	 0.185362520628392 
1986	 8.6319981894466E-03 
1987	-0.020884989622594 
1988	 7.17221805590383E-02 
1989	 0.112359623128388 
1990	 5.73482355998318E-02 
1991	-1.99868731068851E-02 
1992	-6.10340259951854E-02 
1993	-0.017252790094055 
1994	-6.51512022239979E-03 
1995	 3.42187266722071E-02 
1996	 2.18266014891056E-02 
1997	-0.064823558531931 
1998	-6.86061905569575E-02 
1999	-0.142021724687914 
2000	-0.273715557572188 
2001	-0.18864121725556 
2002	-0.173837496421212 
2003	-0.263366007769084 
2004	-0.122585180484558 
2005	 1.72726769275497E-04 
2006	-2.04286076515199E-02 
2007	 0.224799365416173 
2008	 0.263781764890782 
2009	 0.331452546430402 
2010	 0.483736528371023 
2011	 0.532918305982614 
2012	 0.476719122311132 
2013	 0.580054418854863 
2014	 0.330303932386289 
2015	-8.31660610110171E-02 
2016	 3.74282114660863E-02 
2017	 9.58375765814543E-02 
2018	-1.44888813273677E-02 
2019	 3.81220101184778E-02 
2020	 2.03057661960735E-02 
2021	-7.30974376816342E-02 
2022	 1.80034994558235E-02 
2023	 9.85375797856454E-02 
2024	 0.113325700133437 
2025	 0.10116711749203 
2026	 8.93391721340532E-02 
2027	 1.46626867468651E-02 
2028	-1.61140172862182E-02 
2029	 1.54657179101322E-02 
2030	 2.91868799345439E-02 
2031	 6.82884054391514E-02 
2032	 9.62018986637191E-02 
2033	 0.126439742466331 
2034	 8.58744976719149E-02 
2035	 2.16785314880987E-02 
2036	 3.18208849718193E-03 
2037	-1.54761783767734E-02 
2038	 1.65739895911693E-02 
2039	 1.29409487445778E-02 
2040	 1.26359864191539E-02 
2041	 2.70205515846561E-02 
2042	 6.28369053398583E-03 
2043	 7.99127430739534E-04 
2044	 4.47654677912732E-02 
2045	 6.43149359654018E-02 
2046	 1.78884881078572E-02 
2047	 0.012520269726323 
2048	-1.51000822250338E-02 
2049	-2.45926220121951E-02 
2050	-6.41863585995087E-03 
2051	 4.04947412407378E-02 
2052	 0.074367557709507 
2053	 0.080053700402958 
2054	 8.16489678737374E-02 
2055	 5.13674074853087E-02 
2056	 3.04475124740057E-02 
2057	 1.51353575419979E-02 
2058	 1.11592773069921E-02 
2059	-2.76347975299579E-02 
2060	-7.49385319693175E-03 
2061	 7.04635775456845E-02 
2062	 0.112539885834296 
2063	 0.174925710326836 
2064	 0.277635319844431 
2065	 0.262919407490561 
2066	 0.220610451408957 
2067	 0.184172504887557 
2068	 0.122379851977143 
2069	 0.103255035502603 
2070	 9.84960661606439E-02 
2071	 4.21443219017163E-02 
2072	-7.68972098053777E-03 
2073	-2.48011730293536E-02 
2074	-4.18203272319127E-02 
2075	-2.51174612336053E-02 
2076	 5.49937414054044E-02 
2077	 7.54476349430149E-02 
2078	 9.35438064557963E-02 
2079	 0.101537782366391 
2080	 8.30898937090554E-02 
2081	 4.70907526661613E-02 
2082	 5.29583418655737E-02 
2083	 0.058564091914565 
2084	 7.03835783655448E-02 
2085	 8.96028275511767E-02 
2086	 0.10862800803728 
2087	 9.63972315111194E-02 
2088	 6.64743039851868E-02 
2089	 4.03883253096987E-02 
2090	 1.60994812567095E-02 
2091	-1.84108154479187E-02 
2092	-3.38278185052299E-02 
2093	-3.96812997923414E-02 
2094	-3.26527696757716E-02 
2095	-1.70282048368415E-02 
2096	 2.19690171018097E-02 
2097	 0.107071260085616 
2098	 0.126439570659117 
2099	 0.131884694026707 
2100	 0.126413822388984 
2101	 0.087801731486006 
2102	 4.63415617545727E-02 
2103	 0.012214332683722 
2104	-1.32442017284216E-02 
2105	-2.62097120532199E-02 
2106	-4.78782942113154E-02 
2107	-0.018497919987928 
2108	 2.03551538622641E-02 
2109	 3.14966606046044E-02 
2110	 4.03692325706586E-02 
2111	 3.15454328052402E-02 
2112	 4.44577685894531E-02 
2113	 3.70637185325077E-02 
2114	 8.9992642795378E-03 
2115	 2.09906506019345E-04 
2116	-3.1329059572013E-03 
2117	-2.25956722198379E-02 
2118	-4.28977352335668E-02 
2119	-0.047008004695083 
2120	-3.79691170940185E-02 
2121	-7.79770956210908E-02 
2122	-7.87068730719618E-02 
2123	-0.058212643921492 
2124	-8.88211081984108E-02 
2125	-8.25895361618224E-02 
2126	-5.62837019138361E-02 
2127	-6.76303446964558E-02 
2128	-5.90944946639966E-02 
2129	-5.06595402659722E-02 
2130	-4.55148523146557E-02 
2131	-2.36230338749757E-02 
2132	-5.02757439969811E-03 
2133	 1.25179317751139E-02 
2134	 0.026920162754585 
2135	 3.51885975464345E-02 
2136	 3.73878267202151E-02 
2137	 2.44570952968205E-02 
2138	 4.80101283975887E-02 
2139	 9.51410615015761E-02 
2140	 0.117156710383104 
2141	 0.153633353351246 
2142	 0.176331831143497 
2143	 0.191844863038291 
2144	 0.170583197215333 
2145	 0.116640342562223 
2146	 5.35770303243567E-02 
2147	-3.38598840402474E-02 
2148	-0.099949220898402 
2149	-0.11012293027255 
2150	-6.61354338966714E-02 
2151	-0.056563824072622 
2152	-8.56288607398472E-02 
2153	-0.111994183996595 
2154	-0.122928583968245 
2155	-7.08662597512564E-02 
2156	 1.63575047639486E-04 
2157	 6.17521335885029E-02 
2158	 0.177944227990418 
2159	 0.198568415901684 
2160	 0.154827910724715 
2161	 0.140674488015874 
2162	 6.79905941721797E-02 
2163	 7.23712440953177E-02 
2164	 0.157271428260956 
2165	 0.175001297372211 
2166	 0.204506442541095 
2167	 0.196103239198654 
2168	 0.10871452376536 
2169	 5.11688147841726E-02 
2170	 8.9286731320107E-04 
2171	-0.028843984918625 
2172	-4.79220694375844E-02 
2173	-4.83269621351701E-02 
2174	-3.64458698231575E-02 
2175	 1.54384796799688E-02 
2176	 7.30760416500611E-02 
2177	 8.58836593124146E-02 
2178	 9.37525975585665E-02 
2179	 9.74873717011164E-02 
2180	 8.84953471408342E-02 
2181	 0.104540336734413 
2182	 0.146230960709358 
2183	 0.175517894969391 
2184	 0.148608877976291 
2185	 0.123578269268169 
2186	 0.102689132747738 
2187	 4.49746791995082E-02 
2188	 3.83308933475025E-02 
2189	 8.20645878299326E-02 
2190	 7.26203509020007E-02 
2191	 3.31041192823638E-02 
2192	 4.99357906641618E-02 
2193	 8.20946518428438E-02 
2194	 8.86733187994952E-02 
2195	 0.156889446202236 
2196	 0.178777873902529 
2197	 9.05236533588231E-02 
2198	 0.101627367899052 
2199	 0.176447904183472 
2200	 0.210839871641333 
2201	 0.279113792089278 
2202	 0.298122445303391 
2203	 0.2405350097043 
2204	 0.157597595374604 
2205	 0.106408749384217 
2206	 7.59078460636934E-02 
2207	 6.77046493535525E-02 
2208	 6.63289439398369E-02 
2209	 2.19513157557613E-02 
2210	-0.024454065564138 
2211	-6.57094918932481E-02 
2212	-7.99167403781956E-02 
2213	-4.45724053154798E-02 
2214	 4.41032838004543E-02 
2215	 7.45287807762308E-02 
2216	 0.050506925269266 
2217	 8.44589670614647E-02 
2218	 0.108113415609056 
2219	 0.125281850188467 
2220	 0.213723849675927 
2221	 0.237233916545921 
2222	 0.196389683034746 
2223	 0.168458958690408 
2224	 0.128622209129152 
2225	 0.094682525277844 
2226	 0.031920196010511 
2227	 2.60338724101201E-03 
2228	 1.09729337124124E-02 
2229	-1.50284730551076E-02 
2230	-7.20733419837097E-02 
2231	-0.082138446771225 
2232	-6.72682193063197E-02 
2233	-5.49698505739164E-02 
2234	-2.43408748473003E-02 
2235	 7.06662315777064E-02 
2236	 0.105147746499519 
2237	 4.90517823513766E-02 
2238	-4.21236719160299E-03 
2239	-0.059253808302546 
2240	-9.51365774316458E-02 
2241	-0.111696154791761 
2242	-0.128005602082896 
2243	-0.146662333946286 
2244	-0.118488824066439 
2245	-5.41053774409737E-02 
2246	 3.54641211489226E-02 
2247	 9.38884811701967E-02 
2248	 0.125598551398271 
2249	 9.84406558410542E-02 
2250	 1.65986277170852E-02 
2251	-1.01119458140105E-02 
2252	-3.69682429809409E-02 
2253	-1.36070955734544E-02 
2254	 2.73154828608346E-02 
2255	 1.20098705225899E-02 
2256	-1.52618779683839E-02 
2257	-0.083540275035597 
2258	-9.96092453485701E-02 
2259	-0.145678950081367 
2260	-0.194221300083884 
2261	-0.239146498891938 
2262	-0.238515881000046 
2263	-0.241862629179352 
2264	-0.199259692697502 
2265	-6.99487017512316E-02 
2266	-0.029913702367662 
2267	 1.88500378476426E-02 
2268	-4.43281105816003E-03 
2269	-0.145984567055224 
2270	-0.223107110136716 
2271	-0.376497699067486 
2272	-0.432436776169669 
2273	-0.405017135695435 
2274	-0.339903471802701 
2275	-0.192934035310697 
2276	-0.135721654492572 
2277	-7.36923762072317E-02 
2278	-2.47996793843108E-02 
2279	 1.32336843119521E-03 
2280	 1.86618049553617E-02 
2281	-5.77876709502852E-03 
2282	 0.081609172751153 
2283	 0.161982271859745 
2284	 0.171858693776631 
2285	 0.236321509695457 
2286	 0.353702622761874 
2287	 0.349952558923433 
2288	 0.242712844724639 
2289	 0.226554975639482 
2290	 0.178212100783267 
2291	 7.12618461510529E-02 
2292	 0.111185782803985 
2293	 0.238423160771372 
2294	 0.249113528709448 
2295	 0.297530806312489 
2296	 0.451001302087178 
2297	 0.616948758617742 
2298	 0.605419720900205 
2299	 0.500700903358097 
2300	 0.4896695043608 
2301	 0.178042660059558 
2302	-0.122408003070531 
2303	-0.166719152084983 
2304	-0.189073805302739 
2305	-0.309297670598 
2306	-0.273881632025216 
2307	-0.162059753505511 
2308	-0.111473620936347 
2309	-9.45392935721448E-02 
2310	-2.75271420889334E-02 
2311	-0.10167512009074 
2312	-0.321848045932629 
2313	-0.152296088959729 
2314	-5.43918432593754E-02 
2315	-0.158064171610049 
2316	-0.179136550200231 
2317	-0.316678157987098 
2318	-0.285212265213337 
2319	 5.80556239899612E-02 
2320	 0.282016337558895 
2321	 0.237029292619441 
2322	-7.50621580619829E-03 
2323	-0.329115776266281 
2324	-0.479850239494837 
2325	-0.298729879218728 
2326	-0.2180786402985 
2327	-0.216280627095984 
2328	-0.192568474839312 
2329	-0.249060981420869 
2330	-0.160031665095827 
2331	 6.07120726583592E-02 
2332	 0.17923391251877 
2333	 0.266541698194292 
2334	 0.125036103314625 
2335	-0.122737981291328 
2336	-0.23816549582282 
2337	-0.287556488337539 
2338	-0.221405616321359 
2339	-0.628512151990478 
2340	-2.24121133257656 
2341	-0.529281144189878 
2342	-0.915825804915179 
2343	-0.358173318611753 
2344	-0.152868113231604 
2345	-0.221425242383538 
2346	-7.48327754630605E-02 
2347	 0.132179369105805 
2348	 0.94198946438809 
2349	 2.2606092608247 
2350	 1.52173375387905 
2351	-5.75143827686405E-02 
2352	-0.798324656470368 
2353	-4.28978950809744 
2354	 12.9498932959342 
2355	 14.8268510768935 
2356	-2.9374345684939 
2357	-1.16443214974174 
2358	-0.359383019524671 
2359	 0.111960938361886 
2360	-8.73158039080652E-03 
2361	-0.331364873242699 
2362	 0.455025647095365 
2363	 0.467457326295964 
2364	-0.232120964759171 
2365	 9.03339562229271E-02 
2366	-6.44674595818727E-02 
2367	-0.523997114877698 
2368	-1.21434120708835 
2369	 1.18772991235376 
2370	 1.25860136704394 
2371	 0.612635204312188 
2372	 0.933264891084561 
2373	 0.36822757692065 
2374	-1.10925235582637 
2375	 9.8075653353174E-04 
2376	-0.111644813078635 
2377	 2.45818024893929E-02 
2378	-0.503524689962248 
2379	-1.67109015821064 
2380	 3.36964881615113 
2381	 8.2046667757249 
2382	-2.75417192161603 
2383	 3.61626071988261 
2384	-0.502751320477897 
2385	-0.530847481503158 
2386	-0.486192870997605 
2387	-0.331730777135962 
2388	-0.431549677530751 
2389	-0.460175810120155 
2390	-0.521562141736668 
2391	 1.29604107435085 
2392	-1.5037715829688 
2393	 0.190894918111473 
2394	 0.248223251059049 
2395	-0.167004414688353 
2396	-0.233877850784212 
2397	-8.37991348987902 
2398	-21.5046811145529 
2399	 99.4901927062287 
2400	 3.19171369629436 
2401	 1.67221393727893 
2402	 0.960214610126049 
2403	-0.491951817884552 
2404	-22.4044139030347 
2405	 24.3115086052698 
2406	-5.59306070687616 
2407	-1.11185890778151 
2408	-0.627847538052052 
2409	-0.652779185129873 
2410	-0.524189590612578 
2411	-0.673316731774641 
2412	-1.48833082442704 
2413	-1.44799858514952 
2414	 0.195957097386956 
2415	 1.31742887260218 
2416	 1.40881221320335 
2417	 1.29385871453677 
2418	 0.759058815219461 
2419	 0.333248217277309 
2420	 6.38538893954765E-02 
2421	 0.573106984917659 
2422	 1.54676400107919 
2423	 1.76943079650133 
2424	 3.71463408700314 
2425	 25.5122724720276 
2426	 20.4690455486362 
2427	-7.15049638067906 
2428	-7.61427344777344 
2429	 0.463358957510078 
2430	 0.661534844272236 
2431	 0.293787531672198 
2432	-9.34988263440262E-02 
2433	-0.212534421282275 
2434	-0.484744540106266 
2435	-0.721676192888192 
2436	-0.825832630290623 
2437	-1.2768274333448 
2438	-10.6360281947102 
2439	 1.16742316810926 
2440	 0.828342690583146 
2441	-1.42169061302261 
2442	 2.0637734601377 
2443	-35.3085658438407 
2444	-2.97977848139436 
2445	-1.17079045862406 
2446	-0.144807034017444 
2447	 0.446413978133118 
2448	 0.694037436724625 
2449	 13.85566973743 
2450	-9.52411652726741 
2451	 5.26837011268594 
2452	 15.1875145571483 
2453	 2.2144500051865 
2454	 1.7553583526975 
2455	 1.68452143174474 
2456	 2.53537090330551 
2457	-13.7173122991107 
2458	-2.13325008479166 
2459	-1.12286006590627 
2460	-0.855683613737477 
2461	-0.769714244839775 
2462	-0.907933520051934 
2463	-1.44631472372984 
2464	-2.09895794309567 
2465	-1.34154462366867 
2466	-0.567894760221658 
2467	-0.320330815937885 
2468	 1.21122797720835 
2469	-2.88503118382977E-02 
2470	-0.126404036176145 
2471	-0.192664918197472 
2472	-0.644447368813104 
2473	-1.06084632582727 
2474	-0.322137552111185 
2475	-8.18887171397794E-02 
2476	-0.310800953742594 
2477	 4.19824612711097E-02 
2478	 0.151012558587258 
2479	 4.67506083705437 
2480	-1.11767041356847 
2481	-0.694608216421412 
2482	-0.45930820829535 
2483	 0.278767329331212 
2484	 0.273255559717819 
2485	 0.132882409460619 
2486	-0.273015256667243 
2487	 0.529211467403539 
2488	 0.670000319578553 
2489	 0.764411139797163 
2490	-2.41717649130697 
2491	 2.58130321989767E-02 
2492	 0.263110524756738 
2493	-0.171678805033383 
2494	-0.213243538256298 
2495	-0.348671459946324 
2496	-0.731299479984565 
2497	-0.803538221328962 
2498	-1.11251280020348 
2499	 3.66183956071594 
2500	 1.67556645286031 
