Wavelength	rt0728west00008.asd
350	 9.73012380094594E-02 
351	 9.70644919892461E-02 
352	 9.71279857952088E-02 
353	 9.72637380019937E-02 
354	 9.73667730631119E-02 
355	 9.77685850065583E-02 
356	 9.82174189974158E-02 
357	 0.098387477226495 
358	 9.82101901956348E-02 
359	 9.87139858440648E-02 
360	 9.92212064971406E-02 
361	 0.099376993213201 
362	 9.92107782797708E-02 
363	 9.98382082985499E-02 
364	 0.10000480534524 
365	 9.94884146633693E-02 
366	 0.100036918847497 
367	 0.100107730355655 
368	 0.100171333543235 
369	 0.100750863208407 
370	 0.100630094618593 
371	 0.100683291458665 
372	 0.101184630427442 
373	 0.101924031907278 
374	 0.102003259620351 
375	 0.1022879980172 
376	 0.102940029622759 
377	 0.102935059113701 
378	 0.103549655962411 
379	 0.104021007832616 
380	 0.103732658924565 
381	 0.103990773412808 
382	 0.104568405959841 
383	 0.105142716494379 
384	 0.105386852148702 
385	 0.105453928240742 
386	 0.105591060663127 
387	 0.105999281929021 
388	 0.1067782170977 
389	 0.107149236630799 
390	 0.106919565071648 
391	 0.106567765211783 
392	 0.107886017574139 
393	 0.108644374673934 
394	 0.108812027047027 
395	 0.109104466379142 
396	 0.109198190254026 
397	 0.109280578086304 
398	 0.109495550960553 
399	 0.109905428150849 
400	 0.110207657513908 
401	 0.110438111504184 
402	 0.110679605269286 
403	 0.11097726104715 
404	 0.1113223516161 
405	 0.111707790389768 
406	 0.112115653726015 
407	 0.112504407746993 
408	 0.112690071561079 
409	 0.112808034692223 
410	 0.113276577052068 
411	 0.11373649584658 
412	 0.114203075274837 
413	 0.114655063925463 
414	 0.114787153911541 
415	 0.114970580557458 
416	 0.115411051087962 
417	 0.11612067033136 
418	 0.116470786562438 
419	 0.116763343053133 
420	 0.117186534386667 
421	 0.117722577865821 
422	 0.118104663056296 
423	 0.118484553983735 
424	 0.119001937458167 
425	 0.119476842885387 
426	 0.120261665049507 
427	 0.120995567427825 
428	 0.121172498124829 
429	 0.121938490377581 
430	 0.122602524812993 
431	 0.122978797515411 
432	 0.123665371844276 
433	 0.124301380062685 
434	 0.124863171003221 
435	 0.125404853362123 
436	 0.125972973850845 
437	 0.126628770188671 
438	 0.127300557080741 
439	 0.12786987382269 
440	 0.128533529793689 
441	 0.129241276029262 
442	 0.129898945564289 
443	 0.130389172704298 
444	 0.130878692294291 
445	 0.131472368628776 
446	 0.132168078515666 
447	 0.132663311111285 
448	 0.133060984606085 
449	 0.133472662620733 
450	 0.133997526407192 
451	 0.134567575614459 
452	 0.13504758370257 
453	 0.135414980036196 
454	 0.135884691023812 
455	 0.136387514868752 
456	 0.136836390508501 
457	 0.137168075251926 
458	 0.137494025249832 
459	 0.137877705547409 
460	 0.138305203113929 
461	 0.138685942805816 
462	 0.139002814631886 
463	 0.139328573189591 
464	 0.139720543771231 
465	 0.140140046879286 
466	 0.140593871564874 
467	 0.140998278416882 
468	 0.14127244227369 
469	 0.141671652290909 
470	 0.14210303742331 
471	 0.142479025865577 
472	 0.142763232030908 
473	 0.14326080474473 
474	 0.143734843486703 
475	 0.143989487859436 
476	 0.144493387431501 
477	 0.145124624864684 
478	 0.145653838738152 
479	 0.145854721025184 
480	 0.146328628921047 
481	 0.146822164589343 
482	 0.147213740419855 
483	 0.147906606122046 
484	 0.14841765982914 
485	 0.148900870203379 
486	 0.149616259523466 
487	 0.150022812967355 
488	 0.150509014720097 
489	 0.151160006609515 
490	 0.151732856433727 
491	 0.152398837415225 
492	 0.153032223792175 
493	 0.153569161903097 
494	 0.154274663710277 
495	 0.155005646440409 
496	 0.155756594749921 
497	 0.156559598474957 
498	 0.157131677579205 
499	 0.15785014984164 
500	 0.158832306365962 
501	 0.159697172111252 
502	 0.160507158857259 
503	 0.161238708462465 
504	 0.161912047004101 
505	 0.162758857028079 
506	 0.163603473830788 
507	 0.164394476562829 
508	 0.16518006890731 
509	 0.16579136288843 
510	 0.166459596353052 
511	 0.167325637315514 
512	 0.168204682116495 
513	 0.168976027218101 
514	 0.169758525708578 
515	 0.17073924371767 
516	 0.171728829125756 
517	 0.172701099306412 
518	 0.173647653279061 
519	 0.174568983433431 
520	 0.175549037910245 
521	 0.17653070051677 
522	 0.177465605093063 
523	 0.178417714472258 
524	 0.179477577453647 
525	 0.180579568824327 
526	 0.181569503658703 
527	 0.182612250615143 
528	 0.183661443973818 
529	 0.184686412845271 
530	 0.185762325122026 
531	 0.186731728472408 
532	 0.187697321818531 
533	 0.188811755583156 
534	 0.189908007697574 
535	 0.190998655354188 
536	 0.192095455722994 
537	 0.193187693665794 
538	 0.194383184013048 
539	 0.195578739091565 
540	 0.196674686746678 
541	 0.197755606638966 
542	 0.198899304603998 
543	 0.200076616796312 
544	 0.201195064156749 
545	 0.202233876334685 
546	 0.203219005732399 
547	 0.204205777084204 
548	 0.205301307774035 
549	 0.206383075082114 
550	 0.207414326992013 
551	 0.208410342084916 
552	 0.20947951624053 
553	 0.21051288999458 
554	 0.211528288654553 
555	 0.21268865355045 
556	 0.213783455036948 
557	 0.214812741378016 
558	 0.21581280932066 
559	 0.216805531968784 
560	 0.217716648278245 
561	 0.218562005986858 
562	 0.219421317074105 
563	 0.22033727843097 
564	 0.221251073527366 
565	 0.222109426146936 
566	 0.222898054054446 
567	 0.223692258030525 
568	 0.224457265470629 
569	 0.225126430578128 
570	 0.225729416417389 
571	 0.226301399943142 
572	 0.2268599561603 
573	 0.227397535688645 
574	 0.22785702293878 
575	 0.228305917064025 
576	 0.228752472974339 
577	 0.228929415955598 
578	 0.229020559957082 
579	 0.229168429942049 
580	 0.229443675142316 
581	 0.229515189762293 
582	 0.229532814029165 
583	 0.229577064674304 
584	 0.22947102573158 
585	 0.229500186206626 
586	 0.229814417283413 
587	 0.230370921503796 
588	 0.230342425735341 
589	 0.230007104208165 
590	 0.229614225591486 
591	 0.229223230451071 
592	 0.228671498105333 
593	 0.227945821109511 
594	 0.227093194740597 
595	 0.22621267675139 
596	 0.225110370958963 
597	 0.22374682588045 
598	 0.222218694500452 
599	 0.220826534420202 
600	 0.219679149546382 
601	 0.218783980834956 
602	 0.218028995527518 
603	 0.217510524484363 
604	 0.217263045933659 
605	 0.217243540495113 
606	 0.217124389406349 
607	 0.217057494764396 
608	 0.217087029535412 
609	 0.217120277625971 
610	 0.21709398120622 
611	 0.217175746166838 
612	 0.217417959380208 
613	 0.217380306273522 
614	 0.217415290078888 
615	 0.217458266668798 
616	 0.217280049165289 
617	 0.217423351988456 
618	 0.217465197650815 
619	 0.217289002343884 
620	 0.217443730820755 
621	 0.217482548238873 
622	 0.217429140100934 
623	 0.217449484039401 
624	 0.21761916236497 
625	 0.217830374393302 
626	 0.217982856352664 
627	 0.218000224224434 
628	 0.218017851363588 
629	 0.21793781342271 
630	 0.217749883401132 
631	 0.217795857607279 
632	 0.217808214044554 
633	 0.217662194595022 
634	 0.217377897875877 
635	 0.217528474596875 
636	 0.217516104597987 
637	 0.217157063821272 
638	 0.21700464255757 
639	 0.216958346413148 
640	 0.216887614907944 
641	 0.216713665837832 
642	 0.216649245113791 
643	 0.216685209821288 
644	 0.216772141197901 
645	 0.216835670625013 
646	 0.216981827688497 
647	 0.216948771290611 
648	 0.216572179706549 
649	 0.216027477192882 
650	 0.215562270265514 
651	 0.215098708404075 
652	 0.214470914342598 
653	 0.213752877364541 
654	 0.213019433021889 
655	 0.212175231943765 
656	 0.21101581218472 
657	 0.209766867132165 
658	 0.208753310322764 
659	 0.208065359571714 
660	 0.207188325026588 
661	 0.206565277945103 
662	 0.206146690981447 
663	 0.205612454069536 
664	 0.205163591612174 
665	 0.204690970975321 
666	 0.204193583664533 
667	 0.203939197013955 
668	 0.203797089060515 
669	 0.203640810789134 
670	 0.203379938920062 
671	 0.203085518982697 
672	 0.202997288298123 
673	 0.203137106908974 
674	 0.203311230926814 
675	 0.203331425048426 
676	 0.203360300941504 
677	 0.203535903302534 
678	 0.203752947016505 
679	 0.20395831545101 
680	 0.20418244991909 
681	 0.204495308525753 
682	 0.204915051254541 
683	 0.205308158610776 
684	 0.205734955733577 
685	 0.206602314264429 
686	 0.207348871665865 
687	 0.207688817301142 
688	 0.207654477582811 
689	 0.207717887819265 
690	 0.207818421421352 
691	 0.207980976113727 
692	 0.20822321827915 
693	 0.207995984530829 
694	 0.207208891006715 
695	 0.206109093192468 
696	 0.205041464501047 
697	 0.204433240196908 
698	 0.204006837449391 
699	 0.203292733368475 
700	 0.202001726371444 
701	 0.200479519528218 
702	 0.198976010199011 
703	 0.197515791358888 
704	 0.195980233201347 
705	 0.194363621102612 
706	 0.192661574514802 
707	 0.190647334872854 
708	 0.188585685954736 
709	 0.186394708910649 
710	 0.183933703889737 
711	 0.181429987352459 
712	 0.178836140318505 
713	 0.176250844680628 
714	 0.173890290720669 
715	 0.172226168646564 
716	 0.170604581833889 
717	 0.168226562966464 
718	 0.164998714628792 
719	 0.161021148096495 
720	 0.157409381601182 
721	 0.154247238937815 
722	 0.152157637683547 
723	 0.149564833052018 
724	 0.146293194685161 
725	 0.143437994218755 
726	 0.140345296665733 
727	 0.136907839588464 
728	 0.133241737815302 
729	 0.129736041449197 
730	 0.125865550845857 
731	 0.121979558846152 
732	 0.118480207765728 
733	 0.115903594384824 
734	 0.113993109662088 
735	 0.112468776598112 
736	 0.110948621498465 
737	 0.109776161827427 
738	 0.108798156825198 
739	 0.107898872602158 
740	 0.107340793749856 
741	 0.10690980900747 
742	 0.106606651979672 
743	 0.106501401109251 
744	 0.106337916595955 
745	 0.106164808710297 
746	 0.106034514448874 
747	 0.105956487714777 
748	 0.106063765670285 
749	 0.106044366349576 
750	 0.105722040476609 
751	 0.105727119306741 
752	 0.105757744582083 
753	 0.10579489664492 
754	 0.10592389722223 
755	 0.105741466620287 
756	 0.105572302327309 
757	 0.105679207471618 
758	 0.106318488590389 
759	 0.107527876679228 
760	 0.108538120477113 
761	 0.108122755816727 
762	 0.10824589627009 
763	 0.108166275345254 
764	 0.107861525551287 
765	 0.107507960043561 
766	 0.106942667294916 
767	 0.106708962820917 
768	 0.106825538249099 
769	 0.10686684720258 
770	 0.107087560920616 
771	 0.107385262731324 
772	 0.107628995130685 
773	 0.107794284699286 
774	 0.107994372584961 
775	 0.108158078802357 
776	 0.108234416133175 
777	 0.108801036001422 
778	 0.109259127354728 
779	 0.109528382251892 
780	 0.110102969325206 
781	 0.11041658497404 
782	 0.110730616485684 
783	 0.111267377736326 
784	 0.111818772284924 
785	 0.112451455806597 
786	 0.113126019921212 
787	 0.113786834840155 
788	 0.114532455018617 
789	 0.115105666135205 
790	 0.115482191491947 
791	 0.115858271226575 
792	 0.116283383300031 
793	 0.116682834161821 
794	 0.117171881775286 
795	 0.118197389509769 
796	 0.118974274878851 
797	 0.119569052956825 
798	 0.120199655709289 
799	 0.12051044610878 
800	 0.120887030027367 
801	 0.121339475631094 
802	 0.121677505340515 
803	 0.122010121246048 
804	 0.12215110511901 
805	 0.122127149786232 
806	 0.122197851458468 
807	 0.122322833132094 
808	 0.122479537090455 
809	 0.122607022040286 
810	 0.122538628875838 
811	 0.122549768174768 
812	 0.122740967508001 
813	 0.123041434115063 
814	 0.122951540779938 
815	 0.122401755583099 
816	 0.12156980388531 
817	 0.120705146944046 
818	 0.119085022386785 
819	 0.117785944984184 
820	 0.116999100679398 
821	 0.115894284467341 
822	 0.114443583010293 
823	 0.112487352112314 
824	 0.110280048987232 
825	 0.108572067527477 
826	 0.106762136298954 
827	 0.10467646094005 
828	 0.102515537475377 
829	 0.100585972691555 
830	 9.88711731630075E-02 
831	 9.73838145915343E-02 
832	 9.61924361343488E-02 
833	 9.49862150475493E-02 
834	 9.38412775373908E-02 
835	 9.29900770294062E-02 
836	 9.27974655996088E-02 
837	 9.24185639037935E-02 
838	 9.17245551106128E-02 
839	 9.09402026756911E-02 
840	 9.07367648775901E-02 
841	 9.04770948528141E-02 
842	 9.01552828053973E-02 
843	 8.99436681054164E-02 
844	 8.97148780139699E-02 
845	 8.94109117925287E-02 
846	 8.89445688634066E-02 
847	 0.088320819280285 
848	 8.85465139340402E-02 
849	 8.85096526438524E-02 
850	 8.78492545884615E-02 
851	 0.087462195511424 
852	 8.72678958913342E-02 
853	 0.087158930752637 
854	 0.087070878210854 
855	 8.71152722876815E-02 
856	 8.65783642935868E-02 
857	 8.61501155644891E-02 
858	 8.64039212247971E-02 
859	 8.60869616814638E-02 
860	 0.085846770673218 
861	 8.56970408968029E-02 
862	 8.54188873895161E-02 
863	 8.55712651402347E-02 
864	 8.52337143019493E-02 
865	 8.45853984390847E-02 
866	 8.47545684289908E-02 
867	 8.48358691668116E-02 
868	 8.46071628527502E-02 
869	 8.42046748468573E-02 
870	 8.40758675589228E-02 
871	 8.40370743240294E-02 
872	 8.38374436918355E-02 
873	 8.34066822551816E-02 
874	 8.30989581007199E-02 
875	 8.28710143816243E-02 
876	 8.30246717526405E-02 
877	 8.34460860732484E-02 
878	 8.21838006699745E-02 
879	 0.081777995139772 
880	 8.18932108768911E-02 
881	 8.11921747809733E-02 
882	 8.14672593525459E-02 
883	 8.16117389969136E-02 
884	 8.12536223359159E-02 
885	 8.07613416074721E-02 
886	 8.06431177698179E-02 
887	 8.04651088270129E-02 
888	 8.01730858997188E-02 
889	 8.02462565614654E-02 
890	 8.05377216188453E-02 
891	 8.03622744379312E-02 
892	 7.96538348605486E-02 
893	 7.97751636607651E-02 
894	 8.03064088455167E-02 
895	 8.12583983933422E-02 
896	 8.22354586699937E-02 
897	 8.13446738261133E-02 
898	 8.14177612105298E-02 
899	 0.082016437440136 
900	 8.16578441509499E-02 
901	 0.080103855673604 
902	 7.94851945460617E-02 
903	 7.98535731571955E-02 
904	 8.03118522508236E-02 
905	 7.97605101436732E-02 
906	 0.078810078413696 
907	 7.82959240328748E-02 
908	 7.89477298157059E-02 
909	 7.93567211621525E-02 
910	 7.95353425131224E-02 
911	 7.92167196019915E-02 
912	 7.81925472127861E-02 
913	 8.05562802666368E-02 
914	 8.01046148366853E-02 
915	 7.63684898455156E-02 
916	 7.62998421932642E-02 
917	 7.74414955010403E-02 
918	 7.74498362201006E-02 
919	 7.60665934023323E-02 
920	 7.54563500339588E-02 
921	 7.52854131810509E-02 
922	 0.075819036085458 
923	 7.67449898780236E-02 
924	 7.63283926915616E-02 
925	 7.58794662683132E-02 
926	 7.58707528449764E-02 
927	 7.65119804795351E-02 
928	 7.80883606173823E-02 
929	 7.51132441230366E-02 
930	 7.13632008927949E-02 
931	 7.62127779005077E-02 
932	 7.51737869858479E-02 
933	 7.83598592992289E-02 
934	 8.12759662305024E-02 
935	 0.075126905333054 
936	 7.35564311100862E-02 
937	 7.44899991606959E-02 
938	 7.45277441421972E-02 
939	 7.23012671002502E-02 
940	 7.45794723745786E-02 
941	 7.52960167332224E-02 
942	 7.39915632832884E-02 
943	 7.26267490570443E-02 
944	 6.88813545610263E-02 
945	 6.98960758815225E-02 
946	 0.075616655380774 
947	 8.05605166336485E-02 
948	 0.079677282557224 
949	 7.39562721094155E-02 
950	 6.91130186994647E-02 
951	 7.14659742044282E-02 
952	 0.078021025139792 
953	 7.98598837993126E-02 
954	 7.82027921368976E-02 
955	 7.86036814989262E-02 
956	 6.66059362365651E-02 
957	 6.83914093866951E-02 
958	 7.87477825138646E-02 
959	 7.48915975693497E-02 
960	 7.55635062568037E-02 
961	 7.23125387147341E-02 
962	 6.79107834576451E-02 
963	 7.10923251804775E-02 
964	 7.23793284975728E-02 
965	 7.12021092835392E-02 
966	 7.05147503762837E-02 
967	 7.33223700921589E-02 
968	 6.93779835641165E-02 
969	 6.88101181153434E-02 
970	 7.14096716891735E-02 
971	 6.88685473249689E-02 
972	 7.29016105915176E-02 
973	 7.41619411416719E-02 
974	 7.14208871156132E-02 
975	 7.24597346984954E-02 
976	 6.98273397306728E-02 
977	 6.94619911576222E-02 
978	 7.23925387648146E-02 
979	 7.39907097875907E-02 
980	 7.00410103042784E-02 
981	 6.76370425370211E-02 
982	 0.068535259966708 
983	 6.94610025384813E-02 
984	 7.09890460909511E-02 
985	 6.98575361482676E-02 
986	 6.82533234309248E-02 
987	 7.09545054506796E-02 
988	 6.93730286572641E-02 
989	 0.067456593810246 
990	 6.71003879947229E-02 
991	 6.78669310860831E-02 
992	 7.09902462403791E-02 
993	 7.21369019044989E-02 
994	 6.98581048949738E-02 
995	 0.066103096444282 
996	 6.67462862076441E-02 
997	 6.84510124285632E-02 
998	 6.83280728726656E-02 
999	 6.56919453140613E-02 
1000	 6.61831672061027E-02 
1001	 7.50523329462452E-02 
1002	 7.54946646565643E-02 
1003	 7.53286116747358E-02 
1004	 7.46196526786825E-02 
1005	 0.074440033189589 
1006	 7.41352658611425E-02 
1007	 7.40491825829675E-02 
1008	 7.43199116552223E-02 
1009	 7.50566191041801E-02 
1010	 7.57313900202864E-02 
1011	 7.61018868918622E-02 
1012	 7.66068078110852E-02 
1013	 7.67156612883355E-02 
1014	 7.65677957403101E-02 
1015	 7.58830831539486E-02 
1016	 7.56574824462582E-02 
1017	 7.52687823809865E-02 
1018	 7.50256645740278E-02 
1019	 0.075162580255339 
1020	 7.50091553679609E-02 
1021	 7.47002318751256E-02 
1022	 7.45428002312479E-02 
1023	 7.36093175801709E-02 
1024	 7.35864032128657E-02 
1025	 7.34406384014233E-02 
1026	 7.31698527353598E-02 
1027	 7.34914633189505E-02 
1028	 7.43534274236401E-02 
1029	 7.49626317578278E-02 
1030	 7.61459832239193E-02 
1031	 7.64306533546902E-02 
1032	 7.64841128972576E-02 
1033	 7.62678311526028E-02 
1034	 7.50136142652114E-02 
1035	 7.45513651143369E-02 
1036	 7.39306387239935E-02 
1037	 7.40761990676389E-02 
1038	 7.50856379661562E-02 
1039	 7.60031145172272E-02 
1040	 7.66043486257526E-02 
1041	 7.70997796596964E-02 
1042	 7.70269327295266E-02 
1043	 7.59699256377819E-02 
1044	 7.55872328290502E-02 
1045	 7.51821940984514E-02 
1046	 7.50020427591291E-02 
1047	 7.49745340978789E-02 
1048	 7.50050661121806E-02 
1049	 7.52143605363963E-02 
1050	 7.54184696538217E-02 
1051	 7.58938724951652E-02 
1052	 7.59786711129529E-02 
1053	 7.60233054044709E-02 
1054	 7.58546152494592E-02 
1055	 7.48109304690163E-02 
1056	 7.45264767247321E-02 
1057	 7.45253660752268E-02 
1058	 7.47688843263498E-02 
1059	 7.50139033044829E-02 
1060	 7.58890645285006E-02 
1061	 7.61292899953968E-02 
1062	 0.076046532692156 
1063	 7.60381204787488E-02 
1064	 7.58688244072799E-02 
1065	 7.57949212014552E-02 
1066	 7.55603925972095E-02 
1067	 7.56187537339093E-02 
1068	 7.59244450468149E-02 
1069	 7.61104633486944E-02 
1070	 7.65527622407883E-02 
1071	 7.67526063332724E-02 
1072	 0.076533593100653 
1073	 7.67399640119652E-02 
1074	 7.66780680111585E-02 
1075	 7.65263100557707E-02 
1076	 7.63952123931315E-02 
1077	 7.60087958449152E-02 
1078	 0.076091704753427 
1079	 7.65230227684085E-02 
1080	 7.66373988399081E-02 
1081	 7.70754055109681E-02 
1082	 7.71072353584936E-02 
1083	 7.64040042835982E-02 
1084	 7.62857764214632E-02 
1085	 7.63839257074791E-02 
1086	 7.64559068351085E-02 
1087	 7.68482031315409E-02 
1088	 7.70751206580515E-02 
1089	 7.68635891256434E-02 
1090	 7.74380251189265E-02 
1091	 7.74758481344161E-02 
1092	 0.077388324892816 
1093	 7.72661887060656E-02 
1094	 7.67447582417073E-02 
1095	 7.68251146025456E-02 
1096	 7.75720755485893E-02 
1097	 7.74922509346229E-02 
1098	 0.076711435214323 
1099	 0.07696346009641 
1100	 7.75677005218939E-02 
1101	 7.76971239695932E-02 
1102	 7.93429879196193E-02 
1103	 7.97262795457668E-02 
1104	 7.83431510278246E-02 
1105	 7.63217827339255E-02 
1106	 7.73063494798692E-02 
1107	 7.78312181058005E-02 
1108	 7.92821088987982E-02 
1109	 8.20729156039469E-02 
1110	 8.25055495198728E-02 
1111	 8.00577798017288E-02 
1112	 7.96210251595057E-02 
1113	 7.91556536484245E-02 
1114	 7.86666890162607E-02 
1115	 7.82839816783108E-02 
1116	 7.97069958095738E-02 
1117	 8.41958843048936E-02 
1118	 8.47551532947659E-02 
1119	 8.60639449500636E-02 
1120	 8.61360738786032E-02 
1121	 7.54428863808438E-02 
1122	 6.29136764600811E-02 
1123	 6.27394356957819E-02 
1124	 7.38107785627657E-02 
1125	 9.24146709907886E-02 
1126	 9.73435376724193E-02 
1127	 8.78438647871297E-02 
1128	 8.93243147396636E-02 
1129	 8.80602714223723E-02 
1130	 8.08764426589044E-02 
1131	 8.11742681130073E-02 
1132	 8.78090357738504E-02 
1133	 8.78750610193947E-02 
1134	 8.65171542282608E-02 
1135	 8.70888678810409E-02 
1136	 8.63873084433334E-02 
1137	 8.65302926846135E-02 
1138	 8.81945924574689E-02 
1139	 8.90375713758337E-02 
1140	 8.81053908536121E-02 
1141	 8.69997322289489E-02 
1142	 8.50788666381158E-02 
1143	 8.17357215875795E-02 
1144	 8.18284084599593E-02 
1145	 8.29235901747921E-02 
1146	 0.080986345270966 
1147	 8.07916692544526E-02 
1148	 8.01564775256775E-02 
1149	 7.63448906245916E-02 
1150	 7.68751447672696E-02 
1151	 8.26024049006794E-02 
1152	 8.20254435983216E-02 
1153	 7.94766649572766E-02 
1154	 0.078826289994645 
1155	 7.74855551410499E-02 
1156	 7.56447920969969E-02 
1157	 7.57021296100722E-02 
1158	 7.45850289974728E-02 
1159	 7.40625568932145E-02 
1160	 7.48662712067671E-02 
1161	 7.53914496534912E-02 
1162	 7.65019070869379E-02 
1163	 7.65992243555724E-02 
1164	 7.56193635375883E-02 
1165	 7.50759603683209E-02 
1166	 7.58937053310611E-02 
1167	 7.68562725461336E-02 
1168	 7.63205338226911E-02 
1169	 7.49211884723946E-02 
1170	 7.33867754308815E-02 
1171	 7.27301259838101E-02 
1172	 0.072428724389545 
1173	 0.072235744741899 
1174	 7.27056512269737E-02 
1175	 7.26538268707086E-02 
1176	 7.25810609973186E-02 
1177	 7.30078468399547E-02 
1178	 7.31781190087517E-02 
1179	 7.32928441673856E-02 
1180	 7.33315005192156E-02 
1181	 7.30233544018381E-02 
1182	 7.36134507885409E-02 
1183	 7.46267028255187E-02 
1184	 7.42957909889032E-02 
1185	 7.32996046251032E-02 
1186	 0.073329670713133 
1187	 7.39242221429835E-02 
1188	 7.39046152045399E-02 
1189	 7.34841392339651E-02 
1190	 7.30677605591623E-02 
1191	 7.28975346109177E-02 
1192	 7.26009901207356E-02 
1193	 7.28496787130376E-02 
1194	 7.32434912389367E-02 
1195	 7.33448696693539E-02 
1196	 7.29603557624014E-02 
1197	 7.23581846977134E-02 
1198	 7.23921077033582E-02 
1199	 0.072566087866442 
1200	 7.20526575240758E-02 
1201	 7.20925568195392E-02 
1202	 7.32596949948358E-02 
1203	 7.35595650947226E-02 
1204	 7.27772343082232E-02 
1205	 7.22235928850808E-02 
1206	 7.17175485908841E-02 
1207	 7.13911812641712E-02 
1208	 7.15332713741518E-02 
1209	 7.16362013882677E-02 
1210	 7.16528530445638E-02 
1211	 7.17297931582346E-02 
1212	 7.17824686100569E-02 
1213	 7.20517188172561E-02 
1214	 7.21066364085683E-02 
1215	 7.21320095147039E-02 
1216	 7.16432643393602E-02 
1217	 7.12239221707831E-02 
1218	 0.071131915137638 
1219	 7.12851348936367E-02 
1220	 7.12727617096884E-02 
1221	 7.11054418923494E-02 
1222	 7.10173888203463E-02 
1223	 7.04905642341544E-02 
1224	 7.04021064452854E-02 
1225	 7.11755530774542E-02 
1226	 7.12814782820262E-02 
1227	 7.09344415885026E-02 
1228	 7.08759715517092E-02 
1229	 7.07775435110859E-02 
1230	 7.06221330106667E-02 
1231	 7.03510588444434E-02 
1232	 7.03955097717993E-02 
1233	 7.06328319668217E-02 
1234	 0.070321015960861 
1235	 0.070158528302737 
1236	 7.03894242122693E-02 
1237	 7.03776474556759E-02 
1238	 0.069936578088976 
1239	 0.069974157479638 
1240	 7.01649957469404E-02 
1241	 0.06989763527151 
1242	 0.069703006663091 
1243	 6.97516430908865E-02 
1244	 6.97796555270418E-02 
1245	 6.97292298146021E-02 
1246	 6.97713996605204E-02 
1247	 6.99317632536434E-02 
1248	 7.01256815973977E-02 
1249	 7.02905273374358E-02 
1250	 7.02612363995169E-02 
1251	 7.00149382860643E-02 
1252	 6.98519996162174E-02 
1253	 7.00132724818592E-02 
1254	 7.01743548140386E-02 
1255	 0.070159059718022 
1256	 7.03616723579493E-02 
1257	 7.08957062686773E-02 
1258	 0.070841516387088 
1259	 7.02730226240054E-02 
1260	 7.03466397644667E-02 
1261	 7.04672514962745E-02 
1262	 7.03846122884181E-02 
1263	 7.05389048069447E-02 
1264	 7.12181724468707E-02 
1265	 7.08387993136616E-02 
1266	 6.97827597393591E-02 
1267	 6.98201483152627E-02 
1268	 0.070208429444239 
1269	 7.05539170891089E-02 
1270	 7.10371364339686E-02 
1271	 7.10847597625333E-02 
1272	 7.10549194870516E-02 
1273	 7.08497349858053E-02 
1274	 7.05156773799197E-02 
1275	 7.06780185517981E-02 
1276	 7.05872870405081E-02 
1277	 6.99468935591165E-02 
1278	 6.98710090436353E-02 
1279	 7.00590681688931E-02 
1280	 7.00363433384503E-02 
1281	 7.00390140755407E-02 
1282	 7.05694517556753E-02 
1283	 7.04351173924829E-02 
1284	 6.94878394910177E-02 
1285	 6.93345989256943E-02 
1286	 6.95792911243333E-02 
1287	 6.96558344888434E-02 
1288	 0.069915255398616 
1289	 7.00354608077761E-02 
1290	 7.00398022113939E-02 
1291	 6.99059205951337E-02 
1292	 6.97370357748507E-02 
1293	 0.070090325820922 
1294	 7.00953215595065E-02 
1295	 0.070031630577979 
1296	 7.03642026251198E-02 
1297	 7.05106417499037E-02 
1298	 7.04852746352141E-02 
1299	 7.04992961695218E-02 
1300	 0.070816774607606 
1301	 7.11024684354106E-02 
1302	 7.15979998969546E-02 
1303	 7.26284744017173E-02 
1304	 7.29616989958445E-02 
1305	 7.23971305602334E-02 
1306	 7.24950626918231E-02 
1307	 7.29165085185893E-02 
1308	 7.27763213619111E-02 
1309	 7.23246636861697E-02 
1310	 7.22406957036285E-02 
1311	 7.16822983363052E-02 
1312	 7.17776557479877E-02 
1313	 0.072946085736042 
1314	 0.073516886792342 
1315	 7.36267157350748E-02 
1316	 7.43408166682538E-02 
1317	 7.58661223686165E-02 
1318	 7.62986396354858E-02 
1319	 0.076263827529336 
1320	 7.64816237266384E-02 
1321	 7.53968088092876E-02 
1322	 7.52833438945197E-02 
1323	 7.74100231506023E-02 
1324	 7.87452497484642E-02 
1325	 7.65401544349213E-02 
1326	 7.51854993309987E-02 
1327	 7.44875531596329E-02 
1328	 7.24142778596713E-02 
1329	 7.45863316206653E-02 
1330	 7.83077632000225E-02 
1331	 0.076904952883847 
1332	 7.55153120349461E-02 
1333	 7.64661213410727E-02 
1334	 7.63117292808492E-02 
1335	 7.60458898061234E-02 
1336	 7.81178007074861E-02 
1337	 7.83000815390007E-02 
1338	 7.54191158657579E-02 
1339	 0.074209884849959 
1340	 0.07379428719518 
1341	 7.39939381429406E-02 
1342	 7.46761965588941E-02 
1343	 7.52157505250982E-02 
1344	 7.80139379966729E-02 
1345	 7.80535010978826E-02 
1346	 7.18914760768995E-02 
1347	 7.16682648075056E-02 
1348	 8.24519270643961E-02 
1349	 8.33545254512979E-02 
1350	 7.28877211739885E-02 
1351	 7.81250445062043E-02 
1352	 8.57877216975952E-02 
1353	 6.44302396485468E-02 
1354	 1.08603131396369E-02 
1355	 4.88174548644214E-02 
1356	 0.138552454082581 
1357	 0.108118184894471 
1358	 0.245960413229602 
1359	 0.494613687245259 
1360	 0.326301583387016 
1361	 0.387489421490532 
1362	 1.42507164158442 
1363	 1.46774546501828 
1364	 1.1774879324933 
1365	 1.42519075368675 
1366	 1.95941769985652 
1367	 2.54796958480604 
1368	 4.26701653265496 
1369	 1.8438959044228 
1370	 1.905964911561 
1371	 2.91712928211345 
1372	 1.68133211338166 
1373	 4.64108019916745E-03 
1374	-5.43788912002721E-02 
1375	 2.13355477806172E-02 
1376	-8.40998889423402E-02 
1377	 0.176779962465251 
1378	 0.232547455585767 
1379	 2.13674741763857E-02 
1380	 3.53608598281004E-02 
1381	 0.370611915999459 
1382	 0.44946545545063 
1383	 0.113786893990096 
1384	 0.111660959112941 
1385	 0.439455148871767 
1386	 0.580242008078453 
1387	 0.642899231870268 
1388	 1.66406151886066 
1389	 1.15881294893632 
1390	 1.22804180664752 
1391	 2.13717076197493 
1392	 1.94057363626495 
1393	 1.14139473865039 
1394	 1.02660433669726 
1395	 1.41247128299999 
1396	 1.84862987623496 
1397	 1.05583238675418 
1398	 0.697872323939095 
1399	 1.36595656255834 
1400	 1.52479903835958 
1401	 0.810400631823208 
1402	 0.397458557144763 
1403	 0.340902842764767 
1404	 0.204882395201199 
1405	 0.235987780594715 
1406	 1.75205447324649 
1407	 2.17189824171231 
1408	 0.953688488131493 
1409	 1.04610439077997 
1410	 1.31399773347057 
1411	 0.593556077536074 
1412	 0.293721434611547 
1413	 0.233012311826467 
1414	 0.154131942474504 
1415	 7.44746025509997E-02 
1416	-7.60848146373793E-02 
1417	-2.61200037228962E-02 
1418	 0.231235191315435 
1419	 0.221877393077544 
1420	 0.237498072137312 
1421	 0.216193470760392 
1422	 8.35330352078324E-02 
1423	 5.46896370554198E-02 
1424	 3.94273040001178E-02 
1425	 0.100707322509677 
1426	 0.254517442846052 
1427	 0.252877923008287 
1428	 0.265678577865775 
1429	 0.245789290044556 
1430	 8.06108683902044E-02 
1431	 0.036765724273388 
1432	 6.74498652637421E-02 
1433	 7.76945525136508E-02 
1434	 0.114414840258382 
1435	 0.115587846293735 
1436	 9.62485512251658E-02 
1437	 7.51026001409566E-02 
1438	 9.02857324702499E-03 
1439	 3.23114681297833E-02 
1440	 0.102820361143283 
1441	 0.115756253160398 
1442	 0.192162462366121 
1443	 0.213825984521658 
1444	 0.141883570919318 
1445	 0.11837873031019 
1446	 0.115822842259915 
1447	 0.101658117230236 
1448	 9.20807414743013E-02 
1449	 9.38203435623118E-02 
1450	 8.66137751566112E-02 
1451	 7.01732405319167E-02 
1452	 7.01809944527243E-02 
1453	 7.76543628919855E-02 
1454	 8.12834994173538E-02 
1455	 7.94660291100845E-02 
1456	 8.28165937644945E-02 
1457	 9.38478330329627E-02 
1458	 9.26675664942223E-02 
1459	 0.085040504433488 
1460	 8.35336608719222E-02 
1461	 7.95653156146016E-02 
1462	 7.84521413488621E-02 
1463	 8.13236713290141E-02 
1464	 8.24858947057654E-02 
1465	 8.45578121428435E-02 
1466	 8.31654829337081E-02 
1467	 8.10135564265649E-02 
1468	 8.02546041340925E-02 
1469	 7.43833048465639E-02 
1470	 7.37384386735368E-02 
1471	 0.080371746228437 
1472	 7.83181404727264E-02 
1473	 6.94089394003868E-02 
1474	 7.16933952960022E-02 
1475	 7.93300300638109E-02 
1476	 7.78469610438672E-02 
1477	 7.72648457875322E-02 
1478	 7.85873065095483E-02 
1479	 7.24886803862609E-02 
1480	 7.34180665012831E-02 
1481	 8.21813246855472E-02 
1482	 8.43330004539363E-02 
1483	 8.54173606479251E-02 
1484	 8.48596523813523E-02 
1485	 8.36964432372095E-02 
1486	 8.14033589998483E-02 
1487	 7.59558411241783E-02 
1488	 7.45073655291418E-02 
1489	 7.36937335879343E-02 
1490	 7.39191999298065E-02 
1491	 7.71167018826087E-02 
1492	 7.77643100553064E-02 
1493	 7.73334971229324E-02 
1494	 7.73130358219111E-02 
1495	 7.62792138251552E-02 
1496	 7.60153180749246E-02 
1497	 7.70151322896243E-02 
1498	 7.68122664498197E-02 
1499	 7.59926244086415E-02 
1500	 7.54092603535782E-02 
1501	 7.43147339201969E-02 
1502	 7.36374573525879E-02 
1503	 7.32034847793338E-02 
1504	 0.073090772816874 
1505	 7.32822288583443E-02 
1506	 7.32227718200675E-02 
1507	 7.36773151449632E-02 
1508	 7.36272830145139E-02 
1509	 7.31330874227682E-02 
1510	 7.30944448894165E-02 
1511	 7.24213324878508E-02 
1512	 0.071409942124975 
1513	 7.12407954713808E-02 
1514	 7.13600266140947E-02 
1515	 7.13666547575261E-02 
1516	 7.20065099626037E-02 
1517	 7.26753804275016E-02 
1518	 7.22947645346932E-02 
1519	 7.15636634557325E-02 
1520	 7.12840850249545E-02 
1521	 7.09438604757441E-02 
1522	 7.06487004313733E-02 
1523	 7.13787328458372E-02 
1524	 7.20879593594371E-02 
1525	 7.20087586674391E-02 
1526	 7.17293154971995E-02 
1527	 7.12305392011299E-02 
1528	 7.06785857779148E-02 
1529	 7.05208123474408E-02 
1530	 7.08353540516591E-02 
1531	 7.09084981699337E-02 
1532	 7.06040572817822E-02 
1533	 7.04676657884774E-02 
1534	 7.05739410181964E-02 
1535	 0.070526219792656 
1536	 7.03164423251348E-02 
1537	 7.03340784533855E-02 
1538	 7.02326012379408E-02 
1539	 7.02572132451273E-02 
1540	 7.05632260227441E-02 
1541	 7.08259819167047E-02 
1542	 7.06340274831688E-02 
1543	 7.00832855696763E-02 
1544	 7.02691331442937E-02 
1545	 7.04914584963637E-02 
1546	 7.02899534764786E-02 
1547	 7.01630001685726E-02 
1548	 6.98406455832163E-02 
1549	 0.070124852749841 
1550	 0.070808607172121 
1551	 7.04515930582698E-02 
1552	 6.96108191656399E-02 
1553	 6.95762018582797E-02 
1554	 6.95123028272884E-02 
1555	 6.90638223756757E-02 
1556	 6.92345080104796E-02 
1557	 6.94181505313191E-02 
1558	 6.91720886181804E-02 
1559	 6.87426475212539E-02 
1560	 0.068870500577302 
1561	 6.93578560988105E-02 
1562	 6.91530656862375E-02 
1563	 6.87715775834959E-02 
1564	 6.89850788976638E-02 
1565	 6.93359107352814E-02 
1566	 6.85139310653727E-02 
1567	 6.79875497189553E-02 
1568	 6.87741132982363E-02 
1569	 6.83878364194973E-02 
1570	 6.76881816466367E-02 
1571	 6.83957833764594E-02 
1572	 6.86077288576972E-02 
1573	 6.84072015550066E-02 
1574	 6.88729083706479E-02 
1575	 6.88435432561753E-02 
1576	 6.84506946132614E-02 
1577	 6.84614205586663E-02 
1578	 6.82911153781066E-02 
1579	 6.81018718759516E-02 
1580	 6.87778367851888E-02 
1581	 6.94308629313141E-02 
1582	 6.95372695992786E-02 
1583	 6.95913281053742E-02 
1584	 6.86928136812317E-02 
1585	 6.78179929466929E-02 
1586	 6.82186875263036E-02 
1587	 6.84800169223981E-02 
1588	 6.83323787333193E-02 
1589	 0.06867741839518 
1590	 6.87771475176984E-02 
1591	 6.81182917116163E-02 
1592	 6.81648930282781E-02 
1593	 6.86405348226557E-02 
1594	 6.83047681440891E-02 
1595	 0.067826456978016 
1596	 6.79161172676158E-02 
1597	 6.84594054667584E-02 
1598	 6.84659950406829E-02 
1599	 6.79156320065538E-02 
1600	 6.82235486924558E-02 
1601	 0.068764421974511 
1602	 6.84508896520977E-02 
1603	 6.83074148549098E-02 
1604	 6.85815583170211E-02 
1605	 6.82667422816221E-02 
1606	 0.067667708653417 
1607	 0.06781259892207 
1608	 6.82805267979645E-02 
1609	 6.82772103866056E-02 
1610	 6.79301532692789E-02 
1611	 6.79495886908757E-02 
1612	 6.79130827384219E-02 
1613	 6.72490836953525E-02 
1614	 6.70990708326481E-02 
1615	 6.74200069094123E-02 
1616	 6.76484541737087E-02 
1617	 0.067568071904057 
1618	 6.72129595988065E-02 
1619	 6.74935055255993E-02 
1620	 6.77194269662548E-02 
1621	 6.76184591765558E-02 
1622	 6.78777124846689E-02 
1623	 6.76699991115754E-02 
1624	 6.71634102498652E-02 
1625	 6.73265392204705E-02 
1626	 6.74777316830218E-02 
1627	 6.74944649016847E-02 
1628	 6.77080807659675E-02 
1629	 6.73332875055407E-02 
1630	 6.67218728622037E-02 
1631	 6.62998127395499E-02 
1632	 6.57898469236736E-02 
1633	 6.59586350202501E-02 
1634	 6.68210561345737E-02 
1635	 6.73317581115932E-02 
1636	 6.72827149604276E-02 
1637	 6.66545574761237E-02 
1638	 6.65848761102187E-02 
1639	 6.73737952544977E-02 
1640	 6.72846434799041E-02 
1641	 6.72545776502079E-02 
1642	 0.067547465205651 
1643	 6.70344380256455E-02 
1644	 6.69286436262448E-02 
1645	 6.72420710213262E-02 
1646	 6.70033281736001E-02 
1647	 6.65161762689395E-02 
1648	 6.61816698714096E-02 
1649	 6.61931423225161E-02 
1650	 6.66598058705927E-02 
1651	 6.68111574050429E-02 
1652	 0.066200259559398 
1653	 6.61144566716076E-02 
1654	 6.61388608314752E-02 
1655	 6.65568653413497E-02 
1656	 6.67060338865529E-02 
1657	 6.64504125776454E-02 
1658	 6.64291710198628E-02 
1659	 0.066581972270448 
1660	 6.66516411936442E-02 
1661	 6.68071904084809E-02 
1662	 6.67905547226841E-02 
1663	 6.65424283214854E-02 
1664	 6.66495493806619E-02 
1665	 6.71292031993412E-02 
1666	 6.70459441683431E-02 
1667	 0.066393392773529 
1668	 0.065960708288042 
1669	 6.63986645888615E-02 
1670	 0.067065335072605 
1671	 6.68101305906608E-02 
1672	 6.59176683417261E-02 
1673	 6.57118233106473E-02 
1674	 6.55827871102152E-02 
1675	 6.55423644950036E-02 
1676	 0.066317534072388 
1677	 6.69513821371835E-02 
1678	 6.68680210379371E-02 
1679	 6.65820350210509E-02 
1680	 6.65245696998079E-02 
1681	 6.65588469425142E-02 
1682	 6.63379128833821E-02 
1683	 6.67654834756998E-02 
1684	 6.71126969230068E-02 
1685	 6.63397274724986E-02 
1686	 6.65304949595165E-02 
1687	 6.67189028514816E-02 
1688	 6.65519455873768E-02 
1689	 6.73279539496305E-02 
1690	 0.067437792443237 
1691	 6.78007101119644E-02 
1692	 0.067963805855046 
1693	 6.69556180092588E-02 
1694	 6.64236281049282E-02 
1695	 6.57115131856547E-02 
1696	 6.54134966591253E-02 
1697	 6.62535288329986E-02 
1698	 0.067048390421528 
1699	 6.79734485901086E-02 
1700	 6.86894359781063E-02 
1701	 6.79330490333829E-02 
1702	 6.69050824048495E-02 
1703	 6.69094472975462E-02 
1704	 6.66690986563068E-02 
1705	 6.65217663025058E-02 
1706	 6.72705464540942E-02 
1707	 6.67493170036362E-02 
1708	 6.55134555136196E-02 
1709	 6.65933832878072E-02 
1710	 6.71205371799942E-02 
1711	 6.64168860480221E-02 
1712	 0.067521578315055 
1713	 6.78409560764567E-02 
1714	 6.76796626015752E-02 
1715	 6.70907518176139E-02 
1716	 0.067177941626803 
1717	 6.74906827208726E-02 
1718	 6.72775990742416E-02 
1719	 6.68627343669744E-02 
1720	 6.70869090768004E-02 
1721	 6.69907291246231E-02 
1722	 6.74523302275909E-02 
1723	 6.84553250181671E-02 
1724	 6.79728505908612E-02 
1725	 6.73002114821647E-02 
1726	 6.72228852948493E-02 
1727	 6.70675911020583E-02 
1728	 6.68083461848191E-02 
1729	 6.64501314666602E-02 
1730	 6.60982509092834E-02 
1731	 6.60540820440221E-02 
1732	 6.72321372074927E-02 
1733	 0.068586111817652 
1734	 6.78297068562086E-02 
1735	 6.74169466615878E-02 
1736	 6.75917463359387E-02 
1737	 6.69634799117731E-02 
1738	 6.80890548292601E-02 
1739	 6.85885723003086E-02 
1740	 6.73772455347161E-02 
1741	 0.067335261341506 
1742	 0.068424166921917 
1743	 6.87548194940191E-02 
1744	 6.79922938122166E-02 
1745	 6.85710423587173E-02 
1746	 6.91727548815064E-02 
1747	 6.87267711861703E-02 
1748	 6.75710280491547E-02 
1749	 6.74085598391619E-02 
1750	 6.70589374727667E-02 
1751	 6.75075316450466E-02 
1752	 7.09043784812647E-02 
1753	 7.07911798292999E-02 
1754	 6.71852153551125E-02 
1755	 6.68161160956699E-02 
1756	 6.67857835393018E-02 
1757	 6.40792870387709E-02 
1758	 6.52672852124839E-02 
1759	 6.49463635731573E-02 
1760	 6.51383755243818E-02 
1761	 6.88076871671848E-02 
1762	 6.96393492243566E-02 
1763	 6.89729118913565E-02 
1764	 6.92363559514627E-02 
1765	 6.80011190062038E-02 
1766	 6.78969135668198E-02 
1767	 6.76746984308167E-02 
1768	 6.79333696953621E-02 
1769	 7.07892316331782E-02 
1770	 7.13960545240827E-02 
1771	 6.99856355489585E-02 
1772	 6.89054819309245E-02 
1773	 6.91315760236461E-02 
1774	 0.070367511520365 
1775	 7.40239946732054E-02 
1776	 7.49384263868266E-02 
1777	 7.25293804558993E-02 
1778	 7.23274647542499E-02 
1779	 7.02195718462288E-02 
1780	 7.00456856301757E-02 
1781	 7.45088731748424E-02 
1782	 7.40701477903464E-02 
1783	 7.17733066213243E-02 
1784	 7.31550604040016E-02 
1785	 7.26975562712225E-02 
1786	 7.08891571219802E-02 
1787	 7.02804448052571E-02 
1788	 7.15234401831489E-02 
1789	 7.26663049728273E-02 
1790	 8.33079830849561E-02 
1791	 8.39986869631934E-02 
1792	 7.30332418378556E-02 
1793	 6.11535650994418E-02 
1794	 4.89764068833535E-02 
1795	 4.58964298171034E-02 
1796	 5.83901317643282E-02 
1797	 6.99941399582867E-02 
1798	 6.02679420181213E-02 
1799	 5.17425877174477E-02 
1800	 4.91080856977816E-02 
1801	 3.37617984552856E-02 
1802	 3.01066831910981E-02 
1803	 3.62429532936872E-02 
1804	 2.91840593693545E-02 
1805	 5.68428651823068E-02 
1806	 0.17923366159952 
1807	 0.234964720645804 
1808	 0.181365500780341 
1809	 0.188736128283765 
1810	 0.159783272637456 
1811	 0.224630748847085 
1812	 0.439262466044496 
1813	 0.472532923210552 
1814	 0.612315822683676 
1815	 0.650822567831855 
1816	 7.46282635998769E-02 
1817	-8.35279797238815E-02 
1818	 0.193674731948693 
1819	-3.77643704941959E-02 
1820	-0.439691195797512 
1821	-0.696434239631829 
1822	-1.33088180326908 
1823	-0.724657172306631 
1824	 0.125622869638221 
1825	 0.74082116410764 
1826	 0.74514957607766 
1827	 0.791209242606613 
1828	 0.882219758530777 
1829	 0.494642709804944 
1830	 0.470165488550351 
1831	-1.57258527419779 
1832	-2.13326649249401 
1833	-10.7278612952516 
1834	-6.03003062785428 
1835	-3.38048691648169 
1836	-3.27179240857421 
1837	-1.68402148450648 
1838	-1.66755235848614 
1839	-2.92263336716897 
1840	 2.79873718667679 
1841	 2.07553170678913 
1842	 1.02723949709043 
1843	 2.63410176495457 
1844	-0.813278209810863 
1845	-0.76076512181866 
1846	-1.41791528530187 
1847	-2.2486107984141 
1848	 29.6188328886767 
1849	 0.751975898949777 
1850	 0.389285167009746 
1851	 0.510559717086613 
1852	 0.263590812549072 
1853	 0.174155003483942 
1854	 0.302444537681676 
1855	-1.88250008955119 
1856	-0.895253492748571 
1857	 1.51194800687624 
1858	 1.5269850658397 
1859	 4.81684735930589 
1860	-2.14143046125626 
1861	-0.176892668880606 
1862	-1.18015067379557 
1863	-0.668240211072184 
1864	-0.49027301945154 
1865	-0.24776629173541 
1866	 2.49463452553847 
1867	 5.89529627452198 
1868	-3.84685741778388 
1869	 3.49883030834686 
1870	 0.737423400114057 
1871	 0.490247938682596 
1872	 0.520349310965467 
1873	 0.494052395243068 
1874	-1.47840131534867E-02 
1875	-0.600077179954215 
1876	-0.952525556186501 
1877	-0.906906190548903 
1878	-0.857167299735132 
1879	-0.9167632355939 
1880	-1.07263789294303 
1881	-0.945609200724518 
1882	-1.26376356632152 
1883	-36.5949402190995 
1884	 3.49284676729915 
1885	 0.818291598262016 
1886	-0.432389937926531 
1887	-2.82095249670063 
1888	 1.32621846416872 
1889	 1.11083313048096 
1890	 0.764410502799701 
1891	 0.22843464766547 
1892	-0.124690383569714 
1893	-0.607639966490209 
1894	-1.62195004464867 
1895	-2.60494883570869 
1896	-4.21207411580043 
1897	 4.69496164084116 
1898	 1.12495209632869 
1899	 1.33906810407971 
1900	 0.877029585471597 
1901	-0.334614317678149 
1902	-0.36146881677445 
1903	 0.207615114906039 
1904	-0.064052819030336 
1905	 0.49948933001419 
1906	 2.64094134537569 
1907	 6.89175088535841 
1908	 59.8887138515741 
1909	 578.425738322906 
1910	 2.1806254985518 
1911	 4.67017951948466 
1912	 4.55334001363246 
1913	 9.63936774651827 
1914	 2.48631529840767 
1915	 2.03859110212411 
1916	 3.98577792039537 
1917	-3.34837678166904 
1918	 0.473431722522079 
1919	 0.291879822579258 
1920	 0.270465060331998 
1921	 0.248287047892349 
1922	-4.97346841989507E-02 
1923	-9.93194729356363E-02 
1924	-0.122209622607642 
1925	-0.577449710792532 
1926	-0.71698276257483 
1927	 0.523695434284939 
1928	 0.196430524240363 
1929	-0.539197576979901 
1930	-1.45910142092483 
1931	-1.54452921023925 
1932	-1.44961459259421 
1933	-0.899658435227032 
1934	-0.511349340548504 
1935	-0.431068905758508 
1936	-0.373097318952362 
1937	-0.556686764111444 
1938	-0.683773383418664 
1939	-0.985856259224732 
1940	-1.09777793889489 
1941	 14.8032716052574 
1942	 3.23594287418949 
1943	 2.31277227136936 
1944	 0.937566822719697 
1945	 0.473726124936438 
1946	 0.123753400369906 
1947	-0.161665221199126 
1948	-0.352140094970326 
1949	-0.338973759542141 
1950	-0.227432229624162 
1951	-1.04929384084381E-02 
1952	 6.09022941606823E-02 
1953	 0.210168804524093 
1954	 0.106347319073601 
1955	-4.94441185418573E-02 
1956	 1.08434397790329E-02 
1957	 0.143531207754038 
1958	 0.201568835069115 
1959	 0.181180028751656 
1960	 0.146368553601574 
1961	 8.79793627136558E-02 
1962	 6.04764084757454E-02 
1963	 0.084083606121737 
1964	 9.92249586637312E-02 
1965	 0.107971683652258 
1966	 0.116144642002061 
1967	 0.126847761124939 
1968	 0.127901020889428 
1969	 0.118760314385827 
1970	 0.11425374538369 
1971	 0.114517703541411 
1972	 0.101160516312076 
1973	 9.27720624653392E-02 
1974	 9.54364531394851E-02 
1975	 9.20257656827943E-02 
1976	 9.06271233626743E-02 
1977	 9.41397144536916E-02 
1978	 9.65684711928742E-02 
1979	 9.78729429099056E-02 
1980	 9.72452325220681E-02 
1981	 9.95439872089545E-02 
1982	 0.103910902214354 
1983	 0.102595798740037 
1984	 9.80112661882836E-02 
1985	 9.29174699076831E-02 
1986	 8.96085796579991E-02 
1987	 8.69293979628919E-02 
1988	 8.48514517755802E-02 
1989	 8.83065430861641E-02 
1990	 8.73340071115619E-02 
1991	 7.99157411400174E-02 
1992	 7.50729290971228E-02 
1993	 7.24992611748145E-02 
1994	 7.17492330909637E-02 
1995	 7.19297565146041E-02 
1996	 0.076914694576093 
1997	 8.78242571344479E-02 
1998	 9.47298371135913E-02 
1999	 8.91131252536789E-02 
2000	 8.47694796869446E-02 
2001	 8.41783163592924E-02 
2002	 7.71219838689327E-02 
2003	 7.31517412879483E-02 
2004	 9.31693156953937E-02 
2005	 0.11134315392326 
2006	 0.107472272956556 
2007	 0.110070029441334 
2008	 0.102984854674371 
2009	 0.093853416933279 
2010	 0.070217715342157 
2011	 6.66923122927315E-02 
2012	 7.22510401400987E-02 
2013	 7.37448620598993E-02 
2014	 7.88670939343537E-02 
2015	 7.97575536384412E-02 
2016	 7.94115964084834E-02 
2017	 8.07626281177625E-02 
2018	 8.00442612393662E-02 
2019	 7.85533159445371E-02 
2020	 7.96671416316268E-02 
2021	 8.27479666409939E-02 
2022	 8.54912639485757E-02 
2023	 8.90455062943319E-02 
2024	 9.07166886756014E-02 
2025	 0.090024624395017 
2026	 8.97190138027018E-02 
2027	 8.98122067560924E-02 
2028	 8.99524600980935E-02 
2029	 8.72194621151502E-02 
2030	 8.40808403503377E-02 
2031	 0.08161387422977 
2032	 7.95098207139345E-02 
2033	 7.93303864165033E-02 
2034	 8.04946224457871E-02 
2035	 8.08363362122425E-02 
2036	 0.081603037801325 
2037	 8.21386269346045E-02 
2038	 8.08462481058764E-02 
2039	 8.08682754168806E-02 
2040	 8.20431883346316E-02 
2041	 8.23706144622896E-02 
2042	 8.28392739288638E-02 
2043	 8.32322381591005E-02 
2044	 8.44681389393071E-02 
2045	 8.06849670119736E-02 
2046	 8.02950353415073E-02 
2047	 8.29999333843607E-02 
2048	 0.08149792241767 
2049	 8.23451936625937E-02 
2050	 8.53219164449142E-02 
2051	 0.083235267750914 
2052	 8.12446146560039E-02 
2053	 8.23550827647603E-02 
2054	 8.15410008824786E-02 
2055	 8.08786712169842E-02 
2056	 8.00250437751222E-02 
2057	 8.06947690546578E-02 
2058	 8.15365660510387E-02 
2059	 0.080777173172913 
2060	 8.02937562759752E-02 
2061	 8.14845693406559E-02 
2062	 0.083066804619302 
2063	 0.081136192009947 
2064	 7.97648878152724E-02 
2065	 8.05052678178617E-02 
2066	 7.97100341812532E-02 
2067	 7.90878582490023E-02 
2068	 8.21473482255819E-02 
2069	 8.22817193856515E-02 
2070	 8.25659963076755E-02 
2071	 8.45046974449648E-02 
2072	 8.46187021694497E-02 
2073	 8.33944879718599E-02 
2074	 8.02675983775871E-02 
2075	 7.95714132002105E-02 
2076	 7.85520875010016E-02 
2077	 7.78917830335313E-02 
2078	 8.04320528679039E-02 
2079	 8.07855407282597E-02 
2080	 0.079031785693304 
2081	 7.80219301474567E-02 
2082	 7.84885728901837E-02 
2083	 7.70039680361951E-02 
2084	 7.90304555433556E-02 
2085	 8.13588502873006E-02 
2086	 8.14485143876747E-02 
2087	 8.14659997583365E-02 
2088	 8.10206863259855E-02 
2089	 7.91160978575594E-02 
2090	 7.74063826609602E-02 
2091	 7.91855430848519E-02 
2092	 7.91064907683746E-02 
2093	 7.84102435666183E-02 
2094	 7.73131298846312E-02 
2095	 7.50609125014417E-02 
2096	 7.38945977450132E-02 
2097	 7.23406794176066E-02 
2098	 7.24492209454161E-02 
2099	 7.40249199541435E-02 
2100	 7.57938463454459E-02 
2101	 7.81752684115141E-02 
2102	 7.90853043193888E-02 
2103	 7.82115047402201E-02 
2104	 7.95580540414106E-02 
2105	 7.83284200807552E-02 
2106	 7.61632790383487E-02 
2107	 7.51934815774059E-02 
2108	 7.17043789265563E-02 
2109	 7.10127939414884E-02 
2110	 7.34705936278912E-02 
2111	 7.41847103010224E-02 
2112	 0.072810634738275 
2113	 7.22182904485984E-02 
2114	 6.88354667421247E-02 
2115	 6.85092918112296E-02 
2116	 7.17921117615089E-02 
2117	 7.31806012089117E-02 
2118	 0.074603709256095 
2119	 7.58197089682523E-02 
2120	 7.66355129450863E-02 
2121	 7.55360140762669E-02 
2122	 7.78369750128326E-02 
2123	 7.88648891868405E-02 
2124	 7.81203236655248E-02 
2125	 7.70166377446767E-02 
2126	 7.53672119264217E-02 
2127	 7.41129382655517E-02 
2128	 7.31412051219511E-02 
2129	 7.34651057612513E-02 
2130	 7.36225782670067E-02 
2131	 7.31469421476722E-02 
2132	 7.20363739935478E-02 
2133	 7.06273606169097E-02 
2134	 6.99851625401691E-02 
2135	 6.88578100653869E-02 
2136	 6.77632844605689E-02 
2137	 6.72319127247487E-02 
2138	 6.73404757752295E-02 
2139	 6.72589715795888E-02 
2140	 6.79276199769223E-02 
2141	 7.08689695577402E-02 
2142	 7.17169674322834E-02 
2143	 7.20877254446815E-02 
2144	 7.07489672273021E-02 
2145	 6.92265409764849E-02 
2146	 6.79420174057762E-02 
2147	 6.87626626836274E-02 
2148	 7.10229706583787E-02 
2149	 7.25950894423655E-02 
2150	 7.27502525664043E-02 
2151	 7.21755046719804E-02 
2152	 7.25364772267399E-02 
2153	 7.22063911005221E-02 
2154	 7.23113688544508E-02 
2155	 7.45763894129086E-02 
2156	 7.57107592224865E-02 
2157	 0.077155362674751 
2158	 8.17850293720265E-02 
2159	 8.18585290803949E-02 
2160	 7.77639038759498E-02 
2161	 0.076142666085463 
2162	 7.31707456506606E-02 
2163	 7.08628118088339E-02 
2164	 7.11024297171326E-02 
2165	 0.069240154808875 
2166	 6.41329928295134E-02 
2167	 6.27835879359584E-02 
2168	 6.32871375727772E-02 
2169	 6.38372569652959E-02 
2170	 6.70519850335658E-02 
2171	 6.74164022848674E-02 
2172	 6.86321174490541E-02 
2173	 0.070865229453437 
2174	 7.15194952536591E-02 
2175	 7.35345759567648E-02 
2176	 7.38367726916994E-02 
2177	 6.83863806737544E-02 
2178	 6.67993907238555E-02 
2179	 6.99307194227988E-02 
2180	 7.22494957395358E-02 
2181	 7.63435445625865E-02 
2182	 7.72425497974514E-02 
2183	 7.33806515083239E-02 
2184	 7.18420777839281E-02 
2185	 7.30800924866532E-02 
2186	 7.18063889536855E-02 
2187	 7.05890087436489E-02 
2188	 6.86848205055486E-02 
2189	 6.40788432338737E-02 
2190	 6.10574047614151E-02 
2191	 0.058926658708225 
2192	 5.91538141886066E-02 
2193	 6.18367075364115E-02 
2194	 6.11286510698946E-02 
2195	 5.85012498260402E-02 
2196	 5.87869507878307E-02 
2197	 5.80781119210148E-02 
2198	 5.92135185064747E-02 
2199	 6.43643485650813E-02 
2200	 0.070270759834626 
2201	 7.34598166719253E-02 
2202	 7.40287477672584E-02 
2203	 7.26894501684441E-02 
2204	 7.31268700315467E-02 
2205	 6.93938159929592E-02 
2206	 6.23022671175708E-02 
2207	 5.91850887055449E-02 
2208	 5.97007526737474E-02 
2209	 5.94140941138984E-02 
2210	 6.12066431290672E-02 
2211	 0.066482310234773 
2212	 6.65404513781965E-02 
2213	 0.066179648028709 
2214	 6.60890794915772E-02 
2215	 6.23918608827223E-02 
2216	 6.20319428318835E-02 
2217	 6.22276406555474E-02 
2218	 6.39742582649167E-02 
2219	 6.56807319506437E-02 
2220	 6.94968386291203E-02 
2221	 0.069828136530988 
2222	 6.98453561852685E-02 
2223	 6.88150298347083E-02 
2224	 6.33829464526837E-02 
2225	 5.94304971263628E-02 
2226	 5.54865936173254E-02 
2227	 5.38519906957963E-02 
2228	 0.05352953351594 
2229	 5.53117882017411E-02 
2230	 6.13302274470269E-02 
2231	 6.37164650207593E-02 
2232	 6.46863875268397E-02 
2233	 6.47680878416314E-02 
2234	 6.43438778884423E-02 
2235	 5.98324688884426E-02 
2236	 5.72562583170539E-02 
2237	 6.19676250333012E-02 
2238	 0.067918732192749 
2239	 7.16277970457841E-02 
2240	 7.03520808405484E-02 
2241	 6.73330840686283E-02 
2242	 6.82876699778801E-02 
2243	 6.87365862383255E-02 
2244	 6.50905400509966E-02 
2245	 6.49638927683726E-02 
2246	 6.78947393761101E-02 
2247	 6.21158254079718E-02 
2248	 5.79269349977535E-02 
2249	 6.13725106048255E-02 
2250	 5.94655859496655E-02 
2251	 6.00696081067817E-02 
2252	 6.49090362756765E-02 
2253	 6.81543385959353E-02 
2254	 6.85467497847588E-02 
2255	 6.32158166070243E-02 
2256	 6.06742901855809E-02 
2257	 6.24583769373697E-02 
2258	 6.10723570807624E-02 
2259	 5.94694427727066E-02 
2260	 5.91536477090519E-02 
2261	 5.85463587095884E-02 
2262	 5.80180222861453E-02 
2263	 6.09802508456558E-02 
2264	 5.98607576141144E-02 
2265	 5.43098788760066E-02 
2266	 5.28515515835892E-02 
2267	 5.18738111194139E-02 
2268	 5.02964812508764E-02 
2269	 5.12824603135747E-02 
2270	 5.10574211909693E-02 
2271	 4.36730686583284E-02 
2272	 4.62002754167413E-02 
2273	 6.04824705216708E-02 
2274	 6.59351817445449E-02 
2275	 7.49423694226075E-02 
2276	 7.75408826261266E-02 
2277	 6.72121992233063E-02 
2278	 6.30878974816808E-02 
2279	 6.01326890764927E-02 
2280	 5.65115690178619E-02 
2281	 5.02674720431229E-02 
2282	 5.47336810333989E-02 
2283	 6.03743638785877E-02 
2284	 6.39142633201396E-02 
2285	 7.19506962892691E-02 
2286	 6.99535217898814E-02 
2287	 6.53828712836179E-02 
2288	 6.66001212827411E-02 
2289	 6.74374362634281E-02 
2290	 6.47591957239008E-02 
2291	 5.94179156625451E-02 
2292	 5.64650432481133E-02 
2293	 5.41444767448536E-02 
2294	 5.50148633110975E-02 
2295	 5.33478524508709E-02 
2296	 5.18400310790052E-02 
2297	 4.93070558119139E-02 
2298	 4.73729376149396E-02 
2299	 4.99184987345921E-02 
2300	 4.78252927040642E-02 
2301	 0.054176855093444 
2302	 6.79171260428381E-02 
2303	 7.08983974129249E-02 
2304	 7.24420027450283E-02 
2305	 0.071413026975806 
2306	 0.065472391699445 
2307	 6.49884690187405E-02 
2308	 6.27846748901976E-02 
2309	 0.064450176114976 
2310	 7.08530312242862E-02 
2311	 7.82873598471794E-02 
2312	 8.95356914557341E-02 
2313	 9.35208831773392E-02 
2314	 9.27058662249726E-02 
2315	 0.084427175363777 
2316	 7.28481321866381E-02 
2317	 6.98778741431094E-02 
2318	 6.26405652458324E-02 
2319	 5.45534168783494E-02 
2320	 5.58026156174238E-02 
2321	 7.08542548562824E-02 
2322	 7.86328803826226E-02 
2323	 6.69064196767279E-02 
2324	 6.70679792556159E-02 
2325	 6.03289128331819E-02 
2326	 5.07082372343325E-02 
2327	 7.43431342111595E-02 
2328	 8.59685788574224E-02 
2329	 6.65419091251331E-02 
2330	 4.64122691814336E-02 
2331	 2.58030663465573E-02 
2332	 1.53891854130705E-02 
2333	 2.53015561348652E-02 
2334	 4.39262520066716E-02 
2335	 0.063036651420157 
2336	 6.64846107951846E-02 
2337	 7.65656304265961E-02 
2338	 8.24671876341212E-02 
2339	 0.054724958013111 
2340	 0.067892729497126 
2341	 0.101101106219203 
2342	 0.102592172740795 
2343	 0.116415400049587 
2344	 0.10396594679258 
2345	 5.48260403152374E-02 
2346	 3.57781990165987E-02 
2347	 5.33190359092313E-02 
2348	 7.42135583651664E-02 
2349	 9.99104228416129E-02 
2350	 9.21141250077334E-02 
2351	 6.33292033201177E-02 
2352	 5.21348729035925E-02 
2353	 2.31409512684698E-02 
2354	 0.016036232360377 
2355	 3.28494427529066E-02 
2356	 3.08214767225193E-02 
2357	 3.37339825757746E-02 
2358	 4.43597509044159E-02 
2359	 5.55995210992188E-02 
2360	 6.04071864668064E-02 
2361	 9.46403100540153E-02 
2362	 0.112648267744087 
2363	 7.91025138159921E-02 
2364	 6.99666551752983E-02 
2365	 2.00572325440964E-02 
2366	-1.35997291018107E-02 
2367	 4.38686956467861E-02 
2368	 7.13105938427025E-02 
2369	 0.146143206284087 
2370	 0.224628742081995 
2371	 0.22115444471568 
2372	 0.210512681973483 
2373	 0.146335493728785 
2374	 4.60707527205018E-02 
2375	 8.56714009472616E-04 
2376	 7.20688166793618E-03 
2377	 1.96096079133932E-03 
2378	 1.72777068384597E-02 
2379	-9.26187999327051E-03 
2380	-0.153941997965875 
2381	-0.173453313530555 
2382	-0.175701553268012 
2383	-0.265470577429982 
2384	-0.257127776701552 
2385	-0.207508204720599 
2386	-9.57711907893346E-02 
2387	-6.49708809720677E-03 
2388	-6.45611389895617E-02 
2389	-0.147925366332312 
2390	-0.308872819822782 
2391	-0.572708675355823 
2392	-0.592166428639268 
2393	-0.49769324975997 
2394	-0.473514602267274 
2395	-0.321887192304209 
2396	-0.114810053738614 
2397	-5.97116696008031E-02 
2398	 3.04658782079246E-02 
2399	 0.174389091927834 
2400	 0.215246981229656 
2401	 0.110857497366436 
2402	 3.86681544427222E-02 
2403	-1.50951721771903E-02 
2404	-1.35955016167198E-03 
2405	 0.256007666257598 
2406	 0.420985972420969 
2407	 0.275872061146818 
2408	 7.00072108079389E-02 
2409	-8.79501292604635E-02 
2410	 5.93415218049957E-02 
2411	 0.105485805568615 
2412	 0.217601938643683 
2413	 0.161672609965442 
2414	-0.172472027494756 
2415	-0.134059724993526 
2416	 0.264133532019771 
2417	 0.447040444020566 
2418	 16.3832170631303 
2419	-9.02194646741482 
2420	-1.0683788053924 
2421	-0.740816153993597 
2422	 4.44720694782808 
2423	 4.52234492309522 
2424	-140.987990811529 
2425	-2.37873565967 
2426	-0.945042572633441 
2427	-0.203308820244035 
2428	 4.33601628285406E-03 
2429	-0.353483905744222 
2430	-0.122014791819745 
2431	 0.231131367530186 
2432	 0.10919789966961 
2433	 0.66448517402232 
2434	 0.752964283877039 
2435	 0.431200596203288 
2436	 0.294767953261568 
2437	-0.354817407196155 
2438	-1.39549704511526 
2439	-0.495494037887533 
2440	 0.203027998025182 
2441	 3.4325550517976 
2442	 2.77730336696855 
2443	 1.3728253623926 
2444	 0.121946740571219 
2445	-0.527762600923095 
2446	-0.50030895335533 
2447	-0.527656128787349 
2448	-0.292132723027866 
2449	 1.57830383973464 
2450	 1.55446521735943 
2451	 2.05807164058796 
2452	 2.88529160009838 
2453	 2.34040305551549 
2454	 7.7441017623204 
2455	 2.25390030799688 
2456	 0.127583290000096 
2457	 0.403027095695845 
2458	 0.282102355608489 
2459	 0.68831107340793 
2460	 0.557812572022508 
2461	 0.306211572831062 
2462	 0.328920467548707 
2463	 0.170627750340927 
2464	 9.96505626773065E-02 
2465	 0.165034485870159 
2466	 0.459049588151458 
2467	 0.985789313962491 
2468	 0.511812257962655 
2469	 0.650369503502963 
2470	 0.200972331581636 
2471	 5.02926811178914E-02 
2472	 0.174290545467663 
2473	 8.95870497428838E-02 
2474	-4.45096490830073E-02 
2475	 0.224611773529402 
2476	-7.17369912183491E-02 
2477	-0.584326308825443 
2478	-0.532231122749742 
2479	-0.642723220229185 
2480	-1.33016210300035 
2481	-0.801170872560644 
2482	-0.152183368401758 
2483	-0.1514791955233 
2484	-0.062430544618665 
2485	 4.69084772156438E-02 
2486	 7.87357574220441E-02 
2487	-0.158386898310202 
2488	-0.172118139733109 
2489	-0.366056678845363 
2490	-0.553224933141697 
2491	-0.540795421314529 
2492	-1.12600476129815 
2493	-16.6860299686389 
2494	 0.750115019398076 
2495	-0.331050419727138 
2496	 0.819151405828246 
2497	 0.792074001736978 
2498	 0.724765358180408 
2499	 0.493308576384179 
2500	 0.061285965574348 
