Wavelength	rt0728algea00004.asd
350	 9.45293680916613E-02 
351	 9.47549331076204E-02 
352	 0.095483530564027 
353	 9.54777086733023E-02 
354	 9.46263142526727E-02 
355	 0.095568516776066 
356	 0.095852471970931 
357	 9.55860002398278E-02 
358	 9.54947379934317E-02 
359	 9.51990120346144E-02 
360	 0.095148977386327 
361	 0.09554247642219 
362	 9.62919182170676E-02 
363	 9.66233208401406E-02 
364	 9.64110286784663E-02 
365	 0.09602306368252 
366	 9.63981683823731E-02 
367	 9.65859449793029E-02 
368	 9.70685328519732E-02 
369	 9.80838163203798E-02 
370	 9.76665752764535E-02 
371	 9.73984465777605E-02 
372	 0.097770963347975 
373	 9.84831133783177E-02 
374	 9.88143724817544E-02 
375	 9.89286097132941E-02 
376	 9.91266296421782E-02 
377	 9.97239359847742E-02 
378	 9.96841682500735E-02 
379	 9.97006272271055E-02 
380	 0.100438102794053 
381	 0.101168589365305 
382	 0.101584903997529 
383	 0.101985340701608 
384	 0.102774858963426 
385	 0.102718639163964 
386	 0.10285676770702 
387	 0.103540086418492 
388	 0.104148796805833 
389	 0.104824282807747 
390	 0.105262674236392 
391	 0.105355782216592 
392	 0.105535297027958 
393	 0.106290371834939 
394	 0.106890110024181 
395	 0.106630736235186 
396	 0.107421093245569 
397	 0.108144266061561 
398	 0.108481795276655 
399	 0.108940862157237 
400	 0.109245988318051 
401	 0.109534402091545 
402	 0.109843312619518 
403	 0.109759736076664 
404	 0.110414554327083 
405	 0.111201408313689 
406	 0.111163408701839 
407	 0.11138210218466 
408	 0.11188178507168 
409	 0.112499819146694 
410	 0.112971084980416 
411	 0.113236058203179 
412	 0.113550109533066 
413	 0.114072092424762 
414	 0.114609497407619 
415	 0.115093675812152 
416	 0.115592973585614 
417	 0.116175116235748 
418	 0.116467832274654 
419	 0.116938380148104 
420	 0.117734633901272 
421	 0.118597512023247 
422	 0.119214129004302 
423	 0.119641571123827 
424	 0.120053112144549 
425	 0.120677162013585 
426	 0.121323086855451 
427	 0.122062120094701 
428	 0.123020456426368 
429	 0.123786824689109 
430	 0.124577563112001 
431	 0.125481184226533 
432	 0.126369937855892 
433	 0.127011677045307 
434	 0.127720545173266 
435	 0.128690054529596 
436	 0.129372732170298 
437	 0.130183302090233 
438	 0.13112102312494 
439	 0.131958531448508 
440	 0.132691592375479 
441	 0.13344454250696 
442	 0.134243165432279 
443	 0.134944262640719 
444	 0.135673968662371 
445	 0.136370223879649 
446	 0.136974660075605 
447	 0.137653414747477 
448	 0.138300277113944 
449	 0.138851320937074 
450	 0.139297694914801 
451	 0.139793376196663 
452	 0.140373341208876 
453	 0.140969155726392 
454	 0.141334588978463 
455	 0.141740559689976 
456	 0.142194775509415 
457	 0.142603529394017 
458	 0.142879245142544 
459	 0.143181822624684 
460	 0.143591640003922 
461	 0.144081965522959 
462	 0.144419655815853 
463	 0.144707951508063 
464	 0.145021111427076 
465	 0.145109372086298 
466	 0.145451221826151 
467	 0.145930702687098 
468	 0.146199247300017 
469	 0.146643035058763 
470	 0.147023807455791 
471	 0.147260512206396 
472	 0.147551648628482 
473	 0.147867030548488 
474	 0.148249413558897 
475	 0.148729244262148 
476	 0.149286582869501 
477	 0.149568910556009 
478	 0.149759757267612 
479	 0.150349892243021 
480	 0.150770621350711 
481	 0.151283957924456 
482	 0.151963463152585 
483	 0.152252130448062 
484	 0.152721278370706 
485	 0.15332847082422 
486	 0.153861604023771 
487	 0.154521368293195 
488	 0.155131756653503 
489	 0.155670862240731 
490	 0.156286958939062 
491	 0.157091685295917 
492	 0.157792226209058 
493	 0.158265501087832 
494	 0.15908187737744 
495	 0.159897480194625 
496	 0.160651103267338 
497	 0.161430422308105 
498	 0.162313545601424 
499	 0.163154500649293 
500	 0.163901163399902 
501	 0.164679949412152 
502	 0.165475707119667 
503	 0.166318514591382 
504	 0.167211240837896 
505	 0.167997037914252 
506	 0.168892079817618 
507	 0.169906617848768 
508	 0.170878721764563 
509	 0.171755571903526 
510	 0.172617375722434 
511	 0.173540136998902 
512	 0.174559894804698 
513	 0.175502789895884 
514	 0.176416116230224 
515	 0.177413378594399 
516	 0.178337049328886 
517	 0.179350089509591 
518	 0.180441333570086 
519	 0.181362481334863 
520	 0.182376528418883 
521	 0.183397655113528 
522	 0.184338887631365 
523	 0.185380633160821 
524	 0.186400292241386 
525	 0.187315543523668 
526	 0.188118105222969 
527	 0.189191450499185 
528	 0.190310251649563 
529	 0.191309920817172 
530	 0.192330642482158 
531	 0.193344698982578 
532	 0.194337468763164 
533	 0.195304985222112 
534	 0.196317263048415 
535	 0.197270844373513 
536	 0.198168074693715 
537	 0.19913305761284 
538	 0.200138593161561 
539	 0.201105923174734 
540	 0.202004589509102 
541	 0.203014512891811 
542	 0.20399955387264 
543	 0.204928266252709 
544	 0.205850394799854 
545	 0.206875453492461 
546	 0.207885472062169 
547	 0.208823243208604 
548	 0.209819402231065 
549	 0.210688133801499 
550	 0.21154966477028 
551	 0.212558779966977 
552	 0.21340274831559 
553	 0.214217372011814 
554	 0.215053968010395 
555	 0.215835710075276 
556	 0.216633255816688 
557	 0.217489599444887 
558	 0.21837125715798 
559	 0.219050985771863 
560	 0.219795215263254 
561	 0.220562461473138 
562	 0.221157525569843 
563	 0.221915504032529 
564	 0.222602803832875 
565	 0.223103395610037 
566	 0.223673305252539 
567	 0.224205506935386 
568	 0.224711201318408 
569	 0.225232572734092 
570	 0.225783669041706 
571	 0.226238724318257 
572	 0.226608146959721 
573	 0.22704897789597 
574	 0.227388130873969 
575	 0.227785127088539 
576	 0.22833924516992 
577	 0.228724161998658 
578	 0.229114809269845 
579	 0.229515618584641 
580	 0.229835124209402 
581	 0.230119322285496 
582	 0.230443376987344 
583	 0.230774622573145 
584	 0.230861761253253 
585	 0.231055574607416 
586	 0.231146384953788 
587	 0.230869805324464 
588	 0.230984838589317 
589	 0.231205072140977 
590	 0.23137814630427 
591	 0.231602477720843 
592	 0.231662556789346 
593	 0.231813786448479 
594	 0.232181276389639 
595	 0.232227087464866 
596	 0.232179254721261 
597	 0.232199488604976 
598	 0.232376202201241 
599	 0.232461993600431 
600	 0.232465236864561 
601	 0.232429324321935 
602	 0.232391731393284 
603	 0.232454240998989 
604	 0.232562304402448 
605	 0.232605901260947 
606	 0.232475628067628 
607	 0.232549884413396 
608	 0.232740025172796 
609	 0.232483173676496 
610	 0.232438820738339 
611	 0.232467524161196 
612	 0.232402054394037 
613	 0.232545601174964 
614	 0.232425129422732 
615	 0.23220639291588 
616	 0.232350267409539 
617	 0.232387400813627 
618	 0.232336510461274 
619	 0.232308939763398 
620	 0.232481790604519 
621	 0.232646781294595 
622	 0.232697187510247 
623	 0.232607187450871 
624	 0.2325369614263 
625	 0.232619137718418 
626	 0.232719692827285 
627	 0.232491307120311 
628	 0.23265513819379 
629	 0.232825782697883 
630	 0.232704365985928 
631	 0.232789030556266 
632	 0.232905365277699 
633	 0.232916093159269 
634	 0.232764779554071 
635	 0.232928656395594 
636	 0.23301430582153 
637	 0.232915150167729 
638	 0.233053003646396 
639	 0.233092537331822 
640	 0.233048444680337 
641	 0.233003958877858 
642	 0.232876208185404 
643	 0.232806140240125 
644	 0.232741741805927 
645	 0.232481832562052 
646	 0.232226522811931 
647	 0.23204978239044 
648	 0.231970043886081 
649	 0.23194858024112 
650	 0.231754727100792 
651	 0.231505403853805 
652	 0.231391635833038 
653	 0.231032949406201 
654	 0.23053926199898 
655	 0.230043979790727 
656	 0.229719483953955 
657	 0.229420303552083 
658	 0.229044640533804 
659	 0.228583931572304 
660	 0.228301502893074 
661	 0.227996070908746 
662	 0.22758158119181 
663	 0.227075744049159 
664	 0.226682635692097 
665	 0.226315742235315 
666	 0.225970533620725 
667	 0.225882593351767 
668	 0.225723786491825 
669	 0.225539243488629 
670	 0.225482414745778 
671	 0.225565433789945 
672	 0.225652664334634 
673	 0.225712157438716 
674	 0.225813180164188 
675	 0.22584464056575 
676	 0.226050163060054 
677	 0.22651932290402 
678	 0.226815840074085 
679	 0.226914956307346 
680	 0.227141850638333 
681	 0.227880606037755 
682	 0.228633986887147 
683	 0.229244255356228 
684	 0.229742432938631 
685	 0.230425150234963 
686	 0.230996585980591 
687	 0.231827900313232 
688	 0.233088748442909 
689	 0.233875220185753 
690	 0.23473770385679 
691	 0.235704201527376 
692	 0.236529247824458 
693	 0.237660872033918 
694	 0.238835378751951 
695	 0.23985123413172 
696	 0.240942486734739 
697	 0.241756485095881 
698	 0.242420649465823 
699	 0.243068162522274 
700	 0.243442600768531 
701	 0.244211084081162 
702	 0.245199479574031 
703	 0.245656892476626 
704	 0.246101523083094 
705	 0.246500466190684 
706	 0.246769996086676 
707	 0.246930525156343 
708	 0.247055190666673 
709	 0.247015337014616 
710	 0.246694584444161 
711	 0.246505301188465 
712	 0.246010821261695 
713	 0.245242149324789 
714	 0.244734674570083 
715	 0.243792848740303 
716	 0.242434868310301 
717	 0.241094257340019 
718	 0.240284508126165 
719	 0.239496956062543 
720	 0.238824656221443 
721	 0.238321525953858 
722	 0.237610357904926 
723	 0.23636983989607 
724	 0.234718321218654 
725	 0.233123883580283 
726	 0.231840990948485 
727	 0.230554486872966 
728	 0.228968882426261 
729	 0.227223174790129 
730	 0.225275428658908 
731	 0.223465310211735 
732	 0.222008143226796 
733	 0.220662884170276 
734	 0.219611086031476 
735	 0.21870979605624 
736	 0.21733953917063 
737	 0.216749615371061 
738	 0.216522402607144 
739	 0.216131998866318 
740	 0.215905677488084 
741	 0.216001971662218 
742	 0.216127211469204 
743	 0.215880221614693 
744	 0.216037062944239 
745	 0.216048306411637 
746	 0.215815921800671 
747	 0.216009296706219 
748	 0.216097920646199 
749	 0.216039512214531 
750	 0.215975779154391 
751	 0.216251896876382 
752	 0.216301862148374 
753	 0.216159346851284 
754	 0.21617356624799 
755	 0.216249235529106 
756	 0.216236120193438 
757	 0.216124755943257 
758	 0.216118596059549 
759	 0.21569574034209 
760	 0.21486963396241 
761	 0.214638270098336 
762	 0.214776056782674 
763	 0.215504396182725 
764	 0.216182601248337 
765	 0.216343179640479 
766	 0.216871771527064 
767	 0.217245207590264 
768	 0.217339036438538 
769	 0.217389326702108 
770	 0.217641354411776 
771	 0.217873886184103 
772	 0.217972517064439 
773	 0.218404586958526 
774	 0.218798502995123 
775	 0.219043657301244 
776	 0.219201829543911 
777	 0.219585046538168 
778	 0.219922860776709 
779	 0.22016016049032 
780	 0.220500802383355 
781	 0.220937169756488 
782	 0.221359474306523 
783	 0.221650938940712 
784	 0.221714599823642 
785	 0.221764658138207 
786	 0.222061698422761 
787	 0.222719609507619 
788	 0.223047533584167 
789	 0.223423646741204 
790	 0.223946495958736 
791	 0.224441179240751 
792	 0.224818447987241 
793	 0.225122402906417 
794	 0.225433626845423 
795	 0.225834361141931 
796	 0.226324127247972 
797	 0.226588761356191 
798	 0.226539420388295 
799	 0.227075528564342 
800	 0.227386430445808 
801	 0.227500096739629 
802	 0.22786616562375 
803	 0.228044909350369 
804	 0.228235357196622 
805	 0.228404558031501 
806	 0.228234940791701 
807	 0.228056661670927 
808	 0.227854729652845 
809	 0.227573994012423 
810	 0.227241666846896 
811	 0.226710049186758 
812	 0.226236484359098 
813	 0.226114215084342 
814	 0.225409632968902 
815	 0.22485772616409 
816	 0.22451680616291 
817	 0.223852991583567 
818	 0.22350530900578 
819	 0.223077510340429 
820	 0.222285947993289 
821	 0.221075968055069 
822	 0.22002444758419 
823	 0.21895854516216 
824	 0.217586459709869 
825	 0.215670060785916 
826	 0.213656568393367 
827	 0.211737768750604 
828	 0.210052723374118 
829	 0.208065312791545 
830	 0.206348713317883 
831	 0.204959947788548 
832	 0.20363066661306 
833	 0.20260081683499 
834	 0.201575790574216 
835	 0.200655890800556 
836	 0.200495326022394 
837	 0.19990727119975 
838	 0.199345724930617 
839	 0.199207099208981 
840	 0.198804208951184 
841	 0.198620837723423 
842	 0.198563172041595 
843	 0.198334493693868 
844	 0.197742978688775 
845	 0.197157368052393 
846	 0.19674461555457 
847	 0.196484378234296 
848	 0.196238499414144 
849	 0.19588583702735 
850	 0.195392392460015 
851	 0.194841943100494 
852	 0.194729776098608 
853	 0.194886373560957 
854	 0.194896946025987 
855	 0.194202974008131 
856	 0.193811667676139 
857	 0.193659993654265 
858	 0.193381107114884 
859	 0.192667045864066 
860	 0.19253237869895 
861	 0.192582961084167 
862	 0.191977211370456 
863	 0.19201551201052 
864	 0.192001926283936 
865	 0.191611624974481 
866	 0.191007671490991 
867	 0.190213173890274 
868	 0.189638706501343 
869	 0.189428855326941 
870	 0.189346772062326 
871	 0.189513645047667 
872	 0.189250521388041 
873	 0.188381861167895 
874	 0.188209645632002 
875	 0.187596287157454 
876	 0.187006776462321 
877	 0.186957849353419 
878	 0.18632165944612 
879	 0.185583396124376 
880	 0.185002143414267 
881	 0.184632803378852 
882	 0.184143640877565 
883	 0.183498508044483 
884	 0.182797464040103 
885	 0.182269535125961 
886	 0.182375684276822 
887	 0.182225159477501 
888	 0.181629806988869 
889	 0.181333827598515 
890	 0.180831204591261 
891	 0.180594842862339 
892	 0.180460088670638 
893	 0.178688534082458 
894	 0.178287594841166 
895	 0.178434595170993 
896	 0.177577703695997 
897	 0.176312002304453 
898	 0.176053828373979 
899	 0.175849888894889 
900	 0.174826842571189 
901	 0.175785689846613 
902	 0.174594769753185 
903	 0.173213596133444 
904	 0.17455426113251 
905	 0.174395011629041 
906	 0.172718742158413 
907	 0.171554216492393 
908	 0.173465030183302 
909	 0.172070699366048 
910	 0.170688833152789 
911	 0.170515328269758 
912	 0.169985481626224 
913	 0.170227482315805 
914	 0.168117529319342 
915	 0.164591022169067 
916	 0.16498307289363 
917	 0.165926532525616 
918	 0.165889793221811 
919	 0.164883040395366 
920	 0.164350790710567 
921	 0.163644049455863 
922	 0.163060441571573 
923	 0.162470872782171 
924	 0.16042456715499 
925	 0.161713155362419 
926	 0.162862142494498 
927	 0.159502735003805 
928	 0.156292642349703 
929	 0.155025944080767 
930	 0.15682767351994 
931	 0.160340309365147 
932	 0.15646768421238 
933	 0.150472412410425 
934	 0.147209519161571 
935	 0.148155222596044 
936	 0.153244769623767 
937	 0.151044887494424 
938	 0.147950362540507 
939	 0.150687659387553 
940	 0.147379113963314 
941	 0.144261196875027 
942	 0.144977642409586 
943	 0.149208594104086 
944	 0.142811324993873 
945	 0.131645148199562 
946	 0.129404126766439 
947	 0.143487214858044 
948	 0.139329464458873 
949	 0.13914064748569 
950	 0.144651235122466 
951	 0.143760594018264 
952	 0.132179961364401 
953	 0.13267093002453 
954	 0.143452914073504 
955	 0.147139496971746 
956	 0.147402707292953 
957	 0.139311360593417 
958	 0.131896147173827 
959	 0.138618651460035 
960	 0.13852223025055 
961	 0.136497238825476 
962	 0.134657768831619 
963	 0.132257813253052 
964	 0.134076357376302 
965	 0.13854892751193 
966	 0.139196382059278 
967	 0.130389972343643 
968	 0.132591285727956 
969	 0.137193587707471 
970	 0.13818386756245 
971	 0.135191174579475 
972	 0.136568487058266 
973	 0.137436864779735 
974	 0.135650987774496 
975	 0.133531373805261 
976	 0.13282658478666 
977	 0.133589344211834 
978	 0.134516719522305 
979	 0.134019100765024 
980	 0.134155467576302 
981	 0.135172182477451 
982	 0.135635374195976 
983	 0.133845980417143 
984	 0.13408578683298 
985	 0.134488949853895 
986	 0.13536813580005 
987	 0.138017703432961 
988	 0.135478733413875 
989	 0.132865277443225 
990	 0.133340812225612 
991	 0.136615202284204 
992	 0.137955539263438 
993	 0.138835287336111 
994	 0.138489644987311 
995	 0.135702829809721 
996	 0.137813411588139 
997	 0.138367863312955 
998	 0.138665846148125 
999	 0.142690483993661 
1000	 0.138094342484229 
1001	 0.137367794803319 
1002	 0.13643306246003 
1003	 0.136274739619583 
1004	 0.136475584071291 
1005	 0.136239539335988 
1006	 0.1361291043142 
1007	 0.13534764185314 
1008	 0.135574999794101 
1009	 0.136706137044489 
1010	 0.137692709017897 
1011	 0.139138884915994 
1012	 0.139476645238679 
1013	 0.139878106780641 
1014	 0.139971418391288 
1015	 0.139830103129098 
1016	 0.139729394911624 
1017	 0.139195892379752 
1018	 0.139024383589387 
1019	 0.139257305317045 
1020	 0.13959895585305 
1021	 0.140270754259138 
1022	 0.140163150463733 
1023	 0.141175346335776 
1024	 0.141462859211778 
1025	 0.142019130503377 
1026	 0.143163690594818 
1027	 0.143420449752734 
1028	 0.143349779729323 
1029	 0.143272415956358 
1030	 0.142630338145307 
1031	 0.14236554646716 
1032	 0.141857696033405 
1033	 0.141936709013816 
1034	 0.142629062042783 
1035	 0.142892612152637 
1036	 0.143209282548591 
1037	 0.143830779942863 
1038	 0.144924678436627 
1039	 0.144924930003952 
1040	 0.144821289669448 
1041	 0.145243855175099 
1042	 0.145494601358425 
1043	 0.145263252132427 
1044	 0.145222840836007 
1045	 0.145392856314936 
1046	 0.14573755376479 
1047	 0.145896668870414 
1048	 0.146279893049301 
1049	 0.147589848374649 
1050	 0.147947116128877 
1051	 0.14743519667623 
1052	 0.147480248140108 
1053	 0.147137358492706 
1054	 0.147391451701895 
1055	 0.14881963911732 
1056	 0.149334384283835 
1057	 0.149602270191651 
1058	 0.149910286208657 
1059	 0.149774020460674 
1060	 0.148731891746041 
1061	 0.148403864188933 
1062	 0.148211495852032 
1063	 0.148089744849948 
1064	 0.148092575312923 
1065	 0.148163777183335 
1066	 0.148535782991399 
1067	 0.14857452985324 
1068	 0.148029364052154 
1069	 0.148345903276176 
1070	 0.149590811897141 
1071	 0.149832515814558 
1072	 0.150243370854244 
1073	 0.150514207583984 
1074	 0.149799250472867 
1075	 0.146960258458107 
1076	 0.147096150060901 
1077	 0.14868652230911 
1078	 0.148792397703878 
1079	 0.149638949727409 
1080	 0.149881420319876 
1081	 0.148588396453862 
1082	 0.148162508876154 
1083	 0.148725185729982 
1084	 0.148757501856334 
1085	 0.148127865066332 
1086	 0.147870491320658 
1087	 0.147935686742866 
1088	 0.147884797979937 
1089	 0.148441066907673 
1090	 0.147914715634764 
1091	 0.147222158351964 
1092	 0.14573650644182 
1093	 0.145640706913486 
1094	 0.145791153205566 
1095	 0.145884372474774 
1096	 0.147547829329417 
1097	 0.147305726352024 
1098	 0.144998155010381 
1099	 0.144454760140587 
1100	 0.144196201355475 
1101	 0.143830555732453 
1102	 0.144239801893673 
1103	 0.144427423800994 
1104	 0.144008851061768 
1105	 0.144533589956948 
1106	 0.144792883533824 
1107	 0.144417230475755 
1108	 0.14292613580638 
1109	 0.140843611267124 
1110	 0.139961799212715 
1111	 0.139448827283566 
1112	 0.140335747363355 
1113	 0.144664635019327 
1114	 0.145718426673171 
1115	 0.145867198914133 
1116	 0.146183177384589 
1117	 0.141481225211186 
1118	 0.139720976308113 
1119	 0.146361115288525 
1120	 0.146254728417073 
1121	 0.137554770696184 
1122	 0.132766980208527 
1123	 0.130091618944533 
1124	 0.102348791765396 
1125	 0.102329605039289 
1126	 0.129462279761832 
1127	 0.140370881711068 
1128	 0.158227808495596 
1129	 0.155565112077771 
1130	 0.12891013876901 
1131	 0.123262069313102 
1132	 0.12435883639396 
1133	 0.122002265112955 
1134	 0.120356567659074 
1135	 0.121677845857226 
1136	 0.120708408387905 
1137	 0.123079522847566 
1138	 0.128460536042372 
1139	 0.141004455879416 
1140	 0.144296424536121 
1141	 0.127480724285973 
1142	 0.114553725714399 
1143	 0.120273229211256 
1144	 0.138606726247608 
1145	 0.150428190448365 
1146	 0.148387735058963 
1147	 0.136279503803812 
1148	 0.127027509243737 
1149	 0.127286807071953 
1150	 0.125031339493814 
1151	 0.1316633996074 
1152	 0.131920671999122 
1153	 0.126255470113459 
1154	 0.124156422837307 
1155	 0.123886608800103 
1156	 0.124012868366669 
1157	 0.124115373410953 
1158	 0.122652445177736 
1159	 0.120901863281482 
1160	 0.122131669501352 
1161	 0.124249475225688 
1162	 0.123709064185392 
1163	 0.123174008899921 
1164	 0.122247836009158 
1165	 0.119471597914537 
1166	 0.119260934526556 
1167	 0.121746236256147 
1168	 0.122352753298489 
1169	 0.122247779638132 
1170	 0.123083989701591 
1171	 0.12319118597108 
1172	 0.121600783441157 
1173	 0.121941770445744 
1174	 0.123676874309278 
1175	 0.124399623696874 
1176	 0.123383394643262 
1177	 0.122628728033098 
1178	 0.122554226463152 
1179	 0.122413198601649 
1180	 0.122915062895533 
1181	 0.123466582552757 
1182	 0.122903968516285 
1183	 0.12261825020149 
1184	 0.122852051015623 
1185	 0.122798350691375 
1186	 0.123464807823993 
1187	 0.123334091413417 
1188	 0.121608416452284 
1189	 0.121530665835303 
1190	 0.122068066562583 
1191	 0.121515043760681 
1192	 0.121118101291329 
1193	 0.121026148770236 
1194	 0.12105927375827 
1195	 0.121319711951289 
1196	 0.121614419852012 
1197	 0.121684753404249 
1198	 0.122403051602847 
1199	 0.122293436090741 
1200	 0.120877920485782 
1201	 0.120181148195234 
1202	 0.120399488606342 
1203	 0.120534403369221 
1204	 0.121058000781314 
1205	 0.122164397209206 
1206	 0.12235773651372 
1207	 0.122015138504127 
1208	 0.121670334696469 
1209	 0.120927272161725 
1210	 0.120839721849452 
1211	 0.121075790140948 
1212	 0.121471725334269 
1213	 0.122170680343609 
1214	 0.122183195845225 
1215	 0.121611859574669 
1216	 0.120877694629911 
1217	 0.120745204813536 
1218	 0.121255459347075 
1219	 0.121981628099532 
1220	 0.12199102723309 
1221	 0.122484149329492 
1222	 0.123096528983711 
1223	 0.122671485104596 
1224	 0.122567528699783 
1225	 0.122781159213507 
1226	 0.121817090265 
1227	 0.121415601059803 
1228	 0.122264258751208 
1229	 0.12193824201424 
1230	 0.121418108427274 
1231	 0.121705047255358 
1232	 0.122092626133748 
1233	 0.122561601805798 
1234	 0.122848974533602 
1235	 0.122939805615626 
1236	 0.122515412594504 
1237	 0.122235401213222 
1238	 0.121658983343811 
1239	 0.122165248429529 
1240	 0.122057195677919 
1241	 0.122219167448313 
1242	 0.123150270249477 
1243	 0.122482225036186 
1244	 0.121997622328267 
1245	 0.12263730810722 
1246	 0.122396194843399 
1247	 0.12176009048645 
1248	 0.121651025147524 
1249	 0.121962715192084 
1250	 0.122198603816221 
1251	 0.122108137441241 
1252	 0.122288484839417 
1253	 0.1222247197699 
1254	 0.121324143569108 
1255	 0.121253124944163 
1256	 0.121417398543258 
1257	 0.121848846237546 
1258	 0.12181198236176 
1259	 0.121968102713277 
1260	 0.121974310371116 
1261	 0.121904313977161 
1262	 0.12169500718878 
1263	 0.121126830403509 
1264	 0.121067775054308 
1265	 0.121949288126136 
1266	 0.121925734851625 
1267	 0.12152471529437 
1268	 0.121404074142032 
1269	 0.120967781230137 
1270	 0.120292916281614 
1271	 0.120790879128665 
1272	 0.121963197858998 
1273	 0.121888728760598 
1274	 0.121218704083589 
1275	 0.121621860736853 
1276	 0.122030796299814 
1277	 0.121448026059108 
1278	 0.121257228527317 
1279	 0.120756136163242 
1280	 0.120251741686413 
1281	 0.120254847363587 
1282	 0.121556374482101 
1283	 0.121598066623992 
1284	 0.120722424122915 
1285	 0.120647574437546 
1286	 0.121103314209206 
1287	 0.120932075519382 
1288	 0.120453527227797 
1289	 0.120415460688173 
1290	 0.120116203135741 
1291	 0.119870035657138 
1292	 0.119943834679094 
1293	 0.120080588058495 
1294	 0.12046355592053 
1295	 0.120085478089599 
1296	 0.11979494771309 
1297	 0.120911185113639 
1298	 0.120778878354449 
1299	 0.11977087113673 
1300	 0.119607731206539 
1301	 0.119216307848472 
1302	 0.118695487086991 
1303	 0.117956848710823 
1304	 0.117998488099964 
1305	 0.118481097651187 
1306	 0.118436685371488 
1307	 0.119186938120662 
1308	 0.118943245214005 
1309	 0.117132120135117 
1310	 0.116484732290155 
1311	 0.116044904627709 
1312	 0.115747028543118 
1313	 0.116034916150288 
1314	 0.115551807951593 
1315	 0.11478808390961 
1316	 0.114340200060607 
1317	 0.113962156375531 
1318	 0.113617268715637 
1319	 0.112792273445564 
1320	 0.112691162924926 
1321	 0.112853506034706 
1322	 0.113853552613385 
1323	 0.113062197534822 
1324	 0.112169544294426 
1325	 0.113372409710719 
1326	 0.112701802329794 
1327	 0.110209349707412 
1328	 0.110455464942296 
1329	 0.110794050814456 
1330	 0.109102867141006 
1331	 0.10945257749027 
1332	 0.111787617881683 
1333	 0.111956742717285 
1334	 0.108287777422358 
1335	 0.107183846298443 
1336	 0.109325584747877 
1337	 0.110305978561911 
1338	 0.110737617052278 
1339	 0.11093113843369 
1340	 0.111148257358736 
1341	 0.111300477750683 
1342	 0.110651656708926 
1343	 0.109933482831684 
1344	 0.109901818237885 
1345	 0.111347388384554 
1346	 0.111776823192291 
1347	 0.112682232526887 
1348	 0.121878497274864 
1349	 0.126834012226805 
1350	 0.121419549188069 
1351	 0.116654558107869 
1352	 0.090042796275333 
1353	 0.082721164875668 
1354	 0.125094732197501 
1355	 0.203662481124403 
1356	 0.321829485573699 
1357	 0.255904084312469 
1358	-1.50431122527646E-02 
1359	-7.21924362063454E-02 
1360	 5.11808841663832E-02 
1361	 0.364037796176392 
1362	 2.22135283360862 
1363	-8.67673217951663 
1364	 2.37648010338756 
1365	 1.0437014944962 
1366	 0.564026597078879 
1367	 0.516480682839592 
1368	 0.251829837696221 
1369	-0.466337659023298 
1370	-0.669938871358631 
1371	-0.309827614372778 
1372	-0.303615230313151 
1373	-0.188862836922032 
1374	-8.11331245327656E-02 
1375	 2.90811035150517E-02 
1376	-2.51369102377751E-03 
1377	 0.680864366007254 
1378	 1.55628923582718 
1379	 8.17918421677756 
1380	-13.1259871534076 
1381	 3.38542492570965 
1382	-12.1020119341799 
1383	-0.268207958071616 
1384	-9.86001785465381E-03 
1385	 0.421422854565185 
1386	 0.439225830479501 
1387	 0.341519848268522 
1388	 0.434157831158643 
1389	 0.278542257177596 
1390	-0.252070870351718 
1391	-0.308272145361256 
1392	-0.312718531116925 
1393	-0.218394434829661 
1394	-0.231630694121459 
1395	-0.384194144083319 
1396	 3.73629244160888E-02 
1397	 0.647286792602903 
1398	 0.649219413136399 
1399	 0.623362553623084 
1400	 1.03391864000769 
1401	 1.07471133094019 
1402	 0.297139136091893 
1403	 0.305478905192101 
1404	 0.708107876019111 
1405	 0.637539180887335 
1406	 9.36312515570707E-02 
1407	 3.37481737010796E-03 
1408	-6.97594539760259E-02 
1409	-0.225766889346918 
1410	-0.115060090004554 
1411	 5.20532007652278E-02 
1412	 0.164453733788075 
1413	 0.287356009849578 
1414	 0.713092514372166 
1415	 0.615925710432781 
1416	 0.118962967925303 
1417	 0.171866394534743 
1418	 0.697746739074846 
1419	 0.66431494232945 
1420	 0.966816171485991 
1421	 0.97651739045327 
1422	 0.474314929571374 
1423	 0.305683789823604 
1424	 0.203442024438985 
1425	 0.198772388183944 
1426	 0.183241439504395 
1427	 0.128991407774523 
1428	 0.121000436544767 
1429	 0.129881623820583 
1430	 7.76960323569583E-02 
1431	 4.77386344590091E-02 
1432	 0.103644271109646 
1433	 9.92038618586459E-02 
1434	 1.26859399658838E-03 
1435	-7.16011760989677E-03 
1436	 0.02515331025329 
1437	 6.48968060901845E-02 
1438	 0.175883308241089 
1439	 0.180267093295013 
1440	 0.114283397592315 
1441	 8.36824133020903E-02 
1442	 2.89382416932965E-02 
1443	-1.09936252956374E-02 
1444	 1.33061272470427E-02 
1445	 3.81261503698299E-02 
1446	 4.05905639644339E-02 
1447	 5.07151304196081E-02 
1448	 4.10833891415061E-02 
1449	 2.63233082552913E-02 
1450	 4.09853689921843E-02 
1451	 0.055008397887276 
1452	 5.11225786609495E-02 
1453	 5.91036567741764E-02 
1454	 6.19690854251432E-02 
1455	 5.54630981226551E-02 
1456	 5.60491590414109E-02 
1457	 6.54264325951927E-02 
1458	 6.78276391846911E-02 
1459	 6.73464665602292E-02 
1460	 6.31656058987416E-02 
1461	 0.054855166445133 
1462	 5.55399727236519E-02 
1463	 5.64844964738057E-02 
1464	 5.60597183341043E-02 
1465	 6.37710641164035E-02 
1466	 6.51896130857723E-02 
1467	 5.69168799788097E-02 
1468	 0.055114128619891 
1469	 0.055838479340455 
1470	 5.98419747053324E-02 
1471	 6.69398400629286E-02 
1472	 7.24234883082961E-02 
1473	 0.081219786684524 
1474	 8.64070338398673E-02 
1475	 0.088568936468935 
1476	 8.87731097975479E-02 
1477	 9.08603621446107E-02 
1478	 8.94359365990665E-02 
1479	 8.31276258281002E-02 
1480	 7.78031760781036E-02 
1481	 7.06636506213262E-02 
1482	 6.89118781992273E-02 
1483	 6.77214940621004E-02 
1484	 6.74565001540397E-02 
1485	 7.31639868063211E-02 
1486	 7.26294892416944E-02 
1487	 6.83338639435974E-02 
1488	 0.067871200244816 
1489	 6.64155637725578E-02 
1490	 6.57537867720657E-02 
1491	 6.82835382463639E-02 
1492	 6.77867357065261E-02 
1493	 6.49881330363737E-02 
1494	 6.45268468458668E-02 
1495	 6.48704874675726E-02 
1496	 6.39588908281203E-02 
1497	 6.16827169618716E-02 
1498	 6.27089378502855E-02 
1499	 6.60937860975791E-02 
1500	 6.63865690093505E-02 
1501	 6.71236272715593E-02 
1502	 6.77672325292082E-02 
1503	 6.55670778279087E-02 
1504	 6.46905075563618E-02 
1505	 6.55156384938168E-02 
1506	 6.59503209062232E-02 
1507	 6.53059937887217E-02 
1508	 6.49943180213336E-02 
1509	 6.50928903573591E-02 
1510	 6.63346908129686E-02 
1511	 6.81706828927026E-02 
1512	 6.96908578295407E-02 
1513	 6.97354311565357E-02 
1514	 6.93530102099159E-02 
1515	 7.01063288510222E-02 
1516	 6.98312920357697E-02 
1517	 6.87078773876545E-02 
1518	 6.94070171704295E-02 
1519	 7.02750779606268E-02 
1520	 6.92763181780935E-02 
1521	 6.86945714706296E-02 
1522	 6.90471612820567E-02 
1523	 0.068643869086853 
1524	 0.069071516394986 
1525	 7.09109331693283E-02 
1526	 7.17582852662776E-02 
1527	 7.17724911154234E-02 
1528	 7.22851771430452E-02 
1529	 7.26856634162796E-02 
1530	 7.29642383747493E-02 
1531	 7.31104495561494E-02 
1532	 7.31572331628619E-02 
1533	 7.35161424228461E-02 
1534	 7.31883998155166E-02 
1535	 7.31229388150867E-02 
1536	 7.44233446048869E-02 
1537	 7.53826211863517E-02 
1538	 7.60123477852403E-02 
1539	 7.61109664384196E-02 
1540	 0.075257782280737 
1541	 7.56743528364154E-02 
1542	 7.68181031777252E-02 
1543	 7.70884479274137E-02 
1544	 7.73190876003882E-02 
1545	 7.73623610814736E-02 
1546	 7.69939785482063E-02 
1547	 7.68653135186484E-02 
1548	 7.66722309471441E-02 
1549	 7.59300649993311E-02 
1550	 7.56458564210127E-02 
1551	 7.68328444762291E-02 
1552	 7.81290898068075E-02 
1553	 7.81959910967561E-02 
1554	 7.81572126113764E-02 
1555	 7.83802932563174E-02 
1556	 7.78745150399814E-02 
1557	 7.75114131799096E-02 
1558	 7.81082732495183E-02 
1559	 7.85682342346263E-02 
1560	 7.88981892553738E-02 
1561	 7.93946378113503E-02 
1562	 7.94427677371079E-02 
1563	 7.99212629504168E-02 
1564	 8.02850605315047E-02 
1565	 7.98359734548268E-02 
1566	 8.06720380471106E-02 
1567	 0.081238443561173 
1568	 8.08349267112738E-02 
1569	 8.15980746096893E-02 
1570	 8.19749657722167E-02 
1571	 8.15429483668801E-02 
1572	 8.15601295988503E-02 
1573	 8.26679718823828E-02 
1574	 8.39462052200296E-02 
1575	 8.45228596685148E-02 
1576	 8.50904961658155E-02 
1577	 8.47670748083315E-02 
1578	 0.084186641285168 
1579	 8.46127741631059E-02 
1580	 8.52143023174884E-02 
1581	 8.55045634739536E-02 
1582	 0.084905280285513 
1583	 8.38994542855196E-02 
1584	 8.37205037000318E-02 
1585	 8.37401473606686E-02 
1586	 8.35588093897261E-02 
1587	 8.34360318318225E-02 
1588	 8.40072575161604E-02 
1589	 8.50551915003955E-02 
1590	 8.50629096604684E-02 
1591	 8.45862513702752E-02 
1592	 8.46707870298485E-02 
1593	 8.51120554683977E-02 
1594	 8.53511212814213E-02 
1595	 8.55997456034195E-02 
1596	 8.64124545306093E-02 
1597	 0.086659409502306 
1598	 8.70668082692244E-02 
1599	 8.88675189719388E-02 
1600	 8.94564270813032E-02 
1601	 8.77394141025548E-02 
1602	 8.68279061248375E-02 
1603	 8.70219884525534E-02 
1604	 0.086346299783489 
1605	 8.65026682743674E-02 
1606	 8.72432633479934E-02 
1607	 0.086996192011245 
1608	 8.73035178016276E-02 
1609	 8.79814170895468E-02 
1610	 8.76472332027807E-02 
1611	 8.78407974164214E-02 
1612	 8.87818290703406E-02 
1613	 8.86896500468266E-02 
1614	 0.08853552028314 
1615	 8.85245546289692E-02 
1616	 8.81754364626766E-02 
1617	 8.81903710823453E-02 
1618	 8.86330617043761E-02 
1619	 8.92401783733929E-02 
1620	 8.89237010560693E-02 
1621	 0.087560765300274 
1622	 8.76491866193203E-02 
1623	 8.84934067273627E-02 
1624	 8.78137034387581E-02 
1625	 8.78024984833825E-02 
1626	 8.88037791338392E-02 
1627	 8.93781283107894E-02 
1628	 8.94695665206782E-02 
1629	 8.91915008823666E-02 
1630	 8.94651394882678E-02 
1631	 0.089043860126951 
1632	 0.088529808085822 
1633	 8.98545382368252E-02 
1634	 9.00321786740055E-02 
1635	 8.91874669677664E-02 
1636	 8.99767511150015E-02 
1637	 9.08663548128776E-02 
1638	 9.10372893036399E-02 
1639	 0.091216772157407 
1640	 9.06147626436853E-02 
1641	 8.87297850777912E-02 
1642	 8.82026685820522E-02 
1643	 0.089157138448418 
1644	 8.92602558259579E-02 
1645	 8.99282073194499E-02 
1646	 9.04814097183399E-02 
1647	 8.96778234299372E-02 
1648	 8.99995895388152E-02 
1649	 9.08398982432283E-02 
1650	 9.08035371931164E-02 
1651	 9.08954015632463E-02 
1652	 9.09416764658561E-02 
1653	 9.14740728609733E-02 
1654	 9.14197281003312E-02 
1655	 0.090705640983253 
1656	 9.03942840523144E-02 
1657	 8.96756048953743E-02 
1658	 9.00264936985343E-02 
1659	 9.17706087322304E-02 
1660	 0.091950740263176 
1661	 9.17390844434323E-02 
1662	 9.16290288851453E-02 
1663	 9.07143673527293E-02 
1664	 9.02265341794007E-02 
1665	 0.089892964172491 
1666	 8.96304062631611E-02 
1667	 8.92027424338193E-02 
1668	 8.97332924739474E-02 
1669	 9.08380181260789E-02 
1670	 9.16731578761676E-02 
1671	 9.16425952789842E-02 
1672	 9.18400961067938E-02 
1673	 9.15277857021337E-02 
1674	 9.10361654305555E-02 
1675	 9.06731174758807E-02 
1676	 0.090202559546238 
1677	 9.05789670259152E-02 
1678	 0.090628056310929 
1679	 9.03576466437418E-02 
1680	 9.04569526579765E-02 
1681	 9.03068447078448E-02 
1682	 9.09360676179559E-02 
1683	 9.16674773137098E-02 
1684	 9.09011673846002E-02 
1685	 0.09032934192691 
1686	 9.06289438363803E-02 
1687	 9.02842227119309E-02 
1688	 9.10186672459046E-02 
1689	 9.19923755549399E-02 
1690	 9.00118931175745E-02 
1691	 0.089097815416909 
1692	 9.02642862770645E-02 
1693	 9.00687997678692E-02 
1694	 9.01921743021353E-02 
1695	 9.05596392880072E-02 
1696	 0.089520289383024 
1697	 8.94327033766472E-02 
1698	 9.04331403936766E-02 
1699	 9.00678242967177E-02 
1700	 8.99023316194715E-02 
1701	 9.04212533674294E-02 
1702	 9.06386185740957E-02 
1703	 9.15934270279919E-02 
1704	 9.19419505583878E-02 
1705	 9.05088405123774E-02 
1706	 8.97582399455108E-02 
1707	 8.99000426676995E-02 
1708	 8.95008026766918E-02 
1709	 9.00800750704193E-02 
1710	 0.090797314786448 
1711	 9.10007076802211E-02 
1712	 9.10944367679899E-02 
1713	 9.00267826110288E-02 
1714	 0.08992227866071 
1715	 9.00729573728253E-02 
1716	 9.08326825731523E-02 
1717	 9.06057936390283E-02 
1718	 8.78209346227385E-02 
1719	 8.68589757309561E-02 
1720	 8.89144950054815E-02 
1721	 9.05337879622679E-02 
1722	 0.090571347770861 
1723	 9.07478384994311E-02 
1724	 8.96441497556526E-02 
1725	 8.76359907111711E-02 
1726	 8.97029158854284E-02 
1727	 9.07726144712764E-02 
1728	 8.79700538987369E-02 
1729	 8.68997130928735E-02 
1730	 0.086747952698537 
1731	 8.65967382611572E-02 
1732	 8.73470724800327E-02 
1733	 8.74991751254043E-02 
1734	 8.68859097061765E-02 
1735	 8.65259772498101E-02 
1736	 8.70634152683027E-02 
1737	 8.71848230790754E-02 
1738	 8.50329916733445E-02 
1739	 8.37775873855589E-02 
1740	 8.42938819309551E-02 
1741	 8.53569409585739E-02 
1742	 8.65088861735634E-02 
1743	 8.54239983881996E-02 
1744	 8.50801257836193E-02 
1745	 8.58739351991019E-02 
1746	 8.77641603589997E-02 
1747	 8.84379949748101E-02 
1748	 8.71282346757237E-02 
1749	 8.67377222675743E-02 
1750	 8.68425052654642E-02 
1751	 8.65781286311438E-02 
1752	 8.60638645141366E-02 
1753	 8.64366182135188E-02 
1754	 8.75878129492358E-02 
1755	 8.71621304317008E-02 
1756	 8.63797822154799E-02 
1757	 8.61944179203121E-02 
1758	 8.45081784936387E-02 
1759	 8.39285228502507E-02 
1760	 8.64997419369413E-02 
1761	 8.73530415171832E-02 
1762	 8.54135135994074E-02 
1763	 8.27869226909616E-02 
1764	 8.07942922889527E-02 
1765	 8.05531510237263E-02 
1766	 8.13820583657644E-02 
1767	 8.41913385678539E-02 
1768	 8.55089333065359E-02 
1769	 0.080581397282729 
1770	 7.88217890810959E-02 
1771	 8.31370216930201E-02 
1772	 8.05481364824176E-02 
1773	 7.63787838439939E-02 
1774	 7.86865219722406E-02 
1775	 0.07823579551483 
1776	 0.078181438625527 
1777	 8.59794522273442E-02 
1778	 8.65514016929429E-02 
1779	 7.69314369676847E-02 
1780	 7.54391573967511E-02 
1781	 7.61930293297951E-02 
1782	 7.63497505145586E-02 
1783	 8.02351337460078E-02 
1784	 8.28499216615809E-02 
1785	 8.81373608405095E-02 
1786	 8.59002972565612E-02 
1787	 7.86070308776844E-02 
1788	 7.63140998812052E-02 
1789	 6.70219986077902E-02 
1790	 0.073251842705828 
1791	 6.97946795798419E-02 
1792	 6.91260910434219E-02 
1793	 8.29790026198513E-02 
1794	 8.15571581878508E-02 
1795	 0.108225027345291 
1796	 0.115443697524922 
1797	 6.97923435103883E-02 
1798	 5.71897589704297E-02 
1799	 1.34952533229155E-02 
1800	 1.95354295220902E-02 
1801	 2.78599653819931E-02 
1802	 7.91308937481896E-02 
1803	 0.108374031130361 
1804	 0.128652709551334 
1805	 0.142393131964117 
1806	 3.46664384414065E-02 
1807	-4.37410678923107E-02 
1808	 1.83557727791488E-02 
1809	-7.74431188574726E-02 
1810	-0.293899025295512 
1811	-0.299602546241475 
1812	-0.210854468386365 
1813	-0.650164487617425 
1814	-0.135385210630725 
1815	-0.181978489431681 
1816	 0.225344351422814 
1817	-2.64760723365518E-02 
1818	 0.039840650994266 
1819	 0.548320558448699 
1820	 0.20120104123846 
1821	-3.58197802954807 
1822	-0.619699519717701 
1823	 10.3723315775194 
1824	-38.506742002746 
1825	-0.815474741509267 
1826	-0.362348016710628 
1827	 0.79213246105495 
1828	 1.12742442735635 
1829	 0.160998977546209 
1830	-0.319634579106991 
1831	 9.93596884012205E-02 
1832	 7.68251690415463E-02 
1833	 0.065953442215516 
1834	 5.70221484462054E-02 
1835	-0.99356820003297 
1836	-1.32035188655847 
1837	 0.899826070112657 
1838	 1.07626864605362 
1839	 2.67900037141632 
1840	 1.97136248231002 
1841	 2.13336505671213 
1842	 0.290490228651078 
1843	-1.93656224328941 
1844	-1.79087491569949 
1845	-1.60479252438002 
1846	-1.01167156106842 
1847	-0.949920968251016 
1848	-0.818451456496605 
1849	-9.60399824336016E-02 
1850	-0.599060138067854 
1851	-2.63810193204554 
1852	 3.49389393772309 
1853	 2.48273839238752 
1854	 4.27925568425074 
1855	-11.9781642402965 
1856	-2.72736766596447 
1857	-0.771095767795106 
1858	-0.569535042096758 
1859	-0.338189932964001 
1860	-4.61082938119615E-02 
1861	-0.518382817773694 
1862	-0.686610396375817 
1863	 2.44409123232306 
1864	 1.18825386745225 
1865	 4.59251842773553 
1866	-1.57693008931368 
1867	-1.2933068637528 
1868	-1.35160675892559 
1869	-1.19359005083099 
1870	-0.889548651448827 
1871	-0.25677267410434 
1872	 1.08007635009916E-02 
1873	-3.27582329934569E-02 
1874	-0.662466571109646 
1875	-0.070579736505083 
1876	 8.66945037157083E-02 
1877	-17.5259859224617 
1878	-11.4179284758662 
1879	 5.24708803928412 
1880	 4.26102785512137 
1881	 2.48849541742278 
1882	 482.202089824421 
1883	-3.76943441538844 
1884	-6.15362759281477 
1885	-0.472907761768467 
1886	-0.203625242957055 
1887	-1.20029579695982 
1888	-1.13949440474638 
1889	-0.870428634245933 
1890	-0.142909333307126 
1891	-6.97669363145985E-02 
1892	-0.096249813675029 
1893	-1.39260819832765 
1894	-0.263240099023154 
1895	 0.22102806835762 
1896	 0.24029206656223 
1897	 0.655572540928901 
1898	 1.05809372578315 
1899	 2.47493358053603 
1900	-14.7011245861502 
1901	 1.53451527087051 
1902	 1.61208360200583 
1903	 8.71458905486736 
1904	-0.598943894010492 
1905	-0.899098242634247 
1906	-0.499529002936932 
1907	-0.33968966419288 
1908	-0.702830919992964 
1909	-0.820472533000879 
1910	-0.602953988622446 
1911	-0.248671793584844 
1912	 0.146865740696265 
1913	 8.43128468407831E-02 
1914	-9.50345116906225E-02 
1915	 0.347018162817437 
1916	-0.283073790523318 
1917	-0.419873136821255 
1918	 0.650009701904301 
1919	 1.6361833654437 
1920	-238.435685871814 
1921	 1.96136475258299 
1922	-1.04235280114176 
1923	-1.37210425911238 
1924	-7.81889361822894 
1925	 2.24073407898143 
1926	 1.99522021673874 
1927	 9.02975023557818 
1928	 13.0017345075242 
1929	 38.969158151851 
1930	-5.6924020341143 
1931	-3.13410301034496 
1932	-2.74106877815922 
1933	-4.29767532983169 
1934	 75.7391958606826 
1935	 1.39931217318772 
1936	 1.15714010777742 
1937	 2.11652870210608 
1938	 2.15045491604686 
1939	 4.54123225672953 
1940	-4.88910492768492 
1941	-3.89104898586732 
1942	 25.7209176496901 
1943	 2.49761698365254 
1944	 0.649329212274189 
1945	 0.185866210341859 
1946	 0.55470443929898 
1947	 0.727678078854919 
1948	 0.736165646064642 
1949	 0.615826462931531 
1950	 0.534606732596309 
1951	 0.479937200277513 
1952	 0.369804775273869 
1953	 0.154021719716998 
1954	 0.182337473290352 
1955	 0.285107575355035 
1956	 0.301383504895616 
1957	 0.449731216740897 
1958	 0.51242778184615 
1959	 0.335499727720245 
1960	 0.187276442589134 
1961	 8.97525636660432E-02 
1962	 2.98737119474323E-02 
1963	 8.34620912813661E-03 
1964	 5.66292220752561E-03 
1965	 4.04596679610883E-02 
1966	 4.70540619517446E-02 
1967	 4.80121610321533E-02 
1968	 2.32464245172803E-02 
1969	 3.57081276297915E-02 
1970	 0.044578970524115 
1971	 4.64798548344452E-02 
1972	 7.21398807435703E-02 
1973	 7.06134727651493E-02 
1974	 5.44629377781769E-02 
1975	 5.23874042363937E-02 
1976	 4.28636945395101E-02 
1977	 0.034695857110651 
1978	 3.55971921634774E-02 
1979	 4.09509393901166E-02 
1980	 5.02220049272769E-02 
1981	 5.77307987326354E-02 
1982	 5.79583997599152E-02 
1983	 5.81506546948022E-02 
1984	 4.85169239736461E-02 
1985	 0.037765797150758 
1986	 4.14829158410081E-02 
1987	 5.37345085859474E-02 
1988	 6.57381953776909E-02 
1989	 6.49075613340796E-02 
1990	 5.99523999722796E-02 
1991	 5.71878273313615E-02 
1992	 5.34646606895913E-02 
1993	 5.89403065516962E-02 
1994	 6.14058168302051E-02 
1995	 0.073595699456423 
1996	 6.44635391701754E-02 
1997	 5.49507783727034E-02 
1998	 5.56081883061588E-02 
1999	 5.02059469694934E-02 
2000	 0.058886955347456 
2001	 6.52492326439982E-02 
2002	 0.052361237128394 
2003	 4.22996941952326E-02 
2004	 4.07444912227084E-02 
2005	 3.78982117101071E-02 
2006	 2.69407508021427E-02 
2007	 1.28859004141867E-02 
2008	 1.31300898248784E-02 
2009	 1.15255368056747E-02 
2010	 5.54043271438336E-03 
2011	 1.12366351921675E-02 
2012	 2.82622370749308E-02 
2013	 3.82841384136151E-02 
2014	 4.31659479647195E-02 
2015	 4.36899554353078E-02 
2016	 4.74034575796452E-02 
2017	 3.96094073794367E-02 
2018	 3.87911814128826E-02 
2019	 4.90606976785259E-02 
2020	 4.84312541877116E-02 
2021	 5.02779053716972E-02 
2022	 4.65434612329621E-02 
2023	 4.00687302434118E-02 
2024	 4.01238030525856E-02 
2025	 4.31438425586191E-02 
2026	 4.53479623152719E-02 
2027	 4.90789145943911E-02 
2028	 5.32632509390977E-02 
2029	 5.71555743096325E-02 
2030	 5.77384584244216E-02 
2031	 5.90926983061632E-02 
2032	 5.95124601509159E-02 
2033	 5.89117844016341E-02 
2034	 5.93340392958848E-02 
2035	 5.46384317240304E-02 
2036	 0.051801236117108 
2037	 0.051407207089976 
2038	 4.77043337068916E-02 
2039	 4.43648746900221E-02 
2040	 4.17061540660239E-02 
2041	 4.02459342813429E-02 
2042	 3.67879027974923E-02 
2043	 3.60711862936211E-02 
2044	 3.96732638108811E-02 
2045	 4.07564977879599E-02 
2046	 3.90197416557295E-02 
2047	 3.94839020578236E-02 
2048	 3.78760856447331E-02 
2049	 4.02669446107531E-02 
2050	 4.68315309326234E-02 
2051	 5.17475788745149E-02 
2052	 5.54098410204629E-02 
2053	 5.17363992256279E-02 
2054	 4.86908038364852E-02 
2055	 4.72040746642287E-02 
2056	 4.44382079160973E-02 
2057	 4.29426380466794E-02 
2058	 4.34845793640147E-02 
2059	 4.42698958879026E-02 
2060	 4.31126280985401E-02 
2061	 4.35293229703567E-02 
2062	 4.14202110252475E-02 
2063	 3.57990959021582E-02 
2064	 2.84141618474985E-02 
2065	 2.67291273174124E-02 
2066	 2.86305805462912E-02 
2067	 3.46093511271506E-02 
2068	 4.56848603225289E-02 
2069	 4.95621795874431E-02 
2070	 4.83967053094899E-02 
2071	 5.05315387427432E-02 
2072	 4.85496955862675E-02 
2073	 4.73135802305044E-02 
2074	 4.84118832377407E-02 
2075	 4.87011515322749E-02 
2076	 4.54123143067576E-02 
2077	 4.52821094996782E-02 
2078	 0.048474330349254 
2079	 4.89921130460007E-02 
2080	 4.84723574455963E-02 
2081	 0.049499532176485 
2082	 4.79251081356497E-02 
2083	 4.95765093079339E-02 
2084	 5.28967152752783E-02 
2085	 5.18484934879641E-02 
2086	 5.38686995109413E-02 
2087	 5.50215441449541E-02 
2088	 5.34971834531682E-02 
2089	 5.13003804159517E-02 
2090	 4.81566770425299E-02 
2091	 4.46779609994382E-02 
2092	 4.53229079691292E-02 
2093	 5.04107983302559E-02 
2094	 5.24596188997865E-02 
2095	 5.74238643395127E-02 
2096	 5.88347639336853E-02 
2097	 0.056478686779639 
2098	 5.39797375839458E-02 
2099	 4.96295603927083E-02 
2100	 0.047373394141585 
2101	 4.73229155948104E-02 
2102	 4.64232542377237E-02 
2103	 4.90201103732487E-02 
2104	 4.97926097923026E-02 
2105	 4.61685920823839E-02 
2106	 4.64334976382324E-02 
2107	 4.89419262397536E-02 
2108	 5.04879025513177E-02 
2109	 5.24818121886653E-02 
2110	 5.06067585798998E-02 
2111	 4.91969626077906E-02 
2112	 5.09643559636831E-02 
2113	 5.04426460081365E-02 
2114	 4.89962814154745E-02 
2115	 5.07653142681393E-02 
2116	 5.21809864171514E-02 
2117	 5.33691114846014E-02 
2118	 5.92395429214893E-02 
2119	 0.060721510638728 
2120	 5.89294565870673E-02 
2121	 0.058211497254176 
2122	 5.68272387491822E-02 
2123	 5.37003504380646E-02 
2124	 5.30175636619392E-02 
2125	 5.24816522527315E-02 
2126	 5.48846016886552E-02 
2127	 5.66536694193398E-02 
2128	 5.61304233285613E-02 
2129	 5.84840599747697E-02 
2130	 5.88543898862066E-02 
2131	 5.90988561937062E-02 
2132	 6.37516548207426E-02 
2133	 6.75921342123356E-02 
2134	 6.81465617490942E-02 
2135	 6.83854891973731E-02 
2136	 0.06727989150452 
2137	 5.78494718687474E-02 
2138	 0.056725752608539 
2139	 6.19081338009122E-02 
2140	 6.22716423979326E-02 
2141	 0.065382567099442 
2142	 6.69527525245511E-02 
2143	 6.63962537529278E-02 
2144	 6.17173380773893E-02 
2145	 6.07392762939006E-02 
2146	 6.07407620109826E-02 
2147	 0.057491214238504 
2148	 5.40679456499564E-02 
2149	 5.32802705673057E-02 
2150	 5.01823453744106E-02 
2151	 5.02240482364291E-02 
2152	 5.42146790591677E-02 
2153	 5.60256116241363E-02 
2154	 6.03802470182422E-02 
2155	 6.62760805162591E-02 
2156	 6.85025463068827E-02 
2157	 6.80389733811918E-02 
2158	 6.42786676748704E-02 
2159	 6.21935811290788E-02 
2160	 5.67858180204371E-02 
2161	 5.48479079027841E-02 
2162	 5.58739881495701E-02 
2163	 5.37837216706224E-02 
2164	 4.90570458356044E-02 
2165	 4.87252259407978E-02 
2166	 4.99053044993154E-02 
2167	 0.051920474137491 
2168	 0.059316992317236 
2169	 6.32794264117634E-02 
2170	 6.63230618943506E-02 
2171	 6.57349764908955E-02 
2172	 6.54080405915516E-02 
2173	 6.46014349978782E-02 
2174	 6.17949626843999E-02 
2175	 5.93593389463911E-02 
2176	 0.058146152046684 
2177	 5.64250115420222E-02 
2178	 5.70722826146454E-02 
2179	 5.90731563746744E-02 
2180	 6.10989868171616E-02 
2181	 0.06075291735806 
2182	 5.72415149595262E-02 
2183	 5.26231313303589E-02 
2184	 4.72710086422376E-02 
2185	 4.67439731596614E-02 
2186	 4.73034194951642E-02 
2187	 5.09425899801669E-02 
2188	 5.39768279103711E-02 
2189	 5.79164508229774E-02 
2190	 6.15693305669991E-02 
2191	 6.85178611936427E-02 
2192	 7.11673946676602E-02 
2193	 7.11626751937885E-02 
2194	 7.19129951712071E-02 
2195	 6.81131002724567E-02 
2196	 6.58838209174928E-02 
2197	 6.93176158137332E-02 
2198	 6.90938878962659E-02 
2199	 0.064375308253744 
2200	 6.50958191933967E-02 
2201	 6.17066737220542E-02 
2202	 4.96496375038118E-02 
2203	 5.18776450905054E-02 
2204	 4.97936210304451E-02 
2205	 4.58191172418128E-02 
2206	 4.77799857630134E-02 
2207	 4.08186281472398E-02 
2208	 3.94052042556766E-02 
2209	 5.28790038357075E-02 
2210	 6.46783705124477E-02 
2211	 6.62524656992261E-02 
2212	 6.27702178618704E-02 
2213	 0.056002921337552 
2214	 4.67201426210952E-02 
2215	 4.67032925632257E-02 
2216	 5.05495770171912E-02 
2217	 4.75591003861496E-02 
2218	 3.69683448300597E-02 
2219	 3.64505460969097E-02 
2220	 3.78046117132526E-02 
2221	 3.73592577611549E-02 
2222	 4.30345275048882E-02 
2223	 4.34723670856783E-02 
2224	 3.68256058255312E-02 
2225	 3.86887575033875E-02 
2226	 4.73115304305392E-02 
2227	 4.83784794899966E-02 
2228	 4.74672033752895E-02 
2229	 4.77322747966492E-02 
2230	 4.37931547201015E-02 
2231	 4.26839576311515E-02 
2232	 4.55655001774618E-02 
2233	 4.65374260972492E-02 
2234	 0.045564960030384 
2235	 4.63440596067421E-02 
2236	 4.97744206750956E-02 
2237	 5.22919750228115E-02 
2238	 4.54578747051196E-02 
2239	 3.50393621602115E-02 
2240	 3.06486682648231E-02 
2241	 2.67043125274806E-02 
2242	 3.01783010154232E-02 
2243	 3.86540586151415E-02 
2244	 3.89099037975652E-02 
2245	 4.09115297895851E-02 
2246	 4.60063608258232E-02 
2247	 4.74947006095001E-02 
2248	 4.68224930777104E-02 
2249	 4.91591426724826E-02 
2250	 5.30764264771245E-02 
2251	 5.20694245262372E-02 
2252	 5.80301361862401E-02 
2253	 6.01254258112676E-02 
2254	 5.88754541203091E-02 
2255	 7.16430940371951E-02 
2256	 7.13468878436395E-02 
2257	 6.83057402223239E-02 
2258	 0.068148497513519 
2259	 5.58374070034952E-02 
2260	 5.23755860698412E-02 
2261	 5.61634742409062E-02 
2262	 5.64430579229116E-02 
2263	 5.66974098830249E-02 
2264	 5.54237142469804E-02 
2265	 5.32380669810966E-02 
2266	 0.053127416258571 
2267	 5.32700326125056E-02 
2268	 5.22360448210847E-02 
2269	 5.23099098250626E-02 
2270	 5.11810229390231E-02 
2271	 4.50239766205576E-02 
2272	 4.68703068827347E-02 
2273	 5.53370139784493E-02 
2274	 5.92405408649148E-02 
2275	 7.00725291856398E-02 
2276	 6.83265967172909E-02 
2277	 5.00015515817857E-02 
2278	 4.58454906423784E-02 
2279	 0.040308214022144 
2280	 3.96839313072886E-02 
2281	 4.88134753411835E-02 
2282	 6.38156535793693E-02 
2283	 7.07162611897651E-02 
2284	 7.32687527117327E-02 
2285	 7.37390575981966E-02 
2286	 6.74650099458846E-02 
2287	 6.41598367408397E-02 
2288	 5.22136472049439E-02 
2289	 4.54901572840109E-02 
2290	 5.42532503805939E-02 
2291	 4.58600689282218E-02 
2292	 4.40123489622004E-02 
2293	 4.22576594456248E-02 
2294	 0.028906210213075 
2295	 0.039735170816269 
2296	 5.00423413812575E-02 
2297	 5.97695375010076E-02 
2298	 7.46579903645236E-02 
2299	 0.064932192360601 
2300	 4.58706817093319E-02 
2301	 3.07956080405995E-02 
2302	 1.72586430854989E-02 
2303	 1.71933219154878E-02 
2304	 1.99622826931587E-02 
2305	 2.54949184174185E-02 
2306	 3.60470037531815E-02 
2307	 4.16755956403241E-02 
2308	 5.44051650523077E-02 
2309	 5.98714122621914E-02 
2310	 5.40714831956394E-02 
2311	 4.20475564582645E-02 
2312	 2.29099476797326E-02 
2313	 2.43275111168059E-02 
2314	 3.43022527335461E-02 
2315	 3.98408551748402E-02 
2316	 4.49308930553476E-02 
2317	 3.70639815298405E-02 
2318	 2.90875169726234E-02 
2319	 2.26172400083441E-02 
2320	 0.030685630583903 
2321	 5.97502317417886E-02 
2322	 7.86002582331961E-02 
2323	 0.093172635660936 
2324	 9.99474651552927E-02 
2325	 7.36444039200113E-02 
2326	 3.25201548491062E-02 
2327	 0.011166549376622 
2328	-1.33277029590304E-02 
2329	-1.42560671894103E-02 
2330	 0.020544419184825 
2331	 1.80570519719023E-02 
2332	 2.76946235411245E-02 
2333	 5.19466529440526E-02 
2334	 3.76603033930238E-02 
2335	 2.97732192014917E-02 
2336	 0.027499313139047 
2337	 1.97882025675529E-02 
2338	 2.69818175100959E-02 
2339	 5.10329928147597E-02 
2340	 6.83549081938382E-02 
2341	 6.09264346359221E-02 
2342	 2.94188253884301E-02 
2343	 1.19957896592834E-02 
2344	 2.23802505496477E-03 
2345	-2.50979533813084E-02 
2346	-3.63407607987822E-03 
2347	 2.53390938292158E-02 
2348	 3.30998367202085E-02 
2349	 4.92558205462577E-02 
2350	 1.77083442666584E-02 
2351	 0.013778173930349 
2352	 0.075343849682329 
2353	 9.46281956541262E-02 
2354	 0.121191909492574 
2355	 0.157948867326986 
2356	 0.147976033303642 
2357	 0.139573815869402 
2358	 0.165857384874206 
2359	 0.199724194085798 
2360	 0.188592252849327 
2361	 0.164747812527655 
2362	 0.143810739811204 
2363	 0.123319159612884 
2364	 0.163064767330214 
2365	 0.228588244642654 
2366	 0.217424525303726 
2367	 0.117579618883106 
2368	 4.78614624747794E-02 
2369	 5.18309364548312E-02 
2370	 0.13943759922962 
2371	 0.216795832230297 
2372	 0.208673745118429 
2373	 0.119188948655226 
2374	-0.058208140491705 
2375	-0.199904500807495 
2376	-0.264648219066677 
2377	-0.352563099506809 
2378	-0.318095402183269 
2379	-0.184714087588661 
2380	-9.53910051779918E-02 
2381	 5.97272443728529E-02 
2382	 0.189713717515802 
2383	 0.197471562646907 
2384	 0.190961332371691 
2385	 0.112811017541045 
2386	-0.219103119914629 
2387	-0.416141077276359 
2388	-0.248403923297861 
2389	-0.204808124729952 
2390	-4.67965907940693E-02 
2391	 5.15206715167823E-02 
2392	 0.135535538374555 
2393	 0.161350029437216 
2394	 7.25663660652232E-03 
2395	-0.099426938541337 
2396	-0.204070607520338 
2397	-0.329493616781835 
2398	-5.88061315000728E-02 
2399	 0.455630394119729 
2400	 1.66583018835007 
2401	 7.32872923485321 
2402	 9.16563666868535 
2403	 1.44213739998382 
2404	 0.246268513785912 
2405	 1.47431962242427E-02 
2406	-0.302033340904714 
2407	-0.490591690992043 
2408	-0.443357180757429 
2409	-0.520492331668381 
2410	-0.1944935510596 
2411	-0.112022481048837 
2412	-0.227827276506242 
2413	-0.364983501665246 
2414	-0.960329603223101 
2415	 1.02846400952597 
2416	 0.516264100375107 
2417	 0.690084709722648 
2418	 1.12091177601118 
2419	 1.73248407281424 
2420	 11.8272907089593 
2421	-0.872254494858915 
2422	-0.590782830604744 
2423	 4.77699911374248 
2424	 1.92741112480707 
2425	 1.51069674936274 
2426	 0.915537588073388 
2427	 0.669896235418562 
2428	 1.55915171343608 
2429	 5.19647119803439 
2430	-6.70235237846472 
2431	-0.934842007649781 
2432	-0.692345488801625 
2433	-0.574151930188573 
2434	-0.355463630586466 
2435	 0.104787480629225 
2436	 0.675052731137633 
2437	 1.11195622022631 
2438	 1.95581709213124 
2439	 1.23727440566952 
2440	 0.804143438636285 
2441	 0.627330060926375 
2442	 0.237881044616409 
2443	-0.516452336936614 
2444	-2.43232365074818 
2445	-1.51872048162023 
2446	-0.836994052251376 
2447	-4.90415121876789E-03 
2448	 0.493745261491407 
2449	-0.872375466222679 
2450	-0.168320713868407 
2451	 0.990958168018748 
2452	-3.47514089457439 
2453	-3.24162102276534 
2454	 5.48012800163209 
2455	 2.07258505083622 
2456	 1.35141908869328 
2457	 2.43333274961029 
2458	-1.92201031072958 
2459	-0.342219415809226 
2460	-0.735072010306499 
2461	 47.1796630523849 
2462	 0.388539541849475 
2463	-0.258697487504171 
2464	 1.14587517979109E-02 
2465	-0.268336523091939 
2466	-0.131350644439487 
2467	-0.514854588793448 
2468	 8.30328673621908 
2469	 0.856829125388039 
2470	 0.753008110535146 
2471	 0.173768005759803 
2472	-1.13070005015381 
2473	-1.83686955564752 
2474	-1.41062990768888 
2475	-0.217098876438534 
2476	 1.35396969092349 
2477	 4.2258738717653 
2478	 19.7832370280102 
2479	 64.6888665544692 
2480	-477.786061177004 
2481	 7.47951679722859 
2482	 4.73313348123297 
2483	 3.36511182520573 
2484	 1.63262690340113 
2485	 1.02772475507198 
2486	 2.36435972083263 
2487	 18.6004613658419 
2488	-17.9305176510671 
2489	-12.2661997862166 
2490	 1.29393762308818 
2491	 0.476291924566969 
2492	 0.351442963836583 
2493	 0.836752021810212 
2494	 0.639792129718521 
2495	 0.714816267046111 
2496	 0.411309220115887 
2497	 2.77073490856251E-02 
2498	 0.277451405187984 
2499	 0.690199748345741 
2500	-5.33199477189474 
