Wavelength	rt0728west00007.asd
350	 7.31869960156092E-02 
351	 7.27511955089633E-02 
352	 0.072854629531737 
353	 7.29411746709374E-02 
354	 7.27756995834761E-02 
355	 0.073312405005416 
356	 7.33838422364604E-02 
357	 7.34128426745942E-02 
358	 7.39408823395536E-02 
359	 7.37296338745599E-02 
360	 0.074044371954822 
361	 7.46233262589592E-02 
362	 7.43073797978085E-02 
363	 7.45452820205419E-02 
364	 7.48048821695405E-02 
365	 7.46901252519506E-02 
366	 7.43501121252216E-02 
367	 7.47754794692934E-02 
368	 7.52139031668874E-02 
369	 7.49747981626528E-02 
370	 7.53413774990943E-02 
371	 7.56563348233916E-02 
372	 7.59429463480508E-02 
373	 7.65023217671779E-02 
374	 7.63300265361923E-02 
375	 7.62617417943537E-02 
376	 7.66533334468735E-02 
377	 7.69447959250814E-02 
378	 7.73825868491079E-02 
379	 7.77535049573285E-02 
380	 7.78741359081891E-02 
381	 7.79775989621942E-02 
382	 0.077719233245414 
383	 7.78714486116274E-02 
384	 7.92640242541832E-02 
385	 7.93692661178485E-02 
386	 7.93456871599587E-02 
387	 7.97740587737743E-02 
388	 8.02318971505969E-02 
389	 8.05491206952987E-02 
390	 8.05653284583219E-02 
391	 8.03905499679669E-02 
392	 0.080672524820923 
393	 8.13127016601997E-02 
394	 8.18718545649146E-02 
395	 8.19463402227039E-02 
396	 8.19398939106836E-02 
397	 8.20026189224839E-02 
398	 8.22195292802639E-02 
399	 8.26207532286239E-02 
400	 8.30617426028179E-02 
401	 8.32744597256458E-02 
402	 8.32362978287132E-02 
403	 8.34669432943247E-02 
404	 8.36556600163104E-02 
405	 8.39188104870956E-02 
406	 8.44126443518553E-02 
407	 8.46138064628798E-02 
408	 8.48474045850664E-02 
409	 8.51457213200958E-02 
410	 8.52318114290145E-02 
411	 8.57189293162628E-02 
412	 0.086213579141725 
413	 8.63941058334756E-02 
414	 8.65314549582077E-02 
415	 8.66518942350044E-02 
416	 8.69797306667815E-02 
417	 8.76632380827135E-02 
418	 8.79928156768569E-02 
419	 8.82512986236195E-02 
420	 8.85374447480223E-02 
421	 8.86846136383029E-02 
422	 8.90888929457565E-02 
423	 8.96328176274846E-02 
424	 0.090142096248923 
425	 9.06120561310086E-02 
426	 0.091088578725194 
427	 9.15251264030048E-02 
428	 9.18924128966395E-02 
429	 9.26472250829422E-02 
430	 0.09320524598655 
431	 9.34732914401364E-02 
432	 9.40341233261141E-02 
433	 9.46457639491131E-02 
434	 9.51844406426626E-02 
435	 9.56251471522056E-02 
436	 9.61640255934421E-02 
437	 9.66582243248722E-02 
438	 9.70776205716581E-02 
439	 9.74851696256099E-02 
440	 9.81614749225526E-02 
441	 9.89079232617646E-02 
442	 9.95219996807129E-02 
443	 9.98742127027211E-02 
444	 0.10028150899433 
445	 0.100789722556845 
446	 0.10133735731814 
447	 0.1018046243313 
448	 0.102194823167235 
449	 0.102553508492496 
450	 0.10295731722313 
451	 0.103478136625745 
452	 0.103884010372659 
453	 0.104118385628486 
454	 0.104567380245834 
455	 0.105018680478542 
456	 0.105337427532047 
457	 0.105492942985578 
458	 0.105851336665855 
459	 0.10620415629737 
460	 0.106519974885242 
461	 0.106957766841835 
462	 0.107201371854269 
463	 0.107417579180005 
464	 0.107770149096721 
465	 0.108144485981612 
466	 0.108498257493953 
467	 0.108825675520509 
468	 0.109148524066341 
469	 0.109490048855691 
470	 0.109835063075986 
471	 0.110169865096225 
472	 0.110487364779662 
473	 0.110829584069387 
474	 0.111163826646999 
475	 0.111483958360837 
476	 0.111954852604158 
477	 0.11238859141906 
478	 0.11271627076887 
479	 0.112981904022654 
480	 0.113446339313236 
481	 0.11383001524536 
482	 0.114053863724206 
483	 0.114601488462095 
484	 0.115060428340475 
485	 0.11556093845656 
486	 0.116295183914633 
487	 0.116699085004843 
488	 0.117041463680186 
489	 0.117520611411568 
490	 0.118200677836292 
491	 0.118726972570855 
492	 0.119189070597782 
493	 0.119720675018972 
494	 0.120319593537156 
495	 0.12100289440648 
496	 0.121706740003812 
497	 0.122337353563755 
498	 0.122913790926092 
499	 0.123550222575031 
500	 0.124283490750811 
501	 0.125017878795124 
502	 0.125766279696281 
503	 0.126466255309874 
504	 0.127102410876662 
505	 0.12791083116409 
506	 0.12870305017115 
507	 0.129396041816104 
508	 0.130005093261036 
509	 0.130525466753871 
510	 0.131172969879397 
511	 0.132015681212227 
512	 0.13272082273035 
513	 0.13343334422682 
514	 0.134211302671316 
515	 0.135056465740771 
516	 0.135838908470126 
517	 0.136633537199186 
518	 0.137502017344797 
519	 0.138465535988877 
520	 0.139480031717403 
521	 0.140338580072119 
522	 0.140990146944244 
523	 0.142000124458127 
524	 0.143007994997466 
525	 0.143958912636077 
526	 0.145005889820176 
527	 0.145945405630659 
528	 0.146782943731502 
529	 0.147604971792057 
530	 0.148607503559554 
531	 0.149557352230086 
532	 0.150468838780937 
533	 0.151437365194172 
534	 0.152471339408055 
535	 0.153477777679087 
536	 0.154457379818341 
537	 0.155514022349606 
538	 0.156616640121073 
539	 0.157704180217686 
540	 0.158751413455615 
541	 0.159900152512697 
542	 0.16090384300828 
543	 0.161839438757169 
544	 0.162958724997485 
545	 0.164018501916958 
546	 0.164968933941412 
547	 0.165865709887266 
548	 0.166923203384478 
549	 0.167959935422368 
550	 0.168943604433592 
551	 0.16990466867002 
552	 0.170909048187037 
553	 0.171852744405862 
554	 0.172792849890157 
555	 0.173964170967078 
556	 0.175056287195032 
557	 0.176010892419048 
558	 0.176877064318552 
559	 0.177870609507331 
560	 0.178802279397913 
561	 0.179672142881058 
562	 0.180588424867493 
563	 0.181394143738806 
564	 0.182185134887187 
565	 0.1830294149622 
566	 0.183888729809424 
567	 0.18466783939244 
568	 0.185375530450826 
569	 0.18605874789944 
570	 0.186732118209629 
571	 0.187279034131041 
572	 0.187732406311939 
573	 0.188281160699278 
574	 0.188676820356077 
575	 0.189102408943948 
576	 0.189653989781121 
577	 0.189831480483148 
578	 0.190007089469337 
579	 0.190265095018253 
580	 0.190499081738284 
581	 0.190636445672024 
582	 0.19068392783255 
583	 0.190704373154374 
584	 0.190840176151807 
585	 0.191017260610281 
586	 0.19125347173997 
587	 0.191560368932894 
588	 0.191757233859594 
589	 0.191649241901656 
590	 0.191285894467864 
591	 0.190947150207357 
592	 0.190533389493056 
593	 0.190003915051592 
594	 0.18935392063539 
595	 0.188648484461057 
596	 0.187725130531229 
597	 0.186535303305282 
598	 0.18516147982755 
599	 0.184100596662792 
600	 0.183167683211722 
601	 0.182283985036533 
602	 0.181695627491799 
603	 0.18141251627039 
604	 0.181266021036132 
605	 0.181082282819649 
606	 0.181000785171578 
607	 0.181019515453862 
608	 0.181087692898137 
609	 0.18111269313057 
610	 0.181114296512038 
611	 0.181165648547396 
612	 0.181287024274037 
613	 0.181306546298991 
614	 0.181359648109483 
615	 0.181367247458894 
616	 0.18119281789714 
617	 0.181322480166042 
618	 0.1813762357224 
619	 0.181254206333025 
620	 0.181467439618037 
621	 0.181547240400912 
622	 0.181446898608715 
623	 0.181340138465156 
624	 0.181751856927181 
625	 0.182036962801752 
626	 0.182059733906372 
627	 0.182202538240487 
628	 0.182215256875883 
629	 0.182021083937063 
630	 0.181737567913999 
631	 0.181926907821143 
632	 0.181889202565201 
633	 0.181638966826298 
634	 0.181544487625253 
635	 0.181831230102704 
636	 0.181780322327699 
637	 0.181335684716878 
638	 0.181503730896133 
639	 0.181465665900207 
640	 0.181242790912866 
641	 0.18107389712771 
642	 0.181020318812211 
643	 0.181050424541479 
644	 0.181167862582448 
645	 0.18139877527853 
646	 0.18161723103263 
647	 0.181578830139356 
648	 0.181178683341087 
649	 0.180603482867062 
650	 0.180255776748932 
651	 0.17995568448756 
652	 0.179365605169578 
653	 0.178702381737191 
654	 0.178091565057136 
655	 0.177417135353289 
656	 0.176344137799778 
657	 0.175215033821047 
658	 0.174365525401017 
659	 0.173844664833029 
660	 0.172992492294401 
661	 0.172360869129788 
662	 0.171941220933403 
663	 0.171417889376244 
664	 0.171075323824011 
665	 0.170682040215151 
666	 0.170178895730085 
667	 0.169934975812537 
668	 0.16973132967434 
669	 0.169561158824043 
670	 0.169458191852096 
671	 0.169302705770583 
672	 0.169266626299486 
673	 0.169393113970569 
674	 0.169581300189545 
675	 0.169531779272429 
676	 0.169559828358042 
677	 0.169875136457898 
678	 0.170119711081919 
679	 0.170383618100825 
680	 0.170667092481642 
681	 0.170957869847486 
682	 0.171388078199476 
683	 0.171819475513919 
684	 0.172290869393671 
685	 0.17318175603748 
686	 0.174090562331342 
687	 0.174588842673134 
688	 0.174572896911894 
689	 0.174810586785568 
690	 0.175058528875879 
691	 0.175326506375261 
692	 0.175703920026399 
693	 0.175474457072362 
694	 0.174757607723287 
695	 0.173905587726626 
696	 0.173163395208988 
697	 0.172682398602176 
698	 0.172282780253458 
699	 0.1717006726061 
700	 0.1707432241119 
701	 0.169499661236605 
702	 0.168173219602128 
703	 0.166930444636642 
704	 0.165551221363549 
705	 0.164129025782114 
706	 0.162713269006725 
707	 0.161013898326811 
708	 0.159107986469726 
709	 0.157058616903335 
710	 0.154948155341222 
711	 0.152905711615415 
712	 0.150599128550618 
713	 0.148177692634867 
714	 0.146272108768222 
715	 0.144926785124619 
716	 0.143602299226884 
717	 0.141650264863021 
718	 0.138781743019086 
719	 0.134827989103298 
720	 0.131324868696217 
721	 0.128720988049411 
722	 0.126827664577313 
723	 0.124384728269437 
724	 0.121320423278692 
725	 0.118523014803474 
726	 0.11560528524034 
727	 0.112331601741997 
728	 0.108724807443425 
729	 0.105444339868856 
730	 0.101808578777494 
731	 9.80310535260169E-02 
732	 9.44887445864616E-02 
733	 9.19902665669448E-02 
734	 0.090169492655376 
735	 8.86486336328478E-02 
736	 8.69966136868633E-02 
737	 8.57782439868307E-02 
738	 0.084865369136683 
739	 8.40840300568954E-02 
740	 8.35639956545843E-02 
741	 0.083132196899639 
742	 8.28431408900751E-02 
743	 8.28052265456946E-02 
744	 8.26091723333948E-02 
745	 8.24882395100725E-02 
746	 0.082478052316728 
747	 8.22639758095244E-02 
748	 8.23763871790349E-02 
749	 8.24075221787318E-02 
750	 8.20579880731399E-02 
751	 0.082199060750581 
752	 8.21996941498832E-02 
753	 8.21547341111693E-02 
754	 8.24512459808344E-02 
755	 0.082332740534363 
756	 0.082264579329286 
757	 8.25104175169034E-02 
758	 8.30085056329816E-02 
759	 8.38712128880079E-02 
760	 8.49682581948596E-02 
761	 8.53279268223773E-02 
762	 0.085156683847753 
763	 8.47112718435043E-02 
764	 8.42261396343689E-02 
765	 8.38211876251876E-02 
766	 8.34769491917208E-02 
767	 8.34152516020814E-02 
768	 8.35842743874543E-02 
769	 8.36864875927823E-02 
770	 8.36940720262035E-02 
771	 8.38885454027372E-02 
772	 8.43536414408666E-02 
773	 8.44528223738295E-02 
774	 8.47256984370969E-02 
775	 8.50438318895577E-02 
776	 8.51417356763924E-02 
777	 8.57994350746521E-02 
778	 0.086200921437519 
779	 8.63150591241651E-02 
780	 8.69604818312479E-02 
781	 8.73974854948587E-02 
782	 8.77215850274719E-02 
783	 8.81418896800723E-02 
784	 8.87872477823239E-02 
785	 8.94005109956995E-02 
786	 9.00434830930117E-02 
787	 9.08510743334934E-02 
788	 9.17168675520353E-02 
789	 9.22293760757463E-02 
790	 9.25481342568228E-02 
791	 9.32266967019783E-02 
792	 9.34772668617195E-02 
793	 9.38628160757881E-02 
794	 9.46757550837554E-02 
795	 9.54645989074604E-02 
796	 0.096101972458904 
797	 9.65605795863988E-02 
798	 9.69630242278245E-02 
799	 9.76595159740632E-02 
800	 9.81338675254564E-02 
801	 9.83811940352332E-02 
802	 9.86932077966922E-02 
803	 9.89636410698322E-02 
804	 9.91823867469754E-02 
805	 9.93028360842349E-02 
806	 0.099247799609375 
807	 9.94600466788985E-02 
808	 9.96755069135244E-02 
809	 9.96726158218221E-02 
810	 9.97439422338405E-02 
811	 9.99530222416623E-02 
812	 0.100158630163194 
813	 0.100144627628207 
814	 0.100173750261948 
815	 9.96870630502864E-02 
816	 9.87536967886717E-02 
817	 9.79136932075355E-02 
818	 0.096385439687929 
819	 9.53472612464867E-02 
820	 9.48030746666934E-02 
821	 9.33350344324281E-02 
822	 9.17772969361591E-02 
823	 9.00545380835083E-02 
824	 8.80556347147041E-02 
825	 8.57425214409536E-02 
826	 8.37811060545827E-02 
827	 8.19208186741846E-02 
828	 7.98035191320813E-02 
829	 7.79026959450872E-02 
830	 7.59991240350941E-02 
831	 7.42456421710316E-02 
832	 7.30708087789185E-02 
833	 7.20752755317252E-02 
834	 0.070948663975498 
835	 6.98852777476382E-02 
836	 6.96652923540819E-02 
837	 6.90237389430776E-02 
838	 6.83941383583491E-02 
839	 6.81930459690652E-02 
840	 6.78512024432142E-02 
841	 6.75867451398552E-02 
842	 6.72637455056832E-02 
843	 0.066744752494181 
844	 6.63810636289984E-02 
845	 0.06641731153169 
846	 6.64357431471571E-02 
847	 6.57431648230457E-02 
848	 6.54617347293501E-02 
849	 6.51081197786796E-02 
850	 6.46464013179519E-02 
851	 6.47720850199185E-02 
852	 0.064436731516174 
853	 6.42147948935701E-02 
854	 6.43752446459617E-02 
855	 6.38232884394667E-02 
856	 6.34435898559657E-02 
857	 6.33691337646593E-02 
858	 0.06341845365979 
859	 6.31104758806998E-02 
860	 6.29140399694152E-02 
861	 6.27812313898062E-02 
862	 6.24839909270783E-02 
863	 6.25164117458424E-02 
864	 6.21941225152467E-02 
865	 0.061607205417632 
866	 6.15557406740702E-02 
867	 6.17212721679962E-02 
868	 6.16593370239317E-02 
869	 6.12746504329463E-02 
870	 6.09373285084844E-02 
871	 6.07640184359548E-02 
872	 6.05294097064644E-02 
873	 6.01444677843289E-02 
874	 5.99912819520621E-02 
875	 6.01339983833621E-02 
876	 6.03066733498254E-02 
877	 6.01043811365927E-02 
878	 5.89562477259376E-02 
879	 5.88524753405926E-02 
880	 5.90896737196138E-02 
881	 5.82088311623597E-02 
882	 5.86646085523866E-02 
883	 5.87122310253364E-02 
884	 5.81368037081556E-02 
885	 5.79626104114801E-02 
886	 5.77091431914582E-02 
887	 0.057811312853644 
888	 5.81153606604997E-02 
889	 5.77841309228968E-02 
890	 5.75561077132068E-02 
891	 0.057476098473784 
892	 5.74074319874878E-02 
893	 0.057096168914253 
894	 0.057406818676657 
895	 5.82842132895487E-02 
896	 5.90244613781962E-02 
897	 5.81025738767823E-02 
898	 5.74805483546949E-02 
899	 5.76755170440134E-02 
900	 5.80871478287612E-02 
901	 5.69358138497306E-02 
902	 5.66643225285278E-02 
903	 5.73124185799582E-02 
904	 5.79126811471239E-02 
905	 5.75931993112072E-02 
906	 5.65949224820597E-02 
907	 5.57362541328042E-02 
908	 5.60550619535103E-02 
909	 5.62609890697294E-02 
910	 5.67429554479575E-02 
911	 5.67939620568009E-02 
912	 0.055268994351793 
913	 0.057711269920623 
914	 5.80621030450132E-02 
915	 5.48397926500927E-02 
916	 0.053441120104835 
917	 5.53912500842697E-02 
918	 5.51548449082935E-02 
919	 5.21882312323536E-02 
920	 5.29216723214648E-02 
921	 5.23393137954466E-02 
922	 5.23485250703177E-02 
923	 5.40855961546184E-02 
924	 5.42742563259603E-02 
925	 5.34534307331406E-02 
926	 5.28162755660759E-02 
927	 5.39988814716726E-02 
928	 5.89800899517822E-02 
929	 5.77831208882426E-02 
930	 5.19965039517371E-02 
931	 5.26746707321138E-02 
932	 6.02712134965838E-02 
933	 6.58624423671391E-02 
934	 6.47506506853547E-02 
935	 6.05357587625306E-02 
936	 6.10803016478155E-02 
937	 6.44916195747861E-02 
938	 5.96227631538001E-02 
939	 4.38129732074948E-02 
940	 5.57263607960497E-02 
941	 6.25809984548095E-02 
942	 6.22967415049508E-02 
943	 6.42513280084222E-02 
944	 4.85748186985126E-02 
945	 4.62271124868821E-02 
946	 5.66973727434373E-02 
947	 0.059371953263809 
948	 5.40183786798532E-02 
949	 5.10324483337013E-02 
950	 5.09957606178665E-02 
951	 4.94271930423302E-02 
952	 5.42593262044891E-02 
953	 5.45931291943736E-02 
954	 5.36826223643366E-02 
955	 6.02583355487604E-02 
956	 5.22755342135583E-02 
957	 4.79273249199516E-02 
958	 4.97115080199253E-02 
959	 4.90455328668729E-02 
960	 5.34962572725716E-02 
961	 4.97164532259086E-02 
962	 4.37235782779377E-02 
963	 5.03240859444795E-02 
964	 0.051932270437878 
965	 5.03929486679152E-02 
966	 4.99399669233425E-02 
967	 5.33658793047342E-02 
968	 4.99939248036741E-02 
969	 4.78918082200042E-02 
970	 4.87919263803036E-02 
971	 4.82972114017137E-02 
972	 4.87132204969549E-02 
973	 0.048239847477678 
974	 4.72316512472465E-02 
975	 4.81244685236689E-02 
976	 4.90100898768412E-02 
977	 4.96575848072198E-02 
978	 5.11703371580745E-02 
979	 5.42966699239245E-02 
980	 5.04022898611663E-02 
981	 4.89627731306227E-02 
982	 0.05093076146957 
983	 5.00241001946547E-02 
984	 4.92282756799299E-02 
985	 4.95764136870766E-02 
986	 4.97671985667239E-02 
987	 4.77832163543079E-02 
988	 4.84876768565777E-02 
989	 4.95503645150071E-02 
990	 0.048906791209398 
991	 0.046317107819183 
992	 4.78481733415009E-02 
993	 0.049234870617419 
994	 4.77082615498876E-02 
995	 4.37167588310053E-02 
996	 4.47981489359713E-02 
997	 4.68352310721206E-02 
998	 4.74777530097586E-02 
999	 4.63742150895445E-02 
1000	 4.33679900519961E-02 
1001	 5.40021589695528E-02 
1002	 5.33104203073055E-02 
1003	 5.31846695619397E-02 
1004	 5.38449414619585E-02 
1005	 5.37952025090353E-02 
1006	 5.34956476346978E-02 
1007	 5.32147880693728E-02 
1008	 5.24395873639146E-02 
1009	 5.21332722509905E-02 
1010	 5.26442301830953E-02 
1011	 5.26223497799776E-02 
1012	 5.29811483205595E-02 
1013	 5.33736201680769E-02 
1014	 5.34266643631282E-02 
1015	 5.30620212037467E-02 
1016	 5.31747886043507E-02 
1017	 0.05343127159605 
1018	 5.34326159692909E-02 
1019	 5.37220304596091E-02 
1020	 5.35949148380002E-02 
1021	 5.29619956955868E-02 
1022	 5.24243494215215E-02 
1023	 0.05218926831422 
1024	 5.22454534045018E-02 
1025	 5.23189258879441E-02 
1026	 5.27199181164557E-02 
1027	 5.29945254746035E-02 
1028	 5.32298900331407E-02 
1029	 5.33262963656682E-02 
1030	 5.35100970168971E-02 
1031	 5.35328721360902E-02 
1032	 5.32239423276434E-02 
1033	 5.32014812449604E-02 
1034	 0.053330789792105 
1035	 5.34048979995835E-02 
1036	 5.35165031726478E-02 
1037	 5.36405115346974E-02 
1038	 5.39102245189568E-02 
1039	 5.39261337809299E-02 
1040	 5.38473000542576E-02 
1041	 5.35811067755847E-02 
1042	 5.35742915632038E-02 
1043	 5.35084101285073E-02 
1044	 5.35442827485381E-02 
1045	 5.38550419437166E-02 
1046	 5.39878038092692E-02 
1047	 0.053963405936126 
1048	 5.39661822635898E-02 
1049	 5.39902647378198E-02 
1050	 5.40403250941598E-02 
1051	 5.40918101391473E-02 
1052	 5.41437109334869E-02 
1053	 5.43347268082136E-02 
1054	 5.43366563461581E-02 
1055	 5.40566757795262E-02 
1056	 5.39799712724345E-02 
1057	 0.053943095023801 
1058	 5.38802934538536E-02 
1059	 5.38494665607769E-02 
1060	 5.40108511213282E-02 
1061	 5.39685281610781E-02 
1062	 5.36379049198504E-02 
1063	 5.37153743293744E-02 
1064	 5.40746150813883E-02 
1065	 5.41510547689708E-02 
1066	 5.43255793413427E-02 
1067	 5.44239962150089E-02 
1068	 5.42397284648563E-02 
1069	 5.41860214308517E-02 
1070	 5.41409742624699E-02 
1071	 5.42536045998042E-02 
1072	 5.48176823678456E-02 
1073	 5.47552139256393E-02 
1074	 5.46591906714959E-02 
1075	 5.45051897897783E-02 
1076	 5.45210684904634E-02 
1077	 5.42857485515247E-02 
1078	 5.42058310100835E-02 
1079	 5.45361157612249E-02 
1080	 5.44714093651395E-02 
1081	 5.36532117272245E-02 
1082	 5.38389260870034E-02 
1083	 5.48650419239533E-02 
1084	 0.055148869673722 
1085	 5.58272647505262E-02 
1086	 5.60644293856464E-02 
1087	 5.50079482332134E-02 
1088	 5.48324730543211E-02 
1089	 5.55087310134797E-02 
1090	 5.54994479190761E-02 
1091	 5.55060314657513E-02 
1092	 5.59791160959024E-02 
1093	 5.56004189115853E-02 
1094	 5.37493269165751E-02 
1095	 5.38130689775204E-02 
1096	 5.50629084586946E-02 
1097	 5.52299599700164E-02 
1098	 5.58162633620539E-02 
1099	 5.62671417886917E-02 
1100	 5.54539465964566E-02 
1101	 5.54400300180122E-02 
1102	 5.71362746406932E-02 
1103	 0.057583700689718 
1104	 5.74500225609767E-02 
1105	 5.63243839590947E-02 
1106	 5.57745627948495E-02 
1107	 5.68351993613147E-02 
1108	 5.89084790789208E-02 
1109	 6.06418529600347E-02 
1110	 6.10735923033358E-02 
1111	 0.059567811712875 
1112	 5.93931230272678E-02 
1113	 5.83474710329425E-02 
1114	 5.81892585294004E-02 
1115	 5.95789998936913E-02 
1116	 6.09199975175961E-02 
1117	 6.43290351132247E-02 
1118	 6.48049097628837E-02 
1119	 5.91137115818883E-02 
1120	 6.10383253327725E-02 
1121	 6.77443217411281E-02 
1122	 7.33352891607653E-02 
1123	 0.086384516951506 
1124	 9.95861809443753E-02 
1125	 8.37526222819936E-02 
1126	 6.18546545849384E-02 
1127	 6.46361360100144E-02 
1128	 0.066759500399807 
1129	 6.39512061934145E-02 
1130	 6.77343550936984E-02 
1131	 6.70788565401272E-02 
1132	 5.66740187238373E-02 
1133	 5.75923212769278E-02 
1134	 6.76079328806589E-02 
1135	 6.91864280258033E-02 
1136	 6.66364343911841E-02 
1137	 6.70385324410855E-02 
1138	 6.60207498366244E-02 
1139	 6.89896692064255E-02 
1140	 6.74291443821535E-02 
1141	 6.76285926610097E-02 
1142	 6.97948622816161E-02 
1143	 6.33612517538508E-02 
1144	 6.20056371347161E-02 
1145	 6.84698738289877E-02 
1146	 6.49843603256088E-02 
1147	 5.97699989380835E-02 
1148	 5.91883121222562E-02 
1149	 5.82563138098084E-02 
1150	 5.84071754428966E-02 
1151	 6.31306114838162E-02 
1152	 6.31168168393457E-02 
1153	 6.04017680526615E-02 
1154	 5.89789329851789E-02 
1155	 5.74665575609705E-02 
1156	 5.62839029986831E-02 
1157	 5.50387209451863E-02 
1158	 5.53856693401658E-02 
1159	 0.056588562665899 
1160	 5.73927259688478E-02 
1161	 5.84021776445007E-02 
1162	 5.77602815726726E-02 
1163	 5.52334355530712E-02 
1164	 5.33555095078975E-02 
1165	 5.28443338394721E-02 
1166	 5.39008679268973E-02 
1167	 5.45231916415492E-02 
1168	 5.40413349134166E-02 
1169	 5.43735697880475E-02 
1170	 5.41967499140055E-02 
1171	 5.38423851230325E-02 
1172	 5.42092998440916E-02 
1173	 5.41821030403443E-02 
1174	 5.35730089497685E-02 
1175	 0.052612975571727 
1176	 0.052529594217197 
1177	 5.28478461093726E-02 
1178	 5.29743492522832E-02 
1179	 5.32535915026943E-02 
1180	 5.34380056221572E-02 
1181	 5.28540518096055E-02 
1182	 0.052785665371193 
1183	 5.30154459842656E-02 
1184	 5.29021920475873E-02 
1185	 5.30843000858917E-02 
1186	 5.34147447118462E-02 
1187	 0.053836253400467 
1188	 5.35563984075387E-02 
1189	 5.26833576721371E-02 
1190	 5.26889835015324E-02 
1191	 5.32413860174268E-02 
1192	 0.053071761073229 
1193	 5.29107955442298E-02 
1194	 5.31555886150735E-02 
1195	 5.29029966329686E-02 
1196	 5.22744222662349E-02 
1197	 5.27442460716154E-02 
1198	 5.32822486682939E-02 
1199	 5.35603508741408E-02 
1200	 5.32155535740295E-02 
1201	 0.052521391882626 
1202	 5.30068418172168E-02 
1203	 5.34943479150972E-02 
1204	 5.31165880429903E-02 
1205	 5.25700054059837E-02 
1206	 5.23292824104853E-02 
1207	 5.23481691866188E-02 
1208	 5.24182571812497E-02 
1209	 5.29210656041017E-02 
1210	 5.32627373861332E-02 
1211	 5.25295878261589E-02 
1212	 5.21363250200664E-02 
1213	 5.25218098350633E-02 
1214	 5.23985469282775E-02 
1215	 5.19019411906401E-02 
1216	 5.18941797143982E-02 
1217	 5.21593390140559E-02 
1218	 5.15278742576634E-02 
1219	 5.17522885671564E-02 
1220	 5.23292368266945E-02 
1221	 5.16906373504613E-02 
1222	 5.15558263102246E-02 
1223	 5.16069957444895E-02 
1224	 5.10876005383846E-02 
1225	 5.10992733102567E-02 
1226	 5.11919220248438E-02 
1227	 0.051172263553654 
1228	 5.13846729451317E-02 
1229	 0.051261606416678 
1230	 5.10255415898057E-02 
1231	 5.07637896314101E-02 
1232	 5.03402031079187E-02 
1233	 5.03639016172873E-02 
1234	 5.03975013896957E-02 
1235	 5.02785057692369E-02 
1236	 4.98174119440746E-02 
1237	 4.97877806853596E-02 
1238	 4.99080919726679E-02 
1239	 4.99790319883493E-02 
1240	 5.00439040834946E-02 
1241	 5.00796198973596E-02 
1242	 4.98834902489673E-02 
1243	 4.96284608367993E-02 
1244	 0.049580841592779 
1245	 4.95801872799561E-02 
1246	 0.049808495864322 
1247	 5.04868405125605E-02 
1248	 5.06984078020535E-02 
1249	 5.03091665416158E-02 
1250	 5.00900398818154E-02 
1251	 4.98277693178583E-02 
1252	 4.98111771545081E-02 
1253	 5.03552784264264E-02 
1254	 5.01908238409916E-02 
1255	 4.95403150582402E-02 
1256	 4.95850793911342E-02 
1257	 5.02221038340719E-02 
1258	 5.02582821836913E-02 
1259	 5.01832568879328E-02 
1260	 5.03915395708848E-02 
1261	 5.04051396393219E-02 
1262	 5.04879803628033E-02 
1263	 5.09573431139055E-02 
1264	 5.14196612981656E-02 
1265	 5.12586620344695E-02 
1266	 5.07924276842944E-02 
1267	 5.07159518685173E-02 
1268	 0.050830770431888 
1269	 5.07418909950823E-02 
1270	 5.06842822667723E-02 
1271	 5.05656644646099E-02 
1272	 5.05215242245899E-02 
1273	 5.06504305092907E-02 
1274	 5.03458688640182E-02 
1275	 5.00444449133609E-02 
1276	 5.04339382374681E-02 
1277	 0.050405509053957 
1278	 4.99451546922987E-02 
1279	 5.01085544906773E-02 
1280	 5.03103486362569E-02 
1281	 5.03596622197602E-02 
1282	 5.09987404020475E-02 
1283	 5.10033281179389E-02 
1284	 4.99842908486792E-02 
1285	 4.99585343264701E-02 
1286	 5.06610070715879E-02 
1287	 5.06791393667502E-02 
1288	 5.05555133178626E-02 
1289	 0.050755560819699 
1290	 0.050778190031574 
1291	 5.05426330544657E-02 
1292	 5.07937159291349E-02 
1293	 5.15564729348376E-02 
1294	 5.14442734855933E-02 
1295	 5.09363217650297E-02 
1296	 5.12712882461582E-02 
1297	 5.11820856966633E-02 
1298	 5.09044126807811E-02 
1299	 5.15120080016335E-02 
1300	 5.17122491568735E-02 
1301	 5.12976331761409E-02 
1302	 5.09582367646864E-02 
1303	 5.12557445949933E-02 
1304	 0.052018768590053 
1305	 5.19494933806082E-02 
1306	 5.21772081933453E-02 
1307	 5.25964364449571E-02 
1308	 5.28905844304182E-02 
1309	 5.29320195910141E-02 
1310	 5.34457389302154E-02 
1311	 5.44830558182944E-02 
1312	 5.48286389656161E-02 
1313	 5.47452359809555E-02 
1314	 5.51767072013517E-02 
1315	 5.53445180112575E-02 
1316	 5.55315649011861E-02 
1317	 5.69580161018968E-02 
1318	 5.72475977426154E-02 
1319	 5.58940210493144E-02 
1320	 5.56791855451464E-02 
1321	 5.57183228953689E-02 
1322	 5.51930241590255E-02 
1323	 5.51065224049339E-02 
1324	 5.57554887991612E-02 
1325	 5.56656712844654E-02 
1326	 5.63110240932628E-02 
1327	 5.62546961459279E-02 
1328	 5.54503398918068E-02 
1329	 5.71007646700946E-02 
1330	 5.80268709149858E-02 
1331	 5.71513356460315E-02 
1332	 6.08254410908256E-02 
1333	 6.49815348828165E-02 
1334	 6.28965876239619E-02 
1335	 6.38185228292346E-02 
1336	 6.85611495041422E-02 
1337	 6.90826474709999E-02 
1338	 6.61772319550275E-02 
1339	 6.44696413257929E-02 
1340	 5.94000664425275E-02 
1341	 5.83674247921421E-02 
1342	 6.03335301140649E-02 
1343	 6.17110116977085E-02 
1344	 6.88608214556819E-02 
1345	 7.13677280450646E-02 
1346	 6.74732601890425E-02 
1347	 6.67505793486905E-02 
1348	 6.09648868552387E-02 
1349	 5.76600593491939E-02 
1350	 7.17087813543793E-02 
1351	 7.95115242056133E-02 
1352	 6.58503440296221E-02 
1353	 7.90562355389074E-02 
1354	 0.148870015178891 
1355	 0.171185442773974 
1356	 0.071510418758144 
1357	 0.08792010272942 
1358	 0.17361279184837 
1359	 0.139997983549384 
1360	 0.163349694509541 
1361	 0.501461947193091 
1362	 0.855133389142584 
1363	 0.342674513595831 
1364	 0.397940630786954 
1365	 0.768972762326495 
1366	 0.736029663669835 
1367	 2.09927348436134 
1368	 4.64014523844754 
1369	 0.96652776422834 
1370	 1.62077005234247 
1371	 4.65885128438395 
1372	 4.12655574313239 
1373	 2.68825857207216 
1374	 2.30885025633978 
1375	 1.75004929623222 
1376	 1.15557959636256 
1377	 0.64721351479934 
1378	 0.438528001505209 
1379	 0.124996552223523 
1380	-9.82199379572872E-02 
1381	-0.412819384056611 
1382	-0.295666022874533 
1383	 0.25086296975109 
1384	 0.305346671295261 
1385	 0.398033968689647 
1386	 0.624232147345964 
1387	 0.85129121442234 
1388	 0.896517889141778 
1389	 0.631253588835869 
1390	 0.916792200048157 
1391	 1.98057118178551 
1392	 1.28356070842108 
1393	 0.563433107851478 
1394	 0.595214434414248 
1395	 1.25284797264673 
1396	 1.09869356004816 
1397	 1.17490332779249 
1398	 1.59710865041531 
1399	 1.13968984028616 
1400	 0.169274772170558 
1401	 0.402151134431544 
1402	 0.554135120958543 
1403	 9.18696392795612E-02 
1404	 0.104561876905255 
1405	 0.232095431259177 
1406	 0.740618441600385 
1407	 0.57219002634354 
1408	 0.761625878569234 
1409	 1.0863613687408 
1410	-0.017241972667054 
1411	-0.141031769493087 
1412	 0.171465998799835 
1413	 0.271399676934812 
1414	 0.223483497657398 
1415	 0.305672059651814 
1416	 0.892779299742177 
1417	 1.03239931709582 
1418	 0.39998669220753 
1419	 0.315478608128233 
1420	 0.277374037251181 
1421	 0.196907872783053 
1422	 0.173190722559566 
1423	 0.204921113710163 
1424	 0.226134829288492 
1425	 0.225772805322465 
1426	 0.307492277549932 
1427	 0.314618064952567 
1428	 0.23199668422831 
1429	 0.207759539422414 
1430	 0.231702279111638 
1431	 0.206209366950083 
1432	 0.140511384590605 
1433	 0.126963343295053 
1434	 0.104795353341827 
1435	 9.03811118452496E-02 
1436	 7.21006702319928E-02 
1437	 0.153080167512952 
1438	 0.189219428513837 
1439	 0.19540719991937 
1440	 0.191717279391009 
1441	 0.150950554802531 
1442	 0.103410518897737 
1443	 0.120113912621977 
1444	 0.13179155836065 
1445	 0.116839095892289 
1446	 0.115448998672987 
1447	 0.111893018298515 
1448	 0.106223673039166 
1449	 0.104295152945222 
1450	 9.57458147230924E-02 
1451	 0.084448867702189 
1452	 7.04677825615506E-02 
1453	 5.46654979299435E-02 
1454	 5.57107353127193E-02 
1455	 6.40190705865908E-02 
1456	 6.25856322472609E-02 
1457	 6.34730613107212E-02 
1458	 0.067963706147821 
1459	 0.069224073358317 
1460	 6.68334967468223E-02 
1461	 6.93166934709453E-02 
1462	 7.15733296504202E-02 
1463	 6.43557603715064E-02 
1464	 6.49796519526923E-02 
1465	 7.88285206990531E-02 
1466	 7.94775509010304E-02 
1467	 6.98731896973249E-02 
1468	 7.01955629415095E-02 
1469	 7.19092301863745E-02 
1470	 7.27568936584823E-02 
1471	 8.15483345411185E-02 
1472	 7.91788043791947E-02 
1473	 6.41748664699295E-02 
1474	 6.41776585467148E-02 
1475	 7.00467618240509E-02 
1476	 6.89501223021576E-02 
1477	 6.98371717753463E-02 
1478	 7.22913050310726E-02 
1479	 7.27632026370791E-02 
1480	 0.071235375467734 
1481	 0.071874837717738 
1482	 7.09193006921532E-02 
1483	 6.64055345971634E-02 
1484	 6.34100860920556E-02 
1485	 6.06775715165021E-02 
1486	 0.061420664181828 
1487	 6.55745483425651E-02 
1488	 6.35505315675333E-02 
1489	 5.98485085104363E-02 
1490	 0.059216609661515 
1491	 5.69720575397916E-02 
1492	 5.55941974998378E-02 
1493	 5.63092363115855E-02 
1494	 5.68033747884269E-02 
1495	 5.67475856839013E-02 
1496	 5.62883167215575E-02 
1497	 5.66418772486391E-02 
1498	 5.66631245009767E-02 
1499	 5.52129935371903E-02 
1500	 0.054685299610553 
1501	 5.53271943526338E-02 
1502	 5.52484074538859E-02 
1503	 5.48761365416499E-02 
1504	 5.47891798259916E-02 
1505	 5.47675499113735E-02 
1506	 5.42028200426474E-02 
1507	 5.42756328563466E-02 
1508	 5.39520135606219E-02 
1509	 5.41927817313845E-02 
1510	 5.47893164064908E-02 
1511	 5.43373844262922E-02 
1512	 5.41808367179267E-02 
1513	 5.38940490045073E-02 
1514	 0.053107658809708 
1515	 5.31224355743977E-02 
1516	 5.32931425676965E-02 
1517	 5.32650590028864E-02 
1518	 5.33340171020904E-02 
1519	 5.27735842689261E-02 
1520	 5.26665924706337E-02 
1521	 5.31415586367358E-02 
1522	 5.24575787220197E-02 
1523	 5.18595499157195E-02 
1524	 5.22523556298839E-02 
1525	 5.24249604225396E-02 
1526	 5.24100276272268E-02 
1527	 5.28251686233884E-02 
1528	 5.30852334004951E-02 
1529	 0.052544663871626 
1530	 5.20442235102111E-02 
1531	 5.21656854594224E-02 
1532	 5.22163805845786E-02 
1533	 5.20163469792762E-02 
1534	 5.16564486367988E-02 
1535	 5.14295419936571E-02 
1536	 5.15606873058321E-02 
1537	 5.12185925945543E-02 
1538	 5.09784668461628E-02 
1539	 0.051378439266368 
1540	 5.12344437244549E-02 
1541	 5.11306306483421E-02 
1542	 5.17561359675603E-02 
1543	 5.21689731274445E-02 
1544	 5.19228002515936E-02 
1545	 5.11260393841198E-02 
1546	 5.06422531488931E-02 
1547	 5.10590736842406E-02 
1548	 5.13066936243617E-02 
1549	 5.11894753837866E-02 
1550	 5.14248472339548E-02 
1551	 5.13341514195796E-02 
1552	 5.06754116536266E-02 
1553	 5.02366157742646E-02 
1554	 5.02326520218407E-02 
1555	 5.03690109552976E-02 
1556	 5.03845472995528E-02 
1557	 5.02719530031433E-02 
1558	 0.050343633387962 
1559	 5.03545806210024E-02 
1560	 0.049833433445816 
1561	 4.94640341979135E-02 
1562	 4.98707945014432E-02 
1563	 5.04595964134224E-02 
1564	 5.04854278638401E-02 
1565	 5.07837560221255E-02 
1566	 5.14905358269036E-02 
1567	 5.09908118752022E-02 
1568	 5.00772911726456E-02 
1569	 4.98718443626453E-02 
1570	 4.98548421132352E-02 
1571	 5.01853816053749E-02 
1572	 5.05930964776533E-02 
1573	 5.11485504265506E-02 
1574	 0.051572952605911 
1575	 5.10327814745955E-02 
1576	 5.04403478496523E-02 
1577	 5.03510918583818E-02 
1578	 5.05083306567057E-02 
1579	 5.06020909334371E-02 
1580	 5.04786990551796E-02 
1581	 5.03680768700039E-02 
1582	 4.98737370504262E-02 
1583	 4.96304569919894E-02 
1584	 5.02723037253381E-02 
1585	 5.05022739585694E-02 
1586	 5.00104801570829E-02 
1587	 4.97025817205523E-02 
1588	 4.96863779314328E-02 
1589	 4.94385455007395E-02 
1590	 4.90997132411632E-02 
1591	 4.92376455815477E-02 
1592	 4.97616689463558E-02 
1593	 5.02789258452025E-02 
1594	 5.04603136847666E-02 
1595	 5.05723113402027E-02 
1596	 5.04291748795333E-02 
1597	 4.97248086537844E-02 
1598	 4.95764945170773E-02 
1599	 4.98423353305293E-02 
1600	 4.97994380617168E-02 
1601	 4.99789772663125E-02 
1602	 5.01675698401637E-02 
1603	 5.00526999679936E-02 
1604	 4.98962523893772E-02 
1605	 4.98876902170279E-02 
1606	 5.02020248881125E-02 
1607	 5.01983037125273E-02 
1608	 4.96738071397431E-02 
1609	 4.92688572794827E-02 
1610	 4.88002583665086E-02 
1611	 4.87817801665108E-02 
1612	 4.96497410371617E-02 
1613	 5.03765233021413E-02 
1614	 5.05794210328993E-02 
1615	 0.050062159448216 
1616	 4.94676141430739E-02 
1617	 4.97988184475285E-02 
1618	 5.01228012094876E-02 
1619	 5.03915649602213E-02 
1620	 5.06566789286176E-02 
1621	 5.02111647643343E-02 
1622	 4.97904703393545E-02 
1623	 5.00329840589678E-02 
1624	 5.04120724745048E-02 
1625	 4.99205391112527E-02 
1626	 4.96039704070304E-02 
1627	 5.00680971991624E-02 
1628	 4.96493756179543E-02 
1629	 4.92439363940386E-02 
1630	 4.98528737681517E-02 
1631	 0.049959646241638 
1632	 4.97446757611708E-02 
1633	 5.02401299241874E-02 
1634	 5.03779365969434E-02 
1635	 4.98419494225044E-02 
1636	 4.96732403044281E-02 
1637	 4.95106952010893E-02 
1638	 4.91702007574095E-02 
1639	 4.96503403305566E-02 
1640	 0.050212013894906 
1641	 5.01351101350345E-02 
1642	 4.99342968251469E-02 
1643	 4.95492996045274E-02 
1644	 4.95759953540006E-02 
1645	 5.00200981629638E-02 
1646	 5.00130353041168E-02 
1647	 4.96125562260616E-02 
1648	 4.91770836332072E-02 
1649	 4.87204572218434E-02 
1650	 4.87067762881166E-02 
1651	 4.95704963550876E-02 
1652	 5.02968543102416E-02 
1653	 4.98475927646564E-02 
1654	 4.97385330162425E-02 
1655	 4.88345086114288E-02 
1656	 4.84180199101019E-02 
1657	 4.87583997308903E-02 
1658	 4.92803831544266E-02 
1659	 5.00308620257895E-02 
1660	 5.00145369391679E-02 
1661	 4.99798163472595E-02 
1662	 4.97847765874107E-02 
1663	 4.88356550238253E-02 
1664	 4.87146956742817E-02 
1665	 4.89146226259917E-02 
1666	 4.89388906014773E-02 
1667	 4.91612694099963E-02 
1668	 4.90288110514175E-02 
1669	 4.98361435099928E-02 
1670	 5.04783741192397E-02 
1671	 4.97084768939253E-02 
1672	 4.96330587447732E-02 
1673	 5.02944355159199E-02 
1674	 4.96515910302149E-02 
1675	 4.94747792952753E-02 
1676	 5.03736747705576E-02 
1677	 5.00523913223413E-02 
1678	 4.95046262954386E-02 
1679	 4.94335408638725E-02 
1680	 4.89862080525376E-02 
1681	 4.84807391460346E-02 
1682	 4.86891165552098E-02 
1683	 4.96087254189394E-02 
1684	 5.01038068011175E-02 
1685	 5.01692076284684E-02 
1686	 5.00356623294479E-02 
1687	 0.04985497776294 
1688	 5.02431176954023E-02 
1689	 5.03102951754201E-02 
1690	 4.99654320229644E-02 
1691	 4.99840119773253E-02 
1692	 5.00342484618857E-02 
1693	 4.99692640797155E-02 
1694	 4.95818869031721E-02 
1695	 4.93818923220234E-02 
1696	 4.88589164985903E-02 
1697	 0.048498221022811 
1698	 4.94135510688097E-02 
1699	 4.96330690903724E-02 
1700	 4.92887636496523E-02 
1701	 4.96131734893216E-02 
1702	 5.01322269732793E-02 
1703	 5.05097049805927E-02 
1704	 5.06997226660629E-02 
1705	 5.03877655976844E-02 
1706	 4.97510874191547E-02 
1707	 5.01936228236144E-02 
1708	 5.15275253658706E-02 
1709	 0.051940203531264 
1710	 5.09943467519406E-02 
1711	 4.98500272906573E-02 
1712	 4.97484040596275E-02 
1713	 4.99224293633021E-02 
1714	 4.97663407561899E-02 
1715	 4.99685643654144E-02 
1716	 5.01502161579905E-02 
1717	 5.06655501891657E-02 
1718	 5.10687448404324E-02 
1719	 5.03934995067985E-02 
1720	 4.99655226501377E-02 
1721	 5.05547334342148E-02 
1722	 5.04172173227129E-02 
1723	 5.05566982644783E-02 
1724	 0.050756030741271 
1725	 4.90488720931994E-02 
1726	 0.049382992755369 
1727	 5.07541331071189E-02 
1728	 4.97115451672378E-02 
1729	 4.97165370835524E-02 
1730	 5.04488901134534E-02 
1731	 5.07102383942175E-02 
1732	 5.17766407731134E-02 
1733	 5.24291838252958E-02 
1734	 5.18086233995578E-02 
1735	 5.06890189602853E-02 
1736	 5.10244912436435E-02 
1737	 5.15638688785466E-02 
1738	 5.05328250780295E-02 
1739	 5.03676486461302E-02 
1740	 5.04039331933871E-02 
1741	 4.96103993119501E-02 
1742	 5.05406001961916E-02 
1743	 0.051976950881511 
1744	 0.051791584497362 
1745	 5.11906092312395E-02 
1746	 5.00244330152271E-02 
1747	 5.00423373348357E-02 
1748	 5.05474145100137E-02 
1749	 5.06582172803474E-02 
1750	 5.18928570011538E-02 
1751	 0.051967986178466 
1752	 5.05466228853296E-02 
1753	 4.97374017270749E-02 
1754	 0.048632556377275 
1755	 4.89949471927054E-02 
1756	 5.01751967355611E-02 
1757	 5.19689758005356E-02 
1758	 5.35578010996325E-02 
1759	 5.25472523617387E-02 
1760	 5.26294195826558E-02 
1761	 5.42384858604255E-02 
1762	 5.26475849452543E-02 
1763	 5.21102656440657E-02 
1764	 5.31837969340992E-02 
1765	 5.12082049098675E-02 
1766	 5.08820565634781E-02 
1767	 5.32941830690592E-02 
1768	 5.24989171418725E-02 
1769	 5.19745220093985E-02 
1770	 5.44412915320924E-02 
1771	 5.58216767391268E-02 
1772	 5.58625001714074E-02 
1773	 5.55588816926913E-02 
1774	 5.59160966496313E-02 
1775	 5.36827283429663E-02 
1776	 0.053763007449297 
1777	 5.73610612396674E-02 
1778	 5.86624273479773E-02 
1779	 6.04946709225032E-02 
1780	 6.27634745326076E-02 
1781	 6.45398206635491E-02 
1782	 6.28096465717041E-02 
1783	 5.53729238038837E-02 
1784	 5.49208499019524E-02 
1785	 5.62800123491854E-02 
1786	 5.96831933126393E-02 
1787	 7.73211612232122E-02 
1788	 7.67424501174162E-02 
1789	 5.89817897045897E-02 
1790	 4.96187164941651E-02 
1791	 4.09102732305458E-02 
1792	 4.50707236149999E-02 
1793	 5.83018286499062E-02 
1794	 0.058173581366344 
1795	 0.056155525179168 
1796	 5.25471601242857E-02 
1797	 3.49093427206479E-02 
1798	 2.67277227444891E-02 
1799	 3.36398466134067E-02 
1800	 5.75805421101595E-02 
1801	 7.60313359603998E-02 
1802	 0.109370142217279 
1803	 0.114806599048821 
1804	 4.96300943632573E-02 
1805	 3.81425681803607E-02 
1806	 0.02159335149429 
1807	 2.79919716312397E-02 
1808	 0.206957061175376 
1809	 0.270240301563197 
1810	 0.219530170410119 
1811	 0.247394650147731 
1812	 0.290804375685201 
1813	 0.268661828073309 
1814	 1.57240725982379E-02 
1815	 0.384065170482955 
1816	 0.523467838422628 
1817	 1.25123281343882 
1818	 1.27877142022329 
1819	 0.574460132048849 
1820	 0.759692634509449 
1821	-5.18668841141652E-02 
1822	-1.37390481228723 
1823	 0.151432955141281 
1824	 0.419385356427508 
1825	 0.740338156975566 
1826	 0.625807645117219 
1827	 0.137265507636943 
1828	 5.64727285040497E-02 
1829	-0.392576818634019 
1830	-0.319543534935746 
1831	-0.500973644444608 
1832	-0.532812778747344 
1833	-5.58764890486512 
1834	-1.42795607245848 
1835	 0.665947912852341 
1836	 0.723594274572717 
1837	 0.139239444921234 
1838	 0.233969273501162 
1839	 0.635855797117981 
1840	-1.80902798285245 
1841	-2.22371608545075 
1842	-1.80451671956071 
1843	-3.50537418984167 
1844	-5.07065924570615E-02 
1845	-0.211358340009525 
1846	-0.226129295522706 
1847	-0.31193777534849 
1848	 2.38494821472955 
1849	 5.53665891067043E-02 
1850	-4.11402409002258E-02 
1851	-0.112008985425461 
1852	-0.530054093577306 
1853	-1.11069837911497 
1854	-2.36777151372288 
1855	 4.39095135399747 
1856	 3.61314772069947 
1857	 4.89425513581431 
1858	 3.27296757483783 
1859	 5.59360848603435 
1860	 0.262724030715644 
1861	 2.45498665399228 
1862	-1.20245855306474 
1863	 0.49070782898576 
1864	 1.75428003244399 
1865	 2.19169208130004 
1866	 3.89643929229329 
1867	 6.24741447054842 
1868	 0.930033687064783 
1869	-0.359696574551198 
1870	 1.1186497809811 
1871	 0.903553390437645 
1872	 1.27674235812108 
1873	 1.59645586126462 
1874	 0.855508220916814 
1875	 0.69197746089589 
1876	 0.507603504755158 
1877	-0.125569662074475 
1878	-0.113492914807326 
1879	 0.407645284814299 
1880	 0.640824961770689 
1881	 0.787917354405284 
1882	 1.38556444565582 
1883	 26.4227193606732 
1884	-2.01960831296133 
1885	-1.54936993819494 
1886	-0.370650413232652 
1887	-1.54404024358886 
1888	 0.768663956121877 
1889	 0.446526084182773 
1890	-6.94628340478795E-02 
1891	-0.153583592669439 
1892	-0.241526926980699 
1893	 2.36217490749603E-02 
1894	 0.416784708450448 
1895	 1.03076079239587 
1896	 4.81794919224195 
1897	-3.26453831156164 
1898	 0.652425259376829 
1899	 0.473728096498421 
1900	 1.00897959940245 
1901	 0.461283504802046 
1902	 0.268700610550762 
1903	-0.421123036505574 
1904	 2.37797237860835 
1905	 0.725844460985113 
1906	 1.21994875799972 
1907	 5.68432708215336 
1908	 56.2481547878971 
1909	 713.375059756406 
1910	 10.4367834093816 
1911	-21.4931529131698 
1912	-14.6060693607831 
1913	-25.6216467111479 
1914	-3.38682242200016 
1915	-2.09791853139294 
1916	-3.18244165647849 
1917	 5.24189638450682 
1918	-0.968567544637202 
1919	-0.811468000392973 
1920	-0.645328447982305 
1921	-0.487373537709798 
1922	-0.55997165759257 
1923	-0.520771912612899 
1924	-0.620494737964774 
1925	-0.662753501596431 
1926	-0.330758215054094 
1927	 0.714485891181163 
1928	 0.468210243157983 
1929	 1.27105256223527 
1930	 2.15887440628185 
1931	 0.659551324581781 
1932	 0.72983360347769 
1933	 0.432930152550776 
1934	-5.55493771914041E-03 
1935	 0.125480748018272 
1936	-3.07593468084566E-02 
1937	-0.339043810289671 
1938	 0.302452131912475 
1939	 0.546167967726683 
1940	 0.880677711443462 
1941	-2.74071853128866 
1942	 0.380394047883193 
1943	 1.11053892499095 
1944	 0.923798255148763 
1945	 0.940869621893041 
1946	 0.113350199340211 
1947	-1.68582606117818E-02 
1948	 9.08585526249109E-02 
1949	-3.23428744620703E-02 
1950	 0.378435453686082 
1951	 0.642824320457363 
1952	 0.658329122536272 
1953	 0.523883347828322 
1954	 0.658306558848694 
1955	 0.583341642433578 
1956	 0.375982527027122 
1957	 0.229189779958148 
1958	 4.09617466468169E-02 
1959	-7.89498452615766E-02 
1960	-4.21495462220737E-02 
1961	 2.27820973831589E-02 
1962	 4.08378952249287E-02 
1963	 5.54445601581009E-02 
1964	 6.75693786297508E-02 
1965	 0.064204086745013 
1966	 6.48426252902828E-02 
1967	 7.52074453660606E-02 
1968	 8.62532837628146E-02 
1969	 7.84849534683163E-02 
1970	 7.68491661163459E-02 
1971	 0.076416865164155 
1972	 7.56354492653312E-02 
1973	 7.14017328600578E-02 
1974	 5.82500860914118E-02 
1975	 5.89799257904396E-02 
1976	 5.83124213385974E-02 
1977	 5.52080063411534E-02 
1978	 6.00845791217875E-02 
1979	 6.16477531667071E-02 
1980	 6.08696874488984E-02 
1981	 6.01742461759259E-02 
1982	 0.062624183934911 
1983	 6.73494011037869E-02 
1984	 7.14207578908794E-02 
1985	 6.90067437673031E-02 
1986	 6.38614873656507E-02 
1987	 5.84916192234836E-02 
1988	 6.04949114349855E-02 
1989	 6.70882033102573E-02 
1990	 0.067792991731799 
1991	 6.72979398066189E-02 
1992	 0.064717513991808 
1993	 5.57633581713724E-02 
1994	 0.052581167674503 
1995	 5.46477503155993E-02 
1996	 6.49446731779095E-02 
1997	 6.78549884831303E-02 
1998	 6.83766672455679E-02 
1999	 7.24571075331191E-02 
2000	 6.86694254572869E-02 
2001	 5.92677929660479E-02 
2002	 5.55033986844152E-02 
2003	 5.56864493460979E-02 
2004	 6.05037526627828E-02 
2005	 6.85960705182976E-02 
2006	 7.18868617007545E-02 
2007	 7.75858103021038E-02 
2008	 8.61191193057403E-02 
2009	 9.12387242068673E-02 
2010	 0.100986907592638 
2011	 0.104919421340024 
2012	 0.110020509671641 
2013	 9.70276215534001E-02 
2014	 7.88748348628558E-02 
2015	 6.63792281781677E-02 
2016	 0.060372264352113 
2017	 5.95503627612771E-02 
2018	 6.44962322410442E-02 
2019	 6.59376234552367E-02 
2020	 6.59036092835937E-02 
2021	 6.60025589914723E-02 
2022	 6.45261210090125E-02 
2023	 0.06364575414704 
2024	 6.23438810985929E-02 
2025	 5.87811449354616E-02 
2026	 5.78790400986072E-02 
2027	 5.80767049281456E-02 
2028	 0.058009361152358 
2029	 5.85260750565224E-02 
2030	 6.09241702651249E-02 
2031	 5.97222947968806E-02 
2032	 6.07037767599686E-02 
2033	 6.20286396285579E-02 
2034	 5.85859381356213E-02 
2035	 5.92468236712371E-02 
2036	 0.058714416848631 
2037	 5.83379935360789E-02 
2038	 6.28557810463382E-02 
2039	 6.40616430018082E-02 
2040	 6.43399366222406E-02 
2041	 6.40979499460312E-02 
2042	 6.18522678911911E-02 
2043	 6.07053768520322E-02 
2044	 5.95874253424811E-02 
2045	 5.91852570480981E-02 
2046	 5.78984142377135E-02 
2047	 0.056366431306963 
2048	 5.31775381531286E-02 
2049	 5.22972220966605E-02 
2050	 5.64241414006744E-02 
2051	 5.77254484276642E-02 
2052	 5.89706184601003E-02 
2053	 6.28472940135445E-02 
2054	 6.19851286562383E-02 
2055	 6.10894497604966E-02 
2056	 6.21648657513405E-02 
2057	 6.45790384409826E-02 
2058	 6.46963368845578E-02 
2059	 6.65124039174408E-02 
2060	 0.06569802538964 
2061	 6.11685917013507E-02 
2062	 5.93093390238321E-02 
2063	 5.90951777123459E-02 
2064	 5.81129046603702E-02 
2065	 5.64362223271812E-02 
2066	 5.23381641506063E-02 
2067	 0.050305899249304 
2068	 5.03324675151382E-02 
2069	 5.32125931091426E-02 
2070	 5.72045758582823E-02 
2071	 6.27657234663631E-02 
2072	 6.62097243957517E-02 
2073	 6.54586577436064E-02 
2074	 6.22683629586184E-02 
2075	 6.09019566608511E-02 
2076	 5.47576456435388E-02 
2077	 5.34040044941493E-02 
2078	 5.76109182531712E-02 
2079	 5.76996421936284E-02 
2080	 5.69034259383188E-02 
2081	 5.49873760593148E-02 
2082	 0.054209844039575 
2083	 5.32662851571927E-02 
2084	 5.41729009967331E-02 
2085	 5.57752008597975E-02 
2086	 5.42057002070404E-02 
2087	 5.15644095775806E-02 
2088	 5.13579553965588E-02 
2089	 5.16337955073056E-02 
2090	 5.14189971416857E-02 
2091	 5.28900053916872E-02 
2092	 5.41598190762198E-02 
2093	 5.44435242395252E-02 
2094	 5.48671324000309E-02 
2095	 5.74477199679186E-02 
2096	 5.69516847761892E-02 
2097	 0.053659407591199 
2098	 5.21332445471026E-02 
2099	 4.96822264697195E-02 
2100	 4.85384608000121E-02 
2101	 5.11586521517041E-02 
2102	 5.20174655775505E-02 
2103	 5.20427748704174E-02 
2104	 5.25634531309021E-02 
2105	 5.09135757207742E-02 
2106	 4.96107166050509E-02 
2107	 0.05158690347102 
2108	 5.40532918325508E-02 
2109	 5.63976097695359E-02 
2110	 5.82333662761562E-02 
2111	 5.64165512658093E-02 
2112	 5.42583020267755E-02 
2113	 5.37420206006612E-02 
2114	 5.33963663932855E-02 
2115	 5.25897291748653E-02 
2116	 5.30718814223077E-02 
2117	 5.30107080290472E-02 
2118	 5.09925568507361E-02 
2119	 5.06832705011485E-02 
2120	 5.16804832882748E-02 
2121	 5.33954469426321E-02 
2122	 0.052953257973124 
2123	 0.053194337650084 
2124	 5.30799573226716E-02 
2125	 5.03017341628845E-02 
2126	 4.95437725517544E-02 
2127	 0.049108472358817 
2128	 5.10254630745629E-02 
2129	 5.36287218714048E-02 
2130	 5.35340107685088E-02 
2131	 5.45768279004047E-02 
2132	 5.42020012967504E-02 
2133	 5.43488227339759E-02 
2134	 5.39443172256099E-02 
2135	 5.42432832350874E-02 
2136	 5.35938309886256E-02 
2137	 5.07662950976382E-02 
2138	 0.050414303314686 
2139	 5.13311649616162E-02 
2140	 0.052852340287271 
2141	 5.61880274947594E-02 
2142	 5.78046135871616E-02 
2143	 5.97400661257742E-02 
2144	 6.11015924528689E-02 
2145	 5.87775949231905E-02 
2146	 5.68137071527409E-02 
2147	 5.36923173197787E-02 
2148	 5.09109447292536E-02 
2149	 5.24706156661091E-02 
2150	 5.36079119932908E-02 
2151	 5.38515691163168E-02 
2152	 0.054798161063689 
2153	 5.31062104820285E-02 
2154	 5.22647475685008E-02 
2155	 5.36122115556452E-02 
2156	 5.39907448973117E-02 
2157	 0.055531734844221 
2158	 0.059519780703058 
2159	 6.05774136974487E-02 
2160	 6.04057590025783E-02 
2161	 6.02468106512435E-02 
2162	 5.82274020309194E-02 
2163	 5.66414495693061E-02 
2164	 5.57245450160316E-02 
2165	 5.44205556029197E-02 
2166	 0.052574497066903 
2167	 5.08193670901373E-02 
2168	 4.81440531002207E-02 
2169	 4.75800752028853E-02 
2170	 4.89436955465804E-02 
2171	 4.80421829847209E-02 
2172	 4.79247816912476E-02 
2173	 4.79118319602025E-02 
2174	 4.83469750068697E-02 
2175	 0.052241935553561 
2176	 5.32642134326118E-02 
2177	 5.16976327771777E-02 
2178	 5.23532144940793E-02 
2179	 5.03363660865115E-02 
2180	 5.00749086329447E-02 
2181	 5.24165256787154E-02 
2182	 0.048943621577288 
2183	 4.57165302301222E-02 
2184	 0.044587165461895 
2185	 4.24474019341518E-02 
2186	 0.042858546573858 
2187	 4.77568350323727E-02 
2188	 0.047521357069548 
2189	 4.51683026811914E-02 
2190	 4.43295348639533E-02 
2191	 4.05695900247955E-02 
2192	 3.97622771703028E-02 
2193	 4.29503471520962E-02 
2194	 4.49187933307172E-02 
2195	 4.62609465501696E-02 
2196	 0.047815573230964 
2197	 5.08232978465867E-02 
2198	 5.14391627618354E-02 
2199	 5.02238786469745E-02 
2200	 5.19351797302143E-02 
2201	 4.91254950530553E-02 
2202	 0.043198401193464 
2203	 0.043817604441865 
2204	 4.63866522415224E-02 
2205	 4.63337762223106E-02 
2206	 4.71840731543669E-02 
2207	 5.18433772258918E-02 
2208	 5.20223217615532E-02 
2209	 4.91778914314768E-02 
2210	 0.051507678466663 
2211	 4.83860621138533E-02 
2212	 4.23754734422227E-02 
2213	 0.040996525870529 
2214	 4.10392366213469E-02 
2215	 0.042100756207408 
2216	 4.11655415133524E-02 
2217	 4.15973085151834E-02 
2218	 4.38966134086067E-02 
2219	 4.56203970753261E-02 
2220	 4.69100128235606E-02 
2221	 4.85899971088267E-02 
2222	 5.19045504974124E-02 
2223	 5.38153351397374E-02 
2224	 5.48434491017957E-02 
2225	 0.054879262844518 
2226	 5.34447786904713E-02 
2227	 5.19776804792772E-02 
2228	 5.00252454460787E-02 
2229	 4.88827881768003E-02 
2230	 4.74107681901986E-02 
2231	 4.73044569451143E-02 
2232	 4.79698700158253E-02 
2233	 4.78719500243043E-02 
2234	 0.047885471400051 
2235	 5.01404405754746E-02 
2236	 0.049480691938172 
2237	 4.81266452834814E-02 
2238	 4.77481639255021E-02 
2239	 4.61356100853621E-02 
2240	 4.64155037137023E-02 
2241	 4.65888776993934E-02 
2242	 4.74017711686273E-02 
2243	 4.70654355373157E-02 
2244	 4.48783466302197E-02 
2245	 4.32713046147495E-02 
2246	 3.70125393413599E-02 
2247	 3.51033954222117E-02 
2248	 3.73309587890593E-02 
2249	 3.49407654291921E-02 
2250	 0.037045183653857 
2251	 3.93263190598106E-02 
2252	 4.11754135948358E-02 
2253	 4.54162534653159E-02 
2254	 4.69657720776874E-02 
2255	 4.58027049342127E-02 
2256	 4.41220001622158E-02 
2257	 4.54725318518857E-02 
2258	 5.02556210801494E-02 
2259	 5.70604711052823E-02 
2260	 5.79933391417024E-02 
2261	 5.22624197972821E-02 
2262	 5.35389944625147E-02 
2263	 5.56730383816091E-02 
2264	 0.055616732407326 
2265	 5.91949316218312E-02 
2266	 5.92097047800768E-02 
2267	 5.45441264019586E-02 
2268	 5.11863620632588E-02 
2269	 4.91782412186586E-02 
2270	 0.046758916934242 
2271	 4.08814667612972E-02 
2272	 3.89767072845828E-02 
2273	 0.038614508987598 
2274	 4.10746320791891E-02 
2275	 4.98363812190754E-02 
2276	 5.09573490637063E-02 
2277	 4.89353199861337E-02 
2278	 4.96169387972207E-02 
2279	 4.63254806526874E-02 
2280	 4.48323911536044E-02 
2281	 4.70759879096347E-02 
2282	 4.93687421847172E-02 
2283	 4.55226154763828E-02 
2284	 4.96052681690874E-02 
2285	 5.34258924999869E-02 
2286	 0.051739601034943 
2287	 5.32693295128341E-02 
2288	 5.44780926834037E-02 
2289	 5.55249702772632E-02 
2290	 6.61159418291027E-02 
2291	 8.04979551140171E-02 
2292	 8.84678453439052E-02 
2293	 9.00018129032071E-02 
2294	 8.25651919568179E-02 
2295	 0.075382348491802 
2296	 6.42801520133152E-02 
2297	 5.41123234151778E-02 
2298	 6.26513083546093E-02 
2299	 6.06928782085058E-02 
2300	 0.050959438210433 
2301	 5.36993097001858E-02 
2302	 4.65419033215056E-02 
2303	 3.60591292394586E-02 
2304	 3.74187868221551E-02 
2305	 4.28419345779719E-02 
2306	 4.52296468917852E-02 
2307	 5.18087176495059E-02 
2308	 6.33628006391472E-02 
2309	 6.55770133051963E-02 
2310	 6.31591719756727E-02 
2311	 5.33985042755196E-02 
2312	 3.55506601594385E-02 
2313	 3.23273709275039E-02 
2314	 3.00553790503671E-02 
2315	 0.025619798897402 
2316	 3.25330010851523E-02 
2317	 3.32584320515234E-02 
2318	 2.52277712129788E-02 
2319	 3.52671987470633E-02 
2320	 4.78146530645647E-02 
2321	 4.07398839623702E-02 
2322	 3.50810285219494E-02 
2323	 2.03539346895153E-02 
2324	 0.021701907556274 
2325	 3.87663605464135E-02 
2326	 4.15014887648192E-02 
2327	 5.46012446481403E-02 
2328	 5.70658846004174E-02 
2329	 5.26060803275848E-02 
2330	 5.38751038402939E-02 
2331	 3.87624994246419E-02 
2332	 3.76605513562954E-02 
2333	 4.17395920021402E-02 
2334	 2.15562109400641E-02 
2335	 1.77608182912848E-02 
2336	 2.87191234492079E-02 
2337	 3.17110555840728E-02 
2338	 3.37902683354897E-02 
2339	 3.36575822923331E-02 
2340	 0.026310582541932 
2341	 1.13376012207041E-02 
2342	 1.68057306951768E-02 
2343	 4.17659154887957E-02 
2344	 5.05838126853735E-02 
2345	 3.99395729259789E-02 
2346	 2.03426214077098E-02 
2347	 4.28540115650943E-03 
2348	-9.92898219459385E-03 
2349	-4.99470568732454E-03 
2350	 3.41948359111246E-02 
2351	 4.42293866294627E-02 
2352	 4.24356593073739E-02 
2353	 6.29364189503484E-02 
2354	 7.37164449683282E-02 
2355	 8.81061452531421E-02 
2356	 8.89269423490302E-02 
2357	 5.89126022355225E-02 
2358	 3.90779950284132E-02 
2359	 0.010964400586143 
2360	-0.011488423773266 
2361	-3.4938104938107E-03 
2362	-7.86046660415503E-03 
2363	-3.00372631261434E-02 
2364	-3.41634656339406E-02 
2365	-3.40911618919127E-02 
2366	-0.073037672028672 
2367	-7.83712428302926E-02 
2368	-2.35283232774468E-02 
2369	-2.73867758343209E-03 
2370	-4.54670132279503E-03 
2371	 7.7766953787538E-03 
2372	 1.41055727004271E-02 
2373	 1.02724663691921E-02 
2374	 2.16462116359412E-03 
2375	 3.46832046680265E-02 
2376	 8.13366702561904E-02 
2377	 4.75999027888094E-02 
2378	 7.35536173640841E-02 
2379	 0.132563149799268 
2380	 9.80169219015634E-02 
2381	 0.119332077696404 
2382	 0.125013510052911 
2383	 5.18594534302951E-02 
2384	-9.78149292366659E-03 
2385	-0.104771311216961 
2386	-0.153789105671953 
2387	-0.101593541377458 
2388	-7.35703306879674E-02 
2389	-3.37428665611752E-03 
2390	 3.40064621983339E-02 
2391	-1.94225079135975E-02 
2392	-4.04798935716223E-02 
2393	-0.115931435490866 
2394	-0.161153071722336 
2395	-9.75625349438694E-02 
2396	-0.073149550800673 
2397	-0.13594575813069 
2398	-0.212330942271478 
2399	-0.246098087538888 
2400	-0.323292899408799 
2401	-0.222630315188837 
2402	-5.67141160267147E-02 
2403	 8.85596464865326E-02 
2404	 0.218944605615183 
2405	 0.10475775009158 
2406	 0.183644031884965 
2407	 0.127633341027283 
2408	-0.119210461616212 
2409	-0.119089616457911 
2410	-0.225745889669306 
2411	-0.203449125530404 
2412	-5.30152214329942E-02 
2413	 3.55113156755715E-02 
2414	 0.159580757539865 
2415	 0.322644474966097 
2416	 1.31215193228649 
2417	-2.30093144212103 
2418	-33.1836250370942 
2419	 1.65248385045401 
2420	-0.167024782896871 
2421	-0.478156057204831 
2422	 7.60813144550497 
2423	 4.90734324381749 
2424	-130.951224158109 
2425	-2.97109903647684 
2426	-0.699582196142852 
2427	-0.210371098291002 
2428	-0.239182797785688 
2429	-0.29096329452325 
2430	-0.29764831726383 
2431	-4.91721664038873E-02 
2432	 0.221339064293225 
2433	 0.680507927060179 
2434	 0.989816505040809 
2435	 0.85642829090166 
2436	 0.59556081614471 
2437	 0.57082995593025 
2438	 0.273462869099904 
2439	 0.383399182044008 
2440	 0.91396196816119 
2441	 2.59741948545263 
2442	 0.697084968921997 
2443	 0.040262216939191 
2444	 0.254111637063027 
2445	 0.326234483100987 
2446	 0.678296163917032 
2447	 3.41030262525434 
2448	 4.8887570528399 
2449	-1.42737861151627 
2450	-1.03099422445826 
2451	-1.86967524447814 
2452	-2.04095232284655 
2453	-1.29391194883981 
2454	-5.74132077019243 
2455	-0.555835776435838 
2456	-0.107278880905623 
2457	-0.408836081253318 
2458	 9.71798162237203E-02 
2459	 0.535184858658185 
2460	 0.45396871390393 
2461	 0.568583011124635 
2462	 0.805648831837414 
2463	 0.609393771543897 
2464	 0.381890948922257 
2465	 7.45661492511057E-02 
2466	-0.6272098284024 
2467	-0.896748247243012 
2468	 0.261982680862304 
2469	 0.82503537929487 
2470	 0.65146311131295 
2471	 0.205267432500724 
2472	 0.105033802495741 
2473	 9.67950321671363E-02 
2474	-6.98055830566593E-02 
2475	-2.27956604503928E-02 
2476	 9.33761191062805E-02 
2477	-4.76863971209442E-02 
2478	-0.238527081041158 
2479	-0.124030072652163 
2480	-2.03771113251915E-02 
2481	 0.330458720115233 
2482	 0.692229007291793 
2483	 0.591783370450033 
2484	 0.165575300743797 
2485	-8.42384877554383E-02 
2486	 0.358153052457723 
2487	 1.01675186125512 
2488	 1.30834181972218 
2489	 1.5380744547487 
2490	 0.892354521717576 
2491	 0.554189250454652 
2492	 0.865121301312522 
2493	 68.8409453868488 
2494	-2.79480084643595 
2495	 2.45895469425662 
2496	 1.51519755076626 
2497	 0.402481650606132 
2498	 0.254867191714921 
2499	 0.371523099631247 
2500	 0.429482081665374 
