Wavelength	rt0728west00006.asd
350	 7.45080887455299E-02 
351	 7.43798051358379E-02 
352	 7.46816286864573E-02 
353	 7.54944118621951E-02 
354	 7.62482158872985E-02 
355	 7.51938778641089E-02 
356	 7.51854045578666E-02 
357	 7.58335834301504E-02 
358	 7.59856765593491E-02 
359	 7.60230529685582E-02 
360	 7.63155324085278E-02 
361	 7.66158857328789E-02 
362	 7.64116108957803E-02 
363	 7.71411673175425E-02 
364	 7.71877128998388E-02 
365	 7.63238351627117E-02 
366	 7.69349311423769E-02 
367	 7.69365129251421E-02 
368	 7.66544822384575E-02 
369	 7.68059464713171E-02 
370	 7.71504818300898E-02 
371	 7.76252274531916E-02 
372	 7.80866045292673E-02 
373	 7.83562120686868E-02 
374	 7.83191529559031E-02 
375	 7.85125911424697E-02 
376	 7.90241910387435E-02 
377	 7.92552495793913E-02 
378	 7.94031434893557E-02 
379	 7.95020501666094E-02 
380	 7.96377287141384E-02 
381	 8.02130958973837E-02 
382	 8.00729751298139E-02 
383	 0.080008541239207 
384	 8.12764819341529E-02 
385	 8.13024014457324E-02 
386	 8.14324698223272E-02 
387	 8.21726595663351E-02 
388	 8.27349726991855E-02 
389	 8.27250034611348E-02 
390	 8.26767113097302E-02 
391	 0.082968525449464 
392	 8.30864804886144E-02 
393	 8.36112943832241E-02 
394	 8.42303142693873E-02 
395	 8.44129115003604E-02 
396	 8.42833137885617E-02 
397	 8.43394623991967E-02 
398	 8.46793849523656E-02 
399	 8.50443606463246E-02 
400	 8.53449363422906E-02 
401	 8.54451522307091E-02 
402	 8.54109506311511E-02 
403	 8.57489301575935E-02 
404	 8.60484928789706E-02 
405	 8.63278217666474E-02 
406	 8.67062321766629E-02 
407	 8.69279419176188E-02 
408	 0.087123273635045 
409	 8.73355223940925E-02 
410	 8.75080203204144E-02 
411	 8.79005766166753E-02 
412	 8.84061708689558E-02 
413	 8.88281926097865E-02 
414	 8.88925633526438E-02 
415	 8.90619379333409E-02 
416	 8.94560768485959E-02 
417	 8.99690822599499E-02 
418	 0.090103207630372 
419	 9.04460773804122E-02 
420	 0.091024815243496 
421	 9.12121631718905E-02 
422	 9.15767400079133E-02 
423	 9.20683768528432E-02 
424	 9.25542563261938E-02 
425	 9.30506949119142E-02 
426	 9.35255170821346E-02 
427	 9.39528187889279E-02 
428	 9.43334726044729E-02 
429	 9.48052381100216E-02 
430	 9.53922768868263E-02 
431	 9.59879600666939E-02 
432	 9.63590016158142E-02 
433	 0.096985688056153 
434	 9.75769362395867E-02 
435	 9.79176336858493E-02 
436	 0.098560635658794 
437	 0.099003337381127 
438	 9.93346417562013E-02 
439	 9.99316877719201E-02 
440	 0.100624637168625 
441	 0.101259078762613 
442	 0.101773164871883 
443	 0.102237331864897 
444	 0.102663724586639 
445	 0.103142177609793 
446	 0.10371602894349 
447	 0.104206015378091 
448	 0.104588053270142 
449	 0.104911686103454 
450	 0.105284028107568 
451	 0.105826626694337 
452	 0.106238517566937 
453	 0.106422290549411 
454	 0.106808146371001 
455	 0.107261900174852 
456	 0.107659025538612 
457	 0.107936791010702 
458	 0.108412669083717 
459	 0.108710230690495 
460	 0.108875949351046 
461	 0.109379445721333 
462	 0.109625577844741 
463	 0.10979740370781 
464	 0.110134388565566 
465	 0.110612953395351 
466	 0.110954575731168 
467	 0.111195373002504 
468	 0.111517228789066 
469	 0.111810496975875 
470	 0.112203718010442 
471	 0.112651874638688 
472	 0.112856847947691 
473	 0.113173341140086 
474	 0.113542850386034 
475	 0.113869359560168 
476	 0.114339085777419 
477	 0.114741557277707 
478	 0.115065838305176 
479	 0.115438412574094 
480	 0.115820583028634 
481	 0.116162501208482 
482	 0.116516977129916 
483	 0.117168402212603 
484	 0.117626914340118 
485	 0.118059838514948 
486	 0.118746834562454 
487	 0.119142854728569 
488	 0.119555595265093 
489	 0.120091420234627 
490	 0.120619023720332 
491	 0.121107871568302 
492	 0.121563994397949 
493	 0.122045191760673 
494	 0.122736876724753 
495	 0.12344699562453 
496	 0.124073925455822 
497	 0.12460275624972 
498	 0.125284225247363 
499	 0.126019071300442 
500	 0.126744137136124 
501	 0.127512544696749 
502	 0.128311071255545 
503	 0.12895214477743 
504	 0.129380819470243 
505	 0.130250614955118 
506	 0.131065374274939 
507	 0.131691404448229 
508	 0.132308023575196 
509	 0.132893488093825 
510	 0.13351791715533 
511	 0.134212152240026 
512	 0.13489660010506 
513	 0.135626928328707 
514	 0.136463171562683 
515	 0.137419843744726 
516	 0.138235858978694 
517	 0.139058280151194 
518	 0.139922212167057 
519	 0.14068217054803 
520	 0.141678069205589 
521	 0.142646876636962 
522	 0.1433737225719 
523	 0.144277681422342 
524	 0.145174614212574 
525	 0.146087337349016 
526	 0.147154546616885 
527	 0.147981926905022 
528	 0.148827505819498 
529	 0.149848058025319 
530	 0.150836104328891 
531	 0.151717622336214 
532	 0.152581319633486 
533	 0.153556076766711 
534	 0.154565053808761 
535	 0.155564203510822 
536	 0.156570321558972 
537	 0.157656754017174 
538	 0.15872648369612 
539	 0.159758093440467 
540	 0.16077411871628 
541	 0.16189183799354 
542	 0.162865572949131 
543	 0.163816981153053 
544	 0.16503506983382 
545	 0.165919045759949 
546	 0.166740590527699 
547	 0.167725026784127 
548	 0.168806988275551 
549	 0.169806991849119 
550	 0.170739948308966 
551	 0.171699822222679 
552	 0.172752050294459 
553	 0.173682451977606 
554	 0.174560316401348 
555	 0.175772650775229 
556	 0.176820908966932 
557	 0.177711352847422 
558	 0.178561640457317 
559	 0.179444178390012 
560	 0.180389661528515 
561	 0.181328452033577 
562	 0.182145505954605 
563	 0.182911423613977 
564	 0.183715816342045 
565	 0.184580558138709 
566	 0.185403050182239 
567	 0.18615039687928 
568	 0.186840047586596 
569	 0.187501540119865 
570	 0.188091095464149 
571	 0.188647814616596 
572	 0.189203095095671 
573	 0.189767226183851 
574	 0.190188047709269 
575	 0.190536622524907 
576	 0.190892977851849 
577	 0.191193578948047 
578	 0.191442320939291 
579	 0.191610266111826 
580	 0.191671585213261 
581	 0.191810761440795 
582	 0.191907887920079 
583	 0.191901653196361 
584	 0.19189175936193 
585	 0.192064729194815 
586	 0.192408447445811 
587	 0.192803198598844 
588	 0.193086598472691 
589	 0.192922481895807 
590	 0.192392502493008 
591	 0.191988597357076 
592	 0.191687757212445 
593	 0.191233201918304 
594	 0.19048313165683 
595	 0.189813419960662 
596	 0.188811826123085 
597	 0.187502073455716 
598	 0.186181009202223 
599	 0.185065526571739 
600	 0.1841113437256 
601	 0.183291437882128 
602	 0.182674842693447 
603	 0.182235016066857 
604	 0.181996298642788 
605	 0.181956590088343 
606	 0.181895762636754 
607	 0.181915546428713 
608	 0.181997155957212 
609	 0.181987890312105 
610	 0.181996876502776 
611	 0.182030547495787 
612	 0.182083948088723 
613	 0.182192204372863 
614	 0.182254197419241 
615	 0.182208569674802 
616	 0.182060926420873 
617	 0.182124057395436 
618	 0.182244402359148 
619	 0.182289309339202 
620	 0.182238145817409 
621	 0.182268635617576 
622	 0.18233192948618 
623	 0.18234917383074 
624	 0.182486088171262 
625	 0.1827383784956 
626	 0.182982117848161 
627	 0.182994845846051 
628	 0.182877846989716 
629	 0.182752911693404 
630	 0.182693009336563 
631	 0.182641465093113 
632	 0.182585996324845 
633	 0.182474068731652 
634	 0.182293203923427 
635	 0.182491373720788 
636	 0.182491045757782 
637	 0.182157562151477 
638	 0.182112323434283 
639	 0.182150196766897 
640	 0.182123956456424 
641	 0.181958424353564 
642	 0.181823436154805 
643	 0.181848134975909 
644	 0.181998647927299 
645	 0.182114911699919 
646	 0.182361032929072 
647	 0.182378971629657 
648	 0.181949821443965 
649	 0.181326874563909 
650	 0.181019966891636 
651	 0.180770347370049 
652	 0.180122116172654 
653	 0.179462971315099 
654	 0.178857200988005 
655	 0.178162077469522 
656	 0.177086654709445 
657	 0.175914420542778 
658	 0.175041902603819 
659	 0.174540620692919 
660	 0.173577306614767 
661	 0.172919949659182 
662	 0.172575693812378 
663	 0.172107918419629 
664	 0.171671931484065 
665	 0.171248377872534 
666	 0.170845046652856 
667	 0.170558992186261 
668	 0.170368171991832 
669	 0.170206885145184 
670	 0.170008966346948 
671	 0.169768732806272 
672	 0.169722220623188 
673	 0.169851705894193 
674	 0.169906247961798 
675	 0.170041784387159 
676	 0.170223296313948 
677	 0.170394870602686 
678	 0.170511006911958 
679	 0.170805188749778 
680	 0.171193546682129 
681	 0.171478660767776 
682	 0.171811448867766 
683	 0.172257100154378 
684	 0.172821793436374 
685	 0.173505611222986 
686	 0.174456278347925 
687	 0.175072757308155 
688	 0.174961170089717 
689	 0.175138803349257 
690	 0.175446441300315 
691	 0.175818002970372 
692	 0.176178325075616 
693	 0.17594360255875 
694	 0.175323543391747 
695	 0.17454832441987 
696	 0.173436720472938 
697	 0.172936079672099 
698	 0.172664753177531 
699	 0.171974308653452 
700	 0.171104008318542 
701	 0.169840174625745 
702	 0.168347508855777 
703	 0.166989535356049 
704	 0.165697664162221 
705	 0.164423599372029 
706	 0.163052619111942 
707	 0.161174728473126 
708	 0.159207459053344 
709	 0.157245753358954 
710	 0.155250204943095 
711	 0.15310675409575 
712	 0.150808811143609 
713	 0.148523311486892 
714	 0.146548876262694 
715	 0.145324215914099 
716	 0.144157678849636 
717	 0.14214917145067 
718	 0.139275668906494 
719	 0.13546580133935 
720	 0.131985439736227 
721	 0.129125329617769 
722	 0.127376849836475 
723	 0.125180144286241 
724	 0.122257862119832 
725	 0.11960742187149 
726	 0.116675181847183 
727	 0.113445496119064 
728	 0.110035158089865 
729	 0.106594126110408 
730	 0.102808243805874 
731	 9.91445897791114E-02 
732	 9.59988654845935E-02 
733	 9.35768648706133E-02 
734	 9.16761434420275E-02 
735	 9.00957219867745E-02 
736	 8.85575618362277E-02 
737	 8.74776669277763E-02 
738	 8.66348404864005E-02 
739	 8.58276245067604E-02 
740	 8.52996101790276E-02 
741	 8.48618516529039E-02 
742	 8.45371976941549E-02 
743	 8.44101594117242E-02 
744	 8.41738664424207E-02 
745	 8.40743978563054E-02 
746	 8.41312328424528E-02 
747	 8.39910006877162E-02 
748	 8.39502122722282E-02 
749	 8.38898713603639E-02 
750	 8.37135776168142E-02 
751	 8.37474494352499E-02 
752	 8.37113458392393E-02 
753	 8.36935144654219E-02 
754	 8.39174379271166E-02 
755	 8.39330045624738E-02 
756	 8.39034922813001E-02 
757	 8.40261211917651E-02 
758	 8.46130511255791E-02 
759	 8.56364213727836E-02 
760	 8.67288442114667E-02 
761	 8.68957094645231E-02 
762	 8.71670071992906E-02 
763	 8.67369417025178E-02 
764	 8.60479516231136E-02 
765	 8.56697160203858E-02 
766	 8.50995821638679E-02 
767	 0.084989959537401 
768	 8.52456872420873E-02 
769	 8.51040056625067E-02 
770	 8.52287501714889E-02 
771	 8.55479745247563E-02 
772	 8.58468410248195E-02 
773	 8.59160622219747E-02 
774	 8.61536744623457E-02 
775	 8.64583763148218E-02 
776	 0.086604706983792 
777	 0.087067794443038 
778	 8.74138324136132E-02 
779	 8.76223553534438E-02 
780	 8.81290806299251E-02 
781	 8.86191380724264E-02 
782	 8.91141847619668E-02 
783	 8.96322541394512E-02 
784	 9.00261846924187E-02 
785	 9.06653616037626E-02 
786	 9.14159336023767E-02 
787	 9.20212619620959E-02 
788	 9.27308418368345E-02 
789	 9.33384872179919E-02 
790	 9.37928876319143E-02 
791	 9.42038337374473E-02 
792	 9.45946883710715E-02 
793	 9.50134845293138E-02 
794	 9.56039954441427E-02 
795	 9.66624108856426E-02 
796	 9.71552581560592E-02 
797	 9.75561749814837E-02 
798	 9.83619300640858E-02 
799	 9.83918531223396E-02 
800	 9.89146646724645E-02 
801	 9.96906898331254E-02 
802	 9.97626779037558E-02 
803	 0.099959997259497 
804	 0.10002568248115 
805	 9.99849220571649E-02 
806	 0.100225050828563 
807	 0.100209834080139 
808	 0.100248821197875 
809	 0.100570318684802 
810	 0.100721587670771 
811	 0.100904753045473 
812	 0.101279365766796 
813	 0.101816075992456 
814	 0.10145651257767 
815	 0.100831732111639 
816	 0.100099272374858 
817	 9.89492107799113E-02 
818	 9.77423719429541E-02 
819	 9.67053578779137E-02 
820	 9.58563714678719E-02 
821	 9.51502889696946E-02 
822	 9.36215846026862E-02 
823	 9.14796032473526E-02 
824	 8.93585113135628E-02 
825	 8.75518058352582E-02 
826	 8.56975883149669E-02 
827	 8.36288943198194E-02 
828	 8.14790826128782E-02 
829	 7.95724581323707E-02 
830	 7.79852766842245E-02 
831	 7.65845566737309E-02 
832	 7.52055377358848E-02 
833	 7.41627967788681E-02 
834	 7.33245495482548E-02 
835	 7.26532537317894E-02 
836	 7.23127014614091E-02 
837	 0.071482751254283 
838	 7.07238256924257E-02 
839	 7.04800715765089E-02 
840	 7.01403945302792E-02 
841	 0.069919659307462 
842	 6.96870952145087E-02 
843	 6.92685016707035E-02 
844	 6.88110824337001E-02 
845	 6.84965269395462E-02 
846	 6.82372031662644E-02 
847	 6.78155676890514E-02 
848	 6.76609317788927E-02 
849	 6.74322065368757E-02 
850	 6.70575908596533E-02 
851	 6.68998976456086E-02 
852	 6.67937912625818E-02 
853	 6.67112002865947E-02 
854	 0.066567529454057 
855	 0.066099511477489 
856	 6.59860693119506E-02 
857	 6.60059358656719E-02 
858	 6.58156624908621E-02 
859	 6.55993775354124E-02 
860	 6.54340425399696E-02 
861	 6.52514436093024E-02 
862	 0.06499824236329 
863	 6.52928402597578E-02 
864	 6.49316302649573E-02 
865	 6.40534142695943E-02 
866	 6.40382738174778E-02 
867	 6.45136395439046E-02 
868	 0.064468768749075 
869	 6.37967265781266E-02 
870	 6.36202740138614E-02 
871	 6.34067594670022E-02 
872	 6.31803292009848E-02 
873	 6.30186246406465E-02 
874	 6.28841426760129E-02 
875	 6.27086381296054E-02 
876	 6.24555723521362E-02 
877	 6.21224967782091E-02 
878	 6.17284056955228E-02 
879	 6.17227851905378E-02 
880	 6.14930291398191E-02 
881	 6.04565520406041E-02 
882	 6.11525136561368E-02 
883	 6.14650053515977E-02 
884	 6.09360040077881E-02 
885	 6.05675237007795E-02 
886	 6.05558398088238E-02 
887	 6.05853533490338E-02 
888	 6.04460689369367E-02 
889	 6.01781719169279E-02 
890	 6.04452008106084E-02 
891	 6.06215840374793E-02 
892	 6.04148858303223E-02 
893	 6.06792910325797E-02 
894	 6.08263895900371E-02 
895	 6.10249181211183E-02 
896	 0.061452526980176 
897	 6.15307996852976E-02 
898	 6.16766123673744E-02 
899	 6.15489786294697E-02 
900	 6.08351065285859E-02 
901	 6.00414437186224E-02 
902	 6.00672273896009E-02 
903	 6.03209644932256E-02 
904	 6.00060420846242E-02 
905	 0.060338792627628 
906	 5.97576458751102E-02 
907	 5.90068720062305E-02 
908	 6.00741784235042E-02 
909	 5.89549031710106E-02 
910	 5.95505112567141E-02 
911	 6.12793034310933E-02 
912	 5.96732648073398E-02 
913	 6.07771421400689E-02 
914	 6.00922639450497E-02 
915	 5.70022615124883E-02 
916	 5.64963945590663E-02 
917	 5.84800981160842E-02 
918	 5.88277163364509E-02 
919	 5.69790137873529E-02 
920	 5.71780556894951E-02 
921	 5.64790315129386E-02 
922	 5.61879555100004E-02 
923	 0.057221627091879 
924	 0.058017166798354 
925	 5.77032540247024E-02 
926	 5.64296092758846E-02 
927	 5.60780349899206E-02 
928	 6.40678755530888E-02 
929	 6.05834003048309E-02 
930	 5.01230698128462E-02 
931	 5.54136132316837E-02 
932	 6.88432924628656E-02 
933	 7.74276829105075E-02 
934	 6.91386588018488E-02 
935	 5.07310413220062E-02 
936	 5.85374780240216E-02 
937	 6.06061932331037E-02 
938	 5.64693115683363E-02 
939	 5.48621644154218E-02 
940	 5.70382536059727E-02 
941	 6.29318608824341E-02 
942	 6.70566330229389E-02 
943	 6.26562451948645E-02 
944	 5.80546178256662E-02 
945	 5.73062300994403E-02 
946	 6.05725582055653E-02 
947	 6.44397306961533E-02 
948	 6.22593661807252E-02 
949	 6.25727169916424E-02 
950	 6.32908219159087E-02 
951	 5.84818264487735E-02 
952	 6.36842389645262E-02 
953	 6.21557707163111E-02 
954	 5.80321242306873E-02 
955	 6.52806280943683E-02 
956	 6.11972662693553E-02 
957	 5.67942829655466E-02 
958	 5.54693660585466E-02 
959	 5.40270611569952E-02 
960	 5.40422027563907E-02 
961	 5.41164523868888E-02 
962	 5.59167025476233E-02 
963	 6.09993700739614E-02 
964	 5.77803571142701E-02 
965	 5.31673974586772E-02 
966	 5.19662567752422E-02 
967	 5.48284804752324E-02 
968	 5.13073280987292E-02 
969	 5.19534077182002E-02 
970	 5.53860191446853E-02 
971	 5.10572913907286E-02 
972	 5.05305028429922E-02 
973	 5.28331871771917E-02 
974	 5.43092040602294E-02 
975	 5.12167901864972E-02 
976	 4.85644306364467E-02 
977	 5.08101980775873E-02 
978	 5.56611462663208E-02 
979	 5.61359662819711E-02 
980	 5.20591688908272E-02 
981	 5.07718624832593E-02 
982	 5.26288094844909E-02 
983	 5.25635379803915E-02 
984	 5.32838620944285E-02 
985	 5.18419837207401E-02 
986	 5.00156763421218E-02 
987	 5.21873448512551E-02 
988	 5.27312975050704E-02 
989	 5.15782971140198E-02 
990	 5.05207825376895E-02 
991	 5.17509587957719E-02 
992	 5.35372023573321E-02 
993	 5.28503788942207E-02 
994	 5.14446535025468E-02 
995	 5.29729225023617E-02 
996	 5.10047616081967E-02 
997	 5.10122739110831E-02 
998	 5.18198665828373E-02 
999	 4.91732240925356E-02 
1000	 4.84796428954244E-02 
1001	 4.99562389376902E-02 
1002	 5.10308366649136E-02 
1003	 5.13231780270524E-02 
1004	 5.08688329309506E-02 
1005	 5.09807246768004E-02 
1006	 5.12490947626219E-02 
1007	 5.10681176241088E-02 
1008	 5.06834725717363E-02 
1009	 5.11865225239002E-02 
1010	 5.04842811585187E-02 
1011	 4.95360684170248E-02 
1012	 4.99444877771389E-02 
1013	 4.99449176271756E-02 
1014	 5.02848123962861E-02 
1015	 5.14615858490211E-02 
1016	 5.17361425233447E-02 
1017	 5.19563163064074E-02 
1018	 5.15858310544459E-02 
1019	 0.05011349449403 
1020	 4.95982801320627E-02 
1021	 0.049146933718302 
1022	 4.86604186216996E-02 
1023	 0.049310313762493 
1024	 4.93092738840135E-02 
1025	 4.90930292911619E-02 
1026	 4.91668313371192E-02 
1027	 4.94937458219661E-02 
1028	 5.01944754238616E-02 
1029	 5.03124058840689E-02 
1030	 0.050485115780139 
1031	 0.05047456175087 
1032	 4.96913106514491E-02 
1033	 4.96321297344228E-02 
1034	 4.99064780486584E-02 
1035	 5.03255914186603E-02 
1036	 5.12591314745599E-02 
1037	 5.16507703110624E-02 
1038	 5.20119248342408E-02 
1039	 5.24853108369696E-02 
1040	 5.15288410441313E-02 
1041	 5.09358516209631E-02 
1042	 5.07083184746562E-02 
1043	 5.02660875649136E-02 
1044	 5.03385201191976E-02 
1045	 5.13299356108552E-02 
1046	 5.14672277447743E-02 
1047	 5.11066711816452E-02 
1048	 0.051359433214474 
1049	 5.18984428565086E-02 
1050	 5.19697452774966E-02 
1051	 0.052168009056194 
1052	 5.22756382748888E-02 
1053	 5.18379355538771E-02 
1054	 5.16127006030102E-02 
1055	 5.13215669819854E-02 
1056	 5.15184006320649E-02 
1057	 5.19285606317907E-02 
1058	 5.27081021628444E-02 
1059	 0.052618588182381 
1060	 5.25607152154371E-02 
1061	 5.24584524486793E-02 
1062	 5.13626751204362E-02 
1063	 5.12033553796648E-02 
1064	 5.19569361366391E-02 
1065	 5.21408760953891E-02 
1066	 5.23509663970955E-02 
1067	 0.052282105092508 
1068	 5.17309614672665E-02 
1069	 5.15989070307791E-02 
1070	 5.13905494245517E-02 
1071	 5.13732001821015E-02 
1072	 5.19106513314664E-02 
1073	 5.21175034723734E-02 
1074	 5.23818632174398E-02 
1075	 5.26557986958511E-02 
1076	 5.29167101518258E-02 
1077	 5.33658331592771E-02 
1078	 5.32902564774392E-02 
1079	 5.27612100339906E-02 
1080	 5.25483520271075E-02 
1081	 5.19508317172884E-02 
1082	 5.18434044078437E-02 
1083	 5.25690262716498E-02 
1084	 5.26060966330755E-02 
1085	 5.23978278389425E-02 
1086	 5.22085138419413E-02 
1087	 5.09864796243268E-02 
1088	 5.08063496923244E-02 
1089	 5.11293972819556E-02 
1090	 5.23311980609389E-02 
1091	 0.052690793441314 
1092	 5.35919996193452E-02 
1093	 5.38076725203334E-02 
1094	 5.28635676918704E-02 
1095	 5.26460808239863E-02 
1096	 5.25613326039754E-02 
1097	 5.29203373608864E-02 
1098	 5.42090796157217E-02 
1099	 5.43168363277692E-02 
1100	 5.38195805733538E-02 
1101	 5.38889815857501E-02 
1102	 5.26513302469248E-02 
1103	 5.29579820899748E-02 
1104	 5.60651123305727E-02 
1105	 5.74307854365855E-02 
1106	 5.64102361622218E-02 
1107	 5.56142059737852E-02 
1108	 5.43729177438414E-02 
1109	 5.43751295749159E-02 
1110	 5.49931395385594E-02 
1111	 5.99120034675915E-02 
1112	 6.06560940169593E-02 
1113	 5.79419098400248E-02 
1114	 0.05723159917193 
1115	 0.055028431563448 
1116	 5.53956002303979E-02 
1117	 5.93266385285245E-02 
1118	 6.17583336085577E-02 
1119	 6.88862636635819E-02 
1120	 7.24724393236373E-02 
1121	 7.18278667914511E-02 
1122	 0.067934984787628 
1123	 5.81334510565918E-02 
1124	 0.048219022625436 
1125	 4.54844782102578E-02 
1126	 6.87327830145643E-02 
1127	 9.70967801344617E-02 
1128	 8.98852885913581E-02 
1129	 8.66466993210656E-02 
1130	 7.28453258638859E-02 
1131	 0.068958009113774 
1132	 6.36681353732985E-02 
1133	 6.72156117602853E-02 
1134	 7.67345213715287E-02 
1135	 7.58590092375381E-02 
1136	 7.61234028730773E-02 
1137	 7.55701552874774E-02 
1138	 7.01197122332601E-02 
1139	 6.57694154997984E-02 
1140	 6.79175997573542E-02 
1141	 6.23646561248162E-02 
1142	 5.54353795912133E-02 
1143	 5.63539876667296E-02 
1144	 5.49224096641381E-02 
1145	 0.056993588304641 
1146	 6.64959644535043E-02 
1147	 6.55460673877887E-02 
1148	 6.09549003023818E-02 
1149	 5.98307628074301E-02 
1150	 5.90988798191081E-02 
1151	 5.73414639039523E-02 
1152	 5.85262233802286E-02 
1153	 6.17113897707488E-02 
1154	 6.11784732995517E-02 
1155	 5.98984491852715E-02 
1156	 6.00252808036402E-02 
1157	 5.64927230616257E-02 
1158	 5.38834695834984E-02 
1159	 5.44761349125192E-02 
1160	 5.25407284336092E-02 
1161	 5.20208561803866E-02 
1162	 5.46493210433227E-02 
1163	 0.055154316829703 
1164	 5.38420721812332E-02 
1165	 0.053392401897418 
1166	 5.40083010062225E-02 
1167	 5.37257627152293E-02 
1168	 5.38713627705899E-02 
1169	 0.053982510096472 
1170	 5.25248023522018E-02 
1171	 5.20597401699996E-02 
1172	 5.22804295075351E-02 
1173	 5.20039193874688E-02 
1174	 5.13464370765699E-02 
1175	 5.18643039866722E-02 
1176	 5.26426322442263E-02 
1177	 5.23818173492907E-02 
1178	 5.24051701903342E-02 
1179	 5.29296070320159E-02 
1180	 5.22459656768441E-02 
1181	 5.12176683855524E-02 
1182	 5.13976300679659E-02 
1183	 5.18098032808435E-02 
1184	 5.19411164477438E-02 
1185	 5.21154797668929E-02 
1186	 5.22727475080432E-02 
1187	 5.18410265799979E-02 
1188	 5.13289779808432E-02 
1189	 0.051685619154748 
1190	 5.23027715185358E-02 
1191	 5.24904072601115E-02 
1192	 5.24038164234914E-02 
1193	 5.20309854874036E-02 
1194	 5.15519018908751E-02 
1195	 5.09656847614115E-02 
1196	 5.12603966307465E-02 
1197	 5.16522267865801E-02 
1198	 5.15342831954527E-02 
1199	 5.20066046646298E-02 
1200	 5.15320142696344E-02 
1201	 5.04403081049614E-02 
1202	 5.05632483012482E-02 
1203	 0.05078027049279 
1204	 5.03813717782349E-02 
1205	 5.05280225400929E-02 
1206	 5.06035021700492E-02 
1207	 5.04121103662839E-02 
1208	 5.11751429902557E-02 
1209	 5.16327408119145E-02 
1210	 5.15109209640454E-02 
1211	 5.15157497322647E-02 
1212	 5.11571949194103E-02 
1213	 5.05172296431225E-02 
1214	 5.01353760275917E-02 
1215	 4.99135707421432E-02 
1216	 5.00124257638545E-02 
1217	 5.01813067773117E-02 
1218	 5.04101443149588E-02 
1219	 5.05062243975406E-02 
1220	 5.02379327074219E-02 
1221	 5.02131149190277E-02 
1222	 5.02695962558129E-02 
1223	 5.02977150356384E-02 
1224	 5.02906984636847E-02 
1225	 5.00094329769244E-02 
1226	 5.00322365815751E-02 
1227	 5.03445446991829E-02 
1228	 5.04456246937394E-02 
1229	 5.04783016005938E-02 
1230	 5.02907202585075E-02 
1231	 4.99067690026888E-02 
1232	 4.99367253056777E-02 
1233	 4.98509199547914E-02 
1234	 4.95313197487456E-02 
1235	 4.95147021045868E-02 
1236	 0.049806242418552 
1237	 4.98051244967206E-02 
1238	 4.98181150262797E-02 
1239	 4.98817461363926E-02 
1240	 4.94920216173318E-02 
1241	 4.93842963338106E-02 
1242	 4.95349442271924E-02 
1243	 4.94585615575638E-02 
1244	 4.95690999114322E-02 
1245	 4.94315699353565E-02 
1246	 4.93784364166727E-02 
1247	 4.93950938197729E-02 
1248	 4.92463702616893E-02 
1249	 0.0497345766215 
1250	 4.97755456325764E-02 
1251	 4.89548930942776E-02 
1252	 4.87124355181117E-02 
1253	 4.90822292972974E-02 
1254	 4.93311361023803E-02 
1255	 4.96048093993582E-02 
1256	 4.97860630090051E-02 
1257	 4.96800951647863E-02 
1258	 4.96835598070666E-02 
1259	 4.98408748266142E-02 
1260	 5.00530210064432E-02 
1261	 5.03552553960921E-02 
1262	 5.02730836765513E-02 
1263	 0.049796326882919 
1264	 4.98319397286766E-02 
1265	 4.97807889485146E-02 
1266	 5.00536805450921E-02 
1267	 5.03602388669196E-02 
1268	 5.04609912278243E-02 
1269	 5.07926676953096E-02 
1270	 5.07783107638924E-02 
1271	 0.050245889480057 
1272	 5.00218459082895E-02 
1273	 5.02657890591215E-02 
1274	 5.04121618094509E-02 
1275	 5.04811763133552E-02 
1276	 5.05149838414549E-02 
1277	 5.04908347501947E-02 
1278	 5.03564410208406E-02 
1279	 5.04202203569942E-02 
1280	 0.050839574058054 
1281	 5.09690581619204E-02 
1282	 5.05127989544518E-02 
1283	 5.02613384598707E-02 
1284	 0.050203745164904 
1285	 5.02040021243281E-02 
1286	 4.98094884940858E-02 
1287	 4.98934388715059E-02 
1288	 5.07766832640498E-02 
1289	 5.10374030009428E-02 
1290	 5.09220955805647E-02 
1291	 5.13047699478439E-02 
1292	 5.17359282303648E-02 
1293	 5.15857346782466E-02 
1294	 5.14677513859467E-02 
1295	 0.051316827474546 
1296	 5.12532675392795E-02 
1297	 5.10687197722256E-02 
1298	 5.05614246881518E-02 
1299	 5.05107138569274E-02 
1300	 5.09169533104265E-02 
1301	 5.10727752378391E-02 
1302	 5.12149225037999E-02 
1303	 5.16877463723115E-02 
1304	 5.17831102347878E-02 
1305	 5.16087664844004E-02 
1306	 5.15875988645837E-02 
1307	 5.22826002039709E-02 
1308	 5.24986084174973E-02 
1309	 5.18478144461063E-02 
1310	 5.18262702703739E-02 
1311	 5.25680168759963E-02 
1312	 5.27742754481745E-02 
1313	 5.25364621518282E-02 
1314	 0.052929251673667 
1315	 5.35095271636325E-02 
1316	 5.38617852175755E-02 
1317	 5.47629719359754E-02 
1318	 5.54003075093693E-02 
1319	 5.55426345496324E-02 
1320	 5.55947157126041E-02 
1321	 5.53261811411075E-02 
1322	 5.57242235544533E-02 
1323	 5.57205597261355E-02 
1324	 5.57750666729274E-02 
1325	 5.69402478171255E-02 
1326	 5.79563074434998E-02 
1327	 5.85326357602072E-02 
1328	 6.02527930540832E-02 
1329	 6.09541741122888E-02 
1330	 6.08133035792656E-02 
1331	 6.14814284468337E-02 
1332	 6.19113559848956E-02 
1333	 6.18215197848042E-02 
1334	 0.060921337939223 
1335	 6.10829345550613E-02 
1336	 6.14661778764666E-02 
1337	 6.00229472135009E-02 
1338	 5.75096699844314E-02 
1339	 5.79297306088389E-02 
1340	 5.90097958714269E-02 
1341	 5.78767905476077E-02 
1342	 0.058901782992489 
1343	 5.95257144994785E-02 
1344	 5.38559007029523E-02 
1345	 5.16136054803687E-02 
1346	 5.82649226648989E-02 
1347	 5.77907888602675E-02 
1348	 4.39650443246245E-02 
1349	 4.14488509252365E-02 
1350	 4.93771065087747E-02 
1351	 5.44559621709273E-02 
1352	 0.103681733122645 
1353	 0.128723840050422 
1354	 6.04032999792774E-02 
1355	-7.54545404152282E-03 
1356	 9.59038451234091E-03 
1357	 6.85383852731136E-02 
1358	 0.203519563940631 
1359	 0.222950944799735 
1360	 9.70262549174337E-02 
1361	 7.4735887321488E-03 
1362	-0.434155148102126 
1363	-2.57741521287687E-02 
1364	 0.765036439423727 
1365	 0.567985435866857 
1366	 0.637769624902136 
1367	 3.14081224041542 
1368	 7.95762854085919 
1369	 1.42362411667144 
1370	 1.3647469367578 
1371	 2.78404490509504 
1372	 1.8617359647619 
1373	-6.03806476321923E-02 
1374	-0.190805485898799 
1375	 0.184724129008727 
1376	 0.312706294121073 
1377	 0.687277693168392 
1378	 0.629771938916798 
1379	-8.66525061601286E-02 
1380	-0.178073144993009 
1381	-0.201182124224919 
1382	-0.369248257612892 
1383	-0.121153195001215 
1384	-4.70521373633332E-03 
1385	 0.126186924749163 
1386	 0.213138716880915 
1387	 1.00227889452507 
1388	 1.52008783839817 
1389	-0.284903161867517 
1390	-0.316370749796992 
1391	 0.230113394456306 
1392	 0.548410878272191 
1393	 0.718538634146579 
1394	 1.39850501566546 
1395	 1.92068771044374 
1396	 1.40900725198773 
1397	 0.941656174565156 
1398	 0.355445435356933 
1399	-0.192793140471517 
1400	 0.20759531057203 
1401	 0.261980229641348 
1402	-2.01768856420915E-02 
1403	 4.62148216892779E-02 
1404	 0.239373135277318 
1405	 0.285619886989457 
1406	 0.483730220387902 
1407	 0.49163491866686 
1408	 0.293156600391579 
1409	 0.292721352710728 
1410	 0.439663312912924 
1411	 0.28475493955356 
1412	 0.171418573526373 
1413	 3.45691766091332E-02 
1414	-0.194953143811196 
1415	-0.1422197853075 
1416	-0.122151840642881 
1417	-0.359935001943492 
1418	-0.343731691312245 
1419	-0.231566466133856 
1420	-0.218653342839133 
1421	-0.254709100547524 
1422	-0.187076672745848 
1423	-0.129361264885459 
1424	-0.159169599630675 
1425	-0.151720384536474 
1426	-4.98696713465425E-02 
1427	 3.59169178046938E-02 
1428	 0.103852769824942 
1429	 0.114808310103976 
1430	 0.132070733752848 
1431	 0.138414304956395 
1432	 8.16850590793424E-02 
1433	 0.066838914117045 
1434	 0.101771849202802 
1435	 0.107128922542182 
1436	 0.112849851459014 
1437	 6.94256073176651E-02 
1438	 3.78072664007185E-02 
1439	 4.05189779147817E-02 
1440	 7.53454348224762E-03 
1441	-2.23105390595715E-02 
1442	 2.07271200714684E-02 
1443	 6.08753347445527E-02 
1444	 7.29249661343461E-02 
1445	 0.103557156858009 
1446	 0.111886336791198 
1447	 0.07813297503633 
1448	 7.43033539519155E-02 
1449	 0.081011449831348 
1450	 6.13731284943237E-02 
1451	 6.04786597144507E-02 
1452	 6.49954678320473E-02 
1453	 6.43779109594806E-02 
1454	 6.49355099321699E-02 
1455	 7.06931270677021E-02 
1456	 7.04285327647428E-02 
1457	 6.60152170644049E-02 
1458	 6.47417019404327E-02 
1459	 6.42439692974182E-02 
1460	 6.38685878790039E-02 
1461	 6.33757021391424E-02 
1462	 6.27968557357269E-02 
1463	 6.41064682149165E-02 
1464	 6.28652005607057E-02 
1465	 5.81409226481793E-02 
1466	 5.55247928612449E-02 
1467	 0.049658617281065 
1468	 5.24068613535651E-02 
1469	 6.58800627685437E-02 
1470	 6.72704829796836E-02 
1471	 6.56097426110319E-02 
1472	 6.76540732125989E-02 
1473	 6.49306050844396E-02 
1474	 6.39401828500219E-02 
1475	 6.73127791536253E-02 
1476	 6.94976088513323E-02 
1477	 0.071864431914185 
1478	 6.83265937479818E-02 
1479	 6.07017118331407E-02 
1480	 6.04953231241639E-02 
1481	 5.88832054888269E-02 
1482	 5.89588952232039E-02 
1483	 6.66547001610047E-02 
1484	 6.80476656833092E-02 
1485	 6.43025134634689E-02 
1486	 6.37398317737248E-02 
1487	 6.48729481394015E-02 
1488	 6.35837340936071E-02 
1489	 6.24867486994614E-02 
1490	 6.08864049852836E-02 
1491	 5.57796826323887E-02 
1492	 5.58445064500501E-02 
1493	 5.91792644330489E-02 
1494	 5.97068277759021E-02 
1495	 0.0620285930429 
1496	 6.21180088830161E-02 
1497	 5.84512103146815E-02 
1498	 5.76197752181261E-02 
1499	 5.80287786947043E-02 
1500	 5.76863753148165E-02 
1501	 0.058117008294852 
1502	 0.058239268809939 
1503	 5.79831694813812E-02 
1504	 5.73056868032091E-02 
1505	 5.60037737012148E-02 
1506	 5.55853773032226E-02 
1507	 5.63473488737202E-02 
1508	 5.65879774352662E-02 
1509	 5.63497087017096E-02 
1510	 5.64876751996137E-02 
1511	 5.59445669028271E-02 
1512	 5.51578713781179E-02 
1513	 0.055453543001927 
1514	 5.59647112908479E-02 
1515	 5.57649987041833E-02 
1516	 5.51286025250368E-02 
1517	 5.54051240251275E-02 
1518	 5.60095994762852E-02 
1519	 5.51675586027692E-02 
1520	 5.48207132379847E-02 
1521	 5.47398892711346E-02 
1522	 5.36891152414497E-02 
1523	 5.37795089347352E-02 
1524	 5.44700008066157E-02 
1525	 5.43749186740976E-02 
1526	 5.40767482933086E-02 
1527	 5.37179108704108E-02 
1528	 5.32826046890343E-02 
1529	 5.33069735647156E-02 
1530	 5.37279591427918E-02 
1531	 5.39128241494061E-02 
1532	 0.053697810815758 
1533	 5.35448465183568E-02 
1534	 5.39153143785802E-02 
1535	 5.42585892514489E-02 
1536	 5.41886398437352E-02 
1537	 0.054107954046484 
1538	 0.054110436480987 
1539	 5.45051302127381E-02 
1540	 5.48314023805759E-02 
1541	 5.49078463330522E-02 
1542	 5.51756715947447E-02 
1543	 5.44585103922946E-02 
1544	 5.36808623761834E-02 
1545	 5.38848776340153E-02 
1546	 5.36232292438029E-02 
1547	 5.35161607117432E-02 
1548	 5.40740847016753E-02 
1549	 5.39888433340073E-02 
1550	 5.32355209209158E-02 
1551	 5.28139213497926E-02 
1552	 0.052945181471185 
1553	 5.31207090189618E-02 
1554	 5.32802493961059E-02 
1555	 5.36938328268119E-02 
1556	 5.38294444896392E-02 
1557	 5.33382166459427E-02 
1558	 5.29804011700344E-02 
1559	 5.25860501701297E-02 
1560	 5.21123872129181E-02 
1561	 5.22051996230595E-02 
1562	 5.23807319805099E-02 
1563	 5.24777981406521E-02 
1564	 5.26222000741541E-02 
1565	 5.28900167269468E-02 
1566	 5.32679853684556E-02 
1567	 5.31438314784172E-02 
1568	 5.28585869670399E-02 
1569	 5.30335824097657E-02 
1570	 0.052863899652463 
1571	 5.29728966431312E-02 
1572	 5.33697247287808E-02 
1573	 5.25763057983586E-02 
1574	 5.20913394333909E-02 
1575	 5.21113057598235E-02 
1576	 5.22620654370513E-02 
1577	 5.27686090112192E-02 
1578	 5.29019439088742E-02 
1579	 5.31975450014749E-02 
1580	 5.31131775436336E-02 
1581	 5.26772656952306E-02 
1582	 5.27010490808136E-02 
1583	 5.27793737410903E-02 
1584	 5.26247584735875E-02 
1585	 5.22523219416282E-02 
1586	 5.21618549946281E-02 
1587	 5.23658070042993E-02 
1588	 5.22634335194018E-02 
1589	 0.05250769973803 
1590	 5.32880790175083E-02 
1591	 5.29469230104356E-02 
1592	 5.21624420217258E-02 
1593	 5.21377047686176E-02 
1594	 5.20981265719046E-02 
1595	 5.26108133370853E-02 
1596	 5.33718068541235E-02 
1597	 0.05307274027732 
1598	 5.24916306159131E-02 
1599	 5.26717820482174E-02 
1600	 5.31804751990164E-02 
1601	 5.32880454621681E-02 
1602	 5.31167010532362E-02 
1603	 5.25253548500663E-02 
1604	 5.20160326823301E-02 
1605	 5.22748508153135E-02 
1606	 5.27195106035155E-02 
1607	 5.28852537687448E-02 
1608	 5.25647857733066E-02 
1609	 5.21626743515114E-02 
1610	 5.19261775983491E-02 
1611	 5.21479575496398E-02 
1612	 5.26801266755428E-02 
1613	 5.28907626881891E-02 
1614	 5.32667078147018E-02 
1615	 5.35452172360504E-02 
1616	 5.31766291193338E-02 
1617	 5.26242191592038E-02 
1618	 5.23976793216632E-02 
1619	 0.052322114444048 
1620	 0.052092631670394 
1621	 5.17838316922473E-02 
1622	 0.051643252239906 
1623	 5.13814284500991E-02 
1624	 5.06206803362966E-02 
1625	 5.09424890737556E-02 
1626	 5.19598148770459E-02 
1627	 5.23051800857673E-02 
1628	 5.33559690094745E-02 
1629	 0.053769527590632 
1630	 5.31340642819682E-02 
1631	 0.05286146135694 
1632	 5.19328768043777E-02 
1633	 5.13140055173058E-02 
1634	 5.15014218393055E-02 
1635	 0.051692337004719 
1636	 5.17824484133261E-02 
1637	 5.18366111161461E-02 
1638	 0.052108613391106 
1639	 5.21488429703767E-02 
1640	 5.22627065612583E-02 
1641	 5.25255838231271E-02 
1642	 5.27449986715191E-02 
1643	 5.29218100313842E-02 
1644	 5.27269720659384E-02 
1645	 5.26247643169613E-02 
1646	 5.25847216454455E-02 
1647	 5.25036351634457E-02 
1648	 5.30412274592065E-02 
1649	 5.38179668735935E-02 
1650	 5.36977302514733E-02 
1651	 5.29260250555371E-02 
1652	 5.28350165683724E-02 
1653	 5.29147752884782E-02 
1654	 5.29377153075588E-02 
1655	 5.33819005733153E-02 
1656	 5.33595758810171E-02 
1657	 5.27230090337695E-02 
1658	 0.05276530348949 
1659	 5.33886863299294E-02 
1660	 5.33172642103417E-02 
1661	 5.32106987990678E-02 
1662	 5.33935268541816E-02 
1663	 5.30934692227701E-02 
1664	 5.29769105458817E-02 
1665	 5.34505510311712E-02 
1666	 5.34353319908374E-02 
1667	 5.27835069079514E-02 
1668	 5.36818561861995E-02 
1669	 5.33734121369665E-02 
1670	 5.26147492417831E-02 
1671	 5.34247037597683E-02 
1672	 5.38697034956526E-02 
1673	 5.34336222946879E-02 
1674	 5.38709199125119E-02 
1675	 5.40532702597554E-02 
1676	 5.33249000688926E-02 
1677	 5.38979930373943E-02 
1678	 5.44497969567415E-02 
1679	 5.32655879447097E-02 
1680	 5.25922355850865E-02 
1681	 5.28421614052043E-02 
1682	 5.28636827959458E-02 
1683	 5.27407309391575E-02 
1684	 5.27886838358637E-02 
1685	 5.31414035114332E-02 
1686	 5.32231586876198E-02 
1687	 5.35169124628429E-02 
1688	 5.42801941182674E-02 
1689	 0.054028986773396 
1690	 5.30863388461696E-02 
1691	 5.31977743345768E-02 
1692	 5.35131885336981E-02 
1693	 5.26357859783422E-02 
1694	 0.051939543106567 
1695	 5.12610705824806E-02 
1696	 5.05918470487143E-02 
1697	 5.16414611012567E-02 
1698	 5.28064468061497E-02 
1699	 5.31389887119143E-02 
1700	 5.31811341055154E-02 
1701	 0.052192681749857 
1702	 5.19875317432966E-02 
1703	 5.29694601654624E-02 
1704	 5.30360004576494E-02 
1705	 5.32206319642999E-02 
1706	 5.36109381283872E-02 
1707	 5.37839918562825E-02 
1708	 0.054717547707318 
1709	 0.054534451363752 
1710	 5.34897937776093E-02 
1711	 5.31782124411677E-02 
1712	 5.27851302996788E-02 
1713	 5.39054542643645E-02 
1714	 5.41054782928649E-02 
1715	 5.34092280299682E-02 
1716	 5.20559456618589E-02 
1717	 5.21800372123808E-02 
1718	 0.05350118211086 
1719	 5.40308906129775E-02 
1720	 5.40091845171315E-02 
1721	 5.41297002277769E-02 
1722	 0.054802548902765 
1723	 5.50954370988367E-02 
1724	 0.054872619774869 
1725	 5.47624447370355E-02 
1726	 5.36348480200348E-02 
1727	 5.31128966454744E-02 
1728	 5.57076387995456E-02 
1729	 5.79138829012363E-02 
1730	 5.72920642012074E-02 
1731	 5.64872340547008E-02 
1732	 5.55341843532372E-02 
1733	 5.37858615889037E-02 
1734	 0.05441708691099 
1735	 5.66253658547775E-02 
1736	 5.71230634228108E-02 
1737	 5.77457577365249E-02 
1738	 5.70687068145967E-02 
1739	 5.55278182489269E-02 
1740	 5.43631423684825E-02 
1741	 5.27382394289638E-02 
1742	 5.36901394483949E-02 
1743	 5.39192495085653E-02 
1744	 5.29803668630509E-02 
1745	 5.50846824760484E-02 
1746	 0.056161245575985 
1747	 5.64549895146187E-02 
1748	 5.75136515116346E-02 
1749	 5.74055137180698E-02 
1750	 5.55947220175281E-02 
1751	 5.55017190498623E-02 
1752	 5.62888808849623E-02 
1753	 5.60015831200816E-02 
1754	 5.53624202411145E-02 
1755	 5.54279817476228E-02 
1756	 5.49555150780432E-02 
1757	 5.55767581633035E-02 
1758	 5.68871158059927E-02 
1759	 0.056920216931123 
1760	 5.77710165207022E-02 
1761	 5.76981586387342E-02 
1762	 5.71640641533733E-02 
1763	 5.77683279879479E-02 
1764	 5.67114584332217E-02 
1765	 5.47768483270443E-02 
1766	 5.59750829304011E-02 
1767	 0.057867414102765 
1768	 0.056858672876688 
1769	 5.91235420607429E-02 
1770	 6.05614210010565E-02 
1771	 5.64752426894818E-02 
1772	 5.89341656275477E-02 
1773	 6.29100596288671E-02 
1774	 6.00361991046212E-02 
1775	 5.97738023402674E-02 
1776	 6.09412457256829E-02 
1777	 6.38481260477969E-02 
1778	 6.36832378440374E-02 
1779	 6.22385948239796E-02 
1780	 0.060559295353571 
1781	 5.29678340242898E-02 
1782	 0.052715065111194 
1783	 6.24142944605649E-02 
1784	 6.27455218426578E-02 
1785	 5.97467772389145E-02 
1786	 5.60691471205969E-02 
1787	 4.10897366193543E-02 
1788	 4.10051022760328E-02 
1789	 5.39610265070582E-02 
1790	 6.50806304032849E-02 
1791	 7.21308176781961E-02 
1792	 7.01672386324318E-02 
1793	 6.65558432709208E-02 
1794	 6.62567277750718E-02 
1795	 7.11832851377027E-02 
1796	 7.90125709028354E-02 
1797	 7.47526778530254E-02 
1798	 6.61570691575655E-02 
1799	 8.38985805827363E-02 
1800	 0.149075916474413 
1801	 0.175449968628098 
1802	 0.150547823857523 
1803	 0.158340996879678 
1804	 0.117044138045743 
1805	 0.095970708571586 
1806	 0.237751193384099 
1807	 0.267098343130815 
1808	 4.23676687363264E-02 
1809	 5.19210986983069E-03 
1810	 1.04167387808444E-02 
1811	 0.10287836474514 
1812	 0.513957874637897 
1813	 0.673625530778859 
1814	 1.61351222167221 
1815	 1.93100784569908 
1816	 0.115638680792807 
1817	 0.04071342471209 
1818	 0.24018568033464 
1819	 0.517867137933838 
1820	 0.824799885560296 
1821	 1.23999674276123 
1822	 1.35277204650443 
1823	-0.624135549766961 
1824	-0.849909200300758 
1825	-0.400265662167867 
1826	-0.137436346965042 
1827	 0.519245754574857 
1828	 0.768761433834194 
1829	 1.42649706246223 
1830	 1.85887872724244 
1831	 0.221775996858275 
1832	 0.558750905669035 
1833	 7.12897240108749 
1834	 3.03518037978175 
1835	 0.266017997344558 
1836	 0.193347817956925 
1837	 0.275229268359632 
1838	 0.093829546442812 
1839	-0.449339306275603 
1840	 2.06194330833442 
1841	 3.43954414255573 
1842	 2.03829131311221 
1843	 4.23821373128682 
1844	-0.103442600464377 
1845	 0.112689779239817 
1846	 8.36543319593783E-02 
1847	 0.109566794234439 
1848	 2.60492636285788 
1849	-0.343371008291688 
1850	-0.540318987366495 
1851	-0.749617851894968 
1852	-0.97243728345832 
1853	-0.962855734286234 
1854	-1.63033388885749 
1855	 1.4795490956246 
1856	 1.16631834180017 
1857	 3.07824763140776 
1858	 2.63510020835096 
1859	 7.6822891808131 
1860	-1.01122321783576 
1861	-0.717306815180269 
1862	 0.192120568993317 
1863	 0.407949788477185 
1864	 0.438640382835752 
1865	 0.446236173800341 
1866	 1.04159741198537 
1867	-0.520142644133536 
1868	 12.0306269230778 
1869	-8.40462453856154 
1870	-0.682396837003635 
1871	-0.144664585970842 
1872	 0.238229994711749 
1873	 0.943171207652206 
1874	 0.94231392204806 
1875	 0.197944190549332 
1876	 0.137800964360542 
1877	 0.344040338156157 
1878	 0.293838226018878 
1879	 0.58971173192876 
1880	 0.788129309191223 
1881	 0.642990995611598 
1882	 0.239678064546665 
1883	 11.1731554535118 
1884	 1.96404559933961 
1885	 3.16523094351175 
1886	 1.49915210618381 
1887	 7.94034232830876 
1888	-3.14573939586327 
1889	-1.78785012784957 
1890	-0.554147777817338 
1891	-0.196219188953696 
1892	-0.10015083558231 
1893	 0.712159448082043 
1894	 0.990153973439261 
1895	 1.37010860017056 
1896	 4.76679008987697 
1897	-6.91879408783385 
1898	-1.39271748347333 
1899	 0.104538991560825 
1900	-0.30494740686893 
1901	-2.08566538619383 
1902	-2.29219184667888 
1903	-5.42096973497821 
1904	-4.20085905302 
1905	-1.48043323588109 
1906	 0.343695617733237 
1907	 6.61459327678858 
1908	 55.2175035703814 
1909	 382.427143882633 
1910	 1.49954371084214 
1911	 6.40272804014909 
1912	 4.26716483452757 
1913	 7.03965303647787 
1914	-0.54266358945976 
1915	-0.639866958108497 
1916	-1.57535319571421 
1917	 4.04924280882414 
1918	 0.659451068713397 
1919	 0.964707051046496 
1920	 0.69221136347155 
1921	 0.756306695481445 
1922	 0.799660730255411 
1923	 1.10804840196899 
1924	 1.87739737388776 
1925	 2.33402185212903 
1926	 2.22201301757196 
1927	 0.499960514627922 
1928	-0.314332425847149 
1929	-1.10028365165074 
1930	 6.22821482125667E-02 
1931	 1.67326915898855 
1932	 1.38291713779185 
1933	 1.34327480559606 
1934	 1.38325899417358 
1935	 1.27380270613256 
1936	 1.36700505849766 
1937	 1.12848706304997 
1938	 0.615534003159285 
1939	 0.649262575875004 
1940	 0.950603308066002 
1941	-16.4739351013243 
1942	-4.91244892484252 
1943	-2.16272950361284 
1944	-0.199824351283916 
1945	-8.72063016510629E-02 
1946	 0.574439427544362 
1947	 0.174647009065083 
1948	-0.244538535747256 
1949	-0.113210138066486 
1950	-0.124646706207406 
1951	-0.289664322240227 
1952	-0.367514587483073 
1953	-0.528814068404754 
1954	-0.492812620879541 
1955	-0.262997700098536 
1956	-0.191658140437837 
1957	-0.115360683545022 
1958	-4.28127787852992E-02 
1959	-0.035330062756593 
1960	-3.42436076293983E-02 
1961	-2.01708171183593E-03 
1962	 2.67212473118987E-02 
1963	 4.38080050211896E-02 
1964	 5.82637246679378E-02 
1965	 7.64482529977141E-02 
1966	 8.48959885925555E-02 
1967	 0.087111471824945 
1968	 8.18099670258609E-02 
1969	 8.28005436694605E-02 
1970	 8.04641981806082E-02 
1971	 7.44449369317244E-02 
1972	 6.96643664545804E-02 
1973	 6.23632502520575E-02 
1974	 5.58219321963939E-02 
1975	 5.20865116279596E-02 
1976	 5.10778908138287E-02 
1977	 5.24248047182078E-02 
1978	 5.04596340782774E-02 
1979	 0.050452147605951 
1980	 0.050273917157225 
1981	 4.96781177558522E-02 
1982	 5.05962496903458E-02 
1983	 5.52347195777323E-02 
1984	 5.42351124462519E-02 
1985	 5.61951924092979E-02 
1986	 5.82839313278795E-02 
1987	 5.72146339844389E-02 
1988	 5.84986093126133E-02 
1989	 0.056948234098428 
1990	 5.79920301944931E-02 
1991	 6.36518090851159E-02 
1992	 0.067982073741388 
1993	 7.02306494782238E-02 
1994	 7.16142748802044E-02 
1995	 7.03759133270436E-02 
1996	 6.58999266037709E-02 
1997	 6.50789669662014E-02 
1998	 6.36031021672018E-02 
1999	 5.69961873682263E-02 
2000	 5.28282856756471E-02 
2001	 4.37837088022957E-02 
2002	 3.82150961042079E-02 
2003	 4.86818636907855E-02 
2004	 5.87024731777677E-02 
2005	 6.51752662009452E-02 
2006	 7.39237278327304E-02 
2007	 7.09588408340215E-02 
2008	 5.93778626005278E-02 
2009	 5.48009814137557E-02 
2010	 4.61924780010651E-02 
2011	 4.84094105598704E-02 
2012	 6.02623221182564E-02 
2013	 7.07328090869119E-02 
2014	 7.13167555759327E-02 
2015	 7.54331251606157E-02 
2016	 7.58518909265135E-02 
2017	 7.70516348243407E-02 
2018	 8.72552081198696E-02 
2019	 9.35553896303901E-02 
2020	 8.69752153343298E-02 
2021	 7.63688567722282E-02 
2022	 6.88002245281371E-02 
2023	 6.22419971233007E-02 
2024	 5.87962553719006E-02 
2025	 6.03747363723273E-02 
2026	 5.99352893014393E-02 
2027	 5.90190631235864E-02 
2028	 5.81489513020071E-02 
2029	 5.73963494431287E-02 
2030	 0.057055524599208 
2031	 5.85199159381231E-02 
2032	 5.94272236622549E-02 
2033	 5.98035260388348E-02 
2034	 0.060665414061437 
2035	 6.17338012945791E-02 
2036	 6.22327481456263E-02 
2037	 5.92997945083764E-02 
2038	 0.058073200877601 
2039	 5.80370801671756E-02 
2040	 5.59391856484541E-02 
2041	 0.055317404814017 
2042	 0.059408677410219 
2043	 6.06818586117935E-02 
2044	 5.91553830184818E-02 
2045	 6.08602288736904E-02 
2046	 6.41102116165915E-02 
2047	 6.38721195103586E-02 
2048	 6.53351754283029E-02 
2049	 6.72244802980632E-02 
2050	 0.067315635483272 
2051	 6.84182415286252E-02 
2052	 6.52491941854736E-02 
2053	 6.28116384568242E-02 
2054	 6.02346050357306E-02 
2055	 5.46336210095915E-02 
2056	 5.38000125368124E-02 
2057	 0.058575725775637 
2058	 5.75693896930601E-02 
2059	 5.57118579459237E-02 
2060	 5.60664237374394E-02 
2061	 5.47725054938328E-02 
2062	 5.27098969296478E-02 
2063	 5.74461756946921E-02 
2064	 6.12082342848362E-02 
2065	 5.90378060265707E-02 
2066	 5.93760735927879E-02 
2067	 6.03884247637516E-02 
2068	 6.23797898644416E-02 
2069	 6.49373272622013E-02 
2070	 6.22626594027529E-02 
2071	 6.09508629122404E-02 
2072	 6.05537479165033E-02 
2073	 5.86057226076983E-02 
2074	 5.69523702820266E-02 
2075	 5.70242445502066E-02 
2076	 5.58644410873623E-02 
2077	 5.50555240069184E-02 
2078	 5.71438120186195E-02 
2079	 5.71959471721897E-02 
2080	 0.056650906549153 
2081	 0.05372282193774 
2082	 0.050187306840414 
2083	 4.91556336449711E-02 
2084	 4.91906557432486E-02 
2085	 4.99398564713771E-02 
2086	 0.052046641554243 
2087	 0.053111164518238 
2088	 5.40119155102854E-02 
2089	 5.61230772722726E-02 
2090	 5.91767530942679E-02 
2091	 0.061287618144594 
2092	 6.19805285164435E-02 
2093	 6.04977454207264E-02 
2094	 0.061064112245215 
2095	 6.13396012869057E-02 
2096	 6.14930725297981E-02 
2097	 6.35859482359054E-02 
2098	 6.39301686588206E-02 
2099	 6.26621183593455E-02 
2100	 6.15513674008785E-02 
2101	 0.062050030027268 
2102	 0.059848483072648 
2103	 5.72877540204099E-02 
2104	 5.96388888523439E-02 
2105	 6.23896351431341E-02 
2106	 6.20516997372503E-02 
2107	 6.07236473701603E-02 
2108	 5.81731465836202E-02 
2109	 5.53487589592104E-02 
2110	 5.47661208156786E-02 
2111	 5.51219279200176E-02 
2112	 5.47246052175997E-02 
2113	 5.50166770160333E-02 
2114	 5.44503233610381E-02 
2115	 5.54747808250236E-02 
2116	 5.90931911919767E-02 
2117	 6.04359529333109E-02 
2118	 6.18691277861892E-02 
2119	 6.13312625979387E-02 
2120	 5.78797977537357E-02 
2121	 5.64519105723841E-02 
2122	 5.66300371443518E-02 
2123	 5.69440151588393E-02 
2124	 5.93696784687876E-02 
2125	 5.81931349674099E-02 
2126	 5.39353047390879E-02 
2127	 0.053301098986553 
2128	 5.41464929867831E-02 
2129	 5.53955982393581E-02 
2130	 5.81825274753346E-02 
2131	 0.058849455703522 
2132	 5.70033629320579E-02 
2133	 5.58797972027779E-02 
2134	 5.53616768621184E-02 
2135	 5.57228646938704E-02 
2136	 5.47387151143418E-02 
2137	 5.37331961970093E-02 
2138	 5.29978236854172E-02 
2139	 5.07721535863178E-02 
2140	 4.97523939732106E-02 
2141	 0.049283300935138 
2142	 4.92344678130739E-02 
2143	 5.00235736080596E-02 
2144	 5.12368628532574E-02 
2145	 0.049962843797818 
2146	 4.84914524743904E-02 
2147	 4.50708099463571E-02 
2148	 4.40879466473826E-02 
2149	 4.96985523524045E-02 
2150	 5.28705426021555E-02 
2151	 5.41097371303558E-02 
2152	 5.65407114613142E-02 
2153	 5.47034554635011E-02 
2154	 5.10174666763398E-02 
2155	 5.16182989246305E-02 
2156	 5.29553911468957E-02 
2157	 5.28661070467599E-02 
2158	 5.15602416938668E-02 
2159	 5.33184861061636E-02 
2160	 5.71053461929104E-02 
2161	 5.69738426942768E-02 
2162	 5.81424821968951E-02 
2163	 5.75372604151266E-02 
2164	 5.05842147484435E-02 
2165	 4.91758897304336E-02 
2166	 5.17300085395323E-02 
2167	 5.19073691357253E-02 
2168	 5.25889289140846E-02 
2169	 5.29146765451135E-02 
2170	 0.053496521156691 
2171	 5.05047169421639E-02 
2172	 4.89210593377562E-02 
2173	 4.98139476873346E-02 
2174	 4.59447108636407E-02 
2175	 4.47340719571977E-02 
2176	 4.60796896722653E-02 
2177	 4.52120426787828E-02 
2178	 4.80282222368553E-02 
2179	 5.14063018016343E-02 
2180	 5.29332996800333E-02 
2181	 0.054881946429602 
2182	 5.49414304286889E-02 
2183	 5.41960569376274E-02 
2184	 5.40945779100031E-02 
2185	 5.24388441230443E-02 
2186	 5.11300549897996E-02 
2187	 4.99500534726348E-02 
2188	 5.04571249279105E-02 
2189	 5.15805909406787E-02 
2190	 5.29685889466461E-02 
2191	 5.71238162897847E-02 
2192	 5.63589078052137E-02 
2193	 5.10745405147686E-02 
2194	 4.99107686706495E-02 
2195	 4.87748530597799E-02 
2196	 4.91292934809461E-02 
2197	 5.46736779213395E-02 
2198	 5.58829547510252E-02 
2199	 5.51304523164144E-02 
2200	 5.18017796367406E-02 
2201	 4.95434484638235E-02 
2202	 4.67396808785092E-02 
2203	 4.64347699707412E-02 
2204	 4.74150520683252E-02 
2205	 4.91524162358936E-02 
2206	 4.61948577126209E-02 
2207	 4.10770007177429E-02 
2208	 0.04181519296729 
2209	 4.24315946497089E-02 
2210	 4.19266540045172E-02 
2211	 4.42709659781445E-02 
2212	 4.40610337212216E-02 
2213	 4.13286730670654E-02 
2214	 4.19799244084796E-02 
2215	 3.86388695386647E-02 
2216	 3.76991611888803E-02 
2217	 3.84940778977366E-02 
2218	 4.01724345508463E-02 
2219	 4.19907675749528E-02 
2220	 4.67707830641855E-02 
2221	 4.90919543511899E-02 
2222	 4.99483835071947E-02 
2223	 5.13783596035972E-02 
2224	 5.37843753543814E-02 
2225	 5.43575079744152E-02 
2226	 5.39630261674115E-02 
2227	 5.40388941193939E-02 
2228	 5.19939931006183E-02 
2229	 5.19597139801536E-02 
2230	 5.37198353575601E-02 
2231	 5.41264281349903E-02 
2232	 5.55928778464963E-02 
2233	 5.47761238658083E-02 
2234	 5.02411604510655E-02 
2235	 5.12229584385916E-02 
2236	 4.75235594779921E-02 
2237	 4.29626917194208E-02 
2238	 3.96622805085932E-02 
2239	 3.38323278732765E-02 
2240	 3.49732690682183E-02 
2241	 4.28017162758611E-02 
2242	 0.049600514409474 
2243	 0.052691381848583 
2244	 4.88350192082884E-02 
2245	 4.19510157414778E-02 
2246	 4.00166422225795E-02 
2247	 3.84106494738889E-02 
2248	 4.08288367721436E-02 
2249	 4.48609272833284E-02 
2250	 0.044224448642677 
2251	 4.45310578456222E-02 
2252	 4.89885039775258E-02 
2253	 5.30352474961825E-02 
2254	 5.58699068024638E-02 
2255	 6.31109563251417E-02 
2256	 6.48382067993908E-02 
2257	 6.09658273266602E-02 
2258	 0.05735206622252 
2259	 5.25280319467952E-02 
2260	 5.06609517258708E-02 
2261	 5.01398871371609E-02 
2262	 4.89778318669658E-02 
2263	 4.97663176150555E-02 
2264	 4.97519063323267E-02 
2265	 4.61235322291653E-02 
2266	 4.96086519810256E-02 
2267	 6.30071859965199E-02 
2268	 6.48203871228625E-02 
2269	 6.35403402347993E-02 
2270	 6.00236251848482E-02 
2271	 4.38174977190441E-02 
2272	 0.041637851560127 
2273	 4.94972310450566E-02 
2274	 0.050713099159577 
2275	 5.50457712264542E-02 
2276	 5.51833144005509E-02 
2277	 4.99265115589444E-02 
2278	 0.046648956211854 
2279	 4.49813275355453E-02 
2280	 4.18611030816828E-02 
2281	 3.59216852136013E-02 
2282	 2.92014820238854E-02 
2283	 0.027174129638894 
2284	 2.94946275362141E-02 
2285	 3.94451706785205E-02 
2286	 4.95404519224944E-02 
2287	 5.72759887744777E-02 
2288	 6.21912669055916E-02 
2289	 5.36670147095788E-02 
2290	 4.50134879172229E-02 
2291	 3.98126919336539E-02 
2292	 3.54683505458596E-02 
2293	 4.45845886132417E-02 
2294	 5.46216202001799E-02 
2295	 6.25860408148285E-02 
2296	 7.11570581353856E-02 
2297	 6.89480519134978E-02 
2298	 6.66170397143014E-02 
2299	 6.30818832524155E-02 
2300	 5.55827778003558E-02 
2301	 5.44968878083264E-02 
2302	 5.11889681259981E-02 
2303	 0.05461964535397 
2304	 5.85030737330847E-02 
2305	 5.13115984327797E-02 
2306	 0.056978595607766 
2307	 6.49558484524293E-02 
2308	 5.86197228474866E-02 
2309	 5.11816210345125E-02 
2310	 0.042239990717112 
2311	 2.48927634556245E-02 
2312	 1.84047823623437E-02 
2313	 2.70914250387205E-02 
2314	 2.53366959539814E-02 
2315	 2.48287193435179E-02 
2316	 3.15553096028094E-02 
2317	 3.65618126543025E-02 
2318	 4.87816285166925E-02 
2319	 5.72268389161839E-02 
2320	 6.81424781992413E-02 
2321	 7.93984417898191E-02 
2322	 7.49619652776593E-02 
2323	 8.07415423745364E-02 
2324	 8.32858384468354E-02 
2325	 6.51383095717693E-02 
2326	 6.44454589417548E-02 
2327	 6.27064338678061E-02 
2328	 3.03472097527511E-02 
2329	 1.07663664236646E-02 
2330	 6.15104075432465E-03 
2331	 2.09434980798337E-03 
2332	 1.44942931282046E-02 
2333	 3.02887098948901E-02 
2334	 4.46957269034159E-02 
2335	 4.72735831356817E-02 
2336	 4.10325118000105E-02 
2337	 4.13931151295611E-02 
2338	 2.42565309548797E-02 
2339	-8.41535039979561E-03 
2340	-0.0243175581967 
2341	-3.20492605033474E-02 
2342	-2.24658880593511E-02 
2343	 1.69613533169561E-02 
2344	 1.60423690906198E-02 
2345	-3.03254103564526E-03 
2346	-8.14967841525859E-03 
2347	-4.11585069096532E-02 
2348	-0.04606625687371 
2349	-7.64511910615483E-03 
2350	-5.3856341846274E-03 
2351	-0.012980933977856 
2352	-4.53902472164002E-03 
2353	-2.18641809245564E-02 
2354	-3.71519270440083E-02 
2355	-2.94368017970621E-02 
2356	-0.037160609588408 
2357	-3.77400346796405E-02 
2358	-1.41856330051095E-02 
2359	-5.38049605638961E-03 
2360	 4.95318811657479E-03 
2361	 0.042924595489291 
2362	 5.03557362315728E-02 
2363	 3.94935237612812E-02 
2364	 5.37202422868739E-02 
2365	 4.39286874005704E-02 
2366	 3.22781739680773E-02 
2367	 4.54181846646929E-02 
2368	 4.89104027798784E-02 
2369	 3.30193040633145E-02 
2370	 5.66140695275435E-04 
2371	-6.25937586830141E-03 
2372	 1.85127050572513E-02 
2373	-2.26186265245497E-03 
2374	-8.45952569786386E-02 
2375	-0.130039214865258 
2376	-0.156008854984496 
2377	-0.196229980765912 
2378	-0.149364428807713 
2379	-9.70363391881496E-02 
2380	-0.136320059638917 
2381	-3.18942688573747E-02 
2382	 8.16284891736824E-02 
2383	 0.089372662472883 
2384	 0.146529642617711 
2385	 0.140937196710345 
2386	 3.14333563839687E-02 
2387	 1.76186400216968E-02 
2388	 1.92448652708064E-02 
2389	-2.10853106603024E-02 
2390	-0.15421394207235 
2391	-0.206778677354231 
2392	-0.140105125591877 
2393	-9.20130801311886E-02 
2394	 0.113876379041166 
2395	 0.165310601116681 
2396	 7.68686177501763E-02 
2397	 2.77439982488853E-02 
2398	-0.135373254053663 
2399	-0.239728975527596 
2400	-0.259162001173705 
2401	-0.273125397917503 
2402	-0.141605411032538 
2403	 4.12769338323369E-02 
2404	 0.162320952891576 
2405	 0.19543494740571 
2406	 8.52569401748188E-02 
2407	-5.09240658690577E-02 
2408	-0.149063443823332 
2409	-0.377944656316565 
2410	-0.346485031478023 
2411	-0.211889173735158 
2412	-0.328854289447672 
2413	-0.235401579938306 
2414	-1.01741467069337E-02 
2415	-1.79811138772197E-03 
2416	 0.215896746093858 
2417	-0.716016152465977 
2418	 15.9105603968006 
2419	-6.81693848560825 
2420	-0.35186484232814 
2421	-7.48746983087892E-02 
2422	-0.930630091883415 
2423	 0.58206977655778 
2424	-122.771718841155 
2425	-3.50563498343775 
2426	-1.06682359722519 
2427	-0.489685690645306 
2428	-0.162928513654757 
2429	 2.57443873761273E-02 
2430	-5.54672072911312E-02 
2431	-0.320350280873873 
2432	-0.431489112352464 
2433	-0.630256315888452 
2434	-0.586814629626588 
2435	-0.424142011972297 
2436	-0.12898879303018 
2437	 0.403081664626038 
2438	 0.208602593948532 
2439	-0.319693544069068 
2440	-0.363561428893072 
2441	-3.16573095702833 
2442	-1.38774389424601 
2443	-0.488346848943872 
2444	-2.89330637518247 
2445	-1.45980355136779 
2446	-1.59064166899071 
2447	-4.25164084299288 
2448	-5.48600553886051 
2449	 1.2043972649284 
2450	 0.37981345693482 
2451	 8.62331061460958E-02 
2452	 1.48183996952901 
2453	 2.40199000934468 
2454	 13.4106324274311 
2455	 29.7592173781833 
2456	 4.35061797626743 
2457	 2.26772681362337 
2458	 1.3398618732754 
2459	 1.01187634725949 
2460	 0.64278962146118 
2461	 0.338924483918946 
2462	 5.68950427413229E-02 
2463	-0.110705853895481 
2464	-0.236074883853897 
2465	-2.32081271173517E-02 
2466	 1.20423057809026 
2467	 3.00841766339044 
2468	 1.24675311715357 
2469	-8.14314629127375E-02 
2470	-0.171910301679101 
2471	 0.110938371051858 
2472	 0.145177010709852 
2473	 0.197609786386949 
2474	 0.325203803671426 
2475	 0.174635250355011 
2476	 7.16159317644186E-02 
2477	 0.402573200788875 
2478	 0.648463985083978 
2479	 0.757048749373392 
2480	 1.60251286810427 
2481	 2.45021004578495 
2482	 0.909997035166014 
2483	 0.309459911550513 
2484	 0.263458664264683 
2485	 0.188222742573838 
2486	 0.124651404596225 
2487	 0.146265499997684 
2488	-4.23185941937129E-02 
2489	-0.133483549264718 
2490	-6.35277660111229E-02 
2491	-0.161340191078663 
2492	-0.282991891671249 
2493	-20.3909381479127 
2494	 1.36659963917607 
2495	-0.454223359233421 
2496	 2.45973607082003 
2497	 1.63551660395432 
2498	 0.312497665136906 
2499	-1.74047180376121E-02 
2500	-0.533356610851091 
