Wavelength	rt0728far00005.asd
350	 6.72919339540168E-02 
351	 6.69964511891082E-02 
352	 6.77233663226146E-02 
353	 0.068272517901482 
354	 6.80715358282036E-02 
355	 6.83834721544194E-02 
356	 6.84571563569815E-02 
357	 6.81923131097139E-02 
358	 6.77791518943727E-02 
359	 0.067640734103552 
360	 6.79914417931159E-02 
361	 6.86103161599415E-02 
362	 6.89844378665617E-02 
363	 6.87430830659271E-02 
364	 6.83986978807816E-02 
365	 6.84242269165528E-02 
366	 6.90771271005471E-02 
367	 6.91142264394889E-02 
368	 6.92043041588721E-02 
369	 6.98598984966571E-02 
370	 6.90672246073675E-02 
371	 6.86661861820091E-02 
372	 6.91688104592319E-02 
373	 7.00670112545221E-02 
374	 0.069912377126698 
375	 0.069870453844927 
376	 7.03263710248581E-02 
377	 7.02189326302313E-02 
378	 6.99880666859851E-02 
379	 0.070371988993595 
380	 7.14612717403175E-02 
381	 7.11642468264976E-02 
382	 7.10796704030026E-02 
383	 7.15024929865252E-02 
384	 7.19714296353172E-02 
385	 0.071716014263357 
386	 7.16547225796941E-02 
387	 7.21242282218612E-02 
388	 7.26408401192156E-02 
389	 0.073009869021515 
390	 7.30293959896545E-02 
391	 7.28089664033528E-02 
392	 7.30885296687781E-02 
393	 7.36701257095515E-02 
394	 7.41966003953431E-02 
395	 0.074355406552768 
396	 7.43203499054215E-02 
397	 7.44422489302123E-02 
398	 0.07481150239884 
399	 0.075271271633338 
400	 7.52785901985726E-02 
401	 7.53051433946374E-02 
402	 7.55781366783432E-02 
403	 7.53560789015818E-02 
404	 7.56776062246899E-02 
405	 0.07621301909578 
406	 7.62778583737789E-02 
407	 0.076341814399983 
408	 7.66046761509538E-02 
409	 0.076931228726751 
410	 7.69143136786603E-02 
411	 7.70962454700733E-02 
412	 7.74167258228602E-02 
413	 7.77662813858346E-02 
414	 7.82495323165292E-02 
415	 7.83782520553267E-02 
416	 7.84806574559001E-02 
417	 7.90212050983836E-02 
418	 7.90291096642524E-02 
419	 7.91606488123442E-02 
420	 7.96339094023517E-02 
421	 8.00794525859571E-02 
422	 8.05628483364322E-02 
423	 8.09949110430795E-02 
424	 8.12942513453174E-02 
425	 8.14229875762099E-02 
426	 0.081834761409409 
427	 8.24411644694384E-02 
428	 8.28734208551788E-02 
429	 8.28962523144178E-02 
430	 8.33680923963473E-02 
431	 0.084319240145802 
432	 8.47192269497585E-02 
433	 8.51660193427331E-02 
434	 0.085613171253926 
435	 8.59685022126557E-02 
436	 8.63970161574536E-02 
437	 8.69806673007399E-02 
438	 8.75826776729705E-02 
439	 8.79912188264286E-02 
440	 8.85173566592256E-02 
441	 8.90390005393971E-02 
442	 8.94669334401137E-02 
443	 8.98228868722107E-02 
444	 9.03512063353281E-02 
445	 9.08394927887771E-02 
446	 9.11042256793161E-02 
447	 0.091614240274793 
448	 0.092010380116449 
449	 9.22871654458697E-02 
450	 9.26894285571685E-02 
451	 9.29279659396997E-02 
452	 9.33212315111244E-02 
453	 9.39137799068356E-02 
454	 9.39945577479068E-02 
455	 9.42666605421817E-02 
456	 0.094660045712272 
457	 9.48913029577563E-02 
458	 9.51448701525108E-02 
459	 9.53500954044158E-02 
460	 0.095547325612385 
461	 9.58864442953186E-02 
462	 9.61890452796849E-02 
463	 9.64090406327743E-02 
464	 9.65674036286782E-02 
465	 9.67837744263869E-02 
466	 9.69729426968415E-02 
467	 9.72138591446922E-02 
468	 9.76289941642099E-02 
469	 9.80701797110092E-02 
470	 0.098288866266667 
471	 9.83243894353193E-02 
472	 9.85984128136243E-02 
473	 9.88535611289794E-02 
474	 9.91352050000511E-02 
475	 9.95023018878215E-02 
476	 9.97898381395318E-02 
477	 0.100125657456335 
478	 0.100438131387724 
479	 0.100572959149027 
480	 0.101071679880966 
481	 0.101622414338795 
482	 0.101936267081266 
483	 0.10196803942567 
484	 0.102320785808998 
485	 0.102862519096211 
486	 0.103249294199902 
487	 0.103725085875997 
488	 0.104166447193724 
489	 0.104559195936204 
490	 0.105012870233368 
491	 0.105586475859091 
492	 0.106134128766228 
493	 0.106580859580665 
494	 0.107168220813085 
495	 0.107749761040791 
496	 0.108308482629597 
497	 0.10888901893574 
498	 0.109459997365587 
499	 0.110106266785068 
500	 0.11080688964351 
501	 0.111363215114273 
502	 0.111898768822439 
503	 0.112511653037462 
504	 0.113215529854461 
505	 0.113700149563149 
506	 0.11434424294887 
507	 0.115122290680818 
508	 0.11570414100932 
509	 0.11646276991819 
510	 0.117183297309132 
511	 0.117725238644721 
512	 0.118328742946242 
513	 0.119020610255946 
514	 0.119809498559997 
515	 0.120651930231502 
516	 0.121353902284537 
517	 0.122059987587703 
518	 0.122843879449457 
519	 0.123652629277744 
520	 0.124427890733553 
521	 0.125237443445749 
522	 0.126110192960097 
523	 0.126800773558252 
524	 0.127589036118375 
525	 0.128442029433929 
526	 0.12913465219423 
527	 0.129964546149615 
528	 0.130777797024772 
529	 0.131531276214799 
530	 0.132558024898682 
531	 0.133463216066116 
532	 0.134211429505071 
533	 0.13493348979754 
534	 0.135877085304628 
535	 0.13671899882599 
536	 0.137437872089496 
537	 0.138382676132586 
538	 0.139300341864505 
539	 0.140128337875851 
540	 0.140894631594423 
541	 0.141769504150312 
542	 0.142619662316335 
543	 0.143443671359104 
544	 0.144319933683189 
545	 0.145185427009697 
546	 0.146075542748039 
547	 0.146981251540761 
548	 0.147791111232272 
549	 0.148526329887957 
550	 0.149318370046479 
551	 0.150263415025688 
552	 0.151024383750962 
553	 0.151684734016829 
554	 0.15237632985829 
555	 0.153245105773485 
556	 0.154047736203702 
557	 0.154800430625107 
558	 0.155565241736646 
559	 0.156375434058972 
560	 0.1570870517688 
561	 0.157676787187692 
562	 0.158225259350148 
563	 0.158963315076603 
564	 0.159613990056239 
565	 0.16005166060922 
566	 0.160578863789386 
567	 0.161034270721525 
568	 0.161461468873085 
569	 0.161960219105838 
570	 0.162545220690124 
571	 0.163020595747231 
572	 0.163334355484337 
573	 0.163602324793096 
574	 0.163965166089603 
575	 0.164397935976836 
576	 0.164799116607247 
577	 0.164990800829217 
578	 0.165130211980061 
579	 0.16528013528933 
580	 0.16544120947063 
581	 0.16563782509258 
582	 0.165782521976141 
583	 0.165809675948853 
584	 0.165701803416286 
585	 0.165660276972051 
586	 0.165569556719134 
587	 0.165268382567836 
588	 0.165141189974477 
589	 0.165028906787066 
590	 0.164863016301722 
591	 0.164706025333048 
592	 0.164495866699004 
593	 0.164294637134326 
594	 0.164081662681433 
595	 0.163489075630499 
596	 0.16286876270073 
597	 0.162284956435254 
598	 0.161648238690164 
599	 0.161033468058245 
600	 0.160471684130167 
601	 0.159983035575033 
602	 0.15957266024034 
603	 0.159344048748897 
604	 0.159257928561283 
605	 0.159200451365919 
606	 0.15892386957084 
607	 0.158906070269304 
608	 0.159112977581368 
609	 0.158965907451045 
610	 0.158803504875093 
611	 0.158787276034291 
612	 0.158931244307149 
613	 0.1589382670395 
614	 0.158890955416675 
615	 0.158824700034567 
616	 0.158762334159868 
617	 0.158793516627835 
618	 0.158753942620506 
619	 0.158657173731789 
620	 0.158858558323177 
621	 0.158926194719974 
622	 0.158860375102778 
623	 0.158790022811199 
624	 0.158702686428269 
625	 0.158735642445525 
626	 0.158815765662719 
627	 0.158688440690846 
628	 0.158788268990624 
629	 0.158787179213632 
630	 0.158544321382036 
631	 0.15883924115389 
632	 0.158776104069058 
633	 0.158511239231271 
634	 0.15862154933473 
635	 0.158678404361021 
636	 0.158722786020815 
637	 0.158748059025629 
638	 0.158612822351504 
639	 0.158654396571844 
640	 0.158740553270483 
641	 0.158657425998246 
642	 0.158471057154692 
643	 0.158318554363489 
644	 0.158211698895874 
645	 0.158057523972046 
646	 0.157859356897503 
647	 0.157659390718933 
648	 0.157512530003683 
649	 0.157504533794569 
650	 0.157149777340244 
651	 0.156648868382394 
652	 0.156395992158387 
653	 0.15599754295862 
654	 0.155332035525149 
655	 0.154459510887768 
656	 0.153780076199952 
657	 0.153246553107601 
658	 0.152674546969771 
659	 0.151974468521773 
660	 0.151460256692805 
661	 0.151025560965805 
662	 0.150578167844845 
663	 0.150072013102172 
664	 0.149770251056627 
665	 0.149515683594793 
666	 0.149213364171877 
667	 0.148982860584019 
668	 0.148838461683881 
669	 0.148651490906544 
670	 0.148349407502711 
671	 0.148402736778864 
672	 0.148339586791324 
673	 0.148152615150942 
674	 0.148280164068511 
675	 0.148287803613208 
676	 0.148385434848296 
677	 0.148698700922941 
678	 0.14886184579642 
679	 0.148788726080509 
680	 0.148763821487704 
681	 0.149150328403497 
682	 0.149482733453229 
683	 0.149718401720564 
684	 0.149871056356038 
685	 0.149990284529029 
686	 0.150209557386205 
687	 0.150459273324462 
688	 0.15061393230797 
689	 0.15069121360351 
690	 0.150860342948232 
691	 0.151025928670953 
692	 0.150946278863131 
693	 0.150885583945183 
694	 0.150668020539811 
695	 0.150348658863398 
696	 0.150390327415785 
697	 0.150014043095285 
698	 0.14929730714468 
699	 0.148609502861064 
700	 0.148022387785419 
701	 0.147724289465479 
702	 0.147394391738681 
703	 0.146411513197609 
704	 0.145629848853533 
705	 0.144793602947483 
706	 0.143703989271913 
707	 0.142575116928145 
708	 0.141332723784548 
709	 0.139928912348755 
710	 0.138343005434354 
711	 0.136608198259663 
712	 0.134830050261915 
713	 0.133031107155201 
714	 0.131090619640541 
715	 0.129177780340398 
716	 0.127279709288816 
717	 0.125435320308401 
718	 0.12287179445076 
719	 0.120185820933147 
720	 0.118089906269756 
721	 0.11635696207958 
722	 0.114636146955439 
723	 0.11247747508946 
724	 0.110000078081626 
725	 0.10739444684598 
726	 0.105282518148424 
727	 0.103016668024668 
728	 0.10013986799466 
729	 9.75520509071027E-02 
730	 9.46071792949237E-02 
731	 9.17065785849243E-02 
732	 0.089331137856006 
733	 0.087362393114272 
734	 8.59122578867642E-02 
735	 8.47826676260626E-02 
736	 8.32850977937104E-02 
737	 8.23863303386803E-02 
738	 8.19102360304781E-02 
739	 8.14675905943599E-02 
740	 8.08019885718261E-02 
741	 8.05271106274031E-02 
742	 8.05046841347988E-02 
743	 8.02657028573784E-02 
744	 8.01842426974523E-02 
745	 8.00335574309688E-02 
746	 0.079832893867824 
747	 7.99957425901601E-02 
748	 8.00330949712411E-02 
749	 7.98807903873238E-02 
750	 0.079689310606815 
751	 7.99492961072339E-02 
752	 7.98738667974394E-02 
753	 7.95505343277064E-02 
754	 7.95295170888845E-02 
755	 7.97532660090043E-02 
756	 7.98259785655504E-02 
757	 7.96917848817801E-02 
758	 7.98705792025874E-02 
759	 0.080008980362351 
760	 8.00571604345828E-02 
761	 8.01155664606487E-02 
762	 0.080037492381881 
763	 8.02963582158085E-02 
764	 0.080448537600455 
765	 8.01336258928433E-02 
766	 0.080315538434905 
767	 8.05373911380577E-02 
768	 8.06314277547902E-02 
769	 8.06979054022911E-02 
770	 8.10157870524119E-02 
771	 8.11559850834514E-02 
772	 8.09481547195929E-02 
773	 8.13066961718485E-02 
774	 8.17340789136501E-02 
775	 8.20434667859119E-02 
776	 8.22106632862692E-02 
777	 8.23317965129901E-02 
778	 8.25258783253796E-02 
779	 8.28383583649594E-02 
780	 8.32340624879378E-02 
781	 8.36671096627254E-02 
782	 8.40932796212611E-02 
783	 8.44658193803005E-02 
784	 8.47117430273886E-02 
785	 8.50326687371181E-02 
786	 8.55636603208752E-02 
787	 8.62758001894336E-02 
788	 0.086493886355273 
789	 8.68896180269114E-02 
790	 8.75061018208878E-02 
791	 8.78639539226695E-02 
792	 8.82792880020911E-02 
793	 8.86721878039235E-02 
794	 8.90289410212002E-02 
795	 0.089498954514872 
796	 9.00922599717948E-02 
797	 9.04579259830206E-02 
798	 9.05082787592182E-02 
799	 9.13414228607305E-02 
800	 9.16851470831235E-02 
801	 9.16666719541788E-02 
802	 9.20942883145058E-02 
803	 9.20788895863961E-02 
804	 9.21319070547852E-02 
805	 9.23879896182611E-02 
806	 0.092466380177003 
807	 9.25039985906489E-02 
808	 0.09243650392801 
809	 9.22350635667098E-02 
810	 9.20478824178925E-02 
811	 9.19105370298735E-02 
812	 9.17304962958743E-02 
813	 9.13938998203979E-02 
814	 9.11436123057012E-02 
815	 9.09623295486697E-02 
816	 9.05283603396624E-02 
817	 8.94942515257319E-02 
818	 0.088821268163758 
819	 8.83836662982245E-02 
820	 8.77127125361369E-02 
821	 8.60732778820611E-02 
822	 8.48809655144974E-02 
823	 8.39876557556366E-02 
824	 8.27276648995254E-02 
825	 8.01252869997736E-02 
826	 7.84291112297978E-02 
827	 7.71761260006985E-02 
828	 0.075234699478072 
829	 7.38531760758534E-02 
830	 7.24110318258654E-02 
831	 7.09372309701716E-02 
832	 6.99586060636112E-02 
833	 6.88929576947636E-02 
834	 0.067864571813446 
835	 6.71783577551476E-02 
836	 6.72474142783109E-02 
837	 6.69662629858365E-02 
838	 6.63966187435417E-02 
839	 6.58456788450391E-02 
840	 0.065495304017925 
841	 6.54713580094783E-02 
842	 6.53472740188536E-02 
843	 6.47464305841472E-02 
844	 6.45184803959739E-02 
845	 6.42429892565941E-02 
846	 6.38436083180744E-02 
847	 6.35149666942366E-02 
848	 6.33725629585304E-02 
849	 6.32218522279315E-02 
850	 6.29823706637561E-02 
851	 6.27708601928716E-02 
852	 6.26962208295444E-02 
853	 6.26731566402993E-02 
854	 6.25658112622308E-02 
855	 6.22399813233113E-02 
856	 6.19859841915833E-02 
857	 6.16688216637015E-02 
858	 6.11994264296136E-02 
859	 0.061089341692231 
860	 6.11545253191187E-02 
861	 6.10876406849965E-02 
862	 6.06833826826853E-02 
863	 6.06976984818778E-02 
864	 6.07526796017083E-02 
865	 6.05521446758921E-02 
866	 6.00312566441241E-02 
867	 5.97653852101381E-02 
868	 5.96162294107138E-02 
869	 0.05939207683322 
870	 5.90058581467779E-02 
871	 5.94687172451437E-02 
872	 5.93834106590651E-02 
873	 5.82499763367412E-02 
874	 5.87727061202201E-02 
875	 5.83345264363089E-02 
876	 5.77209715604711E-02 
877	 5.80403813322928E-02 
878	 5.75267789381812E-02 
879	 5.73168200853652E-02 
880	 5.72414307262887E-02 
881	 5.67055109448867E-02 
882	 5.65228569237592E-02 
883	 5.66514014644653E-02 
884	 5.64460032469052E-02 
885	 5.52333491317274E-02 
886	 5.57267515323028E-02 
887	 5.57058931952771E-02 
888	 5.49500800763634E-02 
889	 5.58960954185966E-02 
890	 0.055666017768211 
891	 5.51317814286694E-02 
892	 5.50498246026984E-02 
893	 0.054605159754179 
894	 0.054091494670405 
895	 5.39579235667227E-02 
896	 5.43824459008565E-02 
897	 5.44380470159507E-02 
898	 5.44231157246279E-02 
899	 5.40927901056066E-02 
900	 5.34393680914087E-02 
901	 5.37638849862881E-02 
902	 5.28397537991893E-02 
903	 5.19578826680839E-02 
904	 5.28059383966674E-02 
905	 5.20588255758114E-02 
906	 5.22563369585169E-02 
907	 5.29949769030044E-02 
908	 0.051962060955226 
909	 5.18904217848381E-02 
910	 5.29158645701755E-02 
911	 5.34887539840128E-02 
912	 5.14338186810365E-02 
913	 5.07937005631514E-02 
914	 4.98048364466407E-02 
915	 4.82807359780322E-02 
916	 4.84388897341985E-02 
917	 4.95430894861201E-02 
918	 5.00628219517236E-02 
919	 4.96456317156909E-02 
920	 4.94258530057431E-02 
921	 4.82932421749121E-02 
922	 4.83844814977009E-02 
923	 4.98109862656827E-02 
924	 4.69601156124568E-02 
925	 4.71477738265069E-02 
926	 4.84691587710074E-02 
927	 4.75163022631249E-02 
928	 4.82461517437034E-02 
929	 4.89323822023673E-02 
930	 4.89327075109834E-02 
931	 4.84215861883264E-02 
932	 4.93092845857597E-02 
933	 5.11807147465544E-02 
934	 4.85674619390352E-02 
935	 3.96222673842634E-02 
936	 3.95857342644998E-02 
937	 4.23508204567273E-02 
938	 4.52755257929593E-02 
939	 4.77208413939438E-02 
940	 5.06746256193886E-02 
941	 0.049357260245102 
942	 4.47167792117352E-02 
943	 4.06668578779716E-02 
944	 3.75828376199661E-02 
945	 3.13269112354085E-02 
946	 3.08347238548206E-02 
947	 4.46362931594159E-02 
948	 4.10847034770675E-02 
949	 3.89086370184191E-02 
950	 4.40011704833923E-02 
951	 0.050203625107866 
952	 4.29175118606945E-02 
953	 3.79573923257995E-02 
954	 3.97633874693338E-02 
955	 4.41150449585194E-02 
956	 5.80792368617651E-02 
957	 5.80581876112949E-02 
958	 4.74296563296293E-02 
959	 4.54042898396212E-02 
960	 4.43490052241127E-02 
961	 3.89100247431101E-02 
962	 3.48066156007708E-02 
963	 4.06094954302752E-02 
964	 3.83851480431917E-02 
965	 4.30126716187156E-02 
966	 4.76098393383649E-02 
967	 3.52647489024606E-02 
968	 3.57603307361086E-02 
969	 4.19199930664888E-02 
970	 4.52820400640128E-02 
971	 4.13507485838579E-02 
972	 4.26214378366632E-02 
973	 4.15155214116672E-02 
974	 3.77612951756183E-02 
975	 0.039200357222191 
976	 4.02377861969808E-02 
977	 4.00494819457495E-02 
978	 3.99155012529204E-02 
979	 4.14814613983341E-02 
980	 3.92398834192854E-02 
981	 3.92146293388989E-02 
982	 4.15795960342352E-02 
983	 4.15650662426376E-02 
984	 4.03798643824277E-02 
985	 4.03535396053363E-02 
986	 4.11104927035477E-02 
987	 4.04368620316725E-02 
988	 3.92169443898763E-02 
989	 3.92932363538378E-02 
990	 0.040893944245575 
991	 4.24138458874798E-02 
992	 3.95615495996979E-02 
993	 3.98371941685794E-02 
994	 4.29280572889981E-02 
995	 4.27898984107112E-02 
996	 0.038002441345616 
997	 0.038886547357352 
998	 4.42177084252954E-02 
999	 0.04538535169385 
1000	 3.97951226636848E-02 
1001	 4.01287784967546E-02 
1002	 4.16309562416108E-02 
1003	 4.19276435978606E-02 
1004	 0.042298363631904 
1005	 4.23261750723776E-02 
1006	 4.17155784179191E-02 
1007	 4.03620984670888E-02 
1008	 4.03914772100479E-02 
1009	 4.09687109170426E-02 
1010	 4.13133284804045E-02 
1011	 4.14087448482561E-02 
1012	 4.11666003864807E-02 
1013	 4.00851779484693E-02 
1014	 3.98619662461846E-02 
1015	 4.03484404471295E-02 
1016	 4.03411918273095E-02 
1017	 4.03958213520598E-02 
1018	 4.03364249134632E-02 
1019	 0.039503948326295 
1020	 3.92510957290474E-02 
1021	 3.93430290380569E-02 
1022	 3.94137016882707E-02 
1023	 4.07035798300101E-02 
1024	 4.16360292501127E-02 
1025	 4.12644607251226E-02 
1026	 4.22842961977191E-02 
1027	 4.23225703687614E-02 
1028	 4.12165309734422E-02 
1029	 4.12659616443413E-02 
1030	 4.17047276747595E-02 
1031	 4.19405936210089E-02 
1032	 4.26404328402099E-02 
1033	 0.042665645736943 
1034	 4.29522415188575E-02 
1035	 4.23488487369634E-02 
1036	 3.99882150163038E-02 
1037	 0.039322242034082 
1038	 3.88701635518401E-02 
1039	 3.85795102143631E-02 
1040	 4.00701968605396E-02 
1041	 4.10120241621977E-02 
1042	 4.19973899562485E-02 
1043	 4.32114117368024E-02 
1044	 4.36147312290195E-02 
1045	 4.39004021738602E-02 
1046	 0.043822216119607 
1047	 4.27520516650455E-02 
1048	 4.22551230680954E-02 
1049	 4.17982200414723E-02 
1050	 4.14447920660143E-02 
1051	 4.11140821236434E-02 
1052	 4.09399572752528E-02 
1053	 4.07513060951008E-02 
1054	 4.09151945963542E-02 
1055	 4.17827611988287E-02 
1056	 4.20845089631356E-02 
1057	 4.22545541378363E-02 
1058	 4.23139394345807E-02 
1059	 4.27716284909326E-02 
1060	 0.043218601399281 
1061	 0.043339945787284 
1062	 4.39951940942979E-02 
1063	 4.38531965817423E-02 
1064	 4.22347400643229E-02 
1065	 4.20904434973559E-02 
1066	 4.25905002692623E-02 
1067	 4.28712984186311E-02 
1068	 4.42248453845307E-02 
1069	 4.45531922818573E-02 
1070	 4.40494083147659E-02 
1071	 4.37390242113772E-02 
1072	 4.32751715882258E-02 
1073	 4.22974180578665E-02 
1074	 4.19647319858229E-02 
1075	 4.16186430125853E-02 
1076	 4.20665872055327E-02 
1077	 4.36798944900036E-02 
1078	 4.35996087639291E-02 
1079	 0.043111964516584 
1080	 0.042968349905183 
1081	 4.12768675856416E-02 
1082	 4.13380076737036E-02 
1083	 4.40500964064955E-02 
1084	 4.42422610229034E-02 
1085	 4.28568324721809E-02 
1086	 4.26611160558631E-02 
1087	 4.19227658258192E-02 
1088	 4.12666224493572E-02 
1089	 4.12127659434435E-02 
1090	 4.20095144598806E-02 
1091	 4.22005713490244E-02 
1092	 4.15311834275045E-02 
1093	 4.16871492237928E-02 
1094	 0.042734535424018 
1095	 4.29871435763531E-02 
1096	 4.29912499135567E-02 
1097	 0.042769936141144 
1098	 0.041976789475018 
1099	 4.17878415448193E-02 
1100	 4.15454267097024E-02 
1101	 4.15859362162897E-02 
1102	 4.27091125663997E-02 
1103	 0.042799203328083 
1104	 4.25401695897082E-02 
1105	 4.14737991376302E-02 
1106	 4.10332610410324E-02 
1107	 4.15802268166099E-02 
1108	 4.28476989352382E-02 
1109	 0.04475344626347 
1110	 4.46065481091317E-02 
1111	 4.13316403172455E-02 
1112	 0.040739602974345 
1113	 4.06327929943056E-02 
1114	 4.10310496626631E-02 
1115	 4.47326663204497E-02 
1116	 4.74002473622844E-02 
1117	 4.89896799610624E-02 
1118	 4.89550198060799E-02 
1119	 4.93373354170878E-02 
1120	 4.91009176109319E-02 
1121	 3.80605812374058E-02 
1122	 3.76626839554219E-02 
1123	 5.24132881536349E-02 
1124	 5.08314319978541E-02 
1125	 7.93078137827388E-02 
1126	 8.83388057027238E-02 
1127	 5.12183785153702E-02 
1128	 4.21729965063973E-02 
1129	 3.93036667629298E-02 
1130	 2.27545277529718E-02 
1131	 3.06089554032979E-02 
1132	 7.48843870886399E-02 
1133	 7.48160411859822E-02 
1134	 5.88193280944699E-02 
1135	 5.46243292802891E-02 
1136	 3.25709607643169E-02 
1137	 2.98382292898284E-02 
1138	 4.21610559999862E-02 
1139	 5.35201505417972E-02 
1140	 4.97293128829014E-02 
1141	 5.14164604000534E-02 
1142	 5.00150790802582E-02 
1143	 4.64853766280595E-02 
1144	 5.41836917825686E-02 
1145	 5.37764779932942E-02 
1146	 4.26133556066733E-02 
1147	 3.87536512080648E-02 
1148	 3.72259681397567E-02 
1149	 3.67556846836292E-02 
1150	 0.039447303378951 
1151	 4.95159862374395E-02 
1152	 4.83087932741614E-02 
1153	 4.34877871358671E-02 
1154	 4.43332198490849E-02 
1155	 0.045976000645481 
1156	 0.042924966192727 
1157	 4.11715595246104E-02 
1158	 0.041770751217834 
1159	 4.25501491080221E-02 
1160	 4.28412840026136E-02 
1161	 4.37305450182618E-02 
1162	 4.29194415753757E-02 
1163	 4.06502319935215E-02 
1164	 3.95683234483983E-02 
1165	 4.03485276129768E-02 
1166	 3.96085735332623E-02 
1167	 3.84906283146762E-02 
1168	 3.98728883163058E-02 
1169	 4.03162442629846E-02 
1170	 3.98298886704433E-02 
1171	 3.97771248849486E-02 
1172	 0.039098848213379 
1173	 3.87144447131381E-02 
1174	 3.83224142218836E-02 
1175	 3.88320592105803E-02 
1176	 3.97078839064387E-02 
1177	 3.98402680765437E-02 
1178	 3.91073978347175E-02 
1179	 3.98023665032939E-02 
1180	 4.06676506308015E-02 
1181	 0.039229674934019 
1182	 3.75007267062365E-02 
1183	 3.72274583420193E-02 
1184	 3.72195249461263E-02 
1185	 3.68676169485529E-02 
1186	 3.81124390351192E-02 
1187	 3.98419156157209E-02 
1188	 3.92560502396552E-02 
1189	 3.92730870381108E-02 
1190	 4.05480056211691E-02 
1191	 3.97423253161418E-02 
1192	 3.93795791566593E-02 
1193	 0.038805354356992 
1194	 3.99869327440695E-02 
1195	 4.02235452058216E-02 
1196	 4.00861469806423E-02 
1197	 4.08517300374436E-02 
1198	 4.03819925463056E-02 
1199	 3.87656372969674E-02 
1200	 3.89738829358399E-02 
1201	 3.99733177811845E-02 
1202	 3.97749940301951E-02 
1203	 3.98710339827629E-02 
1204	 3.99122255649211E-02 
1205	 3.88200901267021E-02 
1206	 3.81693180928314E-02 
1207	 3.86303770155447E-02 
1208	 3.90559166105512E-02 
1209	 3.89343578116025E-02 
1210	 3.87290995715818E-02 
1211	 3.89771301421906E-02 
1212	 3.90354536588783E-02 
1213	 3.91859384466712E-02 
1214	 3.92624556366031E-02 
1215	 0.039651284354427 
1216	 3.89750260580594E-02 
1217	 3.85132775156043E-02 
1218	 3.86725072785795E-02 
1219	 3.90799725255055E-02 
1220	 3.93438912358363E-02 
1221	 3.88890543656059E-02 
1222	 3.85105353658356E-02 
1223	 3.83446751680579E-02 
1224	 3.83601891999904E-02 
1225	 3.86273279720756E-02 
1226	 3.86525650416701E-02 
1227	 3.81785891792943E-02 
1228	 3.80825007561256E-02 
1229	 3.88237314718427E-02 
1230	 3.90202764571953E-02 
1231	 3.84953244791659E-02 
1232	 3.83299601889092E-02 
1233	 3.84192799205742E-02 
1234	 3.84087148126563E-02 
1235	 3.82163743905491E-02 
1236	 3.81863382354294E-02 
1237	 3.82183495926829E-02 
1238	 3.78846971033785E-02 
1239	 0.037799939848828 
1240	 3.78519430454638E-02 
1241	 3.82820939390779E-02 
1242	 3.85430232507713E-02 
1243	 3.80366298916465E-02 
1244	 3.81995610618156E-02 
1245	 3.84264273047997E-02 
1246	 0.038131878471853 
1247	 0.038594368079833 
1248	 3.86036600368905E-02 
1249	 3.82079381669788E-02 
1250	 3.84143910168213E-02 
1251	 3.84109385477017E-02 
1252	 3.84548235580495E-02 
1253	 3.87710821658201E-02 
1254	 3.85250100194167E-02 
1255	 3.82027635054458E-02 
1256	 3.80746724838539E-02 
1257	 3.83868995045918E-02 
1258	 0.038265686146864 
1259	 3.74835523378182E-02 
1260	 3.75861364193773E-02 
1261	 0.038597789558528 
1262	 3.86621736240661E-02 
1263	 3.86497836296135E-02 
1264	 3.86486431634009E-02 
1265	 3.85394237692827E-02 
1266	 3.84009949485671E-02 
1267	 3.87093046347204E-02 
1268	 0.039314673344237 
1269	 3.93876647409728E-02 
1270	 3.91192103166151E-02 
1271	 3.92011397385125E-02 
1272	 3.90924166648363E-02 
1273	 3.86650601309417E-02 
1274	 3.81561555546248E-02 
1275	 3.79051887733516E-02 
1276	 3.82693879846098E-02 
1277	 3.83749847568598E-02 
1278	 3.83416540262619E-02 
1279	 3.84955355639225E-02 
1280	 3.86172661621037E-02 
1281	 3.87155746795402E-02 
1282	 3.89825470104821E-02 
1283	 3.90255562147197E-02 
1284	 3.88708007474245E-02 
1285	 3.89326179956891E-02 
1286	 3.91463640970562E-02 
1287	 3.91525066241549E-02 
1288	 3.90745549498511E-02 
1289	 3.88368533153566E-02 
1290	 3.82144517088926E-02 
1291	 3.80547894968409E-02 
1292	 3.81451338939769E-02 
1293	 3.81349272119568E-02 
1294	 3.82338771851535E-02 
1295	 3.79476444478361E-02 
1296	 3.75186954927703E-02 
1297	 3.79881562662295E-02 
1298	 0.038040295542599 
1299	 3.79275877148211E-02 
1300	 3.88803105444701E-02 
1301	 3.91150250778423E-02 
1302	 3.88367738694555E-02 
1303	 3.95339224081464E-02 
1304	 3.99558722814807E-02 
1305	 4.05610608476681E-02 
1306	 4.06165977887474E-02 
1307	 4.04652946016677E-02 
1308	 4.07339771805524E-02 
1309	 4.10984821886177E-02 
1310	 4.08069956247803E-02 
1311	 4.03275234860997E-02 
1312	 4.05977650468038E-02 
1313	 4.06492337681415E-02 
1314	 4.00601285586917E-02 
1315	 3.96292252443647E-02 
1316	 4.04249635647847E-02 
1317	 4.13632802207625E-02 
1318	 4.12529009917132E-02 
1319	 4.23245897591686E-02 
1320	 0.04299390532799 
1321	 4.26566781529737E-02 
1322	 4.07161183470452E-02 
1323	 0.040240200647083 
1324	 4.08668558590593E-02 
1325	 4.17775231372709E-02 
1326	 4.20579008467323E-02 
1327	 4.15152764884291E-02 
1328	 4.16493576671736E-02 
1329	 4.08863944468202E-02 
1330	 4.07102996887005E-02 
1331	 4.18452389509747E-02 
1332	 0.043263616834671 
1333	 4.46264748879173E-02 
1334	 4.31983957043258E-02 
1335	 4.30488490353114E-02 
1336	 4.48511535397805E-02 
1337	 4.27192052979204E-02 
1338	 3.50523017696755E-02 
1339	 3.53879733761496E-02 
1340	 4.07191298781177E-02 
1341	 3.96161989965559E-02 
1342	 3.91355206600367E-02 
1343	 4.32393063950875E-02 
1344	 4.34988167564951E-02 
1345	 4.17022702802843E-02 
1346	 4.95561778843131E-02 
1347	 5.70763355835287E-02 
1348	 5.25248774008784E-02 
1349	 5.03724714337444E-02 
1350	 6.78378524672825E-02 
1351	 8.26691394054386E-02 
1352	 6.36092672881464E-02 
1353	 5.68313337812136E-02 
1354	 0.116955578590398 
1355	 0.142136799382442 
1356	-0.024999385938047 
1357	-0.111149114349305 
1358	 5.47321433607649E-02 
1359	-0.054474358805456 
1360	-0.102631928359499 
1361	 0.132891717477995 
1362	 1.69836645736753 
1363	-7.54006376691368 
1364	 1.41942264713254 
1365	 0.812825167717222 
1366	 0.427284237454553 
1367	-0.099476708681798 
1368	-0.214699954283808 
1369	-6.26694190564218E-02 
1370	-7.53605329015833E-02 
1371	-2.46725494069347E-02 
1372	 4.19942928356444E-03 
1373	 2.52491906834204E-03 
1374	 2.91092483834746E-02 
1375	 0.269672031093447 
1376	 0.106786234164994 
1377	-0.782325720454288 
1378	-1.69083840562173 
1379	-5.17144977160223 
1380	 8.30640754258669 
1381	-3.01261578729819 
1382	 13.754468109555 
1383	 0.391174724743738 
1384	 0.158999787546515 
1385	-6.92650428343409E-02 
1386	-8.28876296720235E-02 
1387	-9.41527212022666E-02 
1388	-0.219799344925683 
1389	-0.609173267108688 
1390	-0.229069605390733 
1391	 0.507270927209625 
1392	 0.870518436800966 
1393	 0.495339777655912 
1394	 0.619530777273222 
1395	 0.71890153361524 
1396	 0.12076391366298 
1397	-0.056469666255082 
1398	 7.28973117061816E-02 
1399	 0.179991171206775 
1400	 0.463955147439332 
1401	 0.641978347957372 
1402	 0.422886690297583 
1403	 0.277945959355166 
1404	-0.160620304156272 
1405	-0.41507856909382 
1406	-0.317463765336763 
1407	 0.144578328283682 
1408	 0.716102093070362 
1409	 0.715187760478669 
1410	 0.765381087087668 
1411	 0.864850075326179 
1412	 0.523811507100913 
1413	 0.431125012874888 
1414	 0.761725174314414 
1415	 0.803671448874514 
1416	 0.570076531885936 
1417	 0.527284046312929 
1418	 0.727951174498303 
1419	 0.621991738068459 
1420	 0.604904655468752 
1421	 0.176964261980347 
1422	-0.126437736761621 
1423	-0.129293519878021 
1424	-0.303537433985639 
1425	-0.230603844237778 
1426	 0.142100804042696 
1427	 0.241509191831178 
1428	 0.275062904579988 
1429	 0.318312939491368 
1430	 0.31467997367731 
1431	 0.295315716874223 
1432	 0.272770736220906 
1433	 0.260640756521523 
1434	 0.228295175979258 
1435	 0.20004511103842 
1436	 0.219500959855503 
1437	 0.18219880954565 
1438	 0.109817651481907 
1439	 4.41526605499662E-02 
1440	 3.76919284029864E-02 
1441	 6.98561021194298E-02 
1442	 0.10872353328712 
1443	 0.101243277610946 
1444	 4.81263997399578E-02 
1445	 4.32356334301041E-02 
1446	 5.33714351558683E-02 
1447	 0.019591160784662 
1448	 1.10520773300712E-02 
1449	 3.30602950160482E-02 
1450	 4.33935786851002E-02 
1451	 4.24752019398475E-02 
1452	 4.73727091448763E-02 
1453	 5.72097419267553E-02 
1454	 5.72832678535274E-02 
1455	 5.26317728530762E-02 
1456	 5.12953253790426E-02 
1457	 4.78967444535935E-02 
1458	 4.88843225338278E-02 
1459	 5.23840959067459E-02 
1460	 5.49751841636174E-02 
1461	 6.18280393038636E-02 
1462	 6.01793863238108E-02 
1463	 0.050328973998349 
1464	 4.79859559840108E-02 
1465	 4.65967229093693E-02 
1466	 4.68534010813765E-02 
1467	 5.06179109885507E-02 
1468	 5.64190889545435E-02 
1469	 6.78775112329221E-02 
1470	 6.55849204431837E-02 
1471	 5.67188479578373E-02 
1472	 5.43577083095841E-02 
1473	 4.73661153334965E-02 
1474	 4.12771530694072E-02 
1475	 3.92757592078904E-02 
1476	 3.99436194270916E-02 
1477	 3.91224928290739E-02 
1478	 3.94420347599308E-02 
1479	 4.22341033787881E-02 
1480	 4.55533988523874E-02 
1481	 5.16080312413813E-02 
1482	 5.08963126990128E-02 
1483	 4.57894732958222E-02 
1484	 4.75378647266199E-02 
1485	 5.16817917251068E-02 
1486	 0.049565628694883 
1487	 4.69544603967283E-02 
1488	 4.74479841726419E-02 
1489	 4.57743807566704E-02 
1490	 4.38581082144528E-02 
1491	 4.49197005094416E-02 
1492	 0.045044136908601 
1493	 4.32032899959845E-02 
1494	 4.16906290860726E-02 
1495	 4.06609957411267E-02 
1496	 4.05004233482854E-02 
1497	 4.01176848968312E-02 
1498	 3.95056298586163E-02 
1499	 3.96848280361369E-02 
1500	 3.98186762707287E-02 
1501	 3.90279336170842E-02 
1502	 0.038993999444347 
1503	 4.07304688471378E-02 
1504	 4.08860163616794E-02 
1505	 4.00512684779811E-02 
1506	 0.039020800427443 
1507	 4.02706150864339E-02 
1508	 4.03392642599266E-02 
1509	 4.07478979106078E-02 
1510	 4.14212314746353E-02 
1511	 4.01407559723223E-02 
1512	 3.94343674998202E-02 
1513	 0.039278128922561 
1514	 3.99296089264535E-02 
1515	 4.18217763771554E-02 
1516	 4.18529629372402E-02 
1517	 4.05567792834653E-02 
1518	 0.040266206579265 
1519	 3.99155087960202E-02 
1520	 0.039412901027098 
1521	 3.98407156354782E-02 
1522	 4.05934337491744E-02 
1523	 4.11758795820476E-02 
1524	 0.041442528947308 
1525	 4.14390622254116E-02 
1526	 4.09611962228352E-02 
1527	 4.04172110859189E-02 
1528	 4.04036530998713E-02 
1529	 3.98467024823854E-02 
1530	 0.039686260437443 
1531	 3.97819015819386E-02 
1532	 3.89968064297513E-02 
1533	 3.84878990332822E-02 
1534	 3.81872998736585E-02 
1535	 0.038550602534488 
1536	 3.89455114423683E-02 
1537	 3.86957841386039E-02 
1538	 3.91521305438627E-02 
1539	 3.93651585919372E-02 
1540	 3.93791710292559E-02 
1541	 4.01619259609506E-02 
1542	 4.01917037830897E-02 
1543	 3.95816319393428E-02 
1544	 3.95429798330285E-02 
1545	 3.95681598473318E-02 
1546	 3.96057802026778E-02 
1547	 3.99775964115582E-02 
1548	 4.00607037373822E-02 
1549	 3.96505418120152E-02 
1550	 3.96273609714644E-02 
1551	 3.98016963507499E-02 
1552	 3.93675888514209E-02 
1553	 3.89985388063168E-02 
1554	 3.93765666588593E-02 
1555	 3.97527899109663E-02 
1556	 3.93765853326564E-02 
1557	 3.90159210801358E-02 
1558	 3.89264447350897E-02 
1559	 0.038760419317533 
1560	 3.88129093011233E-02 
1561	 0.038553841278223 
1562	 3.80488310089467E-02 
1563	 3.85064701589895E-02 
1564	 3.91254895929088E-02 
1565	 3.85848897853859E-02 
1566	 3.85433165877794E-02 
1567	 3.95099229868793E-02 
1568	 3.93399687144838E-02 
1569	 3.91899281308731E-02 
1570	 0.03995020264585 
1571	 3.92921216931054E-02 
1572	 3.88430132289155E-02 
1573	 3.94600121021306E-02 
1574	 0.039407299071161 
1575	 3.98762082595587E-02 
1576	 4.03692187219336E-02 
1577	 4.04194429048883E-02 
1578	 4.03613906071622E-02 
1579	 3.98064266732954E-02 
1580	 3.92206773852553E-02 
1581	 3.83920224515948E-02 
1582	 3.78926297748114E-02 
1583	 3.78805081027607E-02 
1584	 3.80746057655182E-02 
1585	 3.91208460787098E-02 
1586	 0.039999216024839 
1587	 4.00625235644283E-02 
1588	 0.039808370927507 
1589	 3.93122749283599E-02 
1590	 3.91224575199776E-02 
1591	 3.89875390521472E-02 
1592	 3.93494199121218E-02 
1593	 3.97720481815077E-02 
1594	 3.94406532527372E-02 
1595	 0.04030279238584 
1596	 4.12664935050032E-02 
1597	 4.03845151939113E-02 
1598	 3.96846633764935E-02 
1599	 0.039654048716465 
1600	 3.90398234258345E-02 
1601	 3.85401406588762E-02 
1602	 3.86967469092403E-02 
1603	 3.92950847000098E-02 
1604	 3.91739390423943E-02 
1605	 3.84322086523818E-02 
1606	 3.91894459800852E-02 
1607	 4.01477762015534E-02 
1608	 3.96452092255159E-02 
1609	 3.96257376346048E-02 
1610	 4.10479396856148E-02 
1611	 4.16520486609384E-02 
1612	 4.04416854637358E-02 
1613	 4.02600172016813E-02 
1614	 4.04048204796243E-02 
1615	 3.83716367548512E-02 
1616	 3.81601113068983E-02 
1617	 3.95172112816043E-02 
1618	 3.90776304374561E-02 
1619	 3.95560918251073E-02 
1620	 4.03048045045857E-02 
1621	 3.89707949463554E-02 
1622	 3.82408503838609E-02 
1623	 3.90129068089283E-02 
1624	 3.91400429319544E-02 
1625	 3.89999680129969E-02 
1626	 3.88749526465522E-02 
1627	 3.79804396126005E-02 
1628	 3.72444858158353E-02 
1629	 3.76258564952232E-02 
1630	 3.84083171488671E-02 
1631	 0.038423514630133 
1632	 3.80771800473643E-02 
1633	 3.78157139548093E-02 
1634	 0.03739020141822 
1635	 0.037361644045284 
1636	 3.82730419489825E-02 
1637	 3.91931642982886E-02 
1638	 3.91992562793066E-02 
1639	 3.89531449183368E-02 
1640	 3.84715182858861E-02 
1641	 3.77698238663016E-02 
1642	 3.76147419078969E-02 
1643	 3.83540230432303E-02 
1644	 3.88805096971761E-02 
1645	 3.83316046338196E-02 
1646	 3.90961821172188E-02 
1647	 3.95690319776534E-02 
1648	 3.78246472884044E-02 
1649	 3.81246802560799E-02 
1650	 3.97223600099942E-02 
1651	 3.93443182483808E-02 
1652	 3.93074213414116E-02 
1653	 3.96614807857463E-02 
1654	 3.93473834644965E-02 
1655	 3.89778438934109E-02 
1656	 3.90756827836043E-02 
1657	 3.90563739960258E-02 
1658	 3.90261792822923E-02 
1659	 3.93899860504623E-02 
1660	 3.97902644908572E-02 
1661	 4.00344844481305E-02 
1662	 3.98443550003421E-02 
1663	 3.95271959249662E-02 
1664	 3.94282270075019E-02 
1665	 3.93529279645701E-02 
1666	 3.92893822752475E-02 
1667	 3.92312442614169E-02 
1668	 3.96383641127677E-02 
1669	 3.93919963170296E-02 
1670	 3.82144554212682E-02 
1671	 3.76763566191872E-02 
1672	 3.77638309628958E-02 
1673	 3.76196027908694E-02 
1674	 3.77899528736125E-02 
1675	 3.86997060430991E-02 
1676	 3.91112586044919E-02 
1677	 3.84640684097564E-02 
1678	 0.038490802987056 
1679	 3.86968184207271E-02 
1680	 3.84589190143727E-02 
1681	 3.84135505735526E-02 
1682	 3.91056772760345E-02 
1683	 3.90749423485226E-02 
1684	 3.69518019664241E-02 
1685	 3.67475632522219E-02 
1686	 3.75981227608541E-02 
1687	 3.71864874970782E-02 
1688	 3.88368374645118E-02 
1689	 3.90366352376663E-02 
1690	 3.65665869855562E-02 
1691	 3.71989396993479E-02 
1692	 3.79394703045231E-02 
1693	 3.77929941743497E-02 
1694	 0.039380155904203 
1695	 3.91125914027416E-02 
1696	 3.85407757211135E-02 
1697	 3.94604357968876E-02 
1698	 3.97995758908959E-02 
1699	 0.039471124500512 
1700	 3.87996413740339E-02 
1701	 3.92555011394611E-02 
1702	 3.95083735130755E-02 
1703	 3.84869292793344E-02 
1704	 3.88066877026839E-02 
1705	 3.92782186994385E-02 
1706	 0.037536265775955 
1707	 3.79562669611865E-02 
1708	 0.040581142860172 
1709	 4.05113373527067E-02 
1710	 3.99086509766279E-02 
1711	 3.93024770989297E-02 
1712	 0.037305467837681 
1713	 3.87954754994757E-02 
1714	 3.87784203804171E-02 
1715	 3.97890249002828E-02 
1716	 3.98247390959267E-02 
1717	 3.83409615059113E-02 
1718	 3.81146632984825E-02 
1719	 3.80140908890456E-02 
1720	 3.78277848831224E-02 
1721	 0.037955669463992 
1722	 3.76215668021981E-02 
1723	 3.80929642709698E-02 
1724	 0.038540889282702 
1725	 3.85658072034807E-02 
1726	 3.89981620844348E-02 
1727	 4.00017648013317E-02 
1728	 0.041747440460446 
1729	 4.15736908018011E-02 
1730	 4.02098764105199E-02 
1731	 3.98873099286768E-02 
1732	 3.75499899195729E-02 
1733	 3.60059993584718E-02 
1734	 3.90249691048292E-02 
1735	 4.11718911242334E-02 
1736	 4.16747031078219E-02 
1737	 4.33577919702367E-02 
1738	 0.043168932143749 
1739	 4.17998777307196E-02 
1740	 4.17860615087138E-02 
1741	 4.14702977414745E-02 
1742	 0.041032191710687 
1743	 4.17199035175174E-02 
1744	 4.13336845222659E-02 
1745	 3.98961726365134E-02 
1746	 4.06822859700731E-02 
1747	 3.99557089059867E-02 
1748	 3.94737570039149E-02 
1749	 3.89588940264043E-02 
1750	 3.55570553629526E-02 
1751	 3.47791373622344E-02 
1752	 3.66785067962328E-02 
1753	 3.80939161092512E-02 
1754	 4.08574971892535E-02 
1755	 0.04218438320889 
1756	 4.22439006649286E-02 
1757	 4.28645239585297E-02 
1758	 4.31835823615844E-02 
1759	 4.16933500075803E-02 
1760	 4.32191978406315E-02 
1761	 4.39977340046099E-02 
1762	 4.07945215314069E-02 
1763	 3.88375293377813E-02 
1764	 3.72832059455507E-02 
1765	 3.55730889846101E-02 
1766	 3.63401377158366E-02 
1767	 3.79402732164031E-02 
1768	 3.91052358234384E-02 
1769	 0.041386891473454 
1770	 4.19800672749329E-02 
1771	 0.039325813238804 
1772	 3.69924011084292E-02 
1773	 3.47286437049075E-02 
1774	 3.41099943551922E-02 
1775	 4.01514267437013E-02 
1776	 4.21189114332584E-02 
1777	 3.72387352918078E-02 
1778	 3.66493341872953E-02 
1779	 3.97940925153375E-02 
1780	 3.89761572913908E-02 
1781	 0.037506599023493 
1782	 3.75253536947656E-02 
1783	 3.37279882536181E-02 
1784	 0.033084281806975 
1785	 3.90057180860273E-02 
1786	 3.92872198010392E-02 
1787	 3.43607242014635E-02 
1788	 0.035463674086616 
1789	 0.039329226297893 
1790	 3.82454548043483E-02 
1791	 4.32546466023427E-02 
1792	 4.35707370719223E-02 
1793	 3.24156526810634E-02 
1794	 2.94716617145815E-02 
1795	 2.21518987066518E-02 
1796	 4.81739614405543E-03 
1797	 1.55244371464921E-02 
1798	 0.043104104700735 
1799	 6.50017811318617E-02 
1800	 6.72998644701732E-02 
1801	 8.44823758359729E-02 
1802	 7.28177109477949E-02 
1803	 8.22260224146642E-02 
1804	 0.182009269251099 
1805	 0.29589835804915 
1806	 0.456405702966612 
1807	 0.644680434361739 
1808	 0.648612461918638 
1809	 0.679668429982358 
1810	 0.186404869440211 
1811	 0.15838119620782 
1812	 0.45273228625558 
1813	 2.19409064210457 
1814	-2.47116614982708 
1815	-1.99945585814161 
1816	-1.2148495603718 
1817	 0.518593682661668 
1818	-0.337513306396354 
1819	-0.52269693510703 
1820	-0.43239862443939 
1821	 2.7546059328277 
1822	 0.852942126482809 
1823	 6.85012535154811 
1824	-23.2654538728148 
1825	-0.812313105891004 
1826	-0.375666848732637 
1827	 0.103283821800487 
1828	 0.347251665597559 
1829	 0.828462539270615 
1830	 1.02534588525295 
1831	 0.538989667893017 
1832	 0.574316900188295 
1833	 0.870268294233006 
1834	 0.956230530279891 
1835	 10.2189641659712 
1836	-5.6542334678145 
1837	-0.585254322973098 
1838	-0.723473576177646 
1839	-0.899489743528554 
1840	 0.13987400154004 
1841	 2.56127179884817 
1842	 7.71930583860187 
1843	 7.50500355588946 
1844	 1.50997420720908 
1845	 1.2806499011065 
1846	 1.15401659781761 
1847	 1.14753711684132 
1848	 1.87592043740911 
1849	 2.22933440371226 
1850	 1.66764690943232 
1851	 0.554733085694161 
1852	 2.66258359486796 
1853	 2.34834932954196 
1854	 3.06771930011804 
1855	 1.00340136507741 
1856	 1.14322476921258 
1857	 0.977204703677388 
1858	 0.84496512042507 
1859	 0.280649890198 
1860	-7.34870192913386E-02 
1861	 0.112628637003609 
1862	 0.741457875026502 
1863	-15.8426971869671 
1864	-5.67776876102235 
1865	-9.89934201017546 
1866	 0.297648374360118 
1867	 0.238874505553309 
1868	 0.746207062586005 
1869	 0.841003458954871 
1870	 1.16399345923236 
1871	 0.810791183258271 
1872	 2.23439640956773 
1873	 3.48509354000831 
1874	 35.6944751371211 
1875	-4.62769499567159 
1876	-3.73664960632004 
1877	 24.1852282876634 
1878	 8.82368506239647 
1879	-5.93820416243525 
1880	-4.53832881071285 
1881	-2.50118290862315 
1882	-1124.41523206625 
1883	 8.35128055864903 
1884	 10.5382021687692 
1885	 2.84930367491532 
1886	 3.41837625571988 
1887	-8.08134249228294 
1888	-2.42638091379827 
1889	-1.75925665602759 
1890	-0.863825404565846 
1891	-0.972244691574536 
1892	-2.56430064435326 
1893	 4.38431584934273 
1894	 1.07510320461401 
1895	 0.774927406219597 
1896	 0.991882669761555 
1897	 1.50400171694922 
1898	 1.74149115445538 
1899	 6.16986589023707 
1900	-34.9806233576354 
1901	 0.139930519521664 
1902	-1.70433095341086 
1903	-45.0717123362805 
1904	 0.135508636375346 
1905	-0.598474299201228 
1906	-3.32421184169458 
1907	-3.10173134459097 
1908	-5.11959258281762 
1909	-4.67994797761547 
1910	-1.84828946908847 
1911	-2.09010051363786 
1912	-2.67584786432067 
1913	-2.14744760993629 
1914	-1.18465834187146 
1915	-1.74354764680686 
1916	-2.21566841599415 
1917	-2.51264535310435 
1918	-2.56557126884196 
1919	-5.79954872512933 
1920	 1401.83968380584 
1921	-10.7086819770354 
1922	 4.41158453178947 
1923	 2.55051573752681 
1924	 12.2886896050639 
1925	-5.33174632680689 
1926	-3.70213368125536 
1927	-7.57599317595497 
1928	-8.06019972201182 
1929	-28.9296312744275 
1930	 2.5886628367452 
1931	 1.10522364116191 
1932	 0.829303040348948 
1933	 0.512787170626114 
1934	-21.1596021860127 
1935	-1.19781773898217 
1936	-0.778852731844622 
1937	-1.26416353513016 
1938	-2.11609634413462 
1939	-4.15404659505033 
1940	 2.18289549959264 
1941	 2.81456068144181 
1942	-50.3899771420275 
1943	-1.60309162103378 
1944	-0.601350956297189 
1945	-0.26955416043835 
1946	-0.47143557744683 
1947	-0.908013001193809 
1948	-0.505851695588794 
1949	-0.571799208912561 
1950	-0.420021137853928 
1951	-0.1796721981236 
1952	-8.71673424160974E-02 
1953	-9.13855166116448E-02 
1954	-1.77666992015732E-02 
1955	 0.128666881477122 
1956	 3.38757329954767E-02 
1957	-0.129072954941172 
1958	-0.150923552308051 
1959	-0.184734084352732 
1960	-0.229100025794018 
1961	-0.197039729222053 
1962	-0.118183373840667 
1963	-5.95206454612447E-02 
1964	-1.89929306366931E-02 
1965	 4.15270948697853E-03 
1966	 7.00503528895184E-03 
1967	-1.05583580377375E-02 
1968	-3.31092878740528E-02 
1969	-3.39631253599615E-02 
1970	-2.46078159233279E-02 
1971	-2.2861202330644E-03 
1972	 0.028860922305031 
1973	 3.84014473148042E-02 
1974	 3.89769312295048E-02 
1975	 3.74529230062861E-02 
1976	 2.51983580111077E-02 
1977	 1.78304595941122E-02 
1978	 1.07392607771647E-02 
1979	 1.25858968500323E-02 
1980	 1.85348429959601E-02 
1981	 2.54394601172113E-02 
1982	 2.85554347773694E-02 
1983	 3.47976273730697E-02 
1984	 0.028140475487457 
1985	 2.04865194335799E-02 
1986	 0.019847978149418 
1987	 1.98291998118949E-02 
1988	 2.14541022454693E-02 
1989	 1.73205942373723E-02 
1990	 1.69349782173718E-02 
1991	 2.49184533323756E-02 
1992	 3.21300478226282E-02 
1993	 0.04077374806728 
1994	 4.77737134300935E-02 
1995	 5.49875223680036E-02 
1996	 5.41704789482758E-02 
1997	 5.04866898725733E-02 
1998	 4.67750915364782E-02 
1999	 3.29447692861912E-02 
2000	 9.35052428566156E-03 
2001	 2.30830507441776E-03 
2002	 1.76621891106116E-02 
2003	 4.39201571059155E-02 
2004	 7.55265083295644E-02 
2005	 7.11253142331311E-02 
2006	 4.35263317609446E-02 
2007	 2.32510055594812E-02 
2008	 6.59894313214907E-03 
2009	-3.49887491189749E-05 
2010	 0.013048245175182 
2011	 1.84806920008483E-02 
2012	 2.00947223884912E-02 
2013	 3.37189654184183E-02 
2014	 0.045434599564891 
2015	 5.23911145408516E-02 
2016	 4.68619750035573E-02 
2017	 3.48147274846451E-02 
2018	 0.013605667619914 
2019	 1.78929653750796E-03 
2020	 6.61826749465553E-03 
2021	 1.12305337460409E-02 
2022	 9.04394926284674E-03 
2023	 1.18194598358314E-02 
2024	 1.77506678788254E-02 
2025	 2.26694459829319E-02 
2026	 2.34816856278511E-02 
2027	 2.69462426528846E-02 
2028	 3.17882912150428E-02 
2029	 2.63503785426731E-02 
2030	 2.38979482479237E-02 
2031	 2.66382648482622E-02 
2032	 2.80808369881282E-02 
2033	 3.11746686109156E-02 
2034	 3.62864991292418E-02 
2035	 4.26923480965801E-02 
2036	 4.54884294279385E-02 
2037	 4.00826579264703E-02 
2038	 3.66813062089189E-02 
2039	 3.60730692246473E-02 
2040	 3.21737630057486E-02 
2041	 3.27809290455767E-02 
2042	 0.043245958228966 
2043	 4.43994781833162E-02 
2044	 4.06853166688271E-02 
2045	 3.94816179233473E-02 
2046	 3.58456084844088E-02 
2047	 3.26633196823829E-02 
2048	 3.32150852916185E-02 
2049	 3.44044495117211E-02 
2050	 3.16685346649378E-02 
2051	 3.08665975806413E-02 
2052	 3.81041909245841E-02 
2053	 4.10854646461802E-02 
2054	 4.35274436095068E-02 
2055	 4.87034677477926E-02 
2056	 4.91985613549605E-02 
2057	 0.040881720483128 
2058	 3.82410136144584E-02 
2059	 3.63539451462466E-02 
2060	 3.60308181784066E-02 
2061	 3.60573626870128E-02 
2062	 3.99908527603659E-02 
2063	 4.18160467138246E-02 
2064	 3.93910822304953E-02 
2065	 3.87859510412486E-02 
2066	 3.29078791579848E-02 
2067	 3.29474262611313E-02 
2068	 4.02870696399202E-02 
2069	 4.25381561281102E-02 
2070	 4.53336000692993E-02 
2071	 4.06884129267162E-02 
2072	 3.62733645330189E-02 
2073	 3.34021996083212E-02 
2074	 2.76591533708553E-02 
2075	 0.026239332431043 
2076	 2.94190182171329E-02 
2077	 2.82101574857974E-02 
2078	 0.025957244607268 
2079	 2.67451480011026E-02 
2080	 2.63813271991769E-02 
2081	 2.84578216424667E-02 
2082	 3.54063869526462E-02 
2083	 4.09337564786556E-02 
2084	 4.31067478430835E-02 
2085	 0.041581100575911 
2086	 3.91868552117098E-02 
2087	 3.78531249635298E-02 
2088	 0.03668995856113 
2089	 3.44671812890584E-02 
2090	 3.26145162336006E-02 
2091	 3.18738301815432E-02 
2092	 3.19953011191321E-02 
2093	 3.50973516260963E-02 
2094	 0.037677226927571 
2095	 4.02611630386577E-02 
2096	 4.10758282406569E-02 
2097	 4.23140294597426E-02 
2098	 4.09515334829021E-02 
2099	 0.036472148312833 
2100	 3.53383928871374E-02 
2101	 3.06609420117104E-02 
2102	 2.66177885661196E-02 
2103	 2.62844187073674E-02 
2104	 2.83258241641641E-02 
2105	 0.028439434374622 
2106	 2.86797375269729E-02 
2107	 3.15008555022496E-02 
2108	 2.67108060964105E-02 
2109	 2.75636344534445E-02 
2110	 3.18206555134906E-02 
2111	 2.69813782586877E-02 
2112	 2.61485208280334E-02 
2113	 0.026072109180389 
2114	 2.46669453111792E-02 
2115	 2.36338402677245E-02 
2116	 2.48524920004317E-02 
2117	 2.66235792164954E-02 
2118	 2.81537633734282E-02 
2119	 2.87857013751121E-02 
2120	 3.09673116731491E-02 
2121	 3.36925742098396E-02 
2122	 2.93782745050667E-02 
2123	 3.04189834099288E-02 
2124	 3.82307523225538E-02 
2125	 3.79042364773602E-02 
2126	 3.71473148494731E-02 
2127	 3.75228454855063E-02 
2128	 3.14265904509328E-02 
2129	 2.74479882665807E-02 
2130	 2.77184099064056E-02 
2131	 2.53713378432271E-02 
2132	 2.53903795772666E-02 
2133	 3.14313974755597E-02 
2134	 3.23118188148801E-02 
2135	 3.10353808535641E-02 
2136	 3.21414913924553E-02 
2137	 3.11928625630542E-02 
2138	 3.15494208041716E-02 
2139	 3.73933908319232E-02 
2140	 3.88845943340748E-02 
2141	 3.63827294764104E-02 
2142	 3.53786335711036E-02 
2143	 3.37207374659664E-02 
2144	 3.16418305866147E-02 
2145	 3.03766767425646E-02 
2146	 0.033661882418877 
2147	 3.41693085612588E-02 
2148	 3.12941483471314E-02 
2149	 3.34447335629261E-02 
2150	 3.39949681651786E-02 
2151	 3.72371849847604E-02 
2152	 4.22975982621323E-02 
2153	 4.11488665856775E-02 
2154	 4.12672538202102E-02 
2155	 3.85167046420751E-02 
2156	 3.56505029107751E-02 
2157	 3.46198787292177E-02 
2158	 0.035717353979496 
2159	 3.40868812001688E-02 
2160	 3.19361871542724E-02 
2161	 0.030605019025648 
2162	 2.68152490807284E-02 
2163	 2.45390816904551E-02 
2164	 0.024800094533837 
2165	 0.024857383351736 
2166	 2.41055468461328E-02 
2167	 2.61154571006276E-02 
2168	 0.031453753236063 
2169	 3.26291400806891E-02 
2170	 3.37640473947412E-02 
2171	 3.33961449432688E-02 
2172	 2.95062266071888E-02 
2173	 2.80051143583889E-02 
2174	 2.57477107873333E-02 
2175	 2.74809699976314E-02 
2176	 2.91482395525907E-02 
2177	 2.76530241120318E-02 
2178	 2.97808875301702E-02 
2179	 0.029523053076125 
2180	 0.029487338217503 
2181	 3.14744992614777E-02 
2182	 0.028766573716305 
2183	 2.72462173582897E-02 
2184	 2.42712829201866E-02 
2185	 2.26268045665709E-02 
2186	 2.21663788609495E-02 
2187	 2.11134918463262E-02 
2188	 2.35195260965466E-02 
2189	 3.10699341020521E-02 
2190	 3.31236190696415E-02 
2191	 3.35152538364886E-02 
2192	 0.038059112140309 
2193	 4.53562674174737E-02 
2194	 4.57540359479885E-02 
2195	 4.58538407644865E-02 
2196	 4.65437702122565E-02 
2197	 3.65269550340415E-02 
2198	 3.38309311705927E-02 
2199	 3.88714422714682E-02 
2200	 4.28961235754446E-02 
2201	 4.20772258312452E-02 
2202	 4.59996093402067E-02 
2203	 4.29863178048262E-02 
2204	 3.55664260266008E-02 
2205	 2.94916900028311E-02 
2206	 1.80792428441434E-02 
2207	 1.21427644238628E-02 
2208	 1.33812448503273E-02 
2209	 1.58497988819558E-02 
2210	 1.80579799726182E-02 
2211	 2.05094953092811E-02 
2212	 2.37395578112867E-02 
2213	 2.31227671141814E-02 
2214	 2.92000554859677E-02 
2215	 0.038274426316506 
2216	 3.93970279659029E-02 
2217	 0.042608422465734 
2218	 0.047065692938794 
2219	 4.96367083273542E-02 
2220	 5.20717130493436E-02 
2221	 5.16765994726537E-02 
2222	 4.64235984579191E-02 
2223	 4.42381123300431E-02 
2224	 4.17026454257336E-02 
2225	 3.93064990023983E-02 
2226	 0.038995952717978 
2227	 3.94892852781415E-02 
2228	 4.04294580694966E-02 
2229	 3.92047386290724E-02 
2230	 4.05339255754979E-02 
2231	 3.68289309462512E-02 
2232	 2.23186590724648E-02 
2233	 1.62867240756375E-02 
2234	 1.05597892552449E-02 
2235	 1.29441201765915E-02 
2236	 1.90198418218375E-02 
2237	 2.89465760492138E-02 
2238	 2.95494030921691E-02 
2239	 2.08565091803585E-02 
2240	 1.26508870664643E-02 
2241	 8.31649099857498E-03 
2242	 1.04197040813622E-02 
2243	 1.76631507283341E-02 
2244	 2.65341412994884E-02 
2245	 2.83669928119762E-02 
2246	 2.58510019322206E-02 
2247	 3.14869353194336E-02 
2248	 3.39884905290923E-02 
2249	 0.034076005900172 
2250	 3.63167555058943E-02 
2251	 0.028725232659957 
2252	 0.023274142090329 
2253	 0.018092064293873 
2254	 1.53402777626662E-02 
2255	 2.10184182707878E-02 
2256	 1.81608212790835E-02 
2257	 1.45737308721693E-02 
2258	 1.25455406257399E-02 
2259	 5.06194714431416E-03 
2260	 3.47319525257491E-03 
2261	 8.22428573732539E-03 
2262	 0.011457395887789 
2263	 1.54426284143374E-02 
2264	 1.88193281636999E-02 
2265	 2.47754272140039E-02 
2266	 2.44831642025073E-02 
2267	 1.96026566952491E-02 
2268	 1.75051890378594E-02 
2269	 1.45877774880067E-02 
2270	 9.06519694931966E-03 
2271	-1.58268770661775E-03 
2272	-7.41776222747994E-04 
2273	 5.45685698590177E-03 
2274	 7.5991273807021E-03 
2275	 1.67578546366212E-02 
2276	 2.32572978398378E-02 
2277	 2.22506901842139E-02 
2278	 2.41413458208926E-02 
2279	 3.24243264703959E-02 
2280	 3.70244527256817E-02 
2281	 3.80335289552372E-02 
2282	 4.17972383040187E-02 
2283	 4.26073584924913E-02 
2284	 0.040006591036399 
2285	 3.87415987134137E-02 
2286	 2.53157766380074E-02 
2287	 9.27552106587264E-03 
2288	 1.00010060289514E-03 
2289	-1.21905687526544E-02 
2290	-0.021833725064115 
2291	-1.29146832113198E-02 
2292	-3.72932032030312E-03 
2293	 1.19166321483538E-04 
2294	 6.03937686322207E-03 
2295	 1.60927346018986E-03 
2296	-6.81150304268067E-03 
2297	-1.02879284546846E-02 
2298	-1.61562670941556E-03 
2299	 4.04686399418658E-03 
2300	-6.86681035474769E-03 
2301	-9.71367079855836E-03 
2302	-8.96343789659292E-03 
2303	-5.40092537381078E-03 
2304	 1.21129527623446E-02 
2305	 1.75802787254883E-02 
2306	 4.1998002989395E-03 
2307	-1.1941046652941E-03 
2308	-5.90520074043582E-03 
2309	-1.41575858239968E-02 
2310	-2.20011794387322E-03 
2311	 1.61946976897715E-02 
2312	 1.76746567977305E-02 
2313	 2.06153959508625E-02 
2314	 2.51503068308367E-02 
2315	 8.48618784164292E-03 
2316	 3.99040468613417E-03 
2317	 2.82851367773892E-02 
2318	 3.95859334695645E-02 
2319	 4.01220759112334E-02 
2320	 3.63026073693847E-02 
2321	 1.41465552844224E-02 
2322	 7.40589894118774E-03 
2323	 1.08980708357667E-02 
2324	-1.33701999054231E-02 
2325	-2.11158657315964E-02 
2326	-1.78418083030649E-02 
2327	-2.66052025836501E-02 
2328	-1.78958282608315E-02 
2329	-1.59562981923898E-02 
2330	-3.20478724036819E-02 
2331	-3.85589199919695E-02 
2332	-1.91319994869638E-02 
2333	 3.89502766822922E-03 
2334	 0.01057864670309 
2335	 2.97719760943341E-03 
2336	-2.44443408013198E-03 
2337	-1.98799855743604E-02 
2338	-0.057897233417018 
2339	-4.54539506751224E-02 
2340	-4.00140690011924E-02 
2341	-4.52683470130462E-02 
2342	-2.98094674194172E-02 
2343	-3.51569162524958E-02 
2344	-3.17365483173786E-02 
2345	-2.95621729413754E-02 
2346	-1.32738843468868E-02 
2347	-1.44694784160516E-02 
2348	-6.20972661704084E-02 
2349	-7.43634443599615E-02 
2350	-7.41865279632675E-02 
2351	-7.05327556392863E-02 
2352	 8.15953394201834E-03 
2353	 4.70589430228137E-02 
2354	 5.37197612567283E-02 
2355	 0.102168094985499 
2356	 0.120268493311836 
2357	 6.28045360668671E-02 
2358	-4.38003489579732E-03 
2359	-5.49325872224884E-02 
2360	-0.111810005330463 
2361	-0.104467907486001 
2362	-0.100578731510116 
2363	-0.104450602114807 
2364	-0.116239893541968 
2365	-0.133166529194232 
2366	-0.119334053223093 
2367	-0.114154572324931 
2368	-0.116821588389657 
2369	-0.160751411269588 
2370	-0.206589660892168 
2371	-0.266214116101396 
2372	-0.351006925724865 
2373	-0.369316936816237 
2374	-0.335044798995294 
2375	-0.316875394896231 
2376	-0.32537114005446 
2377	-0.282648536253399 
2378	-0.253566454413877 
2379	-0.264258729425327 
2380	-0.285409775049334 
2381	-0.303607875038739 
2382	-0.266541753940494 
2383	-0.195436806064417 
2384	-0.102631647792604 
2385	-0.119284618319544 
2386	-0.514203997327212 
2387	-1.25084469702657 
2388	-1.3057575998976 
2389	-1.07232486963048 
2390	-0.85368951093875 
2391	-0.477732924623618 
2392	-0.300990884275867 
2393	-0.240274708423689 
2394	-8.35204347200344E-02 
2395	 0.08360449204433 
2396	 0.104114848002596 
2397	-2.44595680979377E-02 
2398	-0.623101357251025 
2399	-1.5319551000045 
2400	-3.85426927587516 
2401	-12.7048546142328 
2402	-11.5486988016755 
2403	-1.87390124933063 
2404	-0.267445251567134 
2405	-0.287343626165683 
2406	-0.525731508966365 
2407	-0.693460847715675 
2408	-1.36423076965276 
2409	-1.50829613284706 
2410	-0.696057891084532 
2411	-0.420206649832058 
2412	-0.497939464418792 
2413	-0.350872785283431 
2414	 0.194525895252666 
2415	 2.28377684937896E-02 
2416	 0.383378951885855 
2417	 0.56311353368125 
2418	 1.01885828833901 
2419	 2.59098051299993 
2420	 18.4666790139234 
2421	-2.23862842776909 
2422	-3.73643519122379 
2423	 11.3022504483511 
2424	 1.7182566214341 
2425	 0.634941812394547 
2426	 2.24293502737892E-02 
2427	 7.94032946725451E-02 
2428	 0.158057620547771 
2429	 2.25694306387642 
2430	-2.55829226949975 
2431	-8.60040728448433E-02 
2432	-0.283133908840195 
2433	 5.79413749364983E-02 
2434	-6.54190896162346E-03 
2435	-0.308080678233648 
2436	-2.68335281560446E-02 
2437	-0.304287578819878 
2438	-1.05241496257309 
2439	-0.689970651015553 
2440	-0.529659665226552 
2441	-0.487946720770714 
2442	-0.410333237783559 
2443	-1.09737102787015 
2444	-2.92667114315086 
2445	-2.42562185358662 
2446	-2.96127816380468 
2447	-2.18284787526176 
2448	-3.48748418379183 
2449	 10.022591369506 
2450	 10.8909563022316 
2451	 31.8224099479892 
2452	-10.9542818859299 
2453	-6.46307466845043 
2454	 7.18310834273505 
2455	 2.46682906038798 
2456	 1.9758253813379 
2457	 3.45105121351022 
2458	-5.487039779451 
2459	-1.69063526583438 
2460	-2.22311755017852 
2461	 293.674854148026 
2462	 4.39548335748598 
2463	 2.75136837091644 
2464	-3.12562618513739 
2465	-0.488809237403623 
2466	-0.219177096977367 
2467	-0.867829995857985 
2468	 10.3440494155024 
2469	 0.995310458892266 
2470	 1.55794935807185 
2471	 1.78872038238127 
2472	 2.73423678151553 
2473	 3.24460471915033 
2474	 2.19589205880984 
2475	 2.61508098357764 
2476	 3.14758453890704 
2477	 5.9101292588436 
2478	 21.4568762080411 
2479	 59.283922460979 
2480	-316.813541761921 
2481	 4.67675076998114 
2482	 1.73879711850753 
2483	 0.925084043273903 
2484	 1.35133468806576 
2485	 1.44493275486575 
2486	 4.10868685093283 
2487	 52.5935152778713 
2488	-37.6114707677705 
2489	-27.6356717613036 
2490	 6.32988999934874 
2491	 3.15514139128155 
2492	 2.38189401812452 
2493	 1.74869943812156 
2494	 1.18198870546213 
2495	 0.96620744323992 
2496	 1.06752467952267 
2497	 1.17353132788938 
2498	 2.24547363176858 
2499	 9.7738450130859 
2500	 150.551952954745 
