Wavelength	rt0728west00005.asd
350	 7.94971419081539E-02 
351	 7.84542827843993E-02 
352	 7.85455347603309E-02 
353	 7.89878022699351E-02 
354	 7.90061443386114E-02 
355	 7.92143781764224E-02 
356	 7.92687680328096E-02 
357	 7.91430560434979E-02 
358	 0.079036184474893 
359	 7.96724282770786E-02 
360	 0.080032916950305 
361	 7.98983506104958E-02 
362	 0.079723150147586 
363	 8.04712788009676E-02 
364	 8.08009639693513E-02 
365	 8.02936092351532E-02 
366	 8.02991667736801E-02 
367	 8.07837821655313E-02 
368	 8.10770748894587E-02 
369	 8.08102205748443E-02 
370	 0.081384285030172 
371	 8.16726978351682E-02 
372	 8.17693173941662E-02 
373	 8.23438788399776E-02 
374	 8.22934651270778E-02 
375	 8.20683304939704E-02 
376	 8.21672340379104E-02 
377	 8.28911255028558E-02 
378	 8.34278994880191E-02 
379	 8.35026453710907E-02 
380	 8.32973778708246E-02 
381	 8.39061552149195E-02 
382	 0.08409058363912 
383	 8.43464820409379E-02 
384	 8.55948226226873E-02 
385	 8.55405523061354E-02 
386	 8.53113250471428E-02 
387	 0.085718699650858 
388	 8.68142942540076E-02 
389	 8.69445897616796E-02 
390	 8.67343450037566E-02 
391	 8.68892436331237E-02 
392	 8.70792960264026E-02 
393	 8.76738035282941E-02 
394	 8.82082932822855E-02 
395	 8.81529462880621E-02 
396	 8.82368206354753E-02 
397	 8.83947291598886E-02 
398	 8.85646573411902E-02 
399	 8.87391596635129E-02 
400	 8.91340094564166E-02 
401	 8.93619123072365E-02 
402	 8.93099559993085E-02 
403	 8.96439326841278E-02 
404	 0.09012249628899 
405	 9.05296814280873E-02 
406	 0.090731949110863 
407	 9.10747191262569E-02 
408	 9.12399838680144E-02 
409	 9.13410729588158E-02 
410	 9.19023517609337E-02 
411	 9.22408633461403E-02 
412	 9.25826493028185E-02 
413	 9.30287408560695E-02 
414	 9.29231888336566E-02 
415	 9.30453670852137E-02 
416	 0.093496332996589 
417	 9.40426441360395E-02 
418	 9.43357913506544E-02 
419	 9.46229740897449E-02 
420	 9.50258318390656E-02 
421	 9.54780935946942E-02 
422	 9.58329504452746E-02 
423	 9.61755883702143E-02 
424	 9.66238577144717E-02 
425	 9.72614602311459E-02 
426	 9.78146835452817E-02 
427	 9.81744920305373E-02 
428	 9.84118666077753E-02 
429	 9.91845791475923E-02 
430	 9.97610032166597E-02 
431	 9.99929721760125E-02 
432	 0.100557127041291 
433	 0.10129774385821 
434	 0.10191340196575 
435	 0.102273220518419 
436	 0.102848988601831 
437	 0.103389025118896 
438	 0.103860080132335 
439	 0.104355135119514 
440	 0.104961147018206 
441	 0.105572683381341 
442	 0.106123151619304 
443	 0.106638257327514 
444	 0.107076829338706 
445	 0.107537752053777 
446	 0.108084980091312 
447	 0.108492594653083 
448	 0.108987680750831 
449	 0.109526106270495 
450	 0.109883570551359 
451	 0.110314651121883 
452	 0.110666140159405 
453	 0.110884196270062 
454	 0.111218850169662 
455	 0.111740124138906 
456	 0.112226823133216 
457	 0.112451755387572 
458	 0.112816124107288 
459	 0.113109726518083 
460	 0.113369813122884 
461	 0.11388427658301 
462	 0.114205639960457 
463	 0.114394671382116 
464	 0.114624948574727 
465	 0.115093272659095 
466	 0.115478684906716 
467	 0.115793462490748 
468	 0.116191891041289 
469	 0.116508476320975 
470	 0.116860912676683 
471	 0.117278616664288 
472	 0.117641306756638 
473	 0.117927447870128 
474	 0.118243510745978 
475	 0.118674354304005 
476	 0.119099795873787 
477	 0.119499382623747 
478	 0.119841466177356 
479	 0.12011430580306 
480	 0.120586151592986 
481	 0.120947620460415 
482	 0.121148227310778 
483	 0.121839383288527 
484	 0.122337443486829 
485	 0.122757024180198 
486	 0.12340248878037 
487	 0.123915641828093 
488	 0.124266681206657 
489	 0.124644290769636 
490	 0.125392510013228 
491	 0.125922994356759 
492	 0.126342603074636 
493	 0.12686362492194 
494	 0.127630290107128 
495	 0.128203504571537 
496	 0.128723383326148 
497	 0.129548722269709 
498	 0.130099751531667 
499	 0.130720571812761 
500	 0.131546957851239 
501	 0.132249051441719 
502	 0.132966172397152 
503	 0.133697493057881 
504	 0.134415374573635 
505	 0.135126643118501 
506	 0.135828293656597 
507	 0.13649268410839 
508	 0.137080188117165 
509	 0.137638691724496 
510	 0.138332167161528 
511	 0.139165649493046 
512	 0.139737247408106 
513	 0.140359204477464 
514	 0.141182655192684 
515	 0.142212938398697 
516	 0.142987979248634 
517	 0.143794810859867 
518	 0.144721304212291 
519	 0.145530278956877 
520	 0.146348731383702 
521	 0.147212997071778 
522	 0.148119163848555 
523	 0.148980460785859 
524	 0.149810304069868 
525	 0.150707279890481 
526	 0.151789812966373 
527	 0.152611325493184 
528	 0.153508291337107 
529	 0.1546104045041 
530	 0.155401413267463 
531	 0.156368488677274 
532	 0.157367316523796 
533	 0.158134264894048 
534	 0.159193491033068 
535	 0.160229641746371 
536	 0.161141704564401 
537	 0.162121814287947 
538	 0.163152658842703 
539	 0.164225810544576 
540	 0.165305440440037 
541	 0.166277497083804 
542	 0.167296233000876 
543	 0.16834586461392 
544	 0.169316609972529 
545	 0.170295406343686 
546	 0.171225385913416 
547	 0.172108261297143 
548	 0.173101503545333 
549	 0.174048756010462 
550	 0.174971411485218 
551	 0.175940530928609 
552	 0.176922247724466 
553	 0.177859637200398 
554	 0.178792968447169 
555	 0.17986093616305 
556	 0.180778549424687 
557	 0.181683265010142 
558	 0.182692163554744 
559	 0.183543859500006 
560	 0.184339486672288 
561	 0.185161963546032 
562	 0.186061347520054 
563	 0.186809326644828 
564	 0.187578344409667 
565	 0.188457066904852 
566	 0.189280049769787 
567	 0.18999945155504 
568	 0.190669549764249 
569	 0.191359277125708 
570	 0.191951680044206 
571	 0.19247011883536 
572	 0.192945985018213 
573	 0.19340369746068 
574	 0.193779348546392 
575	 0.194170827232171 
576	 0.194596253302685 
577	 0.194692691796245 
578	 0.194861314863777 
579	 0.195098583772652 
580	 0.195169813344331 
581	 0.19526189350566 
582	 0.195240704166326 
583	 0.195099284178919 
584	 0.19512011015621 
585	 0.19535139066835 
586	 0.195647638967034 
587	 0.195820801111977 
588	 0.196054446597822 
589	 0.195955144785185 
590	 0.195485687122493 
591	 0.195011098197259 
592	 0.194589691970034 
593	 0.193962055866203 
594	 0.193025792081876 
595	 0.192362762970917 
596	 0.191358614223911 
597	 0.190045923600331 
598	 0.188810095553819 
599	 0.187506286337311 
600	 0.186374817332663 
601	 0.185551823842278 
602	 0.1849372607598 
603	 0.184459798116541 
604	 0.184155713598256 
605	 0.184062688106555 
606	 0.184000006151864 
607	 0.184013529309458 
608	 0.184075237376154 
609	 0.184073267259581 
610	 0.184023034947075 
611	 0.184037836353065 
612	 0.184171071596694 
613	 0.184249410106042 
614	 0.184287576376435 
615	 0.18422716314229 
616	 0.184035301512887 
617	 0.184206212324233 
618	 0.184362724152998 
619	 0.18430750019532 
620	 0.184278112768789 
621	 0.18428869634941 
622	 0.184264252299267 
623	 0.184175748234577 
624	 0.184390339484799 
625	 0.184651847758725 
626	 0.184787798134922 
627	 0.184744295096004 
628	 0.184751466071168 
629	 0.184706129316883 
630	 0.184541278515678 
631	 0.184459416412772 
632	 0.184373900582311 
633	 0.184260288094068 
634	 0.184143974795643 
635	 0.184234170388111 
636	 0.184186630150725 
637	 0.18393812611317 
638	 0.183892993348175 
639	 0.183814954542004 
640	 0.183660425002679 
641	 0.183472777504219 
642	 0.183398987515271 
643	 0.183433003384898 
644	 0.183565936686777 
645	 0.183777823025864 
646	 0.183902485572447 
647	 0.18376494828577 
648	 0.183338340142079 
649	 0.182854613383944 
650	 0.182551543941943 
651	 0.182208819048781 
652	 0.18152089751184 
653	 0.180829883872476 
654	 0.180150761585947 
655	 0.179357763998067 
656	 0.178277513143635 
657	 0.177116792025999 
658	 0.176228064497065 
659	 0.175688944562983 
660	 0.174801066765441 
661	 0.174190582766108 
662	 0.173802953082289 
663	 0.173216614665406 
664	 0.172834997664628 
665	 0.172420401105929 
666	 0.171893634222587 
667	 0.171605966966476 
668	 0.171423967924782 
669	 0.171244764342233 
670	 0.171009220647756 
671	 0.170833263750724 
672	 0.170831867073982 
673	 0.170941834363701 
674	 0.170951674949834 
675	 0.171073701744764 
676	 0.1712536460813 
677	 0.171410453948767 
678	 0.171507775476561 
679	 0.171709758769263 
680	 0.17202904710891 
681	 0.172382112216149 
682	 0.172556263059569 
683	 0.172990666772911 
684	 0.173747334949898 
685	 0.174380533905995 
686	 0.175136404038222 
687	 0.175655574513829 
688	 0.175655828001565 
689	 0.175636084186745 
690	 0.175821196227579 
691	 0.176177787999645 
692	 0.176461583921986 
693	 0.176212015886085 
694	 0.175443462868291 
695	 0.174428768940246 
696	 0.173420838151718 
697	 0.172853286312956 
698	 0.172521800536353 
699	 0.172018522047093 
700	 0.17096874546984 
701	 0.169488963469826 
702	 0.167936867944531 
703	 0.166681646768706 
704	 0.165469616707664 
705	 0.164108828054995 
706	 0.162498219372709 
707	 0.160518463729495 
708	 0.158698322198043 
709	 0.156858580103942 
710	 0.15465988023752 
711	 0.152465477028517 
712	 0.150151506198241 
713	 0.14783990097492 
714	 0.145888171545581 
715	 0.144423159429664 
716	 0.143060504766932 
717	 0.141293516560444 
718	 0.138486692145346 
719	 0.134834599030196 
720	 0.131449407198104 
721	 0.128486176970867 
722	 0.126831543584946 
723	 0.124759013558164 
724	 0.121798558879463 
725	 0.118868825574657 
726	 0.116146435857379 
727	 0.113166302899981 
728	 0.109694750601486 
729	 0.10659812472774 
730	 0.103168784075214 
731	 9.97216502868127E-02 
732	 9.66802611261396E-02 
733	 9.42774560192373E-02 
734	 9.24833883271671E-02 
735	 9.11468582950164E-02 
736	 8.98643943432731E-02 
737	 0.088723137816843 
738	 8.77654113780309E-02 
739	 8.70276169804439E-02 
740	 8.64738612227824E-02 
741	 8.60524729722154E-02 
742	 8.57566788634283E-02 
743	 8.55941723675087E-02 
744	 8.55453699375931E-02 
745	 8.54911963776939E-02 
746	 8.53592912893868E-02 
747	 8.51490240554522E-02 
748	 8.52321051810515E-02 
749	 0.085190531112658 
750	 8.47765248617161E-02 
751	 8.50063735458135E-02 
752	 8.50275537834776E-02 
753	 8.49049085308859E-02 
754	 0.085117737505328 
755	 8.50041445676245E-02 
756	 8.49854020375868E-02 
757	 8.52530864090353E-02 
758	 8.56145849758778E-02 
759	 8.68677565001296E-02 
760	 8.82496886304265E-02 
761	 8.78104912277565E-02 
762	 8.80519633607454E-02 
763	 8.78054435603131E-02 
764	 8.71897854027744E-02 
765	 8.66679163396146E-02 
766	 8.62683121311753E-02 
767	 8.60698163240819E-02 
768	 8.60584587363271E-02 
769	 8.61459772471629E-02 
770	 8.62358214131398E-02 
771	 8.64435565824577E-02 
772	 8.67773022242476E-02 
773	 0.086820068413441 
774	 8.70051361477487E-02 
775	 0.087253091801074 
776	 0.087372587811393 
777	 8.79678790319898E-02 
778	 8.83066096729916E-02 
779	 8.83958966074865E-02 
780	 8.90217804739137E-02 
781	 8.93143478146307E-02 
782	 8.95640439330313E-02 
783	 9.00618985811254E-02 
784	 0.090625999433496 
785	 9.11723454443953E-02 
786	 9.17322533536184E-02 
787	 9.23821868993876E-02 
788	 9.31924826221349E-02 
789	 9.36378218797155E-02 
790	 9.38879296851243E-02 
791	 9.45908618714849E-02 
792	 0.094704362806679 
793	 9.50304716405405E-02 
794	 9.59044936966807E-02 
795	 9.64900517178515E-02 
796	 9.70663193025506E-02 
797	 9.76130233273959E-02 
798	 9.80681287677406E-02 
799	 9.83035924904468E-02 
800	 9.89121836986217E-02 
801	 9.95197156052315E-02 
802	 9.94004534582129E-02 
803	 9.96366073255236E-02 
804	 9.98584625750281E-02 
805	 9.98871982367134E-02 
806	 9.98874780091376E-02 
807	 9.99792703194405E-02 
808	 0.100177381681296 
809	 0.100419423923529 
810	 0.100500273641932 
811	 0.100802557406022 
812	 0.10115334435607 
813	 0.101191155841254 
814	 0.10133905846631 
815	 0.101192912248462 
816	 0.100473272771143 
817	 9.91976368345946E-02 
818	 9.77213772757029E-02 
819	 9.66490730744031E-02 
820	 9.59827283084743E-02 
821	 9.52057492347122E-02 
822	 9.38454910028642E-02 
823	 9.18982516294021E-02 
824	 8.98515199109838E-02 
825	 8.84854556202735E-02 
826	 8.68906068296448E-02 
827	 8.49396652301694E-02 
828	 8.30101640790448E-02 
829	 8.14866643708553E-02 
830	 7.99657796013563E-02 
831	 7.84538007472304E-02 
832	 7.73117539360221E-02 
833	 7.64555859280129E-02 
834	 7.55440279357459E-02 
835	 7.46292255796674E-02 
836	 7.42811887961595E-02 
837	 7.37295785007525E-02 
838	 7.33093751828838E-02 
839	 7.32144120639561E-02 
840	 7.26640908006093E-02 
841	 7.22970513319195E-02 
842	 7.20090779994279E-02 
843	 7.15641417458406E-02 
844	 7.14132335155187E-02 
845	 0.071302235580058 
846	 7.10579503121369E-02 
847	 7.06308288157477E-02 
848	 7.03632889005976E-02 
849	 0.070143669756548 
850	 6.99253136870458E-02 
851	 6.98002725243496E-02 
852	 6.95177480848684E-02 
853	 6.93119928001631E-02 
854	 6.92866694986759E-02 
855	 6.90429583942354E-02 
856	 6.90086418254348E-02 
857	 6.90027489746573E-02 
858	 0.068755198743183 
859	 0.06825455896701 
860	 6.81225312702026E-02 
861	 6.82273381774178E-02 
862	 6.81087895447667E-02 
863	 6.80307882937706E-02 
864	 6.76713304150686E-02 
865	 6.71930131397169E-02 
866	 0.067155003883679 
867	 0.067076159126426 
868	 6.71156188536776E-02 
869	 6.71599485940189E-02 
870	 6.66758569483472E-02 
871	 0.066343892252631 
872	 6.62705348969648E-02 
873	 6.63381302265503E-02 
874	 6.62529255678917E-02 
875	 6.59383398140409E-02 
876	 6.56979543935454E-02 
877	 6.57037039373062E-02 
878	 6.51354041172383E-02 
879	 6.52608495392721E-02 
880	 6.51940945236106E-02 
881	 6.37828325070534E-02 
882	 6.44780308993101E-02 
883	 6.51691919829117E-02 
884	 6.49312100270149E-02 
885	 6.41541503288101E-02 
886	 6.40038924511815E-02 
887	 6.39801489208982E-02 
888	 6.38835250303808E-02 
889	 6.40530175927891E-02 
890	 6.39294483667924E-02 
891	 6.38439633075632E-02 
892	 6.40273886908233E-02 
893	 6.41803498650126E-02 
894	 6.46606228253746E-02 
895	 0.065090934259093 
896	 0.065163395205345 
897	 6.56243883079506E-02 
898	 0.066458354614943 
899	 6.63299435914353E-02 
900	 6.47482599357903E-02 
901	 0.065158308767677 
902	 6.47105180168274E-02 
903	 6.39488689048481E-02 
904	 6.41984566020601E-02 
905	 6.38985069881452E-02 
906	 6.37354308379543E-02 
907	 6.40417575214807E-02 
908	 6.46707646659054E-02 
909	 6.46797809024062E-02 
910	 6.40067635073407E-02 
911	 0.063408084874147 
912	 6.40740773948604E-02 
913	 6.57625161384131E-02 
914	 6.49276893094933E-02 
915	 0.061986771727172 
916	 6.18110843305282E-02 
917	 6.25100590761105E-02 
918	 6.28393980899504E-02 
919	 6.24600152043878E-02 
920	 6.20126019680524E-02 
921	 6.16842388739461E-02 
922	 6.15760970601071E-02 
923	 6.17110096927114E-02 
924	 6.20260464443722E-02 
925	 6.23521306693848E-02 
926	 6.21873446276924E-02 
927	 6.18611279909706E-02 
928	 6.58603222070662E-02 
929	 6.23312771311639E-02 
930	 5.64725924158462E-02 
931	 6.50297962239896E-02 
932	 7.42029243470444E-02 
933	 7.30133413234867E-02 
934	 6.71514084621901E-02 
935	 0.069758928965241 
936	 6.66392152188399E-02 
937	 6.45573599778884E-02 
938	 6.20914922952487E-02 
939	 5.87996734056885E-02 
940	 0.069932832366745 
941	 6.89207159608385E-02 
942	 6.47349957440817E-02 
943	 7.63126871981004E-02 
944	 6.28457328894359E-02 
945	 5.85739558521752E-02 
946	 6.47118482804616E-02 
947	 6.25249325378092E-02 
948	 6.42174353588336E-02 
949	 6.73381268495072E-02 
950	 6.84032429544166E-02 
951	 6.54818929891162E-02 
952	 6.50368303223886E-02 
953	 6.67971163640908E-02 
954	 6.97552480417747E-02 
955	 7.19085512324501E-02 
956	 6.67905494584733E-02 
957	 6.12862133374296E-02 
958	 6.08106971771219E-02 
959	 6.63689354144285E-02 
960	 6.66544546934145E-02 
961	 6.01087506858609E-02 
962	 5.62107028111133E-02 
963	 6.47743188514703E-02 
964	 6.16081263977141E-02 
965	 5.74478401709814E-02 
966	 5.81611147041138E-02 
967	 6.25203341510049E-02 
968	 5.74627488726868E-02 
969	 5.62315943999351E-02 
970	 5.94415511736706E-02 
971	 5.71969353066772E-02 
972	 6.01167848299725E-02 
973	 6.03650656284988E-02 
974	 0.057144017976762 
975	 5.77429032960569E-02 
976	 5.93705738729043E-02 
977	 5.83431183950136E-02 
978	 0.057047903965705 
979	 6.08298686383768E-02 
980	 5.83044061412377E-02 
981	 5.59557890367222E-02 
982	 5.69035246994295E-02 
983	 5.93041291465971E-02 
984	 5.75663735880824E-02 
985	 5.58093112252518E-02 
986	 0.055705363980568 
987	 5.61749509680512E-02 
988	 0.057085937709027 
989	 5.68391485046981E-02 
990	 5.64367056673824E-02 
991	 5.79596839993767E-02 
992	 5.69074973263881E-02 
993	 5.61651563308165E-02 
994	 5.61731905895745E-02 
995	 5.54223355182757E-02 
996	 5.42743069462018E-02 
997	 5.45253854284122E-02 
998	 5.54035171396061E-02 
999	 5.48659979421564E-02 
1000	 5.35300449136662E-02 
1001	 5.72919245734598E-02 
1002	 5.71589651330072E-02 
1003	 5.69299561009659E-02 
1004	 5.53566390093596E-02 
1005	 0.054947499826421 
1006	 5.53378604225592E-02 
1007	 5.54361196705443E-02 
1008	 5.58036560324657E-02 
1009	 5.62061603724102E-02 
1010	 5.62935752785408E-02 
1011	 5.66187934443086E-02 
1012	 5.64468175555696E-02 
1013	 5.60228876324953E-02 
1014	 5.58425881397634E-02 
1015	 5.54119943949423E-02 
1016	 5.53780923185452E-02 
1017	 5.58395316077304E-02 
1018	 5.59942535980198E-02 
1019	 5.62897578170157E-02 
1020	 5.63340926005474E-02 
1021	 5.58509320281483E-02 
1022	 5.59091673468389E-02 
1023	 5.63008779957268E-02 
1024	 5.67028332628051E-02 
1025	 5.72062553951241E-02 
1026	 5.70182511860616E-02 
1027	 5.67468274968719E-02 
1028	 5.56173548769911E-02 
1029	 5.54767866714075E-02 
1030	 5.58049987480424E-02 
1031	 5.58332184955901E-02 
1032	 5.62374101976181E-02 
1033	 5.61396637164307E-02 
1034	 5.54677638616996E-02 
1035	 5.51976930495506E-02 
1036	 5.47673146644018E-02 
1037	 5.47266556680911E-02 
1038	 5.50513351695644E-02 
1039	 5.54493926792631E-02 
1040	 5.56390929920596E-02 
1041	 5.60106558143817E-02 
1042	 5.61186745465583E-02 
1043	 5.58280520794712E-02 
1044	 5.60521201181116E-02 
1045	 5.66048088486143E-02 
1046	 5.67344877674712E-02 
1047	 5.69490521831755E-02 
1048	 5.70340629331072E-02 
1049	 5.65541889115093E-02 
1050	 5.66094617799222E-02 
1051	 5.73985465145286E-02 
1052	 5.73475732802062E-02 
1053	 5.67717165744317E-02 
1054	 5.66029015948444E-02 
1055	 0.055714813422806 
1056	 5.55899505117179E-02 
1057	 5.59366670187998E-02 
1058	 5.73491304374567E-02 
1059	 5.75680070928976E-02 
1060	 5.77454272829805E-02 
1061	 5.77237900568443E-02 
1062	 5.67075082496791E-02 
1063	 5.67962044567223E-02 
1064	 5.77274085313528E-02 
1065	 5.79658612276658E-02 
1066	 5.83699008954929E-02 
1067	 5.85229912454582E-02 
1068	 0.057925226137742 
1069	 5.78482529636216E-02 
1070	 5.83279929407056E-02 
1071	 5.83407501883928E-02 
1072	 5.81380012290354E-02 
1073	 5.81046442159925E-02 
1074	 5.79408618381266E-02 
1075	 5.73482777490276E-02 
1076	 5.72885774441515E-02 
1077	 5.74007953043296E-02 
1078	 5.78303298609837E-02 
1079	 5.89908739872712E-02 
1080	 5.91643174308364E-02 
1081	 5.90268216428392E-02 
1082	 5.90830225958258E-02 
1083	 5.84740403703369E-02 
1084	 5.82675197243874E-02 
1085	 0.058867811890634 
1086	 5.88624877627688E-02 
1087	 5.81190558792622E-02 
1088	 0.057915744465236 
1089	 5.74909628190833E-02 
1090	 5.76365814010194E-02 
1091	 5.82288000024709E-02 
1092	 5.98692451600502E-02 
1093	 6.01491116857385E-02 
1094	 6.03631856723654E-02 
1095	 6.01269168845329E-02 
1096	 5.83534281501934E-02 
1097	 5.80401938047225E-02 
1098	 5.85742922814598E-02 
1099	 5.87381708924145E-02 
1100	 5.91738755563287E-02 
1101	 5.96711272490474E-02 
1102	 5.98523242723433E-02 
1103	 6.04823169512123E-02 
1104	 6.18614806539796E-02 
1105	 6.36065867979925E-02 
1106	 6.33575595608984E-02 
1107	 6.23152893181919E-02 
1108	 6.10523417450282E-02 
1109	 6.02727022667508E-02 
1110	 6.04747507349424E-02 
1111	 6.34405187331445E-02 
1112	 6.48150069618598E-02 
1113	 6.57293736574574E-02 
1114	 0.066520035045571 
1115	 6.66761705673613E-02 
1116	 0.067787421802257 
1117	 6.98006375504886E-02 
1118	 7.32238865379322E-02 
1119	 0.082045549504579 
1120	 8.51903978792688E-02 
1121	 8.54843818222795E-02 
1122	 0.072496416972544 
1123	 0.062360150302892 
1124	 0.072925265798928 
1125	 8.06032723438562E-02 
1126	 8.88319581172759E-02 
1127	 8.87182175601357E-02 
1128	 0.067185242788222 
1129	 6.45389798517102E-02 
1130	 7.45853328282014E-02 
1131	 7.17820341609304E-02 
1132	 6.68214008283929E-02 
1133	 6.49584069880405E-02 
1134	 5.52520121238059E-02 
1135	 5.70979016822779E-02 
1136	 7.02598031443952E-02 
1137	 7.32928406185768E-02 
1138	 7.68411686465751E-02 
1139	 7.63552747613865E-02 
1140	 6.80588696994208E-02 
1141	 6.06908061792673E-02 
1142	 5.98749516126705E-02 
1143	 6.05435627033871E-02 
1144	 6.47570341342295E-02 
1145	 7.20033241387399E-02 
1146	 7.49915710992128E-02 
1147	 7.66565004940324E-02 
1148	 0.07159896152419 
1149	 6.47311869079296E-02 
1150	 6.55060706005983E-02 
1151	 7.04707269303839E-02 
1152	 6.88003752239707E-02 
1153	 6.83790487644804E-02 
1154	 6.75906151329157E-02 
1155	 0.064155843504306 
1156	 6.13624506305991E-02 
1157	 6.09417242672215E-02 
1158	 6.23392544912225E-02 
1159	 6.27316000647048E-02 
1160	 6.14858461277695E-02 
1161	 6.12042403147101E-02 
1162	 6.11200623221522E-02 
1163	 5.99448200040986E-02 
1164	 5.90861455658568E-02 
1165	 5.91875464146348E-02 
1166	 5.96336099354677E-02 
1167	 5.95091081582999E-02 
1168	 5.88635218552752E-02 
1169	 5.88672976980074E-02 
1170	 5.92027576239591E-02 
1171	 5.90019433321463E-02 
1172	 5.91303094948525E-02 
1173	 5.90100934547072E-02 
1174	 5.84856250773629E-02 
1175	 5.73889736770178E-02 
1176	 5.73547707412022E-02 
1177	 5.78966001660883E-02 
1178	 0.057919779894408 
1179	 0.058015220355633 
1180	 5.78866265548024E-02 
1181	 5.73745955358063E-02 
1182	 5.73720479654527E-02 
1183	 5.72624693430144E-02 
1184	 5.67836187028471E-02 
1185	 5.69803906484557E-02 
1186	 5.73338425040735E-02 
1187	 5.75501355047453E-02 
1188	 0.057839530039741 
1189	 5.74362548641462E-02 
1190	 5.70014816603707E-02 
1191	 5.73549875575352E-02 
1192	 5.73505140579485E-02 
1193	 5.73803948149104E-02 
1194	 5.75117771126607E-02 
1195	 5.77813435023648E-02 
1196	 5.73962012185978E-02 
1197	 5.72942657030382E-02 
1198	 5.73691530636196E-02 
1199	 5.71552831045317E-02 
1200	 5.71260594558538E-02 
1201	 5.70108145115889E-02 
1202	 0.057387541687728 
1203	 5.75490795865654E-02 
1204	 5.64814554691916E-02 
1205	 0.056153918405424 
1206	 5.68315423686831E-02 
1207	 5.69735555554812E-02 
1208	 5.74077957174201E-02 
1209	 5.80331894944375E-02 
1210	 5.76075665774362E-02 
1211	 5.64892844770444E-02 
1212	 5.58608842436065E-02 
1213	 5.58004004318609E-02 
1214	 5.55853546960491E-02 
1215	 5.51202636109284E-02 
1216	 5.55670888113119E-02 
1217	 5.64148971027089E-02 
1218	 5.62516168089671E-02 
1219	 5.59672241883741E-02 
1220	 5.60718998763913E-02 
1221	 5.62406266543259E-02 
1222	 5.61590490295453E-02 
1223	 5.60592805277172E-02 
1224	 5.57053236408251E-02 
1225	 5.53028822338182E-02 
1226	 5.54428675527573E-02 
1227	 5.53852347939837E-02 
1228	 5.54844306476251E-02 
1229	 5.57435892479876E-02 
1230	 5.55496792242354E-02 
1231	 5.56188352730985E-02 
1232	 5.57476050392514E-02 
1233	 5.53866743297083E-02 
1234	 5.53132552089554E-02 
1235	 5.52220827430072E-02 
1236	 5.51565207048507E-02 
1237	 5.50402811190539E-02 
1238	 5.50260784387578E-02 
1239	 5.48807183706211E-02 
1240	 5.45819190534591E-02 
1241	 0.054622835836039 
1242	 0.054581575742024 
1243	 5.45899625728352E-02 
1244	 5.46556217916723E-02 
1245	 5.46030803685846E-02 
1246	 5.49467931225018E-02 
1247	 5.50789932982601E-02 
1248	 5.46768637146872E-02 
1249	 0.054863416779377 
1250	 0.055239679836086 
1251	 5.49685536690988E-02 
1252	 5.47348710194131E-02 
1253	 5.48027586235233E-02 
1254	 5.47990216404535E-02 
1255	 5.49610613794572E-02 
1256	 5.49691127081932E-02 
1257	 5.50671354992488E-02 
1258	 5.50947437450624E-02 
1259	 5.48847202268991E-02 
1260	 5.48525172640693E-02 
1261	 5.49647783200879E-02 
1262	 5.50534675178197E-02 
1263	 0.055162696611918 
1264	 5.53611686132749E-02 
1265	 5.48430106377421E-02 
1266	 5.49301477677715E-02 
1267	 5.55799373644123E-02 
1268	 5.53335879825223E-02 
1269	 5.50677999077954E-02 
1270	 5.51352871925049E-02 
1271	 5.48819243647018E-02 
1272	 5.46585988954407E-02 
1273	 5.49758477045911E-02 
1274	 5.54252106454012E-02 
1275	 5.55706563373752E-02 
1276	 5.56266500902028E-02 
1277	 5.56890372576575E-02 
1278	 5.58149100923792E-02 
1279	 5.58153873424348E-02 
1280	 5.56192859705567E-02 
1281	 5.54209917467769E-02 
1282	 0.055074101229032 
1283	 5.49570415428463E-02 
1284	 5.48775316469998E-02 
1285	 5.49001152540532E-02 
1286	 5.52657759903404E-02 
1287	 5.54327580061887E-02 
1288	 5.53631795031942E-02 
1289	 5.55182901977977E-02 
1290	 5.57921654125658E-02 
1291	 5.59107273600643E-02 
1292	 5.64308257393045E-02 
1293	 5.68111869694643E-02 
1294	 5.67720465871872E-02 
1295	 5.70519119372689E-02 
1296	 5.71688949859965E-02 
1297	 5.71991759144872E-02 
1298	 5.74497553400852E-02 
1299	 5.76770051277771E-02 
1300	 5.76979088987958E-02 
1301	 5.73212472932231E-02 
1302	 5.71783283998834E-02 
1303	 0.057097981760879 
1304	 5.68338349592212E-02 
1305	 5.71747964281856E-02 
1306	 5.71845362919701E-02 
1307	 0.056864139844398 
1308	 5.68677717393134E-02 
1309	 5.69270864692262E-02 
1310	 5.70034079340109E-02 
1311	 0.057069545443676 
1312	 5.76583868557613E-02 
1313	 5.95632669097487E-02 
1314	 0.05981343207211 
1315	 5.85892976628652E-02 
1316	 5.90140620751673E-02 
1317	 5.94158381978748E-02 
1318	 5.92585593592384E-02 
1319	 6.00922073550551E-02 
1320	 6.11918707362181E-02 
1321	 6.20130049895707E-02 
1322	 6.18871493841319E-02 
1323	 6.18973203663525E-02 
1324	 6.27161782538439E-02 
1325	 6.29381355034805E-02 
1326	 6.19408331101653E-02 
1327	 6.11275387730207E-02 
1328	 6.00280880052598E-02 
1329	 5.82488104493096E-02 
1330	 5.62998203330914E-02 
1331	 5.76006620194791E-02 
1332	 6.19387653566736E-02 
1333	 0.061650099013949 
1334	 6.06484678532787E-02 
1335	 6.12325861352197E-02 
1336	 6.04896261920543E-02 
1337	 6.07935402222265E-02 
1338	 6.42859526878149E-02 
1339	 6.62419047399881E-02 
1340	 6.73761350442731E-02 
1341	 6.77777325820752E-02 
1342	 6.80348190321365E-02 
1343	 6.76275724021107E-02 
1344	 6.13424054563581E-02 
1345	 6.19490140475816E-02 
1346	 7.49737021412983E-02 
1347	 7.84463149669519E-02 
1348	 7.91543540534754E-02 
1349	 8.40073092873076E-02 
1350	 6.77893831839135E-02 
1351	 5.46457612089953E-02 
1352	 6.51853990778219E-02 
1353	 8.67979813630224E-02 
1354	 0.149290985236638 
1355	 0.171809249581827 
1356	 0.277803401424501 
1357	 0.351472857193501 
1358	 9.29141459778586E-02 
1359	-0.197803888981315 
1360	-0.222400079087187 
1361	-0.163307198537156 
1362	 9.47618128818003E-02 
1363	 0.533684160018569 
1364	 0.650763871850288 
1365	 0.244264908941966 
1366	-3.32555363111101E-02 
1367	 0.61691668516621 
1368	-0.353140696187599 
1369	-0.797124597568147 
1370	-5.45707831192916E-02 
1371	 2.75980430835474 
1372	 1.61935037633782 
1373	 0.211333152873819 
1374	 0.198127399257306 
1375	-0.589479701089408 
1376	-0.87514043571391 
1377	-0.294200349327396 
1378	 4.52482831757546E-03 
1379	 5.59850244419803E-02 
1380	-0.111618365110879 
1381	 0.195386716479549 
1382	 0.375707983128224 
1383	-5.89718891461343E-02 
1384	-0.178125851696334 
1385	-0.216955503532044 
1386	 0.151373557347214 
1387	 2.611937192514 
1388	 3.38742271349322 
1389	 0.401709672360794 
1390	 0.401247745216394 
1391	 4.35143827357478E-02 
1392	-0.156531464586436 
1393	 0.150114709779193 
1394	 1.1128200938733 
1395	 2.50125706434487 
1396	 0.780669523101055 
1397	 0.432001647947695 
1398	 0.681668382853197 
1399	 0.475396657147616 
1400	 0.788739822210427 
1401	 0.726843328632833 
1402	 0.38032008231832 
1403	 0.591941073999391 
1404	 0.624277463909599 
1405	 0.540561980876457 
1406	 0.474268026683646 
1407	 0.497865338905084 
1408	 1.09328420398772E-04 
1409	-0.517789652736984 
1410	-0.298055290444514 
1411	-1.44419697484463E-02 
1412	-0.282381894212249 
1413	-0.502595749319262 
1414	-0.363231482131436 
1415	-8.05811563174146E-03 
1416	 0.459915648581809 
1417	 0.510682139372533 
1418	 0.378762267048365 
1419	 0.406418515644836 
1420	 0.274456483914213 
1421	 7.29810874615896E-02 
1422	 4.35789887873182E-02 
1423	 3.26286108895427E-02 
1424	-0.126433363733658 
1425	-0.144639846128552 
1426	 7.41134282029973E-03 
1427	 8.83091732805666E-02 
1428	 0.199998344102723 
1429	 0.183031137229643 
1430	 6.43331156572167E-02 
1431	 5.81781118739562E-02 
1432	 2.91650406251205E-02 
1433	 0.0222387858362 
1434	 0.107054521261009 
1435	 0.159010364433789 
1436	 0.208518854864719 
1437	 0.199334640369604 
1438	 9.24349530076869E-02 
1439	 6.58011718474542E-02 
1440	 0.100960079810611 
1441	 6.86286428087939E-02 
1442	 4.13382003600069E-02 
1443	 7.51221784443107E-02 
1444	 0.13095021341332 
1445	 0.140519644237357 
1446	 0.123240308323195 
1447	 0.128941857075359 
1448	 0.108175138544289 
1449	 7.55125497696343E-02 
1450	 7.45754959307453E-02 
1451	 7.94894818045907E-02 
1452	 7.57591891791783E-02 
1453	 6.57750250604664E-02 
1454	 6.34204873148417E-02 
1455	 6.92036148033658E-02 
1456	 7.14950617210864E-02 
1457	 7.08689678442214E-02 
1458	 7.12010601471371E-02 
1459	 7.22167866500863E-02 
1460	 7.86447009683532E-02 
1461	 9.18286255158224E-02 
1462	 8.92809330141212E-02 
1463	 7.99607875889424E-02 
1464	 7.91844088591365E-02 
1465	 7.05638189041156E-02 
1466	 6.51762068067261E-02 
1467	 0.072700726834146 
1468	 7.63720280960069E-02 
1469	 7.06971371887508E-02 
1470	 0.06917516330408 
1471	 7.67558279852886E-02 
1472	 7.90298612631007E-02 
1473	 7.46521552361106E-02 
1474	 7.39465151221236E-02 
1475	 7.62404998771559E-02 
1476	 7.78738405790406E-02 
1477	 7.83882721685197E-02 
1478	 7.87774782941259E-02 
1479	 8.20854379052911E-02 
1480	 8.11631732593647E-02 
1481	 7.56898317042489E-02 
1482	 7.49018311677976E-02 
1483	 7.68475051476105E-02 
1484	 7.47979730181986E-02 
1485	 7.39040795378392E-02 
1486	 0.071196517599139 
1487	 6.34743377530325E-02 
1488	 6.23543309648478E-02 
1489	 6.48705328742077E-02 
1490	 0.064625742164898 
1491	 6.52690330070572E-02 
1492	 6.52150155355506E-02 
1493	 6.31717165043887E-02 
1494	 6.30303931256743E-02 
1495	 6.48710037377782E-02 
1496	 6.45081433253686E-02 
1497	 6.24842028443914E-02 
1498	 6.24669747554601E-02 
1499	 6.29394420328623E-02 
1500	 6.28007468787359E-02 
1501	 6.36436119650104E-02 
1502	 6.41303232463598E-02 
1503	 6.38637165561046E-02 
1504	 6.33713271911833E-02 
1505	 6.28126886106025E-02 
1506	 6.26117797498662E-02 
1507	 0.062310043694583 
1508	 6.18734856424858E-02 
1509	 6.21807070010171E-02 
1510	 6.21723046578443E-02 
1511	 6.16990790578322E-02 
1512	 6.17179150747075E-02 
1513	 6.15014357076152E-02 
1514	 6.08321564866764E-02 
1515	 6.06806840636518E-02 
1516	 6.09789234488983E-02 
1517	 6.13583301564227E-02 
1518	 6.15770547017499E-02 
1519	 6.13872196051654E-02 
1520	 6.13628759624434E-02 
1521	 6.11753570547792E-02 
1522	 6.08514372282174E-02 
1523	 6.13970249554136E-02 
1524	 6.14051075604743E-02 
1525	 6.04517493517003E-02 
1526	 6.03855291884067E-02 
1527	 0.060589686847603 
1528	 5.99997118647917E-02 
1529	 0.059456189535641 
1530	 5.97807166712432E-02 
1531	 6.02671377478378E-02 
1532	 5.99990859608051E-02 
1533	 0.059541374072708 
1534	 5.96395687969832E-02 
1535	 5.96558013324915E-02 
1536	 0.058974828592241 
1537	 5.89803337961958E-02 
1538	 5.98243586965172E-02 
1539	 5.97266221617337E-02 
1540	 5.90814831383467E-02 
1541	 5.91311373308573E-02 
1542	 5.90877032921933E-02 
1543	 5.86471815516259E-02 
1544	 5.91313219927103E-02 
1545	 5.97770768361189E-02 
1546	 5.93786578931331E-02 
1547	 5.90416462997281E-02 
1548	 5.89103117040776E-02 
1549	 5.87263827374564E-02 
1550	 5.87475769591149E-02 
1551	 5.87573925334429E-02 
1552	 5.86175781452382E-02 
1553	 5.80028656599386E-02 
1554	 5.75031161483089E-02 
1555	 5.73479665148896E-02 
1556	 5.75751684492432E-02 
1557	 5.84281739406444E-02 
1558	 0.058773143045925 
1559	 5.87165340105126E-02 
1560	 5.88180667263593E-02 
1561	 5.86238981694558E-02 
1562	 5.83889708304965E-02 
1563	 0.058690653076885 
1564	 5.90867430290517E-02 
1565	 0.058705025298285 
1566	 5.84407721120687E-02 
1567	 5.85328781359483E-02 
1568	 5.79634934224525E-02 
1569	 5.76692876248482E-02 
1570	 5.78033431447175E-02 
1571	 5.80567215239505E-02 
1572	 5.87607744198429E-02 
1573	 5.89843081921132E-02 
1574	 0.058745053412646 
1575	 5.85319936826827E-02 
1576	 5.81017378056163E-02 
1577	 5.80081733327188E-02 
1578	 5.83906880171317E-02 
1579	 5.86181047943345E-02 
1580	 0.058668089263884 
1581	 5.85279764054119E-02 
1582	 5.84499880961104E-02 
1583	 5.87870823338629E-02 
1584	 5.88188854336206E-02 
1585	 5.86412079131743E-02 
1586	 5.88305504766776E-02 
1587	 5.85685854477232E-02 
1588	 5.78025845871308E-02 
1589	 5.75425131104342E-02 
1590	 5.77772790400519E-02 
1591	 5.79175430919638E-02 
1592	 5.79565377479093E-02 
1593	 5.77797633085409E-02 
1594	 5.76416498302191E-02 
1595	 5.79912530597095E-02 
1596	 5.82433792891952E-02 
1597	 5.83539446690356E-02 
1598	 5.82195849368465E-02 
1599	 5.76027089596077E-02 
1600	 5.72784526521417E-02 
1601	 5.69001520096739E-02 
1602	 5.65149170100278E-02 
1603	 5.68223850165515E-02 
1604	 5.70406276938432E-02 
1605	 0.05696253464021 
1606	 5.72691986987316E-02 
1607	 5.80412167637162E-02 
1608	 5.83898383401492E-02 
1609	 5.81788483666409E-02 
1610	 5.82523482043678E-02 
1611	 5.80999076201211E-02 
1612	 5.77884675085756E-02 
1613	 5.82630872578007E-02 
1614	 0.058655558844563 
1615	 0.058136977397377 
1616	 5.74648594891024E-02 
1617	 5.73829360012846E-02 
1618	 5.74674181820862E-02 
1619	 5.78882568549657E-02 
1620	 5.86421241492612E-02 
1621	 5.84833698582397E-02 
1622	 5.84189355739921E-02 
1623	 5.85776001829633E-02 
1624	 5.78269311001924E-02 
1625	 5.75165794521109E-02 
1626	 5.76062220604071E-02 
1627	 5.74608895554168E-02 
1628	 5.74536771863836E-02 
1629	 5.74501776635204E-02 
1630	 5.76280172389673E-02 
1631	 0.057769726978557 
1632	 5.78897332532685E-02 
1633	 5.83849163318078E-02 
1634	 5.86661856685697E-02 
1635	 5.82486547980426E-02 
1636	 5.78566251711971E-02 
1637	 5.78221645099244E-02 
1638	 5.76965814073275E-02 
1639	 5.78879563791216E-02 
1640	 5.81292343097382E-02 
1641	 5.77579628997021E-02 
1642	 5.78278832498301E-02 
1643	 5.84435688552476E-02 
1644	 5.85220001760407E-02 
1645	 5.85188601853195E-02 
1646	 5.83678522640972E-02 
1647	 5.72553618676647E-02 
1648	 5.69966825437019E-02 
1649	 5.79052592663639E-02 
1650	 5.77052636553814E-02 
1651	 0.057176640015231 
1652	 5.73795645476191E-02 
1653	 5.74086736181019E-02 
1654	 5.70315343419123E-02 
1655	 5.66847638305606E-02 
1656	 5.70636484948686E-02 
1657	 5.76657161673892E-02 
1658	 5.73497603217144E-02 
1659	 5.71105697349056E-02 
1660	 5.75254432304217E-02 
1661	 5.71895497599373E-02 
1662	 0.057092181467375 
1663	 5.84355701036883E-02 
1664	 5.86654292229735E-02 
1665	 5.73712935927088E-02 
1666	 5.74155689789842E-02 
1667	 5.85743934252348E-02 
1668	 5.86853020441904E-02 
1669	 5.83498948070916E-02 
1670	 5.84181102374036E-02 
1671	 5.84744411662677E-02 
1672	 5.83377974601239E-02 
1673	 0.058664188663557 
1674	 5.89453264921124E-02 
1675	 5.88366839828979E-02 
1676	 0.058557416093692 
1677	 5.83532362601109E-02 
1678	 5.77909626849566E-02 
1679	 5.71480066920602E-02 
1680	 5.78478098865763E-02 
1681	 5.86449243232587E-02 
1682	 5.84603075065906E-02 
1683	 5.81645775535797E-02 
1684	 0.057650669870607 
1685	 5.74924997080233E-02 
1686	 5.71294320344642E-02 
1687	 0.05661081218233 
1688	 5.73232670686915E-02 
1689	 5.79154121697058E-02 
1690	 5.85217767769433E-02 
1691	 5.92262483363609E-02 
1692	 5.89148305703585E-02 
1693	 5.87016060204799E-02 
1694	 5.88609610377714E-02 
1695	 5.93845145529473E-02 
1696	 5.98164759934357E-02 
1697	 5.85209840320301E-02 
1698	 5.76597138910475E-02 
1699	 5.86512891896335E-02 
1700	 0.058019052077692 
1701	 5.80569990759203E-02 
1702	 6.04199622866336E-02 
1703	 5.91992141594021E-02 
1704	 5.75120344270013E-02 
1705	 5.86354930621208E-02 
1706	 0.057804884148734 
1707	 5.80987377661906E-02 
1708	 6.03836399434046E-02 
1709	 0.059669782402202 
1710	 0.05885332731654 
1711	 5.87934811317996E-02 
1712	 5.84141606714013E-02 
1713	 6.00072709859191E-02 
1714	 6.02915728424621E-02 
1715	 5.98761579671182E-02 
1716	 5.98812509508214E-02 
1717	 5.93672929028635E-02 
1718	 5.82228771937571E-02 
1719	 5.77555042103864E-02 
1720	 5.86902496503562E-02 
1721	 5.92729828573532E-02 
1722	 0.059087970037864 
1723	 6.00613451986686E-02 
1724	 5.97681214269082E-02 
1725	 5.83504736003988E-02 
1726	 5.91514152009215E-02 
1727	 5.96506894940983E-02 
1728	 5.96701631401363E-02 
1729	 6.05108915188173E-02 
1730	 6.04975086315719E-02 
1731	 5.95672092057287E-02 
1732	 0.059060212761295 
1733	 5.94432854472272E-02 
1734	 5.98178864812814E-02 
1735	 6.05981002516534E-02 
1736	 6.13846694035609E-02 
1737	 6.06912538127502E-02 
1738	 0.060354397126986 
1739	 6.09870766736033E-02 
1740	 0.061243063960463 
1741	 6.18798600611198E-02 
1742	 6.24490922386934E-02 
1743	 6.15736566434885E-02 
1744	 6.02413419603314E-02 
1745	 5.98719099332785E-02 
1746	 6.11826510404458E-02 
1747	 6.09505667695439E-02 
1748	 6.00134090716486E-02 
1749	 6.07891009017539E-02 
1750	 6.09145824598967E-02 
1751	 6.08616416551578E-02 
1752	 0.063939938872355 
1753	 6.41801282899063E-02 
1754	 0.061406455922913 
1755	 6.12531730994682E-02 
1756	 6.07345134044819E-02 
1757	 5.97215049202658E-02 
1758	 6.20061468183985E-02 
1759	 6.15205147844068E-02 
1760	 6.04830826657848E-02 
1761	 6.11694971507893E-02 
1762	 6.05889868828943E-02 
1763	 0.061700299595485 
1764	 0.064237724599155 
1765	 6.55092710932601E-02 
1766	 6.51717956549526E-02 
1767	 6.25988693436915E-02 
1768	 6.14449253767773E-02 
1769	 6.10926528897461E-02 
1770	 5.93694703466811E-02 
1771	 5.93092504580027E-02 
1772	 6.04708589080438E-02 
1773	 6.13302801545169E-02 
1774	 6.24511576593955E-02 
1775	 0.063086103267548 
1776	 0.06474418413812 
1777	 6.70190253628378E-02 
1778	 6.72531136334436E-02 
1779	 6.80691087854009E-02 
1780	 6.65570056525955E-02 
1781	 5.98735336396275E-02 
1782	 5.93072330011453E-02 
1783	 6.20746357922353E-02 
1784	 6.05728297593827E-02 
1785	 0.05767469848765 
1786	 6.06017892729361E-02 
1787	 6.61575461527791E-02 
1788	 7.02378637512399E-02 
1789	 8.24521897858999E-02 
1790	 7.37804758324305E-02 
1791	 6.50302543028825E-02 
1792	 5.55377601156438E-02 
1793	 5.42353098725535E-02 
1794	 7.48722700558353E-02 
1795	 9.50097601210939E-02 
1796	 0.100213478147318 
1797	 0.103563257347496 
1798	 8.36838809696655E-02 
1799	 7.23600593715375E-02 
1800	 0.11886481262676 
1801	 0.143534016113112 
1802	 0.17303309031281 
1803	 0.191107746996835 
1804	 0.16264596539007 
1805	 0.148551567217974 
1806	 0.10552311878316 
1807	 2.34771598781972E-02 
1808	-0.0920096998905 
1809	-0.181884085263914 
1810	-0.266040945682938 
1811	-0.20579688159914 
1812	 0.111579720960691 
1813	 0.258343288912498 
1814	 1.41045990721075 
1815	 2.14239333578746 
1816	 0.430406049290719 
1817	 3.19397572889202E-02 
1818	-0.249473972769587 
1819	-0.160004031388277 
1820	 0.159890049557925 
1821	 0.891835578595064 
1822	 1.94660520849631 
1823	 0.352717223933013 
1824	-0.306979729118111 
1825	-0.314110950940018 
1826	-0.559836067351706 
1827	-1.17963131161459 
1828	-1.23764927644227 
1829	-1.29064415162764 
1830	-0.734920890210384 
1831	 0.751021308486646 
1832	 0.984437563210246 
1833	-1.55527566493735 
1834	-2.99009989693336 
1835	-2.47144489436896 
1836	-2.59835340689995 
1837	-1.24198509715531 
1838	-1.06995463797547 
1839	-0.672337391537359 
1840	 6.20206985782258E-02 
1841	 0.419338376465204 
1842	 1.62754136672633 
1843	 3.99183428009355 
1844	-0.879550634864025 
1845	-0.867695041667512 
1846	-0.776276863948243 
1847	-1.02748926243666 
1848	 20.2010224829194 
1849	 1.34808877211975 
1850	 0.772360629449637 
1851	 1.16491301971644 
1852	 0.880038067091293 
1853	 0.936754231365431 
1854	 1.49179527114504 
1855	-2.05813810007315 
1856	-1.61190893989226 
1857	-3.16710087838049 
1858	-2.10552896818624 
1859	-2.03535005158188 
1860	-0.385215541069087 
1861	-1.81126259102083 
1862	 0.551792865967295 
1863	 1.51814860417085E-02 
1864	-0.167996395939188 
1865	-0.456049045100541 
1866	-0.939264969276429 
1867	-0.917799535594027 
1868	-0.321012306552512 
1869	-1.06787222193178 
1870	-0.506696568337285 
1871	-0.267096632118875 
1872	-0.410852071358864 
1873	-1.01063548031919 
1874	-0.817453776854352 
1875	-0.571780056050904 
1876	-0.303989150979992 
1877	 0.496358845645499 
1878	 0.420435616913262 
1879	 0.227944728333353 
1880	-4.00401099733794E-02 
1881	-1.06746099625058 
1882	-2.14871182751801 
1883	-47.1938576454959 
1884	 5.36591482477926 
1885	 2.1341614529971 
1886	 0.255334653583489 
1887	-1.46397026657756 
1888	 0.786360385862518 
1889	 0.595549155256422 
1890	 0.678444545219031 
1891	 0.341977572639212 
1892	-0.156787179945426 
1893	-1.0560225231631 
1894	-1.73639750022079 
1895	-2.71530965671676 
1896	-6.10541581374484 
1897	 8.72090300897549 
1898	 4.12060226133428 
1899	 3.8784506637888 
1900	 3.41509332494551 
1901	 1.84142550073805 
1902	 2.13912509440961 
1903	 5.72248808547134 
1904	 6.25011584597618 
1905	 2.45580932382934 
1906	 2.86196567204646 
1907	 9.15064448874072 
1908	 120.520678612227 
1909	 1272.22574783842 
1910	 11.2960065683798 
1911	-3.42752896460661 
1912	 5.58584202170155 
1913	 11.0426601397235 
1914	-1.33277567468627 
1915	-1.55942679772987 
1916	-5.36155923974137 
1917	 16.3790075578717 
1918	-1.41774731010994 
1919	-0.05456759607924 
1920	 0.475819077714974 
1921	 0.121661972093291 
1922	-0.696833861001074 
1923	-1.01362476842628 
1924	-0.998625311115235 
1925	-1.89595127795899 
1926	-2.57508643197361 
1927	-0.653168783843908 
1928	-1.15550703999897 
1929	-2.88953320065283 
1930	-4.83475350237111 
1931	-2.94827693303594 
1932	-1.79224485532413 
1933	-0.803924966699124 
1934	-0.807760830533699 
1935	-1.12414491362395 
1936	-1.04266250748089 
1937	-1.38711769551104 
1938	-1.83863504264178 
1939	-2.66501199169845 
1940	-3.69465855703547 
1941	 41.3839980235808 
1942	 7.65871958678314 
1943	 5.17672577764872 
1944	 2.34026490066845 
1945	 3.01465609141159 
1946	 2.88546564795101 
1947	 1.62085884189149 
1948	 1.02991693317628 
1949	 0.316697395965382 
1950	 0.117521958946921 
1951	 0.20465074140565 
1952	 7.73024961306114E-02 
1953	-0.116205296767009 
1954	-5.71154511394161E-02 
1955	 7.63632748992451E-02 
1956	 2.06031945624514E-02 
1957	 0.15486946035534 
1958	 0.237485734319051 
1959	 0.155875157022768 
1960	 0.12797344599747 
1961	 0.108781834261188 
1962	 9.58316737058358E-02 
1963	 0.105669253026823 
1964	 0.108295805675212 
1965	 0.120649283370272 
1966	 0.121175530169383 
1967	 0.121768883737936 
1968	 0.100489723695551 
1969	 8.50547919892685E-02 
1970	 7.90891523099455E-02 
1971	 6.42145266413601E-02 
1972	 6.25623359534435E-02 
1973	 7.35909693409815E-02 
1974	 7.40967030088025E-02 
1975	 7.35693125805604E-02 
1976	 7.88574641143312E-02 
1977	 7.77873477721583E-02 
1978	 7.11683819627457E-02 
1979	 6.75308316909656E-02 
1980	 6.43093794867196E-02 
1981	 6.11632477671562E-02 
1982	 6.19323123272311E-02 
1983	 6.48493249927697E-02 
1984	 6.63282571685371E-02 
1985	 6.56063855181396E-02 
1986	 6.30786295678301E-02 
1987	 6.15873475477274E-02 
1988	 6.33201714659533E-02 
1989	 6.91312783007773E-02 
1990	 7.00411478952805E-02 
1991	 6.91002765648824E-02 
1992	 0.074300500852449 
1993	 7.80208348999645E-02 
1994	 8.03513687692615E-02 
1995	 8.42037526900427E-02 
1996	 9.19293605259431E-02 
1997	 8.91740146993682E-02 
1998	 7.99901500517371E-02 
1999	 7.59454507250667E-02 
2000	 7.54039884131215E-02 
2001	 7.90569639684218E-02 
2002	 8.04288690552476E-02 
2003	 8.20817190219837E-02 
2004	 7.69074150849265E-02 
2005	 7.01321723958361E-02 
2006	 0.073739559981484 
2007	 8.12381592827541E-02 
2008	 9.38516841407777E-02 
2009	 9.86295994998344E-02 
2010	 9.61954584559369E-02 
2011	 9.74500690117147E-02 
2012	 9.98398858615817E-02 
2013	 9.73099794474001E-02 
2014	 8.86267869361055E-02 
2015	 8.34518121292672E-02 
2016	 8.00365861932534E-02 
2017	 7.46399481737495E-02 
2018	 0.070954078373224 
2019	 6.93098472431389E-02 
2020	 0.067549063638379 
2021	 6.58595787120529E-02 
2022	 6.99034798219631E-02 
2023	 7.43471531600765E-02 
2024	 7.43708475537742E-02 
2025	 7.25129155319145E-02 
2026	 7.03738298953199E-02 
2027	 6.58971272261129E-02 
2028	 6.32475515659263E-02 
2029	 6.17198244180298E-02 
2030	 6.11801437147414E-02 
2031	 6.12319223255133E-02 
2032	 6.15106799916078E-02 
2033	 0.063072207275184 
2034	 6.34708678907026E-02 
2035	 6.23327169725526E-02 
2036	 6.24251232677871E-02 
2037	 6.30183291118597E-02 
2038	 6.55588204216369E-02 
2039	 6.65183699591953E-02 
2040	 6.78103915402471E-02 
2041	 6.84594496461036E-02 
2042	 6.79915417845129E-02 
2043	 6.73415864271901E-02 
2044	 6.71042639696699E-02 
2045	 6.62693037944127E-02 
2046	 0.064504695402949 
2047	 6.26848962767243E-02 
2048	 6.23907623198453E-02 
2049	 6.60732207005501E-02 
2050	 6.76739624591155E-02 
2051	 6.55129473234958E-02 
2052	 6.60060544636332E-02 
2053	 6.58617228973747E-02 
2054	 0.065913242954508 
2055	 6.91834762584947E-02 
2056	 7.04227411035611E-02 
2057	 6.96767082554138E-02 
2058	 6.88343388542505E-02 
2059	 6.84398292097934E-02 
2060	 6.66764025203514E-02 
2061	 6.20961037848756E-02 
2062	 6.02789780595363E-02 
2063	 6.33893453617109E-02 
2064	 6.53337066952019E-02 
2065	 6.64233796579214E-02 
2066	 6.74970298942854E-02 
2067	 6.45183981295668E-02 
2068	 6.33282722288932E-02 
2069	 6.80133384349042E-02 
2070	 7.07634211355216E-02 
2071	 0.070742822651745 
2072	 0.069778348564416 
2073	 6.93290306957071E-02 
2074	 6.80838124018222E-02 
2075	 6.64182372462759E-02 
2076	 6.49105892096467E-02 
2077	 6.43457349374382E-02 
2078	 6.19558725640677E-02 
2079	 6.00548628307631E-02 
2080	 5.95168815577418E-02 
2081	 5.97145969606842E-02 
2082	 5.77967113050515E-02 
2083	 5.70405156376083E-02 
2084	 5.95248211857008E-02 
2085	 0.062434740111361 
2086	 6.09453760973329E-02 
2087	 6.24221847011746E-02 
2088	 6.29048809892498E-02 
2089	 6.05335070089521E-02 
2090	 6.25088285940847E-02 
2091	 6.25578328671323E-02 
2092	 6.23652312836212E-02 
2093	 6.19310802787767E-02 
2094	 6.08181863862179E-02 
2095	 5.86507966167812E-02 
2096	 5.82080196604097E-02 
2097	 5.72788735316909E-02 
2098	 5.72482845426918E-02 
2099	 0.059077307157699 
2100	 5.90394086902785E-02 
2101	 5.85552968170071E-02 
2102	 6.13177262987755E-02 
2103	 6.25481729163414E-02 
2104	 6.38212113691309E-02 
2105	 6.50035429622839E-02 
2106	 6.38784004351594E-02 
2107	 6.21219992303245E-02 
2108	 6.02786373036715E-02 
2109	 5.93610022401704E-02 
2110	 5.87983403855326E-02 
2111	 5.87640971074874E-02 
2112	 5.90696644760161E-02 
2113	 5.95933780293913E-02 
2114	 6.07319108525468E-02 
2115	 6.13864390218491E-02 
2116	 6.16947316799629E-02 
2117	 6.26848818480567E-02 
2118	 6.44099591205945E-02 
2119	 6.39783350693295E-02 
2120	 6.24936811667129E-02 
2121	 6.28474900586224E-02 
2122	 5.98082086297738E-02 
2123	 5.84088179966791E-02 
2124	 5.94795350369191E-02 
2125	 5.93722741120436E-02 
2126	 6.01579761460898E-02 
2127	 0.062460165775976 
2128	 6.26254985430039E-02 
2129	 6.00890006370745E-02 
2130	 5.95942126927069E-02 
2131	 5.84590481305311E-02 
2132	 5.69088017411631E-02 
2133	 5.82025294377217E-02 
2134	 5.79537889055825E-02 
2135	 5.60256051123098E-02 
2136	 5.59028787512663E-02 
2137	 0.057230793163349 
2138	 5.71323703451212E-02 
2139	 5.62111890093855E-02 
2140	 5.63699419125955E-02 
2141	 5.61645784293167E-02 
2142	 5.71029124338818E-02 
2143	 5.94634232384253E-02 
2144	 6.21395662430186E-02 
2145	 0.065535760260622 
2146	 6.70751208922355E-02 
2147	 0.066293435280637 
2148	 6.78555010586215E-02 
2149	 6.70607588085747E-02 
2150	 6.37527785468055E-02 
2151	 6.33004809500351E-02 
2152	 6.30745552535773E-02 
2153	 6.17390402201763E-02 
2154	 6.06158978914753E-02 
2155	 5.95485480592272E-02 
2156	 5.90720928739798E-02 
2157	 5.95581225640352E-02 
2158	 6.17174512362145E-02 
2159	 6.26990434285514E-02 
2160	 6.44075834523923E-02 
2161	 6.51800271240869E-02 
2162	 6.50272646597116E-02 
2163	 0.065069568081298 
2164	 6.47954189730617E-02 
2165	 6.41594749300268E-02 
2166	 6.26570919466612E-02 
2167	 6.29491485557675E-02 
2168	 6.55390210040041E-02 
2169	 6.48839689063809E-02 
2170	 6.20903091018202E-02 
2171	 6.13048750274416E-02 
2172	 6.15553430223252E-02 
2173	 6.22706277476884E-02 
2174	 6.61343798001807E-02 
2175	 6.67200086002231E-02 
2176	 6.44133300650217E-02 
2177	 6.18795574709602E-02 
2178	 5.85279990076734E-02 
2179	 5.54161043465027E-02 
2180	 5.39596366427282E-02 
2181	 5.37165385952448E-02 
2182	 5.15339927164661E-02 
2183	 5.45246022768873E-02 
2184	 5.87508197321131E-02 
2185	 5.54249608572942E-02 
2186	 5.48714257454512E-02 
2187	 5.49638362973336E-02 
2188	 5.57548360005133E-02 
2189	 5.71295976725312E-02 
2190	 5.87534387192299E-02 
2191	 6.17442401805369E-02 
2192	 6.28805247352899E-02 
2193	 6.22662072299016E-02 
2194	 6.24982629885265E-02 
2195	 6.38156226744359E-02 
2196	 6.28410383949556E-02 
2197	 6.00003354930266E-02 
2198	 0.057739880432578 
2199	 5.23656163098937E-02 
2200	 5.20654977698763E-02 
2201	 5.42914799139987E-02 
2202	 5.25705433103991E-02 
2203	 5.02016045832692E-02 
2204	 4.53941344556777E-02 
2205	 4.28621801461849E-02 
2206	 0.045165392941042 
2207	 5.04242208147658E-02 
2208	 5.70368722341344E-02 
2209	 5.88203648307414E-02 
2210	 0.060081642905303 
2211	 6.11178951932322E-02 
2212	 6.05841636254991E-02 
2213	 5.97288173008387E-02 
2214	 5.80822885562739E-02 
2215	 5.76570594410753E-02 
2216	 5.73049144681263E-02 
2217	 5.77461946269325E-02 
2218	 6.04046567863264E-02 
2219	 6.21030104288549E-02 
2220	 6.38249833074252E-02 
2221	 6.42459601418396E-02 
2222	 6.52103400510904E-02 
2223	 6.44976939917062E-02 
2224	 6.07005755445976E-02 
2225	 5.93975174801908E-02 
2226	 5.85211986529653E-02 
2227	 5.72785461065002E-02 
2228	 5.62952916570676E-02 
2229	 5.53756786182638E-02 
2230	 5.43272091640962E-02 
2231	 5.46914674864022E-02 
2232	 5.63884065790038E-02 
2233	 5.84307416404505E-02 
2234	 6.25904435005049E-02 
2235	 6.32328324503096E-02 
2236	 6.42467703364721E-02 
2237	 6.28879402256102E-02 
2238	 6.12167683692807E-02 
2239	 0.063619288800358 
2240	 6.37469821426414E-02 
2241	 6.21822536325186E-02 
2242	 6.28479400557949E-02 
2243	 6.25520386157423E-02 
2244	 6.65213233384109E-02 
2245	 6.98775068541325E-02 
2246	 6.83387252675916E-02 
2247	 6.79218905412902E-02 
2248	 6.35090172569837E-02 
2249	 5.85377350723287E-02 
2250	 5.97699433592074E-02 
2251	 6.13001127218282E-02 
2252	 6.11378758223199E-02 
2253	 6.59078178789197E-02 
2254	 6.52542232236271E-02 
2255	 0.058078372404067 
2256	 5.56095345917459E-02 
2257	 5.17730834454857E-02 
2258	 5.11751541500176E-02 
2259	 5.22159835904748E-02 
2260	 5.20612586096516E-02 
2261	 4.84617993403632E-02 
2262	 5.14807934408325E-02 
2263	 5.98351727246479E-02 
2264	 6.48514219727012E-02 
2265	 7.27305465630802E-02 
2266	 7.64224032750574E-02 
2267	 7.71364535805205E-02 
2268	 7.47123503280416E-02 
2269	 6.80162194499061E-02 
2270	 6.52105043277652E-02 
2271	 6.00477671358761E-02 
2272	 0.057590845603592 
2273	 5.77599561208258E-02 
2274	 5.86999687909309E-02 
2275	 6.33272534632839E-02 
2276	 6.48121791938063E-02 
2277	 6.56364832771045E-02 
2278	 6.70842897385309E-02 
2279	 6.62359591377195E-02 
2280	 6.57750195175963E-02 
2281	 6.28763851856954E-02 
2282	 7.01453004733537E-02 
2283	 8.17552618894604E-02 
2284	 7.73514553362561E-02 
2285	 7.32282994992738E-02 
2286	 7.24320189403133E-02 
2287	 6.26976213266022E-02 
2288	 5.90387790681162E-02 
2289	 6.36218927307156E-02 
2290	 6.36292665969382E-02 
2291	 6.22851541058315E-02 
2292	 6.76373890374078E-02 
2293	 0.079230173072753 
2294	 8.66818508282327E-02 
2295	 8.44183680801106E-02 
2296	 7.24213127712106E-02 
2297	 6.07886901375986E-02 
2298	 6.23337488610244E-02 
2299	 7.27503807105557E-02 
2300	 8.32081094531788E-02 
2301	 0.079738327250456 
2302	 6.82804574254351E-02 
2303	 6.52517211130564E-02 
2304	 0.061219818878101 
2305	 6.35819324249892E-02 
2306	 6.68816383206827E-02 
2307	 5.74121386433249E-02 
2308	 5.42742467025488E-02 
2309	 5.60750884211802E-02 
2310	 5.31313484173111E-02 
2311	 4.51100365702105E-02 
2312	 4.66008901182059E-02 
2313	 5.84711033663723E-02 
2314	 5.91261303674759E-02 
2315	 6.58982263808064E-02 
2316	 7.79097036525083E-02 
2317	 7.01451278909312E-02 
2318	 6.17737443591307E-02 
2319	 6.43215219451536E-02 
2320	 5.46764291725384E-02 
2321	 4.94730909447091E-02 
2322	 6.47742065142019E-02 
2323	 7.60311940136838E-02 
2324	 8.63489008654089E-02 
2325	 0.097103273563302 
2326	 8.90210320848663E-02 
2327	 7.04960332494349E-02 
2328	 6.25362176664508E-02 
2329	 4.86319342602571E-02 
2330	 4.45860677208497E-02 
2331	 5.56136598660114E-02 
2332	 5.19467011045703E-02 
2333	 5.70028070643198E-02 
2334	 6.21098012881338E-02 
2335	 6.53504069201089E-02 
2336	 0.075494731710756 
2337	 6.72751018281756E-02 
2338	 4.63948868696615E-02 
2339	 0.050407780078193 
2340	 5.65018530930486E-02 
2341	 5.81629204771944E-02 
2342	 8.20884921840902E-02 
2343	 7.48578997986058E-02 
2344	 6.53712219676663E-02 
2345	 5.91051323736779E-02 
2346	 5.04389626260738E-02 
2347	 4.99296789793568E-02 
2348	 4.11240415895733E-02 
2349	 0.048216945676603 
2350	 4.21593219900022E-02 
2351	 3.91454367352198E-02 
2352	 2.91581479850853E-02 
2353	 5.84010232218522E-03 
2354	 1.83108917414317E-02 
2355	 3.72779376860667E-02 
2356	 6.07059609073573E-02 
2357	 9.07359176915165E-02 
2358	 0.111318262464637 
2359	 0.11550593790274 
2360	 0.11911495945747 
2361	 0.136517678455946 
2362	 0.131949773935785 
2363	 0.124253433586534 
2364	 0.112387627377562 
2365	 8.51510694172582E-02 
2366	 7.57625647355752E-02 
2367	 7.11962562727462E-02 
2368	 6.42990905063313E-02 
2369	 5.14086998794733E-02 
2370	 5.79854502119918E-03 
2371	 1.07097326512165E-02 
2372	 2.28347755580423E-02 
2373	-9.0437684094211E-03 
2374	 1.70546022185761E-02 
2375	 3.73264147612837E-02 
2376	 1.01952746726524E-02 
2377	-8.68793078881595E-03 
2378	 0.071405553844661 
2379	 9.06624502578151E-02 
2380	 4.33190706517243E-02 
2381	 0.115979410804168 
2382	 6.36274434644425E-02 
2383	 7.10056149907614E-02 
2384	 0.208253084783316 
2385	 0.230284170906407 
2386	 0.125718056599226 
2387	 4.87508433930807E-02 
2388	 6.28681240335101E-02 
2389	 9.53645198448749E-02 
2390	 8.20738415492157E-02 
2391	 6.08716608046666E-03 
2392	-0.110472258466782 
2393	-0.163382519850857 
2394	 2.94097708101318E-02 
2395	 0.210382421110816 
2396	 0.168893768562704 
2397	 0.128837686381322 
2398	 6.95836413521868E-02 
2399	 0.018566276788573 
2400	 0.177875377120833 
2401	 0.322055585620699 
2402	 0.42577739927644 
2403	 0.490986654869923 
2404	 0.355666574402594 
2405	 0.203581881527016 
2406	-3.29507535401469E-02 
2407	 0.153714687610982 
2408	 0.389098253702225 
2409	 0.400693084914403 
2410	 0.366922586913518 
2411	 0.112541220795907 
2412	-1.73963608349938E-03 
2413	 0.217658242715931 
2414	 0.519351689472645 
2415	 1.15572655404013 
2416	 6.82900450578544 
2417	-5.6758231054977 
2418	-84.561923721899 
2419	 21.5185952575854 
2420	 1.66049208169389 
2421	 1.92271311372418 
2422	-9.98840256955853 
2423	-3.54367856295625 
2424	 71.903966208981 
2425	-1.39438422459545 
2426	-0.388677715776146 
2427	-0.358925471133244 
2428	-0.58472778792171 
2429	-0.271553336771782 
2430	-0.379308727278349 
2431	-0.547054391498937 
2432	-0.103655261892908 
2433	 0.426715722852248 
2434	 0.492638112856283 
2435	 1.03374737790018 
2436	 1.57974183819655 
2437	 0.520132769853016 
2438	-0.445628991545271 
2439	-0.354344506519413 
2440	-0.896190394034396 
2441	-1.97012821281008 
2442	 0.193423821319002 
2443	-1.95110102123062E-02 
2444	 0.32232342010948 
2445	 0.772003151761517 
2446	 1.09556903825752 
2447	 3.83035203935828 
2448	 6.81857361196423 
2449	-3.53536156029782 
2450	-1.60376975205303 
2451	-1.14557056362512 
2452	-0.377159341336398 
2453	 0.976987418474201 
2454	 4.4188202315306 
2455	 4.70833033882211 
2456	-0.231209718079611 
2457	-0.871702698017756 
2458	-1.0834292880615 
2459	-1.0758519045802 
2460	-0.697535876567403 
2461	-0.602142527163446 
2462	-0.414381965064928 
2463	-4.88082694123786E-02 
2464	 0.338791321720473 
2465	 0.956492402451055 
2466	 1.82669231576953 
2467	 1.13246755696211 
2468	-0.316276078105355 
2469	-5.99819265017177E-02 
2470	-7.18614917540081E-03 
2471	 4.54228989577996E-02 
2472	 0.119298874104603 
2473	 4.92730155307826E-02 
2474	 3.95784908927536E-02 
2475	 0.510741808015482 
2476	 0.562269973143133 
2477	 0.694269816482203 
2478	 0.552048603200854 
2479	 0.514141026815775 
2480	 1.32985400071289 
2481	 1.33708211375516 
2482	 0.497506324266357 
2483	-1.87345191414287E-02 
2484	-1.29710364445633 
2485	-1.54037265076565 
2486	-1.38277821726027 
2487	-0.683947117087634 
2488	 0.318433388382245 
2489	 0.888995801993977 
2490	 0.902054813315065 
2491	 1.23112392643155 
2492	 1.62081551433905 
2493	 42.7726359859287 
2494	-0.946850610472435 
2495	 1.00019535803199 
2496	 1.08113174396977 
2497	 0.10944847071743 
2498	-0.271741077943511 
2499	-0.673260218706919 
2500	-0.617527276443331 
