Wavelength	rt0728algea00006.asd
350	 8.87975970328861E-02 
351	 8.87899496967126E-02 
352	 8.96686046864176E-02 
353	 9.01785083758681E-02 
354	 8.97847141529111E-02 
355	 9.00442758537273E-02 
356	 9.02871430400769E-02 
357	 9.02497819693928E-02 
358	 8.99266241759864E-02 
359	 8.98215283370737E-02 
360	 9.00686077027293E-02 
361	 9.05410160575268E-02 
362	 9.09080782285496E-02 
363	 9.05557104051003E-02 
364	 0.090355967277413 
365	 9.07266653123827E-02 
366	 9.11358092311413E-02 
367	 9.15127123135072E-02 
368	 9.18911298612732E-02 
369	 9.22644327652844E-02 
370	 9.23655709114737E-02 
371	 9.19933195606697E-02 
372	 9.19321581511152E-02 
373	 9.31443650967206E-02 
374	 9.27860154207747E-02 
375	 9.31985853910041E-02 
376	 9.46799719028768E-02 
377	 9.40945416533982E-02 
378	 9.36570134002445E-02 
379	 9.40790221122297E-02 
380	 9.51932600235909E-02 
381	 9.52878039869042E-02 
382	 9.60856095940228E-02 
383	 9.72895302362094E-02 
384	 9.77167656593176E-02 
385	 9.75308177583978E-02 
386	 9.76472516296321E-02 
387	 9.83373049378534E-02 
388	 9.90670895562336E-02 
389	 0.099339232586705 
390	 9.96630181002146E-02 
391	 0.100331389417652 
392	 0.100566415513063 
393	 0.101103585964219 
394	 0.101536352125742 
395	 0.101410923888424 
396	 0.102318294327126 
397	 0.103021275923491 
398	 0.103252211807371 
399	 0.103694800194676 
400	 0.104163489523152 
401	 0.104485969381032 
402	 0.104609352540449 
403	 0.104683286094218 
404	 0.105076776302995 
405	 0.105644089719652 
406	 0.106083785632725 
407	 0.106490023218586 
408	 0.106979561471367 
409	 0.107457210204327 
410	 0.107651905743677 
411	 0.10813846909838 
412	 0.108697074332177 
413	 0.109121362120453 
414	 0.1096109948786 
415	 0.109996934983472 
416	 0.110449401165125 
417	 0.111160239662712 
418	 0.111551548568845 
419	 0.112105430523981 
420	 0.112906237785836 
421	 0.113544683401241 
422	 0.114087919158303 
423	 0.11463064428378 
424	 0.115240663153919 
425	 0.115889727501487 
426	 0.11646238284024 
427	 0.117168995755195 
428	 0.118240102146969 
429	 0.118847052053652 
430	 0.119603172863154 
431	 0.120659008780513 
432	 0.121475284994321 
433	 0.122310925183308 
434	 0.123175607775619 
435	 0.124018966848832 
436	 0.124750199985349 
437	 0.125625861168166 
438	 0.126515839720522 
439	 0.127146401201697 
440	 0.128033637476155 
441	 0.12893808302285 
442	 0.12970423016501 
443	 0.13041828477247 
444	 0.131222762218963 
445	 0.132015046273156 
446	 0.132668881161605 
447	 0.133267458412318 
448	 0.133822071894338 
449	 0.13435328166153 
450	 0.134889194749052 
451	 0.135423531228226 
452	 0.136017951623052 
453	 0.136620407747665 
454	 0.136912122152412 
455	 0.13726042585954 
456	 0.137736422827878 
457	 0.138256568355047 
458	 0.13856301077559 
459	 0.138859216060471 
460	 0.139241331065259 
461	 0.139662659709353 
462	 0.139967472637238 
463	 0.140264566437266 
464	 0.140630388850468 
465	 0.14088467861873 
466	 0.141188400419472 
467	 0.14155165931013 
468	 0.141919503454545 
469	 0.142364740635827 
470	 0.142755692186027 
471	 0.14301773662601 
472	 0.143172306341621 
473	 0.143510956981726 
474	 0.144020209783678 
475	 0.144568029908747 
476	 0.144954203365129 
477	 0.145328156082062 
478	 0.145713321408035 
479	 0.146060789592891 
480	 0.146551582086138 
481	 0.147065849707824 
482	 0.147503043349593 
483	 0.147864315536529 
484	 0.148406376643123 
485	 0.149099850443224 
486	 0.149787493416431 
487	 0.150321479666138 
488	 0.150940693685576 
489	 0.151634885711247 
490	 0.152158357256506 
491	 0.152955532374273 
492	 0.153722952232589 
493	 0.154256068190957 
494	 0.155049252971899 
495	 0.155706203544394 
496	 0.156391808737842 
497	 0.15745671467666 
498	 0.158258125219136 
499	 0.158966864982017 
500	 0.159750003750055 
501	 0.160632006999675 
502	 0.161457173396732 
503	 0.162348724938672 
504	 0.163387535167254 
505	 0.164114471921833 
506	 0.165034099015884 
507	 0.166147401411735 
508	 0.167057167513142 
509	 0.167967984598777 
510	 0.168912554930295 
511	 0.169876201083462 
512	 0.170806555922845 
513	 0.17172250308111 
514	 0.172699543997732 
515	 0.173789446552445 
516	 0.174721834835981 
517	 0.175782068050423 
518	 0.176988100852353 
519	 0.177981338343861 
520	 0.17895093449882 
521	 0.179928324388417 
522	 0.180927407235678 
523	 0.18202128372858 
524	 0.183018624750297 
525	 0.183922868522741 
526	 0.184886917948873 
527	 0.185965936442095 
528	 0.18701068310309 
529	 0.187967421436243 
530	 0.189036206165281 
531	 0.190127126484311 
532	 0.19113907080042 
533	 0.192014730673237 
534	 0.193013714016705 
535	 0.19399893987918 
536	 0.194950670261811 
537	 0.196001920006073 
538	 0.197026852298375 
539	 0.198051826139121 
540	 0.199081461694976 
541	 0.19990829372395 
542	 0.200880943835814 
543	 0.20194341699131 
544	 0.202817906872835 
545	 0.203752854157955 
546	 0.20473811440997 
547	 0.205721939922374 
548	 0.206636956789887 
549	 0.207612766993232 
550	 0.208589449214058 
551	 0.209472868579537 
552	 0.210403730081522 
553	 0.211226263283357 
554	 0.211944234111842 
555	 0.212751863383953 
556	 0.213637229004421 
557	 0.214471281115549 
558	 0.215177657546716 
559	 0.215987368411787 
560	 0.216824642698144 
561	 0.217607924803287 
562	 0.218265383074336 
563	 0.218808631188618 
564	 0.219343695358715 
565	 0.219950634009617 
566	 0.220654644387641 
567	 0.221209761626733 
568	 0.22166331916781 
569	 0.222149119257241 
570	 0.222576702576519 
571	 0.222981904237666 
572	 0.223416704854185 
573	 0.223936439766496 
574	 0.224404996322627 
575	 0.224812039723558 
576	 0.225198522733068 
577	 0.225681476693373 
578	 0.226090950798919 
579	 0.226405594262128 
580	 0.226709697542263 
581	 0.227111844608508 
582	 0.227509656782409 
583	 0.227792023684492 
584	 0.227858395011766 
585	 0.228082038925197 
586	 0.22823360169567 
587	 0.227989739457807 
588	 0.227955280672816 
589	 0.228146903718061 
590	 0.228496249279172 
591	 0.22890547598253 
592	 0.22905630706153 
593	 0.229156349379144 
594	 0.229388175610201 
595	 0.229517453550279 
596	 0.22965279227162 
597	 0.22977385390729 
598	 0.229806739564962 
599	 0.229900239131474 
600	 0.22992741196984 
601	 0.229906508814834 
602	 0.230172734092947 
603	 0.230290281654156 
604	 0.230232597139313 
605	 0.230118469687101 
606	 0.230035696244657 
607	 0.230130108284048 
608	 0.230303282834871 
609	 0.230218895439662 
610	 0.230140057567415 
611	 0.230117116607732 
612	 0.230133383325856 
613	 0.230103358271515 
614	 0.23017348020608 
615	 0.230211590276853 
616	 0.229996315020821 
617	 0.230013857610535 
618	 0.230096707410084 
619	 0.230137136275871 
620	 0.230250685725844 
621	 0.230245572019992 
622	 0.230222169219492 
623	 0.230303289603266 
624	 0.230196217100715 
625	 0.230274509194577 
626	 0.230471167213415 
627	 0.230308181219735 
628	 0.230351932982084 
629	 0.230489343025365 
630	 0.23053363615176 
631	 0.230449044426848 
632	 0.230433661493383 
633	 0.230531483517057 
634	 0.230691102803511 
635	 0.230833666763457 
636	 0.230748328646668 
637	 0.230539939493681 
638	 0.230772558047505 
639	 0.230820841614095 
640	 0.23070273117037 
641	 0.230597463177698 
642	 0.230497277341162 
643	 0.230465710878698 
644	 0.230390573158443 
645	 0.230039432995652 
646	 0.229800651068845 
647	 0.229702579033899 
648	 0.229668144667475 
649	 0.229568692744878 
650	 0.229302400276781 
651	 0.229083513312559 
652	 0.229129594651841 
653	 0.228745590412895 
654	 0.228208103806417 
655	 0.227773337601873 
656	 0.22761020746549 
657	 0.227325404985197 
658	 0.226910570625567 
659	 0.226456913247732 
660	 0.226122425509275 
661	 0.22579444278556 
662	 0.225414707089601 
663	 0.224971973282786 
664	 0.22447912451738 
665	 0.224065835875141 
666	 0.223799518298992 
667	 0.223635819091141 
668	 0.223428536213332 
669	 0.223299838635463 
670	 0.22336496484058 
671	 0.223193128111559 
672	 0.223179495884073 
673	 0.223359110871729 
674	 0.223410776468443 
675	 0.223480337083699 
676	 0.223767787932135 
677	 0.224300707817557 
678	 0.224668752380603 
679	 0.224891906801861 
680	 0.22521382805795 
681	 0.225906370513342 
682	 0.226564183396671 
683	 0.227271414240178 
684	 0.227990123269424 
685	 0.228516681302188 
686	 0.229081967706621 
687	 0.230058386071259 
688	 0.231465337610887 
689	 0.232483349790404 
690	 0.233633819640416 
691	 0.234818765722881 
692	 0.235635951438461 
693	 0.23690414425632 
694	 0.238278121802993 
695	 0.239460244509547 
696	 0.24071946735632 
697	 0.24163004911285 
698	 0.242389245392654 
699	 0.243236552975391 
700	 0.243994506739184 
701	 0.245080235574176 
702	 0.24623400424122 
703	 0.24679409772305 
704	 0.247431867246438 
705	 0.248123805977981 
706	 0.2487037611471 
707	 0.249000677816069 
708	 0.249144727535188 
709	 0.249320980259959 
710	 0.249620091740347 
711	 0.249530578686408 
712	 0.249167738092412 
713	 0.248726861629381 
714	 0.24842373111401 
715	 0.247779542762533 
716	 0.246968182613523 
717	 0.246346845946769 
718	 0.245579675688982 
719	 0.244771354271638 
720	 0.244309200531907 
721	 0.244213762911794 
722	 0.243645450294416 
723	 0.24252307340219 
724	 0.241147453816122 
725	 0.24004142406073 
726	 0.23910147154246 
727	 0.237988117604483 
728	 0.236526944609803 
729	 0.235178276667752 
730	 0.233430193102645 
731	 0.231736007135824 
732	 0.230601524732554 
733	 0.229430027731104 
734	 0.228397533971123 
735	 0.227537843261951 
736	 0.226621161518655 
737	 0.226129821169152 
738	 0.225842735404523 
739	 0.225530513385493 
740	 0.225420613315095 
741	 0.22547627134079 
742	 0.225530462174393 
743	 0.225422849799278 
744	 0.225613676351352 
745	 0.225735160288127 
746	 0.22565080761364 
747	 0.225640280813587 
748	 0.225749194585381 
749	 0.225855848197087 
750	 0.22587671609701 
751	 0.226047079143025 
752	 0.226053886320545 
753	 0.225933280145 
754	 0.225913327223995 
755	 0.226029832991538 
756	 0.226136691243654 
757	 0.226116218869534 
758	 0.225834856765874 
759	 0.225397984532664 
760	 0.225025557555562 
761	 0.225067819032697 
762	 0.225039085657736 
763	 0.225518515712035 
764	 0.225994475933526 
765	 0.226023164240477 
766	 0.226669020177513 
767	 0.227036733181627 
768	 0.227042301613276 
769	 0.227325764655378 
770	 0.227759809691456 
771	 0.228057748870672 
772	 0.228132825165617 
773	 0.228563789046761 
774	 0.228771438290603 
775	 0.228890105765247 
776	 0.229260233164344 
777	 0.229396643340747 
778	 0.229656448093172 
779	 0.230103846772709 
780	 0.230459409303497 
781	 0.230797886404867 
782	 0.231094232837131 
783	 0.231318187776903 
784	 0.231434209176119 
785	 0.23175947011898 
786	 0.232256800929335 
787	 0.232723687083217 
788	 0.232952320892016 
789	 0.233141639522684 
790	 0.233482072848744 
791	 0.234084280404162 
792	 0.234655541377623 
793	 0.234894063342643 
794	 0.234903968919303 
795	 0.235416251249639 
796	 0.235983916043997 
797	 0.236177253503714 
798	 0.235979133893104 
799	 0.236680403494305 
800	 0.236937725996155 
801	 0.23681957746852 
802	 0.237145685266883 
803	 0.237496228289669 
804	 0.237793251844207 
805	 0.23788609602993 
806	 0.237551000008446 
807	 0.237469675611249 
808	 0.237378109093535 
809	 0.237017968558525 
810	 0.236668784883659 
811	 0.23641516131687 
812	 0.236093825137228 
813	 0.235482684931421 
814	 0.234928160107414 
815	 0.234467370199074 
816	 0.234006864767999 
817	 0.233435354926657 
818	 0.233420296022839 
819	 0.23306414690439 
820	 0.23208819982088 
821	 0.231054589524451 
822	 0.230021461422281 
823	 0.228918463819103 
824	 0.227628322371107 
825	 0.225875325006267 
826	 0.22402085593239 
827	 0.222265599422635 
828	 0.220787530031521 
829	 0.219127249678909 
830	 0.217390245375986 
831	 0.215882712609325 
832	 0.214960682156204 
833	 0.213737483254044 
834	 0.212694810289408 
835	 0.212040042753505 
836	 0.211458666170319 
837	 0.211165163492766 
838	 0.210867476170455 
839	 0.210362098411921 
840	 0.209892355767805 
841	 0.209618414434544 
842	 0.209495263656435 
843	 0.209340322035111 
844	 0.208822208337182 
845	 0.20829092268975 
846	 0.207842585920301 
847	 0.20739406353943 
848	 0.207132837931792 
849	 0.206768690991099 
850	 0.206322774075094 
851	 0.206238426539187 
852	 0.205982187903313 
853	 0.20576996067212 
854	 0.205634425819894 
855	 0.204864926649701 
856	 0.204835628698111 
857	 0.204879901210516 
858	 0.204222295628354 
859	 0.203789037761301 
860	 0.203630784761751 
861	 0.203427944832874 
862	 0.202887363129883 
863	 0.203184859848933 
864	 0.20328296617671 
865	 0.202892270863242 
866	 0.202505920680805 
867	 0.201551322788204 
868	 0.200831939775511 
869	 0.200731456051275 
870	 0.200864127998214 
871	 0.200851858174213 
872	 0.200311239258282 
873	 0.199346343614905 
874	 0.199053315272893 
875	 0.198766743634416 
876	 0.198369662256882 
877	 0.19786933538738 
878	 0.197042739571184 
879	 0.196753188674036 
880	 0.196503647975103 
881	 0.195543704487653 
882	 0.195747631262611 
883	 0.195361539391559 
884	 0.194279568690931 
885	 0.193773667276662 
886	 0.194174638892565 
887	 0.194109470660135 
888	 0.193210624774068 
889	 0.192479293664622 
890	 0.192019110625308 
891	 0.191783496812404 
892	 0.191429069955054 
893	 0.19014316840283 
894	 0.189283712882161 
895	 0.188812028152829 
896	 0.188406305194304 
897	 0.188454408885414 
898	 0.188195959034325 
899	 0.18724432806949 
900	 0.185910200659466 
901	 0.185792465603073 
902	 0.185433699651083 
903	 0.184824032847172 
904	 0.184488802382058 
905	 0.184564164174628 
906	 0.184863411547659 
907	 0.1847057117621 
908	 0.183326343208738 
909	 0.182212204851561 
910	 0.181733572084133 
911	 0.181645852500552 
912	 0.181221282011917 
913	 0.179779828286303 
914	 0.177081843126843 
915	 0.174999859678845 
916	 0.176761479469667 
917	 0.177562090731528 
918	 0.17674284748721 
919	 0.175173271672661 
920	 0.174611251629923 
921	 0.174079435742271 
922	 0.173626046698165 
923	 0.172763451389318 
924	 0.16939219496502 
925	 0.170373480167218 
926	 0.171025056319383 
927	 0.16630267033622 
928	 0.167356307849412 
929	 0.168563328638801 
930	 0.167743319831898 
931	 0.165283751671 
932	 0.167535708872587 
933	 0.164052785544497 
934	 0.156237045389816 
935	 0.153748416381803 
936	 0.158567794428797 
937	 0.156906746272109 
938	 0.150532141241359 
939	 0.146255498924313 
940	 0.150408680943339 
941	 0.151039091042468 
942	 0.149424666741929 
943	 0.152165296873565 
944	 0.152715661307827 
945	 0.145618822491851 
946	 0.13900935921472 
947	 0.144186388571011 
948	 0.146095126167163 
949	 0.148293428346838 
950	 0.147658188979449 
951	 0.14051987838029 
952	 0.146651072462963 
953	 0.14792862827151 
954	 0.14518584062899 
955	 0.150112317688012 
956	 0.148031227280562 
957	 0.142612242659261 
958	 0.141058270030992 
959	 0.147505835293071 
960	 0.136733765410647 
961	 0.134743935726009 
962	 0.140920588829646 
963	 0.13764964491523 
964	 0.13627520849683 
965	 0.139108631786221 
966	 0.141623940825938 
967	 0.137842908395798 
968	 0.140083930378924 
969	 0.142749633268718 
970	 0.142464816061788 
971	 0.139644372947168 
972	 0.138198039102461 
973	 0.141079617618039 
974	 0.144339569805135 
975	 0.139707945688348 
976	 0.138179128878114 
977	 0.138254879608424 
978	 0.138185159937759 
979	 0.137793377186978 
980	 0.140045438686629 
981	 0.140322442429155 
982	 0.138571323965515 
983	 0.138668865492674 
984	 0.141222235099673 
985	 0.142244014163061 
986	 0.141218016979271 
987	 0.140725886034821 
988	 0.142267742667451 
989	 0.141968961371318 
990	 0.140632999569723 
991	 0.142157447231799 
992	 0.144106640694949 
993	 0.143659051672387 
994	 0.142783803614326 
995	 0.144873384852982 
996	 0.140790774770003 
997	 0.137883303915661 
998	 0.140102310696127 
999	 0.145686367599328 
1000	 0.141413305892628 
1001	 0.142469292332666 
1002	 0.142836811960432 
1003	 0.142710955713967 
1004	 0.142097034144671 
1005	 0.14213647313587 
1006	 0.142630852358742 
1007	 0.142595069078257 
1008	 0.142718786916556 
1009	 0.143316243978038 
1010	 0.142985296936465 
1011	 0.142380146264767 
1012	 0.142602420498776 
1013	 0.142918257620551 
1014	 0.143405476426576 
1015	 0.144686775908235 
1016	 0.145170501123374 
1017	 0.145236310620736 
1018	 0.145566545197515 
1019	 0.145272690111066 
1020	 0.145914807913712 
1021	 0.147986874285751 
1022	 0.148354267126786 
1023	 0.148599253398534 
1024	 0.149307387407617 
1025	 0.148480320815419 
1026	 0.148456220818217 
1027	 0.147972849068512 
1028	 0.147122603755123 
1029	 0.147188059316765 
1030	 0.147205031090251 
1031	 0.147530025699278 
1032	 0.148943393332931 
1033	 0.149612873235658 
1034	 0.149800479586051 
1035	 0.150438221820379 
1036	 0.151653461645655 
1037	 0.152303169514932 
1038	 0.153199342940666 
1039	 0.153046283921271 
1040	 0.153201448665728 
1041	 0.151893916112451 
1042	 0.152075088772361 
1043	 0.15250860899767 
1044	 0.153348039984394 
1045	 0.155557419576132 
1046	 0.15602688720919 
1047	 0.15572273320519 
1048	 0.155741916717144 
1049	 0.154729055624783 
1050	 0.1546189336004 
1051	 0.155532067929735 
1052	 0.155762663023934 
1053	 0.155679930201739 
1054	 0.15587312424091 
1055	 0.15586184244761 
1056	 0.156012277685839 
1057	 0.156328664937072 
1058	 0.157036337775552 
1059	 0.157515881620632 
1060	 0.158281095319527 
1061	 0.158219403071486 
1062	 0.157440705362905 
1063	 0.157490625100233 
1064	 0.157313292518627 
1065	 0.157413962663516 
1066	 0.158586903096018 
1067	 0.158903612578893 
1068	 0.158826127835783 
1069	 0.158504814217415 
1070	 0.157085345200345 
1071	 0.156841835451776 
1072	 0.156583611563462 
1073	 0.157519011308324 
1074	 0.15751106834507 
1075	 0.158271351335492 
1076	 0.158001247290518 
1077	 0.156223789233129 
1078	 0.155790264372307 
1079	 0.156162930894455 
1080	 0.15587801590691 
1081	 0.155774103033375 
1082	 0.155507752285152 
1083	 0.153963018019818 
1084	 0.153878394977848 
1085	 0.155389962691973 
1086	 0.155649313015307 
1087	 0.156474013778789 
1088	 0.156598912080338 
1089	 0.155550003341805 
1090	 0.153606401609651 
1091	 0.153308923456977 
1092	 0.153911507376321 
1093	 0.153365507310705 
1094	 0.153118392075143 
1095	 0.152824156579546 
1096	 0.151217118845916 
1097	 0.150662256429146 
1098	 0.151851732426238 
1099	 0.15136686683475 
1100	 0.149309063369823 
1101	 0.149013525721807 
1102	 0.1489230961757 
1103	 0.148624453503379 
1104	 0.149777355153215 
1105	 0.150693560231843 
1106	 0.148703999413453 
1107	 0.148260899406781 
1108	 0.14768340519466 
1109	 0.147120190926462 
1110	 0.147237518352203 
1111	 0.149173629411445 
1112	 0.148722760355841 
1113	 0.146712866917886 
1114	 0.145655344506715 
1115	 0.140665547320883 
1116	 0.14096150495834 
1117	 0.152682351786693 
1118	 0.15703405769016 
1119	 0.161271365343963 
1120	 0.163726971239446 
1121	 0.153862792386635 
1122	 0.133842762499766 
1123	 0.136607389362931 
1124	 0.15249693232183 
1125	 0.16086921741305 
1126	 0.159873438130043 
1127	 0.139081592030706 
1128	 0.121452218419922 
1129	 0.121051712831 
1130	 0.135959634096786 
1131	 0.135556208965115 
1132	 0.136510714107715 
1133	 0.139959331582521 
1134	 0.140539922418436 
1135	 0.139711696930572 
1136	 0.141724286929744 
1137	 0.140663506727385 
1138	 0.13340199403485 
1139	 0.131354526867767 
1140	 0.133940232411824 
1141	 0.140029550891316 
1142	 0.140196077116373 
1143	 0.13614487464833 
1144	 0.137044107068194 
1145	 0.132029146138433 
1146	 0.130336649972617 
1147	 0.133507419365558 
1148	 0.131101356763074 
1149	 0.126746677082944 
1150	 0.124971673240339 
1151	 0.125143074060559 
1152	 0.125602029803547 
1153	 0.124852228385684 
1154	 0.12623451833007 
1155	 0.129988401694584 
1156	 0.128957605411303 
1157	 0.129073360732577 
1158	 0.129874830083218 
1159	 0.12778333694249 
1160	 0.12722904130414 
1161	 0.125865956018217 
1162	 0.125532264542776 
1163	 0.12811320707515 
1164	 0.129236633433543 
1165	 0.128666413849809 
1166	 0.127491226623419 
1167	 0.126808608945399 
1168	 0.126535448954942 
1169	 0.126114195804454 
1170	 0.126890464939258 
1171	 0.12708651212457 
1172	 0.125796886712374 
1173	 0.125872482825337 
1174	 0.126904257086234 
1175	 0.127398562185174 
1176	 0.127944554257281 
1177	 0.128452964560386 
1178	 0.127515393828849 
1179	 0.127409424750025 
1180	 0.127305471902407 
1181	 0.126386810237015 
1182	 0.126429414106575 
1183	 0.126649360675684 
1184	 0.126728121884983 
1185	 0.12712735762086 
1186	 0.127290691103387 
1187	 0.127324262935066 
1188	 0.127076901902004 
1189	 0.126877634739038 
1190	 0.127094163556712 
1191	 0.126241502433766 
1192	 0.125822507017743 
1193	 0.125250780357451 
1194	 0.126011184190691 
1195	 0.126486753216017 
1196	 0.12674977460688 
1197	 0.127327152403595 
1198	 0.127306372686411 
1199	 0.126612775027035 
1200	 0.126412195887077 
1201	 0.126897409755683 
1202	 0.126652007598624 
1203	 0.125726209915712 
1204	 0.125563843789172 
1205	 0.126155910528483 
1206	 0.126488965915076 
1207	 0.126749139155986 
1208	 0.126478291605533 
1209	 0.125516941668024 
1210	 0.125769769663437 
1211	 0.12642320346175 
1212	 0.126624539144541 
1213	 0.127370434317939 
1214	 0.128006783392929 
1215	 0.128136885467069 
1216	 0.127906615546022 
1217	 0.128093404326693 
1218	 0.128484958564766 
1219	 0.128381575810305 
1220	 0.127909267677104 
1221	 0.127583624769755 
1222	 0.1271311472872 
1223	 0.126949043300548 
1224	 0.126917964188685 
1225	 0.126843125136257 
1226	 0.127298761177111 
1227	 0.127639253676162 
1228	 0.127447220163238 
1229	 0.127460891174376 
1230	 0.127339335873514 
1231	 0.127385721723359 
1232	 0.127894658133798 
1233	 0.127866398294955 
1234	 0.127565782897181 
1235	 0.127669176149919 
1236	 0.127513858168964 
1237	 0.127302528298929 
1238	 0.127446578092805 
1239	 0.127488707276666 
1240	 0.127252959457689 
1241	 0.127000777902542 
1242	 0.127221298745124 
1243	 0.127750523692337 
1244	 0.127566479814283 
1245	 0.12737132968952 
1246	 0.127810541973697 
1247	 0.128071803515602 
1248	 0.128447955358074 
1249	 0.128331182261297 
1250	 0.12775148795606 
1251	 0.127666711963689 
1252	 0.127780159310423 
1253	 0.12795218035751 
1254	 0.127729028855094 
1255	 0.127549830879194 
1256	 0.127794757431764 
1257	 0.128789521800894 
1258	 0.128665765437762 
1259	 0.128147238913691 
1260	 0.128196309307657 
1261	 0.127712844146199 
1262	 0.127571155284321 
1263	 0.128383745483989 
1264	 0.1282105095231 
1265	 0.127534503736751 
1266	 0.12771539358485 
1267	 0.127877436694589 
1268	 0.127655053545026 
1269	 0.127424789113049 
1270	 0.127362536640943 
1271	 0.127709265696651 
1272	 0.128017505679886 
1273	 0.127617271076111 
1274	 0.127677111919503 
1275	 0.128297126381555 
1276	 0.128610140718493 
1277	 0.128608537179325 
1278	 0.12820263003407 
1279	 0.127902531409853 
1280	 0.127668045617928 
1281	 0.127185992863497 
1282	 0.127415096152745 
1283	 0.127234185717915 
1284	 0.125806490455723 
1285	 0.12548693583528 
1286	 0.126547057733627 
1287	 0.126668502269128 
1288	 0.126436337348419 
1289	 0.126344507311652 
1290	 0.126349999657861 
1291	 0.125322565170141 
1292	 0.124653848904139 
1293	 0.124737078819196 
1294	 0.125448730936914 
1295	 0.125859788469756 
1296	 0.12547982437635 
1297	 0.125742720197799 
1298	 0.125713641013377 
1299	 0.124555294944258 
1300	 0.123948568339094 
1301	 0.124424205582652 
1302	 0.124081304658957 
1303	 0.123685866733787 
1304	 0.124016807713114 
1305	 0.122783885492775 
1306	 0.122451359295619 
1307	 0.121875786628952 
1308	 0.121959929220371 
1309	 0.123363880273114 
1310	 0.123480153643826 
1311	 0.122206539256091 
1312	 0.121954757885165 
1313	 0.122813331986997 
1314	 0.122161336457079 
1315	 0.120506649408478 
1316	 0.11993546821087 
1317	 0.118064476537413 
1318	 0.11797038970152 
1319	 0.122003831139273 
1320	 0.122380306500395 
1321	 0.120947114039661 
1322	 0.11870801993733 
1323	 0.118943481462685 
1324	 0.119898146542482 
1325	 0.120329865080396 
1326	 0.119690725294467 
1327	 0.117464685127966 
1328	 0.11688845498692 
1329	 0.118705827267454 
1330	 0.120533122475866 
1331	 0.121429685035693 
1332	 0.119097592726928 
1333	 0.118948044795848 
1334	 0.124264933216539 
1335	 0.123514989520776 
1336	 0.117837446133482 
1337	 0.116698819166872 
1338	 0.115604089341879 
1339	 0.112680358852124 
1340	 0.111106828482822 
1341	 0.11000773778828 
1342	 0.10449029387162 
1343	 0.1017905845783 
1344	 0.105190871212819 
1345	 0.109044012414985 
1346	 0.11555839168056 
1347	 0.11732255291503 
1348	 0.119897573676307 
1349	 0.128579827926479 
1350	 0.137537416831708 
1351	 0.130735602672738 
1352	 9.31786953444638E-02 
1353	 7.21727889042011E-02 
1354	-5.16835244621975E-03 
1355	-4.09449021495886E-02 
1356	 9.62464997992399E-02 
1357	 0.360227090717814 
1358	 7.35651917979544E-03 
1359	-6.29007263852513E-02 
1360	 0.323484303159295 
1361	 0.311315227010112 
1362	 1.50742555280318 
1363	-8.66685204252892 
1364	 0.960945219124778 
1365	-0.119285352987361 
1366	-1.65691306334496E-02 
1367	 0.250830991433441 
1368	 0.307661360440682 
1369	 0.654826374005033 
1370	 0.904604484447239 
1371	 0.763457479171247 
1372	 0.549145155863918 
1373	 0.267455463233251 
1374	 0.294508343835334 
1375	-0.371474827015662 
1376	-7.62889067713604E-02 
1377	 3.37985505390015 
1378	 14.158778463151 
1379	 3.20858705394353 
1380	-6.08738263662814 
1381	 2.36483376895768 
1382	-15.2815815097064 
1383	-0.427417633389154 
1384	-0.100528302279086 
1385	 0.14950028167966 
1386	 0.150005816002122 
1387	 0.317201660097147 
1388	 0.535565743324671 
1389	 0.553516732606535 
1390	 0.219676802688878 
1391	 0.19906187824777 
1392	 0.365175702120656 
1393	 0.848190067733781 
1394	 0.645926075412615 
1395	 0.585603604417094 
1396	 1.34288215009019 
1397	 1.05364981008685 
1398	 0.629171856052545 
1399	 0.741412648207212 
1400	 0.889192526907498 
1401	 1.31870096568362 
1402	 1.38543885707154 
1403	 0.865056529484767 
1404	 0.865985552784921 
1405	 0.833340137986214 
1406	 0.520681321704218 
1407	 8.32669335287747E-02 
1408	-0.349263703987541 
1409	-0.099615603294457 
1410	 0.400498629959721 
1411	 0.415113451834454 
1412	 0.852107392275082 
1413	 0.876082950116246 
1414	 0.323801494176255 
1415	 0.091860577207362 
1416	 2.69540470678408E-02 
1417	-2.40473282568566E-02 
1418	-0.392350594520831 
1419	-0.286312669939536 
1420	 0.300128295760012 
1421	 0.393466041386361 
1422	 0.239289747674756 
1423	 0.228894123841889 
1424	 0.217582461467672 
1425	 0.180663463380024 
1426	 0.121628780832554 
1427	 0.116788889499815 
1428	 0.141139693850731 
1429	 0.104669595918833 
1430	 4.91441027870018E-02 
1431	 5.69041594532813E-02 
1432	 8.65062574584808E-02 
1433	 3.95772647504224E-02 
1434	-1.17941821691546E-02 
1435	-4.15685010298931E-02 
1436	-0.164452965030673 
1437	-0.160678585035737 
1438	-0.140903130961386 
1439	-0.105540271888902 
1440	 1.76094492439108E-02 
1441	 3.35057227304973E-02 
1442	 2.65349479218768E-02 
1443	 5.67984043457741E-02 
1444	 9.51012168601636E-02 
1445	 0.11833979334948 
1446	 7.30879588526304E-02 
1447	 2.47040452003793E-02 
1448	 2.83351053702656E-02 
1449	 1.21680341175611E-02 
1450	 1.59367786189874E-02 
1451	 0.075350961738886 
1452	 8.58399730348083E-02 
1453	 6.20114567315979E-02 
1454	 6.59294404606824E-02 
1455	 8.33313703855827E-02 
1456	 7.98818914580088E-02 
1457	 7.12448119843038E-02 
1458	 6.65292251271674E-02 
1459	 5.09635155898626E-02 
1460	 4.99423876013858E-02 
1461	 6.20623177172352E-02 
1462	 6.10281694045148E-02 
1463	 5.74904757270125E-02 
1464	 5.76016532692756E-02 
1465	 5.26085617439799E-02 
1466	 4.96879263111781E-02 
1467	 4.83848288745763E-02 
1468	 5.24222619947115E-02 
1469	 5.94068812234864E-02 
1470	 6.58636421927619E-02 
1471	 8.35824596434912E-02 
1472	 8.46655557017698E-02 
1473	 7.00847662466967E-02 
1474	 6.64578786071683E-02 
1475	 6.27801663522612E-02 
1476	 6.32797764231218E-02 
1477	 6.93629856621897E-02 
1478	 7.30313277992333E-02 
1479	 7.66055651553185E-02 
1480	 7.80449477906542E-02 
1481	 8.21807844607063E-02 
1482	 7.82878553089088E-02 
1483	 6.67622895698659E-02 
1484	 0.064426738235857 
1485	 6.30169948258563E-02 
1486	 6.28587838024261E-02 
1487	 6.73361779284451E-02 
1488	 6.83749361569537E-02 
1489	 6.65939866065772E-02 
1490	 6.67620199727437E-02 
1491	 0.068803445116376 
1492	 6.87981122265108E-02 
1493	 6.78692844821903E-02 
1494	 6.74307492763096E-02 
1495	 6.58215458452822E-02 
1496	 6.54372699028101E-02 
1497	 6.66624949362302E-02 
1498	 6.65439043688906E-02 
1499	 6.54112574606556E-02 
1500	 6.57130985889172E-02 
1501	 6.59837155601169E-02 
1502	 6.65492623945157E-02 
1503	 6.84966068060015E-02 
1504	 6.97064137764997E-02 
1505	 7.10558006430134E-02 
1506	 7.09644864978372E-02 
1507	 6.99121180967962E-02 
1508	 7.03961304294404E-02 
1509	 7.05300065277157E-02 
1510	 7.09069705768037E-02 
1511	 7.26354385063581E-02 
1512	 7.24233911347191E-02 
1513	 7.23692010490841E-02 
1514	 7.24821821420648E-02 
1515	 7.12749898121192E-02 
1516	 7.12750138323636E-02 
1517	 7.19025826940468E-02 
1518	 7.30926037857202E-02 
1519	 7.48459105283667E-02 
1520	 7.57845361023252E-02 
1521	 7.50448498940452E-02 
1522	 7.39387436724275E-02 
1523	 7.42123277962862E-02 
1524	 7.43673195841642E-02 
1525	 7.48504591555667E-02 
1526	 7.59998430002069E-02 
1527	 7.55751825677576E-02 
1528	 7.53025750689362E-02 
1529	 7.61904791994734E-02 
1530	 7.62817118195019E-02 
1531	 0.0758770991965 
1532	 7.61664687267569E-02 
1533	 7.69461678762701E-02 
1534	 7.71293292384425E-02 
1535	 7.78977391574676E-02 
1536	 7.94199346464667E-02 
1537	 7.94905638077676E-02 
1538	 7.89537347601441E-02 
1539	 7.90447884984191E-02 
1540	 7.95660103795021E-02 
1541	 7.99352647254649E-02 
1542	 7.98960738020322E-02 
1543	 8.04549150781828E-02 
1544	 0.080883298318846 
1545	 8.04995841856391E-02 
1546	 8.03141495294346E-02 
1547	 8.00444167561863E-02 
1548	 8.04942909253705E-02 
1549	 8.18595205780909E-02 
1550	 8.21676578086898E-02 
1551	 8.20417974985727E-02 
1552	 8.20173606865401E-02 
1553	 8.18388464989466E-02 
1554	 8.23823509820201E-02 
1555	 8.33885504892794E-02 
1556	 8.39271479963106E-02 
1557	 0.083575917287705 
1558	 8.34827503520893E-02 
1559	 8.45719552740898E-02 
1560	 8.45973808720535E-02 
1561	 0.083425474916512 
1562	 8.38517186227692E-02 
1563	 8.45010847636383E-02 
1564	 8.41315618079812E-02 
1565	 8.49541820948534E-02 
1566	 8.60105767861853E-02 
1567	 0.085986535590923 
1568	 8.60668822184725E-02 
1569	 8.65423169042477E-02 
1570	 8.73080711763877E-02 
1571	 8.74635537120721E-02 
1572	 8.72118760439319E-02 
1573	 8.79633004464303E-02 
1574	 8.86291603195176E-02 
1575	 8.81532874764943E-02 
1576	 8.78776058325536E-02 
1577	 8.85062251890336E-02 
1578	 0.088771590979461 
1579	 8.85718488786966E-02 
1580	 8.88481979547288E-02 
1581	 8.90851599746213E-02 
1582	 8.88141510379811E-02 
1583	 8.86719319540254E-02 
1584	 8.91384610588071E-02 
1585	 8.90555128634039E-02 
1586	 8.85171358920473E-02 
1587	 8.93309676791534E-02 
1588	 9.02014118802316E-02 
1589	 8.98345710653396E-02 
1590	 8.95273382601731E-02 
1591	 8.94234435337014E-02 
1592	 8.92659004019937E-02 
1593	 8.96482075531296E-02 
1594	 9.01937239872228E-02 
1595	 9.07586952746855E-02 
1596	 9.10020353972219E-02 
1597	 9.08657560690644E-02 
1598	 9.17175782770158E-02 
1599	 9.18728251261118E-02 
1600	 9.10600084402602E-02 
1601	 9.23367769151915E-02 
1602	 9.33937765441158E-02 
1603	 9.31836006593919E-02 
1604	 9.33455595698315E-02 
1605	 0.092445321077431 
1606	 9.15333253007725E-02 
1607	 9.12452816473453E-02 
1608	 9.20233801196612E-02 
1609	 9.30274044916612E-02 
1610	 9.23426258022317E-02 
1611	 9.20294735143214E-02 
1612	 9.21963725612809E-02 
1613	 9.28354162826289E-02 
1614	 9.38232713893403E-02 
1615	 9.38160574531618E-02 
1616	 9.36879773723873E-02 
1617	 9.43930570041194E-02 
1618	 9.48357033528099E-02 
1619	 9.45659726142929E-02 
1620	 9.45763727428114E-02 
1621	 0.0934063710066 
1622	 9.22308494262458E-02 
1623	 9.30560850980256E-02 
1624	 9.41391236666995E-02 
1625	 9.45610972302537E-02 
1626	 9.47188678576789E-02 
1627	 9.50097900992517E-02 
1628	 9.51692059841012E-02 
1629	 9.56188998846908E-02 
1630	 9.57924402068785E-02 
1631	 9.53240328178909E-02 
1632	 9.50751049019015E-02 
1633	 9.43659976192109E-02 
1634	 9.41943599775723E-02 
1635	 9.49730810903584E-02 
1636	 0.094972161430305 
1637	 9.45943645298823E-02 
1638	 9.49155738040918E-02 
1639	 9.54119405080472E-02 
1640	 0.095362482146057 
1641	 9.49210870872233E-02 
1642	 9.51066704541987E-02 
1643	 9.58658707854916E-02 
1644	 9.65482199965867E-02 
1645	 9.75590117541517E-02 
1646	 9.74173959724892E-02 
1647	 9.58853365724816E-02 
1648	 9.50221366994338E-02 
1649	 0.094875338097852 
1650	 0.09511317950014 
1651	 9.56210897708662E-02 
1652	 9.57293598601892E-02 
1653	 9.67640630960831E-02 
1654	 9.76195624879543E-02 
1655	 9.90763117184425E-02 
1656	 9.92634646552588E-02 
1657	 9.77515799303977E-02 
1658	 9.76971355583631E-02 
1659	 0.098156414110393 
1660	 9.78391775824349E-02 
1661	 9.79644624686548E-02 
1662	 9.78268802079421E-02 
1663	 9.66242974282799E-02 
1664	 9.62970472741306E-02 
1665	 9.67042126213601E-02 
1666	 9.74218568094525E-02 
1667	 9.86614910593646E-02 
1668	 9.73499499390209E-02 
1669	 9.70707913532998E-02 
1670	 9.68205232930696E-02 
1671	 9.68394043189754E-02 
1672	 9.68866965659863E-02 
1673	 9.62765413746306E-02 
1674	 0.096092474951633 
1675	 9.66816088509333E-02 
1676	 9.73070954148748E-02 
1677	 9.76972273318835E-02 
1678	 9.75594127770868E-02 
1679	 9.67107521508181E-02 
1680	 9.59800817892122E-02 
1681	 9.65579064665029E-02 
1682	 9.73997811493509E-02 
1683	 9.63560516656822E-02 
1684	 9.58896158839222E-02 
1685	 9.60727082228758E-02 
1686	 9.53914615227133E-02 
1687	 9.58268532632756E-02 
1688	 9.62985160001693E-02 
1689	 9.57774545970272E-02 
1690	 9.52997016352219E-02 
1691	 9.52355476305577E-02 
1692	 9.58643676932132E-02 
1693	 0.096419020614942 
1694	 9.56372889560973E-02 
1695	 9.49257981106034E-02 
1696	 9.55220247358406E-02 
1697	 9.59836710011646E-02 
1698	 9.69751189218991E-02 
1699	 0.098172309114183 
1700	 9.73006682990856E-02 
1701	 9.62758620868865E-02 
1702	 9.57564770072452E-02 
1703	 9.49391454511498E-02 
1704	 9.57759812123904E-02 
1705	 9.70307448845911E-02 
1706	 9.74312836362334E-02 
1707	 0.097461532326907 
1708	 9.63512664417612E-02 
1709	 9.54731395538738E-02 
1710	 9.43262328643503E-02 
1711	 9.33969598464267E-02 
1712	 0.09369417037316 
1713	 9.31020087973385E-02 
1714	 9.31720285231992E-02 
1715	 9.39452021880957E-02 
1716	 0.095135376417959 
1717	 0.095776341666818 
1718	 9.56010181261428E-02 
1719	 9.68431567263537E-02 
1720	 9.65298327697197E-02 
1721	 9.57554884170074E-02 
1722	 9.72992182925772E-02 
1723	 9.75562588832378E-02 
1724	 9.52319796435483E-02 
1725	 9.45237877964602E-02 
1726	 9.46501504026568E-02 
1727	 0.093448581800705 
1728	 9.36485410299749E-02 
1729	 9.38618952538826E-02 
1730	 9.43639036877812E-02 
1731	 9.60438916142709E-02 
1732	 9.63795395142708E-02 
1733	 9.54479154704209E-02 
1734	 9.48249232720802E-02 
1735	 0.096250431135868 
1736	 0.097869825706789 
1737	 9.79199908648176E-02 
1738	 9.53138480184477E-02 
1739	 9.19891784548685E-02 
1740	 9.23747852800667E-02 
1741	 9.46610099735315E-02 
1742	 9.59308705852583E-02 
1743	 9.49420749836661E-02 
1744	 9.20958610659211E-02 
1745	 9.20564190245516E-02 
1746	 9.40968937611526E-02 
1747	 0.093484743605339 
1748	 9.02714557402535E-02 
1749	 8.88527546513513E-02 
1750	 8.79379434435947E-02 
1751	 0.087771962092472 
1752	 8.89656881545425E-02 
1753	 8.99481248643217E-02 
1754	 9.11954913207274E-02 
1755	 9.16503388351341E-02 
1756	 9.26614883055833E-02 
1757	 9.34777671137485E-02 
1758	 9.04994777899278E-02 
1759	 8.80525734831878E-02 
1760	 8.78640913910158E-02 
1761	 8.90904663187807E-02 
1762	 9.00923266717213E-02 
1763	 8.87453801491364E-02 
1764	 8.89862749271763E-02 
1765	 8.87225953613547E-02 
1766	 8.66189348758098E-02 
1767	 8.80894657446968E-02 
1768	 8.89712428939129E-02 
1769	 8.62392669208146E-02 
1770	 8.60589544798359E-02 
1771	 8.76067443896752E-02 
1772	 8.68619490124392E-02 
1773	 8.91283046056131E-02 
1774	 9.22791287638802E-02 
1775	 9.20295912225519E-02 
1776	 9.19739649924764E-02 
1777	 8.71937449508189E-02 
1778	 8.67836618254889E-02 
1779	 9.02436365043992E-02 
1780	 9.16283765992263E-02 
1781	 9.92141904607695E-02 
1782	 9.85814470321786E-02 
1783	 8.77840132264326E-02 
1784	 8.65101872472557E-02 
1785	 8.14528259398485E-02 
1786	 8.21994337821688E-02 
1787	 9.60186317835232E-02 
1788	 0.102102549263842 
1789	 0.111279392703443 
1790	 0.115887975214759 
1791	 0.106081414098903 
1792	 0.090153348249607 
1793	 6.77419465446738E-02 
1794	 6.89502623276672E-02 
1795	 0.099178487187893 
1796	 0.138343161424146 
1797	 0.162448844688156 
1798	 0.133411325144896 
1799	 8.09066939135403E-02 
1800	 7.82931008209272E-02 
1801	 7.49308620011511E-02 
1802	 0.164379030651538 
1803	 0.232742682255459 
1804	 0.307691014114839 
1805	 0.396592417666086 
1806	 0.41396841603273 
1807	 0.529616579569436 
1808	 0.437483022596541 
1809	 0.508484186125323 
1810	 0.836908327957202 
1811	 0.969332550062896 
1812	 0.976280613988282 
1813	 1.90384929777316 
1814	 1.37032681264775E-02 
1815	 8.74541782332243E-02 
1816	-0.205547280839831 
1817	 0.768937605458095 
1818	 0.205896658011318 
1819	-0.287437916072716 
1820	-2.48002852211197E-02 
1821	-7.21918623752245 
1822	-2.14460205003291 
1823	-0.287466962899212 
1824	-9.25331232636964 
1825	-1.95581852175805 
1826	-1.52148289183277 
1827	-0.208397420557525 
1828	 0.370429464395441 
1829	 1.36224456054124 
1830	 2.56060844811534 
1831	 0.100956480996645 
1832	 7.75631559270318E-02 
1833	-0.468469688646638 
1834	-0.530567197485556 
1835	 7.45578062246731 
1836	-11.0033714509756 
1837	 1.63037596882299 
1838	 1.56588521890548 
1839	 1.36540694567117 
1840	 0.742996271844562 
1841	 2.19844033841339 
1842	 5.40126368135414 
1843	 5.25832620797011 
1844	 2.59452178254923 
1845	 1.96501894341775 
1846	 0.572347171879117 
1847	 0.250873497109175 
1848	 2.01952574998326E-02 
1849	-0.192217575624477 
1850	 0.399441107800891 
1851	 0.810676385667579 
1852	-0.61235496613838 
1853	-0.242496593236557 
1854	 0.177143888153389 
1855	-6.34456836747851 
1856	-1.80107390996799 
1857	-0.297454853286714 
1858	-8.17493963104935E-02 
1859	 0.206133843817803 
1860	 0.728623589907537 
1861	 2.28037492352113 
1862	 3.00387046244137 
1863	-36.4257632734363 
1864	-8.48290257081557 
1865	-10.2236800020664 
1866	-7.33783094125231E-03 
1867	-0.268390254034242 
1868	-0.786481493209435 
1869	-0.843572029255882 
1870	-0.226578147317097 
1871	-9.15671302473515E-03 
1872	-0.355839066072903 
1873	-0.447848811359939 
1874	-9.33804835638916 
1875	 1.16505297066687 
1876	 1.08414252364197 
1877	-23.5229902787254 
1878	-8.14979806386241 
1879	-1.34144116650918 
1880	-3.39131220147131 
1881	-3.29152786006433 
1882	-1263.39643281298 
1883	 5.99322967755991 
1884	 7.18411493839341 
1885	 1.73679356174257 
1886	 0.314260607576132 
1887	 2.20277537729539 
1888	 0.567486529858935 
1889	 0.356113088284484 
1890	 0.102155166340713 
1891	-7.33042046792011E-02 
1892	-1.57702308984713 
1893	 3.79363397114194 
1894	 0.609147839645314 
1895	 0.49648399336293 
1896	 0.35929987480635 
1897	-6.12038352527053E-02 
1898	-7.82227143579042E-03 
1899	 1.96872945194793 
1900	-15.194805485387 
1901	 1.84705139487587 
1902	 2.81442904361731 
1903	 51.4694653092928 
1904	 0.33697727228303 
1905	 1.44213557585177 
1906	 1.02255796398888 
1907	 0.393843667604338 
1908	-1.2211686561018 
1909	-1.1153245987702 
1910	-0.366149302214412 
1911	 2.73455415779446E-02 
1912	 0.80713390333081 
1913	 1.10498649033558 
1914	 1.52150076232568 
1915	 2.14251367729236 
1916	 0.468486147443959 
1917	-0.661227099322021 
1918	-1.12033714606572 
1919	-3.96322586819744 
1920	 1130.09144653643 
1921	-6.60836712893366 
1922	 0.980450357098983 
1923	 1.33948510464313E-02 
1924	-2.23652587620785 
1925	 1.9994052711686 
1926	 1.68170431230122 
1927	 2.98738216432042 
1928	 4.05700105852791 
1929	 16.5331484454465 
1930	-0.55341638714717 
1931	-0.356911418942804 
1932	-0.320643510146712 
1933	 0.312867725919797 
1934	-6.33912040759432 
1935	-0.848844415549216 
1936	-0.622963628950631 
1937	-0.346279727670526 
1938	-0.941098642246018 
1939	-1.49141162392042 
1940	-0.019303245386185 
1941	-0.798112130223863 
1942	 19.5279641757344 
1943	 1.95922129606627 
1944	 1.91758076560191 
1945	 0.839279019226714 
1946	-0.36432516881199 
1947	-1.1924184268648 
1948	-0.962944740317441 
1949	-0.768300315004344 
1950	-0.49154984995447 
1951	-0.17576102045877 
1952	-6.35022313202157E-02 
1953	-1.77837389896389E-02 
1954	-4.96524074799735E-02 
1955	 8.52611936320606E-03 
1956	-0.178303445978509 
1957	-0.232495740131897 
1958	-0.102765092524589 
1959	-9.03767709069468E-02 
1960	-4.35923570114274E-02 
1961	 4.33870420436215E-02 
1962	 0.103940751007471 
1963	 0.166840791724257 
1964	 0.179274576159465 
1965	 0.146582086994754 
1966	 0.132075688414169 
1967	 0.112230193135374 
1968	 6.71659905832298E-02 
1969	 5.12267054932695E-02 
1970	 0.047229126947611 
1971	 2.94515192715668E-02 
1972	 3.50878851043125E-02 
1973	 3.58312789524487E-02 
1974	 3.81345677691064E-02 
1975	 4.57488527778341E-02 
1976	 4.36702918877374E-02 
1977	 4.32036568939279E-02 
1978	 3.96108765759431E-02 
1979	 3.92176514364218E-02 
1980	 3.83103919526775E-02 
1981	 4.12281433839474E-02 
1982	 0.039367852240247 
1983	 4.23532792878287E-02 
1984	 5.49020998672016E-02 
1985	 6.14426182578913E-02 
1986	 6.67964786785754E-02 
1987	 7.58514836662519E-02 
1988	 7.01537723837149E-02 
1989	 5.76094475336141E-02 
1990	 5.34865289776613E-02 
1991	 4.65881532956182E-02 
1992	 3.96772270866036E-02 
1993	 4.01050644388449E-02 
1994	 3.97287315868833E-02 
1995	 0.040122690314373 
1996	 3.68902458215197E-02 
1997	 3.80630531447114E-02 
1998	 4.07931314500392E-02 
1999	 4.09222412522928E-02 
2000	 5.17901266425746E-02 
2001	 5.47139132699787E-02 
2002	 3.76545223084538E-02 
2003	 3.08966996612272E-02 
2004	 2.86996774624882E-02 
2005	 2.47561449797172E-02 
2006	 0.0376549724345 
2007	 3.06097704259464E-02 
2008	 1.43295732165664E-02 
2009	 1.37707269161461E-02 
2010	 0.028956307868132 
2011	 3.09478832227265E-02 
2012	 3.68278558879631E-02 
2013	 3.54515903950218E-02 
2014	 2.63519885431892E-02 
2015	 2.35090079884259E-02 
2016	 1.10623636035318E-02 
2017	 5.86742945486005E-03 
2018	 9.96838639359284E-03 
2019	 7.16707402759334E-03 
2020	 0.021108850555605 
2021	 3.35898093712913E-02 
2022	 3.20698040147481E-02 
2023	 3.75138506342581E-02 
2024	 3.90111266771435E-02 
2025	 3.47873058572085E-02 
2026	 3.46576695722525E-02 
2027	 3.90877468411034E-02 
2028	 3.44110946623738E-02 
2029	 3.05103850592784E-02 
2030	 3.58338742366541E-02 
2031	 0.038607876809704 
2032	 4.36945656705204E-02 
2033	 4.74541834636644E-02 
2034	 4.92666829722415E-02 
2035	 4.88539110782374E-02 
2036	 4.79375980619036E-02 
2037	 5.23556828110543E-02 
2038	 5.13369678405959E-02 
2039	 5.19594900952672E-02 
2040	 5.40672439750483E-02 
2041	 0.055169412795731 
2042	 5.72942102656752E-02 
2043	 5.61733276699193E-02 
2044	 5.28823904240204E-02 
2045	 4.76096498755374E-02 
2046	 4.22363486371888E-02 
2047	 4.12284721227301E-02 
2048	 4.19797764518102E-02 
2049	 4.63091569958233E-02 
2050	 4.93335948653371E-02 
2051	 4.70874370757791E-02 
2052	 5.44883145964921E-02 
2053	 0.059049974142016 
2054	 5.72338250694206E-02 
2055	 5.82122441473031E-02 
2056	 5.76160438998121E-02 
2057	 4.90372160906579E-02 
2058	 4.81538611649171E-02 
2059	 5.44164101300682E-02 
2060	 5.58150860477756E-02 
2061	 5.86973716098035E-02 
2062	 5.50847908014306E-02 
2063	 4.88553022152783E-02 
2064	 4.75695962135101E-02 
2065	 4.52997716848716E-02 
2066	 4.77755507680581E-02 
2067	 5.36486072975588E-02 
2068	 5.21108399958523E-02 
2069	 4.84490171104249E-02 
2070	 4.74000840967113E-02 
2071	 4.69129425618544E-02 
2072	 4.83743082478697E-02 
2073	 4.80311592655189E-02 
2074	 4.89069037580601E-02 
2075	 4.64407923368127E-02 
2076	 3.83046290021078E-02 
2077	 3.80982062128626E-02 
2078	 4.34024325046147E-02 
2079	 4.43898356757732E-02 
2080	 4.60313178779656E-02 
2081	 4.77300149461323E-02 
2082	 4.81383777461875E-02 
2083	 0.047249519908359 
2084	 5.15158635760881E-02 
2085	 5.34887150811177E-02 
2086	 5.40744072253657E-02 
2087	 5.66817077364318E-02 
2088	 5.41358275771295E-02 
2089	 5.13678574852255E-02 
2090	 5.24986225812886E-02 
2091	 5.14421096833612E-02 
2092	 5.10290351787518E-02 
2093	 5.45537463418859E-02 
2094	 5.59526822651105E-02 
2095	 0.054539605646773 
2096	 0.05409332180661 
2097	 5.49333842805057E-02 
2098	 5.41652534312682E-02 
2099	 5.24642404685538E-02 
2100	 4.93345616128304E-02 
2101	 4.87165532788162E-02 
2102	 4.88282132842857E-02 
2103	 4.90100490351325E-02 
2104	 5.24020103391428E-02 
2105	 5.13956117462699E-02 
2106	 5.04601551244108E-02 
2107	 5.69551973085855E-02 
2108	 6.09385699373008E-02 
2109	 6.29360561224907E-02 
2110	 6.50935446636239E-02 
2111	 6.27491369560677E-02 
2112	 5.78338019406253E-02 
2113	 5.47014104554627E-02 
2114	 5.22501610028574E-02 
2115	 5.28757207534929E-02 
2116	 5.58026805204017E-02 
2117	 5.57102965931672E-02 
2118	 5.70422464205864E-02 
2119	 5.83693717396929E-02 
2120	 0.057906053983571 
2121	 0.055714420406871 
2122	 5.71140145663209E-02 
2123	 5.82752961531199E-02 
2124	 5.49630452347029E-02 
2125	 5.18400582885086E-02 
2126	 5.18768390325858E-02 
2127	 0.050909271773212 
2128	 0.052053470026034 
2129	 0.057380557605104 
2130	 5.92435042160967E-02 
2131	 6.02506972162629E-02 
2132	 6.10531573248605E-02 
2133	 0.061185578061237 
2134	 6.32975460694897E-02 
2135	 6.89583300432723E-02 
2136	 7.05573270216519E-02 
2137	 0.07217287912312 
2138	 0.069974417491657 
2139	 6.23088211857678E-02 
2140	 5.93223466887508E-02 
2141	 5.62899658772897E-02 
2142	 5.40767958265069E-02 
2143	 5.39555562141437E-02 
2144	 5.39560111351164E-02 
2145	 5.36073581626585E-02 
2146	 5.66259706317807E-02 
2147	 5.99829014587368E-02 
2148	 6.38897199434268E-02 
2149	 6.58508866604599E-02 
2150	 6.43060442518144E-02 
2151	 6.61946225901942E-02 
2152	 6.33995244992833E-02 
2153	 5.82940857251374E-02 
2154	 5.64591556461436E-02 
2155	 0.051337457847715 
2156	 4.95612407680079E-02 
2157	 4.99713476190063E-02 
2158	 5.42425650663124E-02 
2159	 5.54176580378151E-02 
2160	 5.84407467017026E-02 
2161	 5.85241869332599E-02 
2162	 5.52682610849771E-02 
2163	 5.42559307353697E-02 
2164	 5.34662036216236E-02 
2165	 5.17157622797124E-02 
2166	 4.85282324901392E-02 
2167	 4.96542020055838E-02 
2168	 0.054077561956378 
2169	 5.49203893556884E-02 
2170	 5.80606026567355E-02 
2171	 5.83923383019335E-02 
2172	 5.23000698250102E-02 
2173	 4.70233966578389E-02 
2174	 4.32792151021473E-02 
2175	 4.06915945924514E-02 
2176	 3.77776101707894E-02 
2177	 3.55211271263651E-02 
2178	 4.10998947492625E-02 
2179	 4.36144553927809E-02 
2180	 4.55789053007212E-02 
2181	 5.04701918684726E-02 
2182	 5.12774265706067E-02 
2183	 5.22826608666054E-02 
2184	 5.63721455059063E-02 
2185	 6.08136629878099E-02 
2186	 5.92261627055954E-02 
2187	 4.87836712971714E-02 
2188	 4.90543441725139E-02 
2189	 4.91674622501069E-02 
2190	 5.15146257240128E-02 
2191	 6.58725847423933E-02 
2192	 7.01095566432107E-02 
2193	 6.76669796015729E-02 
2194	 6.61861485403467E-02 
2195	 6.01698648345207E-02 
2196	 5.89238473078746E-02 
2197	 6.15383047489623E-02 
2198	 6.29395235134792E-02 
2199	 6.94291384695261E-02 
2200	 6.43084365620139E-02 
2201	 6.32148393344004E-02 
2202	 6.69860738043399E-02 
2203	 0.06887983524918 
2204	 7.23608335450754E-02 
2205	 7.13034192668193E-02 
2206	 6.74750889831224E-02 
2207	 6.85576210665781E-02 
2208	 7.43063806435481E-02 
2209	 7.83727165326861E-02 
2210	 7.72008948894448E-02 
2211	 7.32932025195183E-02 
2212	 6.50603255359211E-02 
2213	 0.059121574210405 
2214	 5.94780531817928E-02 
2215	 5.86832259132599E-02 
2216	 6.03714757240394E-02 
2217	 5.91879191288782E-02 
2218	 5.68426336559072E-02 
2219	 5.45356406805577E-02 
2220	 4.80780885698548E-02 
2221	 4.66436555841771E-02 
2222	 5.02508071069458E-02 
2223	 4.73731076361569E-02 
2224	 4.37349379132234E-02 
2225	 4.24007512062403E-02 
2226	 3.82767347627161E-02 
2227	 3.73658383961562E-02 
2228	 3.71155869335454E-02 
2229	 3.95599803887865E-02 
2230	 4.62603360742698E-02 
2231	 4.68892757880812E-02 
2232	 4.88340558188287E-02 
2233	 5.07161010600511E-02 
2234	 4.67330126292242E-02 
2235	 4.65085054268811E-02 
2236	 5.07668321316022E-02 
2237	 5.55897605501479E-02 
2238	 6.19459156291892E-02 
2239	 6.35404490860251E-02 
2240	 5.96836747350188E-02 
2241	 5.69222783943058E-02 
2242	 5.49957120628151E-02 
2243	 5.46380461588654E-02 
2244	 5.79000987146896E-02 
2245	 6.30115516278565E-02 
2246	 6.83469123353762E-02 
2247	 7.05992242895399E-02 
2248	 7.17853086742934E-02 
2249	 0.069664728655326 
2250	 0.065232158504256 
2251	 6.33874734858137E-02 
2252	 0.063369580008229 
2253	 6.42126415214571E-02 
2254	 6.37147673132307E-02 
2255	 6.19169078003033E-02 
2256	 6.74035456465872E-02 
2257	 7.44044692213072E-02 
2258	 7.22468537957715E-02 
2259	 6.27927814347516E-02 
2260	 5.41986250241479E-02 
2261	 3.20265935514362E-02 
2262	 2.62141193574775E-02 
2263	 3.13725663000317E-02 
2264	 3.18933287890099E-02 
2265	 3.17439079837577E-02 
2266	 3.42595450565195E-02 
2267	 4.34940938849709E-02 
2268	 4.52607735597641E-02 
2269	 4.87180924025562E-02 
2270	 4.84569911959118E-02 
2271	 3.66827303351325E-02 
2272	 3.23424354897941E-02 
2273	 2.68088535666399E-02 
2274	 2.82091295587003E-02 
2275	 3.84763446733361E-02 
2276	 4.16981635335947E-02 
2277	 5.25783433445382E-02 
2278	 5.47666450518388E-02 
2279	 0.042999863186962 
2280	 4.03677662357918E-02 
2281	 3.93904965044971E-02 
2282	 3.38003549791794E-02 
2283	 4.09821039190679E-02 
2284	 4.86097017212069E-02 
2285	 5.93780480805571E-02 
2286	 7.26816342395211E-02 
2287	 6.66156635918878E-02 
2288	 6.94385098455971E-02 
2289	 6.69169826837116E-02 
2290	 5.65321461954766E-02 
2291	 6.44656650392833E-02 
2292	 5.73094975365543E-02 
2293	 4.27270282519283E-02 
2294	 3.73654992382833E-02 
2295	 3.27148717162744E-02 
2296	 4.25067265096591E-02 
2297	 0.053444973372337 
2298	 6.01004124349243E-02 
2299	 0.066410749690405 
2300	 6.38378494447292E-02 
2301	 6.51907179059473E-02 
2302	 5.89490755047671E-02 
2303	 4.75362682541639E-02 
2304	 3.16752673542149E-02 
2305	 0.016091021993647 
2306	 2.93453360078405E-02 
2307	 4.70048864616446E-02 
2308	 6.53306255583853E-02 
2309	 7.08397215703081E-02 
2310	 4.69637502371188E-02 
2311	 9.03442079430293E-03 
2312	-7.5345172310838E-03 
2313	 3.27108956584209E-03 
2314	 1.88890790798513E-02 
2315	 4.00619720190832E-02 
2316	 3.96883421073506E-02 
2317	 3.63957520458852E-02 
2318	 3.05174380329481E-02 
2319	 8.51496179047919E-03 
2320	 1.29298967247582E-02 
2321	 2.74062975690811E-02 
2322	 2.51303929918997E-02 
2323	 0.038060461827399 
2324	 5.05249779561284E-02 
2325	 2.68143558167005E-02 
2326	 2.89725109361294E-02 
2327	 5.64837934315694E-02 
2328	 6.73605813034819E-02 
2329	 5.62009558743104E-02 
2330	 1.53207085022422E-02 
2331	 1.62705740302817E-03 
2332	 5.67607778150902E-03 
2333	 1.54057380994525E-02 
2334	 5.96936574512248E-02 
2335	 4.23570912046709E-02 
2336	 2.34101129101339E-03 
2337	-4.95682190759915E-03 
2338	-3.79463937249192E-02 
2339	-4.46353538252404E-02 
2340	-3.15722504230876E-02 
2341	-6.89582428613571E-03 
2342	 1.81396533081453E-02 
2343	 3.08622043317469E-02 
2344	 8.44277314555376E-02 
2345	 0.104529468465357 
2346	 0.094915955263407 
2347	 0.115902060759809 
2348	 8.46824119520625E-02 
2349	 3.25957502253382E-03 
2350	-3.50676984605794E-02 
2351	 1.29904920461942E-02 
2352	 0.0564859394541 
2353	 7.56972554524344E-02 
2354	 0.113426174526882 
2355	 4.85134344633029E-02 
2356	 1.88926063889777E-03 
2357	 4.44073608414338E-03 
2358	 8.12059198302078E-03 
2359	 0.123473763618123 
2360	 0.196336211803918 
2361	 0.181810934796991 
2362	 0.146661926353106 
2363	 6.55990566678368E-02 
2364	-0.029453726644441 
2365	-8.21667979375727E-02 
2366	-5.44842629299673E-02 
2367	-5.35724813225551E-03 
2368	-4.44707393163716E-02 
2369	-0.145315899739607 
2370	-0.135201769417144 
2371	-0.139525401235548 
2372	-0.15397504515309 
2373	 6.65669652367964E-02 
2374	 0.128457091827471 
2375	 6.17811343233692E-02 
2376	 5.16048464422442E-02 
2377	-1.71436387450981E-02 
2378	-1.74416353950565E-02 
2379	 6.75147280194202E-02 
2380	 0.108270082453643 
2381	 0.141873710718929 
2382	 0.155965365254486 
2383	 0.148761186126769 
2384	 0.261632398041535 
2385	 0.362300093627411 
2386	 0.391139984754892 
2387	 0.570721768250842 
2388	 0.187384593150256 
2389	-7.31270314756287E-02 
2390	-4.06437165309042E-02 
2391	-3.30102535768079E-02 
2392	 8.78792692998386E-03 
2393	 3.22548669126581E-02 
2394	 8.71110371712864E-02 
2395	 0.152036640996281 
2396	 0.233710628846485 
2397	 0.309125849705305 
2398	 8.32753418313709E-02 
2399	-0.189977790888284 
2400	-0.978417442691575 
2401	-4.74863026069745 
2402	-6.68639985463023 
2403	-1.56621825078478 
2404	-0.624421634204615 
2405	-0.602171588333091 
2406	-0.829485044389905 
2407	-1.0548196127354 
2408	-1.19854786897482 
2409	-1.03518276704279 
2410	-0.393896724181889 
2411	-0.399298414184648 
2412	-0.81574179666639 
2413	-1.14008116838407 
2414	-1.8464650923955 
2415	-0.157140402227369 
2416	-0.523665823465917 
2417	-0.212825844812636 
2418	 8.22660062554397E-02 
2419	 0.464463539847737 
2420	 14.6476853686128 
2421	-2.94686970330358 
2422	-2.86899536179742 
2423	 9.11717581078449 
2424	 1.34244452411741 
2425	 0.136609977085248 
2426	-0.22975040470444 
2427	-0.334762804764481 
2428	-1.22055942737093 
2429	-6.10840839372639 
2430	 4.36044403729137 
2431	-0.280203844485381 
2432	-0.934017876004367 
2433	-0.984345716279928 
2434	-0.41373225231132 
2435	-0.164041249279341 
2436	 0.173143635991702 
2437	 0.638588801158834 
2438	 0.636237863673787 
2439	 7.67442774473985E-02 
2440	-5.06571714768642E-02 
2441	-0.302953946190157 
2442	-0.311249979772564 
2443	-0.282694955829864 
2444	-0.8010364997749 
2445	-0.284294456132715 
2446	-0.158218745850718 
2447	-0.212831181815642 
2448	-8.01025814620749E-02 
2449	-0.735937535533651 
2450	-1.01129769287238 
2451	-4.69259944377945 
2452	 2.15155899721961 
2453	 0.325458316106981 
2454	 0.116423277706427 
2455	 0.357025451030345 
2456	 0.448736435407182 
2457	 3.54246993394404E-02 
2458	 1.57889414128705E-03 
2459	 0.622000378990732 
2460	 0.401279343995396 
2461	 138.812601592344 
2462	 5.09836345245246 
2463	 7.82694087468399 
2464	-9.94064655736956 
2465	-0.982554945512315 
2466	 9.88190302641424E-02 
2467	 1.52712747945439 
2468	-13.9433541249915 
2469	-1.0745438369778 
2470	-1.33041339267299 
2471	-1.3334084927838 
2472	-2.12033750501499 
2473	-2.69699425715813 
2474	-1.11550313039488 
2475	-0.371369933585163 
2476	-0.341663545528728 
2477	 0.813924688489769 
2478	 4.0576384560353 
2479	 5.59261910483597 
2480	-29.6468166323382 
2481	 1.36837074104858 
2482	 2.02763713216405 
2483	 1.86786911041273 
2484	 1.7331503184952 
2485	 1.96554575252575 
2486	 4.11525322160402 
2487	 34.4291527009591 
2488	-17.9624574742286 
2489	-8.01399879781237 
2490	 0.875936155848416 
2491	-8.21717551149224E-02 
2492	-0.398217986082219 
2493	 3.23499806708262E-02 
2494	 0.108077080478873 
2495	 0.396065521867892 
2496	 0.381581269275378 
2497	 3.71390641905341E-03 
2498	-0.433130015592646 
2499	-4.48552253418491 
2500	-45.161918952425 
