Wavelength	rt0728west00002.asd
350	 9.81932178663874E-02 
351	 0.09593667864412 
352	 9.66423796010334E-02 
353	 9.80537114350235E-02 
354	 9.80686873864503E-02 
355	 9.76011336810162E-02 
356	 9.76870394889052E-02 
357	 9.80411600968026E-02 
358	 9.81694730339724E-02 
359	 9.88881625284977E-02 
360	 9.90722579436465E-02 
361	 9.87170076544864E-02 
362	 9.86492616386952E-02 
363	 9.95283122178031E-02 
364	 9.98039209624201E-02 
365	 9.93135921260776E-02 
366	 0.100375818357589 
367	 0.100338244443643 
368	 9.98699170655397E-02 
369	 0.100130522729734 
370	 0.10075224723155 
371	 0.101354868117308 
372	 0.101550244604635 
373	 0.101158995764152 
374	 0.101507826633132 
375	 0.102016760534359 
376	 0.102326548504734 
377	 0.102676708438121 
378	 0.103324784184082 
379	 0.103782369097291 
380	 0.10374418884761 
381	 0.104062811914114 
382	 0.103848509153914 
383	 0.103945533751723 
384	 0.105480601360277 
385	 0.105515286543213 
386	 0.105517982382559 
387	 0.106161286440966 
388	 0.106799262052266 
389	 0.106685978829876 
390	 0.106455704832629 
391	 0.106760604213814 
392	 0.107646107691762 
393	 0.108333814869242 
394	 0.108544454705362 
395	 0.108411801063093 
396	 0.10885087808288 
397	 0.109011204656459 
398	 0.108988342905665 
399	 0.109682093348687 
400	 0.109872645081019 
401	 0.10991339634992 
402	 0.110152357218708 
403	 0.110346308425788 
404	 0.110661565233685 
405	 0.111112531132002 
406	 0.111603435387085 
407	 0.111777184603846 
408	 0.11199211694718 
409	 0.112329859928226 
410	 0.112571011226068 
411	 0.113024158927889 
412	 0.113526131177194 
413	 0.113876694284039 
414	 0.113955433657352 
415	 0.114157590322521 
416	 0.114595839084315 
417	 0.115189524874475 
418	 0.115553453436843 
419	 0.115886957499634 
420	 0.116278772155951 
421	 0.116651821393288 
422	 0.116985071033031 
423	 0.117453271411766 
424	 0.11810940115521 
425	 0.118561909125263 
426	 0.119066227290786 
427	 0.119571962096794 
428	 0.119937040058764 
429	 0.120493136945149 
430	 0.120997544157316 
431	 0.121413914131445 
432	 0.122004501977254 
433	 0.122579765202934 
434	 0.123122386210897 
435	 0.123647549847305 
436	 0.124134676215851 
437	 0.124700699900198 
438	 0.125264180887166 
439	 0.125685053506305 
440	 0.126367237809221 
441	 0.12705490705584 
442	 0.127567338964216 
443	 0.127933091301489 
444	 0.12850034971769 
445	 0.12911499573383 
446	 0.129563641500811 
447	 0.130011737650052 
448	 0.130422482672784 
449	 0.130831455347035 
450	 0.131317208555534 
451	 0.131770147605411 
452	 0.132183469787659 
453	 0.132571401334558 
454	 0.132947771210704 
455	 0.133409592008035 
456	 0.133800358504023 
457	 0.133985822260739 
458	 0.134475991766352 
459	 0.134871229738627 
460	 0.135092623510254 
461	 0.135422305489544 
462	 0.135847253394841 
463	 0.136160661418007 
464	 0.136314696101814 
465	 0.136823811427202 
466	 0.137254471127947 
467	 0.137544588038231 
468	 0.137835073261995 
469	 0.138279412207439 
470	 0.138707673003027 
471	 0.139047712132396 
472	 0.139398731558828 
473	 0.139819731639414 
474	 0.140170456975607 
475	 0.140399796664106 
476	 0.14097322921801 
477	 0.141492102054159 
478	 0.141830418015663 
479	 0.142082711398454 
480	 0.142433330065664 
481	 0.142812429337114 
482	 0.143188962728287 
483	 0.143685704352304 
484	 0.144250598069277 
485	 0.144843125722185 
486	 0.145404900834382 
487	 0.145782257825817 
488	 0.146166459906045 
489	 0.146639851053794 
490	 0.147162005731177 
491	 0.147824161505768 
492	 0.148417727724147 
493	 0.148834197104299 
494	 0.149381743997641 
495	 0.15006534844319 
496	 0.150807981123483 
497	 0.151491218783902 
498	 0.152105766897581 
499	 0.152744943126545 
500	 0.153481931148742 
501	 0.154344803938614 
502	 0.155101299664206 
503	 0.155772537629898 
504	 0.156449675897438 
505	 0.157141492721034 
506	 0.157856431318664 
507	 0.158542474952897 
508	 0.159109809220676 
509	 0.159599569361029 
510	 0.160256162797782 
511	 0.161107184739763 
512	 0.161591676367657 
513	 0.162274905818446 
514	 0.163156006092292 
515	 0.16399605874055 
516	 0.164808449902077 
517	 0.16566788908704 
518	 0.166569776439064 
519	 0.16740818518109 
520	 0.168334788930385 
521	 0.169185479336753 
522	 0.169867108352072 
523	 0.170751668200863 
524	 0.171661895403869 
525	 0.172604928289279 
526	 0.17368992633804 
527	 0.17455371886312 
528	 0.175322839814597 
529	 0.176155107833239 
530	 0.177133674488646 
531	 0.178138761153688 
532	 0.179055031783082 
533	 0.179828570108072 
534	 0.180739146934709 
535	 0.181812289840022 
536	 0.182929615339796 
537	 0.183833109186492 
538	 0.184904196157235 
539	 0.186018770004519 
540	 0.187012805170759 
541	 0.188020759620437 
542	 0.189001294877439 
543	 0.189976502815891 
544	 0.190994839231989 
545	 0.191914770305421 
546	 0.192762020683333 
547	 0.193604540341273 
548	 0.194553041051423 
549	 0.195507353058728 
550	 0.196425948909622 
551	 0.197311204783524 
552	 0.198283994719633 
553	 0.199195855069265 
554	 0.200087500788921 
555	 0.201214542189444 
556	 0.202172830475073 
557	 0.203095902820605 
558	 0.204112117147642 
559	 0.204918700392885 
560	 0.205730070671558 
561	 0.206547732010134 
562	 0.207254977797107 
563	 0.207939916840395 
564	 0.208679543037128 
565	 0.209490860356293 
566	 0.21029113137355 
567	 0.211020828453466 
568	 0.211709912105307 
569	 0.212393717199387 
570	 0.212920209432318 
571	 0.213366357916614 
572	 0.213843903368445 
573	 0.214471513482524 
574	 0.214915818707392 
575	 0.215245144274809 
576	 0.215564086593425 
577	 0.215769368217865 
578	 0.215944267949569 
579	 0.216104855966138 
580	 0.216228300221137 
581	 0.216365342901036 
582	 0.216379493935065 
583	 0.216281828995659 
584	 0.216387167478335 
585	 0.216607556674026 
586	 0.217006977169355 
587	 0.217598995835393 
588	 0.2178501414707 
589	 0.217705939895126 
590	 0.217262353626446 
591	 0.216708714537026 
592	 0.216282739066695 
593	 0.215741666319923 
594	 0.214905180219482 
595	 0.214081013274034 
596	 0.21309837804086 
597	 0.21184454154681 
598	 0.210315328402916 
599	 0.209051206430868 
600	 0.207995975222869 
601	 0.207094567187628 
602	 0.20642749031344 
603	 0.206021186340599 
604	 0.205832155194282 
605	 0.205772108059699 
606	 0.205659184279052 
607	 0.205644468583852 
608	 0.205737176009721 
609	 0.205783583491218 
610	 0.205771636432146 
611	 0.205714604470755 
612	 0.205660491250454 
613	 0.205730858772244 
614	 0.205807623196247 
615	 0.20583287779868 
616	 0.205796922931023 
617	 0.20578143223246 
618	 0.205799213792863 
619	 0.205836688850424 
620	 0.2058529641789 
621	 0.205880451212467 
622	 0.205930601386907 
623	 0.206012339989739 
624	 0.206143262671028 
625	 0.206384743395398 
626	 0.20667316369777 
627	 0.206821198215039 
628	 0.206735696903 
629	 0.206507165739163 
630	 0.206272221546355 
631	 0.206160916166178 
632	 0.206185496675263 
633	 0.206187228613862 
634	 0.205990783886907 
635	 0.206019034363982 
636	 0.205984661611578 
637	 0.205781741568038 
638	 0.205651725707264 
639	 0.205606360571374 
640	 0.205566704659852 
641	 0.205456433612439 
642	 0.205342363710072 
643	 0.205319246483327 
644	 0.20544611266949 
645	 0.205744540388107 
646	 0.206145051426308 
647	 0.206169955534704 
648	 0.205610644332224 
649	 0.20495569695409 
650	 0.204647506626289 
651	 0.204406616787594 
652	 0.203772130180525 
653	 0.203180636787631 
654	 0.202467951075809 
655	 0.201528566312276 
656	 0.200522326265907 
657	 0.199442033096924 
658	 0.198509416485755 
659	 0.197799940243572 
660	 0.196929944694292 
661	 0.196298524250487 
662	 0.195847513158883 
663	 0.195281783912944 
664	 0.194932174003866 
665	 0.194591937956538 
666	 0.194129109099629 
667	 0.193649644230657 
668	 0.193512041152746 
669	 0.193503313223035 
670	 0.193291740269779 
671	 0.193007982282323 
672	 0.1930162705895 
673	 0.193269028670303 
674	 0.193339672598788 
675	 0.193324514155933 
676	 0.193403377954418 
677	 0.193643642076828 
678	 0.193771792561325 
679	 0.193981252972878 
680	 0.194267916736429 
681	 0.194557323509204 
682	 0.194934307857407 
683	 0.195421735877275 
684	 0.196030836343689 
685	 0.196837742581018 
686	 0.197803879887558 
687	 0.198439421484462 
688	 0.198424803557617 
689	 0.198331286732137 
690	 0.198684053701434 
691	 0.199293150218484 
692	 0.199520458040747 
693	 0.199484158388838 
694	 0.198721952728837 
695	 0.19739167468706 
696	 0.19635617650707 
697	 0.196050888385859 
698	 0.195964119761077 
699	 0.195370987807519 
700	 0.194378416556025 
701	 0.192981161446537 
702	 0.191430435058004 
703	 0.190050523491976 
704	 0.18880817368694 
705	 0.187505387366871 
706	 0.185984778552324 
707	 0.184064362916685 
708	 0.182165675345351 
709	 0.180244532024158 
710	 0.178132965924125 
711	 0.176003840822908 
712	 0.173706995905932 
713	 0.171452857027884 
714	 0.169806979402019 
715	 0.16891182036233 
716	 0.168205961605418 
717	 0.16682277439467 
718	 0.164065882130324 
719	 0.160037879382498 
720	 0.156344025036921 
721	 0.153449905436003 
722	 0.151834000323196 
723	 0.149985165207507 
724	 0.14742252931007 
725	 0.144675464464073 
726	 0.141693620389955 
727	 0.138650140259724 
728	 0.135610002252365 
729	 0.132219509922554 
730	 0.128559186744207 
731	 0.124939865056773 
732	 0.121526128333828 
733	 0.119118449908675 
734	 0.117319128474778 
735	 0.115813849300432 
736	 0.114360405357533 
737	 0.113189356668922 
738	 0.112253760838234 
739	 0.111475592147859 
740	 0.110812891504413 
741	 0.110240811215098 
742	 0.109839865135381 
743	 0.109693440419691 
744	 0.10953607866274 
745	 0.109430474349324 
746	 0.109378151923904 
747	 0.109252940302546 
748	 0.109186045080882 
749	 0.10915223977014 
750	 0.109098629818479 
751	 0.109012441052345 
752	 0.108967579520742 
753	 0.108992865610226 
754	 0.109066678823743 
755	 0.108996029785664 
756	 0.109028122177057 
757	 0.109313721261408 
758	 0.109965361541054 
759	 0.111539264125883 
760	 0.113447132316953 
761	 0.113498984126486 
762	 0.113226564290611 
763	 0.112841940221277 
764	 0.112246438545336 
765	 0.111348512499533 
766	 0.110541657002896 
767	 0.110212283540783 
768	 0.110255885408067 
769	 0.110164769748387 
770	 0.11014948752859 
771	 0.110308080727792 
772	 0.110592963413383 
773	 0.11059486601429 
774	 0.11083331133748 
775	 0.111188238961512 
776	 0.111354083983089 
777	 0.111751941818353 
778	 0.112057417105269 
779	 0.112277441029374 
780	 0.112777523309213 
781	 0.113222403663724 
782	 0.113500260426105 
783	 0.113727307988738 
784	 0.114441314278228 
785	 0.115233702915924 
786	 0.116010196185998 
787	 0.116775974816733 
788	 0.117520701256367 
789	 0.117937394496611 
790	 0.118109335259129 
791	 0.118429540890925 
792	 0.118725448555925 
793	 0.119118642812509 
794	 0.119749187200425 
795	 0.120725410234088 
796	 0.12140408649463 
797	 0.121842974254554 
798	 0.122289834504704 
799	 0.12268691330304 
800	 0.123272344732603 
801	 0.123831625356759 
802	 0.123962857721583 
803	 0.12390244190714 
804	 0.123874855448617 
805	 0.123984009913289 
806	 0.124192110059302 
807	 0.124103019260344 
808	 0.124151110595155 
809	 0.124646908252834 
810	 0.125126542847593 
811	 0.125405647589817 
812	 0.125721113590451 
813	 0.126381722410475 
814	 0.126622587307136 
815	 0.126469813954845 
816	 0.125909947583612 
817	 0.124875337418801 
818	 0.123022550478251 
819	 0.12160194394378 
820	 0.120856506069213 
821	 0.119950921377819 
822	 0.118831277504401 
823	 0.117136158924715 
824	 0.114968467879401 
825	 0.113043930421337 
826	 0.111328263372978 
827	 0.109780122682805 
828	 0.108349312080996 
829	 0.106460520868599 
830	 0.104794560705205 
831	 0.103453444265253 
832	 0.102141598575173 
833	 0.100974004123007 
834	 0.100025559586203 
835	 9.92911788103151E-02 
836	 9.86992121938826E-02 
837	 9.79987265804953E-02 
838	 9.73495695717178E-02 
839	 9.69115500276391E-02 
840	 9.65982754225815E-02 
841	 9.65616266802684E-02 
842	 9.63546320375937E-02 
843	 9.55878047129069E-02 
844	 9.50903724009079E-02 
845	 9.49312939521196E-02 
846	 9.49312626930781E-02 
847	 9.47618216253998E-02 
848	 9.43120230153825E-02 
849	 9.38196580407406E-02 
850	 9.35559708617797E-02 
851	 9.37164901835017E-02 
852	 0.093640817268092 
853	 9.33375787299441E-02 
854	 9.30430225583975E-02 
855	 9.31202016243759E-02 
856	 9.27773974950529E-02 
857	 0.092366259605258 
858	 9.23086973710754E-02 
859	 9.21052361678949E-02 
860	 9.17513194040483E-02 
861	 9.15019014606194E-02 
862	 9.16112696150599E-02 
863	 9.15286713336156E-02 
864	 9.11717804500959E-02 
865	 9.09168659213795E-02 
866	 9.13364327936964E-02 
867	 9.09470822026492E-02 
868	 9.05440089366678E-02 
869	 9.05385749071881E-02 
870	 9.04327320144431E-02 
871	 9.00638865801322E-02 
872	 8.98215373213621E-02 
873	 8.98610537799149E-02 
874	 8.95178204760694E-02 
875	 8.93191576179082E-02 
876	 8.94421165201454E-02 
877	 8.96981188279139E-02 
878	 8.90337280109767E-02 
879	 8.87256470625801E-02 
880	 8.87140549470931E-02 
881	 8.84036800618211E-02 
882	 8.82709420889055E-02 
883	 8.84831009802326E-02 
884	 8.85623893473246E-02 
885	 8.78175989673339E-02 
886	 8.79358369967166E-02 
887	 8.77158724090151E-02 
888	 8.71886122196555E-02 
889	 8.79714238301103E-02 
890	 8.80525100229798E-02 
891	 8.77506639151648E-02 
892	 8.76481750623075E-02 
893	 8.79969213170641E-02 
894	 8.86170906639294E-02 
895	 8.94647857052098E-02 
896	 9.03730795932826E-02 
897	 0.090736102228729 
898	 9.12488470591767E-02 
899	 9.12237544111374E-02 
900	 9.01480456690658E-02 
901	 8.95386526071249E-02 
902	 8.91420115001257E-02 
903	 8.88759918381006E-02 
904	 8.87809268283768E-02 
905	 0.089284861749195 
906	 8.91400936948445E-02 
907	 8.86542664641485E-02 
908	 8.91583892378509E-02 
909	 8.92297413126808E-02 
910	 8.98209701397278E-02 
911	 9.02958217068373E-02 
912	 8.89791437519625E-02 
913	 9.03414401958227E-02 
914	 8.99783244072308E-02 
915	 0.087524913338409 
916	 8.79413079996326E-02 
917	 8.80981588780903E-02 
918	 8.73337605805392E-02 
919	 8.61883401150406E-02 
920	 0.0861043500768 
921	 8.53652457825964E-02 
922	 8.57120127499104E-02 
923	 8.72622633093156E-02 
924	 8.51733663271727E-02 
925	 8.62652314202457E-02 
926	 8.78689150582745E-02 
927	 0.086720312457468 
928	 9.15322459159017E-02 
929	 8.88806765999954E-02 
930	 8.31440537962292E-02 
931	 8.98880428547893E-02 
932	 9.12427628938985E-02 
933	 0.095432868084979 
934	 9.51441482836831E-02 
935	 8.47953176749144E-02 
936	 9.67358644147372E-02 
937	 9.73660920208656E-02 
938	 8.73112926957882E-02 
939	 7.94317696274363E-02 
940	 9.06080736829935E-02 
941	 9.68381028091731E-02 
942	 9.53202906553241E-02 
943	 9.34949086179594E-02 
944	 9.35589068776211E-02 
945	 0.087118320620721 
946	 8.00732589607844E-02 
947	 8.34229737005946E-02 
948	 8.84537923606128E-02 
949	 9.17771176313737E-02 
950	 9.12055472064654E-02 
951	 8.73569905241695E-02 
952	 9.19844297260546E-02 
953	 9.21743834881342E-02 
954	 9.01738955287286E-02 
955	 9.46742513936956E-02 
956	 8.12029304920249E-02 
957	 8.10171326348083E-02 
958	 8.88951959396699E-02 
959	 8.01765702935393E-02 
960	 8.76055719736553E-02 
961	 8.57074962124926E-02 
962	 7.92732340438071E-02 
963	 8.93143851912206E-02 
964	 8.84254054581065E-02 
965	 0.084473741276554 
966	 0.082648270185168 
967	 8.34351184137658E-02 
968	 8.25242825117259E-02 
969	 8.27580595879641E-02 
970	 8.31304367291422E-02 
971	 8.01212745324967E-02 
972	 8.13954933426835E-02 
973	 8.33074191578953E-02 
974	 8.27024811764608E-02 
975	 7.93712021003212E-02 
976	 8.06673128980037E-02 
977	 8.15181143082592E-02 
978	 0.081598946206214 
979	 8.44235396302496E-02 
980	 8.11257877856744E-02 
981	 7.94045084664145E-02 
982	 8.00376369976856E-02 
983	 7.81831387027621E-02 
984	 7.95120886117564E-02 
985	 7.94869120911487E-02 
986	 7.86689754460931E-02 
987	 0.080949625044607 
988	 7.97813756339603E-02 
989	 7.96245956404941E-02 
990	 7.92060157672493E-02 
991	 7.45222685510502E-02 
992	 7.74111337097204E-02 
993	 7.79978177196333E-02 
994	 7.61963541623011E-02 
995	 0.078307223115353 
996	 7.74529520171918E-02 
997	 7.81558116880807E-02 
998	 7.88802104576762E-02 
999	 7.58317567234206E-02 
1000	 7.69915825977703E-02 
1001	 7.77096289259153E-02 
1002	 0.077555034585999 
1003	 7.72898103554718E-02 
1004	 7.68505692493008E-02 
1005	 7.65053288167312E-02 
1006	 7.61759536926958E-02 
1007	 7.61999727020871E-02 
1008	 7.59468949996731E-02 
1009	 7.57930877650666E-02 
1010	 7.67246113673397E-02 
1011	 7.68679934468509E-02 
1012	 7.63277360663968E-02 
1013	 7.63867333562876E-02 
1014	 0.076081023812748 
1015	 7.47104497506968E-02 
1016	 7.47035364816563E-02 
1017	 7.56942790100216E-02 
1018	 7.59162448924368E-02 
1019	 7.65311776839866E-02 
1020	 7.67974666589759E-02 
1021	 7.65333399241683E-02 
1022	 7.62893874796232E-02 
1023	 7.65317386630657E-02 
1024	 7.62376236299196E-02 
1025	 7.59350895005267E-02 
1026	 7.59055275271023E-02 
1027	 7.59341406048285E-02 
1028	 7.59545314537636E-02 
1029	 0.076203784578301 
1030	 7.67772909904284E-02 
1031	 0.077108390317564 
1032	 7.78228645151666E-02 
1033	 7.76409002798041E-02 
1034	 7.65513920137912E-02 
1035	 7.63014967049344E-02 
1036	 7.57017336521596E-02 
1037	 7.56564982547325E-02 
1038	 7.68205876604896E-02 
1039	 7.71651749647944E-02 
1040	 7.73080744830718E-02 
1041	 7.73964477181977E-02 
1042	 7.75127922371828E-02 
1043	 7.74780571658395E-02 
1044	 7.75526872393668E-02 
1045	 7.79267796284166E-02 
1046	 7.76870237816642E-02 
1047	 7.68967099773676E-02 
1048	 7.66587416661569E-02 
1049	 7.62163861066499E-02 
1050	 7.60940733377078E-02 
1051	 7.66098139224877E-02 
1052	 0.076758530282266 
1053	 7.66605329438711E-02 
1054	 7.67872400416714E-02 
1055	 7.69922732747409E-02 
1056	 7.72242317544699E-02 
1057	 7.75168436516497E-02 
1058	 7.79845664207364E-02 
1059	 7.82847199833624E-02 
1060	 7.87857623759455E-02 
1061	 7.85950718437395E-02 
1062	 7.79078955649567E-02 
1063	 7.75691139443756E-02 
1064	 7.67494822006057E-02 
1065	 0.076425123945811 
1066	 7.63788497498738E-02 
1067	 7.66116894777783E-02 
1068	 7.74249078532551E-02 
1069	 0.077698377628587 
1070	 7.82029838992187E-02 
1071	 7.83777431819675E-02 
1072	 0.078012091568158 
1073	 7.74067297086002E-02 
1074	 7.73179002894645E-02 
1075	 7.73778386106821E-02 
1076	 7.74818824996278E-02 
1077	 7.79000890724948E-02 
1078	 7.80610996092946E-02 
1079	 7.82112397350659E-02 
1080	 7.82621051133532E-02 
1081	 7.80123110997658E-02 
1082	 7.81256287219875E-02 
1083	 7.84851748561551E-02 
1084	 7.85503386578918E-02 
1085	 7.86833134220415E-02 
1086	 7.88284505316367E-02 
1087	 7.86522725163325E-02 
1088	 7.87191787207291E-02 
1089	 7.90254549236974E-02 
1090	 7.92484978042065E-02 
1091	 7.97029347461261E-02 
1092	 0.080314425145055 
1093	 8.06654011678811E-02 
1094	 8.12759343786035E-02 
1095	 8.15618033262606E-02 
1096	 0.081568980847416 
1097	 0.081448059315945 
1098	 8.08524805129245E-02 
1099	 0.080685169050511 
1100	 8.04646779378398E-02 
1101	 8.04259010386539E-02 
1102	 8.05703355612377E-02 
1103	 8.11223616111593E-02 
1104	 8.23144410754822E-02 
1105	 8.32292419936865E-02 
1106	 8.35620018932161E-02 
1107	 8.31964350022564E-02 
1108	 0.082121265421834 
1109	 8.26666567525446E-02 
1110	 8.32061190498674E-02 
1111	 8.56861259375711E-02 
1112	 8.68536970551642E-02 
1113	 8.70366484038443E-02 
1114	 8.72386622065404E-02 
1115	 0.088001731613675 
1116	 8.78021165152445E-02 
1117	 8.53256854012882E-02 
1118	 8.52157902151786E-02 
1119	 8.31457725245676E-02 
1120	 8.18490840556564E-02 
1121	 0.085260886089786 
1122	 9.51714299244954E-02 
1123	 8.42165700534058E-02 
1124	 8.35141447297964E-02 
1125	 9.47184384929185E-02 
1126	 8.86832369539751E-02 
1127	 9.65288810504577E-02 
1128	 0.104078777024705 
1129	 9.90278618498315E-02 
1130	 7.74101649032191E-02 
1131	 8.01934040554229E-02 
1132	 9.20298621277558E-02 
1133	 0.094701041008792 
1134	 0.100325387025906 
1135	 0.100010025278212 
1136	 9.02772980814564E-02 
1137	 9.08084755859478E-02 
1138	 9.45154928625679E-02 
1139	 0.103295329504313 
1140	 0.111275792260074 
1141	 0.103995486167293 
1142	 9.32451272379424E-02 
1143	 9.25316296729152E-02 
1144	 9.19234075035969E-02 
1145	 9.21198400991438E-02 
1146	 9.63004584831214E-02 
1147	 9.53061925127727E-02 
1148	 0.095428489390486 
1149	 9.70185404810308E-02 
1150	 9.59007724515286E-02 
1151	 9.46245200260822E-02 
1152	 9.25979277325702E-02 
1153	 0.088872257678213 
1154	 8.74169848998203E-02 
1155	 8.64770687659482E-02 
1156	 8.65743125769539E-02 
1157	 8.73046420507574E-02 
1158	 8.52939461550929E-02 
1159	 8.46089781654937E-02 
1160	 8.55815034293735E-02 
1161	 8.38680150960728E-02 
1162	 0.082460997247617 
1163	 8.31825048851796E-02 
1164	 8.26579375130134E-02 
1165	 8.12955660456822E-02 
1166	 8.13989373895803E-02 
1167	 0.081421534844998 
1168	 8.02468513783916E-02 
1169	 8.06169331138832E-02 
1170	 8.15551004937004E-02 
1171	 8.12612239149667E-02 
1172	 7.96200182587721E-02 
1173	 7.93248644831312E-02 
1174	 7.90603940583709E-02 
1175	 7.88948380786927E-02 
1176	 7.96238357109822E-02 
1177	 8.00755146790961E-02 
1178	 7.93305992985422E-02 
1179	 7.94649408644506E-02 
1180	 8.03518500043876E-02 
1181	 8.04059468580993E-02 
1182	 8.08436295075048E-02 
1183	 8.10223259642154E-02 
1184	 7.99742476726815E-02 
1185	 7.93391399761589E-02 
1186	 7.95516911150118E-02 
1187	 7.96114783875059E-02 
1188	 7.98810032164291E-02 
1189	 0.080614804289411 
1190	 0.080698097403816 
1191	 0.080066771477533 
1192	 7.99856579347445E-02 
1193	 7.97663476406087E-02 
1194	 8.00421875916708E-02 
1195	 8.00508830411467E-02 
1196	 7.99684019539875E-02 
1197	 8.01457603276781E-02 
1198	 7.96943113021523E-02 
1199	 7.96832472413841E-02 
1200	 8.04800223805037E-02 
1201	 8.07661010430946E-02 
1202	 8.05919050879466E-02 
1203	 8.02148121728023E-02 
1204	 7.95584449005035E-02 
1205	 7.86560959090953E-02 
1206	 7.81897682166374E-02 
1207	 7.85148756056008E-02 
1208	 7.91173240538355E-02 
1209	 7.94298940722733E-02 
1210	 7.94201806278594E-02 
1211	 7.94131613971661E-02 
1212	 7.95780341975621E-02 
1213	 7.96728926933298E-02 
1214	 0.079467671262166 
1215	 7.90713345510822E-02 
1216	 7.87976531921036E-02 
1217	 7.87430557393608E-02 
1218	 0.07860335880232 
1219	 7.87514469961106E-02 
1220	 7.85885662468219E-02 
1221	 7.81950825356837E-02 
1222	 7.81268481058598E-02 
1223	 7.80699298779076E-02 
1224	 7.81467350854569E-02 
1225	 7.80529165738448E-02 
1226	 7.76834568770122E-02 
1227	 7.77446280774011E-02 
1228	 7.79571346603077E-02 
1229	 7.77429742556584E-02 
1230	 7.73932585899262E-02 
1231	 7.72543583678128E-02 
1232	 7.71105315522038E-02 
1233	 7.68540970404427E-02 
1234	 7.68232434448613E-02 
1235	 7.68390869764667E-02 
1236	 7.69538621881684E-02 
1237	 0.076811935643945 
1238	 7.66081576918615E-02 
1239	 7.64921064780664E-02 
1240	 7.63776437561641E-02 
1241	 7.64634975649544E-02 
1242	 7.68603662983745E-02 
1243	 0.077177027772734 
1244	 7.71495586501736E-02 
1245	 7.68426679744982E-02 
1246	 7.65096286051886E-02 
1247	 7.62873475222841E-02 
1248	 7.62736712132087E-02 
1249	 7.65068360193101E-02 
1250	 7.65851129502232E-02 
1251	 7.65101806511162E-02 
1252	 0.076618675041186 
1253	 7.67951833587301E-02 
1254	 7.69863340923856E-02 
1255	 7.71605242981459E-02 
1256	 7.71586288765829E-02 
1257	 0.076740109111826 
1258	 7.68032029187123E-02 
1259	 7.70162607240269E-02 
1260	 7.71226540999538E-02 
1261	 7.75087280485421E-02 
1262	 7.77515718465264E-02 
1263	 7.77405090622198E-02 
1264	 7.80276928982107E-02 
1265	 7.81373646189054E-02 
1266	 7.78702917080363E-02 
1267	 7.80434367906491E-02 
1268	 7.83118522842209E-02 
1269	 7.84132945191032E-02 
1270	 7.89013883637244E-02 
1271	 7.88911368395777E-02 
1272	 7.81092437457775E-02 
1273	 7.80140126805996E-02 
1274	 7.86092618859228E-02 
1275	 7.89497822247071E-02 
1276	 7.88813718306283E-02 
1277	 7.87420210396871E-02 
1278	 7.83647163213895E-02 
1279	 7.77579488874226E-02 
1280	 7.79443590257496E-02 
1281	 7.80219666481543E-02 
1282	 7.83262294377495E-02 
1283	 0.07825262664615 
1284	 7.80624412338472E-02 
1285	 7.80255345453036E-02 
1286	 7.79369168845133E-02 
1287	 7.78424684196017E-02 
1288	 7.78561553103302E-02 
1289	 7.77614609847128E-02 
1290	 7.73353823231285E-02 
1291	 7.74379629940035E-02 
1292	 7.78257176837932E-02 
1293	 7.78768343902484E-02 
1294	 7.81837536297991E-02 
1295	 7.86830784713821E-02 
1296	 7.84437342019211E-02 
1297	 7.82269873363014E-02 
1298	 7.88006226484356E-02 
1299	 7.93706598781128E-02 
1300	 7.96260295249288E-02 
1301	 8.01170424799863E-02 
1302	 8.05624087673829E-02 
1303	 8.02597838873436E-02 
1304	 8.03424799296441E-02 
1305	 0.080989422580986 
1306	 8.11115942284444E-02 
1307	 8.03388082244013E-02 
1308	 8.05416596277524E-02 
1309	 8.13225169890322E-02 
1310	 8.20612518698852E-02 
1311	 8.34760365032353E-02 
1312	 8.42106186319027E-02 
1313	 8.46077526331744E-02 
1314	 8.48319271778448E-02 
1315	 8.43909634443731E-02 
1316	 8.44524014094406E-02 
1317	 8.48608890379553E-02 
1318	 8.49276048128224E-02 
1319	 8.49818664377292E-02 
1320	 8.50935042765724E-02 
1321	 8.52777114567305E-02 
1322	 8.42927566063819E-02 
1323	 8.49536419383007E-02 
1324	 8.63812809346709E-02 
1325	 8.50550168153586E-02 
1326	 8.45864624943058E-02 
1327	 8.72387585829681E-02 
1328	 0.089523106074318 
1329	 9.07444642663983E-02 
1330	 9.20478604610967E-02 
1331	 9.13741146108318E-02 
1332	 8.73881609048498E-02 
1333	 8.63158251932146E-02 
1334	 8.95084405000948E-02 
1335	 9.06899728320075E-02 
1336	 9.03776615547698E-02 
1337	 9.04037652058024E-02 
1338	 0.091291239644982 
1339	 9.10883122027957E-02 
1340	 8.81274651477927E-02 
1341	 8.83590678275824E-02 
1342	 9.15410970057292E-02 
1343	 0.093308696570418 
1344	 0.097276171766519 
1345	 9.86468143005781E-02 
1346	 9.51153788021009E-02 
1347	 0.09646449372097 
1348	 0.100948959346046 
1349	 0.105980768521237 
1350	 0.121938665557639 
1351	 0.135927524659607 
1352	 0.124691859915726 
1353	 0.143481130684862 
1354	 0.197377826173491 
1355	 0.325870281045218 
1356	 0.458152724688506 
1357	 0.334140216361533 
1358	 0.141821634040899 
1359	 6.33766591984688E-02 
1360	-0.124881300006791 
1361	-0.128842775067035 
1362	 0.351319244703993 
1363	 0.232905967820755 
1364	 0.18943556533219 
1365	 0.553570125597027 
1366	 1.49308612020119 
1367	 3.7515820375951 
1368	 5.20636896876646 
1369	 0.235127733270589 
1370	 0.090913225202676 
1371	-2.438329761529 
1372	-2.65193253415701 
1373	-0.416002640769601 
1374	 0.321091152182669 
1375	 1.39066305158296 
1376	 0.913346635423222 
1377	 0.331154449161966 
1378	 0.193536240868221 
1379	-1.30349327090569 
1380	-1.23097400181963 
1381	 0.156768854802442 
1382	 0.488820867284378 
1383	 0.422402022211607 
1384	 0.472368713982544 
1385	 0.398883537021344 
1386	 0.378785606052818 
1387	 0.594590601669383 
1388	 0.860769011912721 
1389	 0.818136052601816 
1390	 0.729603321547999 
1391	 0.637512738579399 
1392	 0.243133014538459 
1393	 0.143540652136593 
1394	 0.111445062548596 
1395	 0.753448387421849 
1396	 0.84193381105717 
1397	-1.18384805171022E-02 
1398	-7.87894880401076E-02 
1399	 1.92740492083078E-03 
1400	 9.35572435297402E-02 
1401	 0.420598482150871 
1402	 0.446221212411686 
1403	 0.231237999520413 
1404	 0.187274494680119 
1405	 0.18290997430215 
1406	 0.457624014973308 
1407	 0.240449149698859 
1408	-0.341265585867099 
1409	-0.311739246488399 
1410	 0.940915530333056 
1411	 0.361098321536193 
1412	 8.17470580593724E-04 
1413	 0.128144178787807 
1414	-5.81672391421991E-02 
1415	-2.97278479101983E-02 
1416	 0.676198174857797 
1417	 1.02012056027362 
1418	 0.472987678993174 
1419	 0.3313423506999 
1420	 0.23645981793138 
1421	 0.215750507387889 
1422	 0.110766304506299 
1423	 0.158990190855286 
1424	 0.45634442665471 
1425	 0.44711100451842 
1426	 0.193973867915073 
1427	 0.199164615844379 
1428	 0.279970325575465 
1429	 0.232228937768896 
1430	 0.239025448444159 
1431	 0.262781855791404 
1432	 0.200023243942434 
1433	 0.163876108532277 
1434	 0.20749409167994 
1435	 0.226261120683937 
1436	 0.186739093094734 
1437	 0.137743562518862 
1438	 0.190488165859512 
1439	 0.24006207141372 
1440	 0.202368242618761 
1441	 0.162352845034698 
1442	 0.131598799795941 
1443	 7.13661119772588E-02 
1444	 0.085944911260407 
1445	 0.122413490916335 
1446	 0.11137288903697 
1447	 9.82739323707462E-02 
1448	 9.23931043448062E-02 
1449	 9.78616229468786E-02 
1450	 9.32695006983529E-02 
1451	 0.096293618929298 
1452	 0.111722449522598 
1453	 0.101048676281008 
1454	 0.101375579584946 
1455	 0.112751285919471 
1456	 0.111508301131185 
1457	 0.100456120731145 
1458	 9.98234579207643E-02 
1459	 0.100210078491172 
1460	 9.86253923692744E-02 
1461	 9.97259011887492E-02 
1462	 0.100747304859135 
1463	 0.101069025476183 
1464	 9.91936695888415E-02 
1465	 9.60962077415163E-02 
1466	 9.65709860782667E-02 
1467	 9.54684252796188E-02 
1468	 9.55965622515511E-02 
1469	 0.101581788940196 
1470	 0.106527470749838 
1471	 0.110341033320533 
1472	 0.109489739340563 
1473	 0.108906044129538 
1474	 0.107846509297405 
1475	 0.10220213306638 
1476	 9.90340179494344E-02 
1477	 9.56063729391984E-02 
1478	 9.67799987458314E-02 
1479	 0.100411495781223 
1480	 0.100596897251664 
1481	 0.103199172271438 
1482	 0.105230903767686 
1483	 0.104749579168144 
1484	 0.103664046260529 
1485	 0.103786513547673 
1486	 0.10269360341497 
1487	 9.97359589526085E-02 
1488	 9.85885310342649E-02 
1489	 9.84812609685867E-02 
1490	 9.80977825859596E-02 
1491	 9.84287113860617E-02 
1492	 9.72319977236035E-02 
1493	 9.47465638901425E-02 
1494	 9.37887152999758E-02 
1495	 9.27038890652409E-02 
1496	 9.22368635650077E-02 
1497	 0.09303587358163 
1498	 9.32397776605267E-02 
1499	 9.36478796755295E-02 
1500	 9.31128073100874E-02 
1501	 0.091422399834999 
1502	 9.07195039800699E-02 
1503	 9.00571162308749E-02 
1504	 8.95697825181496E-02 
1505	 8.93738776938003E-02 
1506	 8.99267578420176E-02 
1507	 8.98914472145307E-02 
1508	 8.87403308801848E-02 
1509	 8.81788619686702E-02 
1510	 8.82955975502989E-02 
1511	 8.86470159034661E-02 
1512	 8.84664291101576E-02 
1513	 8.82291205964135E-02 
1514	 8.87164282623795E-02 
1515	 8.85591609907058E-02 
1516	 8.79423537360219E-02 
1517	 8.80236316271656E-02 
1518	 8.80996682995824E-02 
1519	 8.78591249480319E-02 
1520	 8.80813171818566E-02 
1521	 8.80843766496006E-02 
1522	 8.76064906097031E-02 
1523	 8.75934927783931E-02 
1524	 8.77176573601314E-02 
1525	 8.74282771360129E-02 
1526	 8.68952908642943E-02 
1527	 8.66175261931693E-02 
1528	 8.65474603559265E-02 
1529	 0.086385189094795 
1530	 8.60964537875269E-02 
1531	 8.54236461581361E-02 
1532	 8.49609724373041E-02 
1533	 8.50818253522424E-02 
1534	 8.48892252741229E-02 
1535	 8.45738512347262E-02 
1536	 8.45818737816538E-02 
1537	 8.44403676956123E-02 
1538	 8.41595037773223E-02 
1539	 8.42361622449259E-02 
1540	 8.46101983469651E-02 
1541	 8.43485065072963E-02 
1542	 8.36289828495012E-02 
1543	 8.32499730854377E-02 
1544	 8.30331441559524E-02 
1545	 8.29207660673548E-02 
1546	 0.083343405662432 
1547	 8.38360223599168E-02 
1548	 8.36534096257058E-02 
1549	 8.33052991309032E-02 
1550	 8.31800184505353E-02 
1551	 8.28553627085077E-02 
1552	 0.082373362228826 
1553	 8.27536130360143E-02 
1554	 8.34087245729734E-02 
1555	 0.08304319745403 
1556	 8.25405799218345E-02 
1557	 8.23789384463289E-02 
1558	 8.21425723339897E-02 
1559	 8.23555290203125E-02 
1560	 8.29703492891203E-02 
1561	 8.28097452656612E-02 
1562	 8.24680647148077E-02 
1563	 8.26477964906077E-02 
1564	 8.24197228911343E-02 
1565	 8.24789761917374E-02 
1566	 8.27215869384048E-02 
1567	 8.23670662472563E-02 
1568	 8.23319520159308E-02 
1569	 0.082373062703117 
1570	 8.22787920125943E-02 
1571	 8.18451092151904E-02 
1572	 8.16923409140986E-02 
1573	 0.082407448075851 
1574	 8.22619490170246E-02 
1575	 8.20734253428055E-02 
1576	 8.23503532828925E-02 
1577	 8.19898467751578E-02 
1578	 8.19709778783071E-02 
1579	 0.082241343547648 
1580	 8.22262058140298E-02 
1581	 8.20157850040634E-02 
1582	 8.17440194781286E-02 
1583	 8.16381401082275E-02 
1584	 8.15246550773587E-02 
1585	 8.15560277753998E-02 
1586	 8.17210555036197E-02 
1587	 8.16762628872879E-02 
1588	 8.16991800597147E-02 
1589	 8.19428445006963E-02 
1590	 8.16540177036033E-02 
1591	 8.13654102295865E-02 
1592	 8.18808690756472E-02 
1593	 8.21233296232106E-02 
1594	 8.18241693721986E-02 
1595	 8.16446732683931E-02 
1596	 8.15115163995012E-02 
1597	 8.16030195350721E-02 
1598	 8.20229568725753E-02 
1599	 8.19951821591076E-02 
1600	 8.19128387411886E-02 
1601	 8.20565286771471E-02 
1602	 8.17952378921906E-02 
1603	 8.17651258560443E-02 
1604	 8.19689341874888E-02 
1605	 8.18110098483115E-02 
1606	 8.18088394274303E-02 
1607	 8.20309797466557E-02 
1608	 8.19373038945626E-02 
1609	 8.15508947580159E-02 
1610	 0.08166141146914 
1611	 8.23074741403365E-02 
1612	 8.23269048340323E-02 
1613	 8.19886439049747E-02 
1614	 8.19607383628288E-02 
1615	 8.20039059764424E-02 
1616	 8.17914385443491E-02 
1617	 8.15537457364886E-02 
1618	 0.081613441816151 
1619	 0.081454392747367 
1620	 8.15516405938005E-02 
1621	 8.21948528344543E-02 
1622	 8.22235297040238E-02 
1623	 8.20638792951324E-02 
1624	 8.22704166684307E-02 
1625	 8.21988625505932E-02 
1626	 8.21379308897611E-02 
1627	 8.20798050405872E-02 
1628	 8.17446979355006E-02 
1629	 8.13209634340929E-02 
1630	 8.11124016233477E-02 
1631	 8.08555508377858E-02 
1632	 8.03625648965607E-02 
1633	 0.080518082548448 
1634	 8.12056833788249E-02 
1635	 8.14034933528661E-02 
1636	 8.12741066355041E-02 
1637	 8.11562994240947E-02 
1638	 8.07031944931065E-02 
1639	 8.06213058836451E-02 
1640	 8.04671972276927E-02 
1641	 7.99561189914943E-02 
1642	 8.03769262546676E-02 
1643	 0.081389971098875 
1644	 8.23422112141041E-02 
1645	 8.25818846300091E-02 
1646	 8.25600515628569E-02 
1647	 0.082456785631203 
1648	 8.19193825637185E-02 
1649	 8.20581337331421E-02 
1650	 8.21281288302193E-02 
1651	 8.06338644911471E-02 
1652	 0.079554176485415 
1653	 8.17179856890397E-02 
1654	 8.20294735187146E-02 
1655	 8.18328741994578E-02 
1656	 8.21667443391098E-02 
1657	 0.08206820358424 
1658	 8.17700232500788E-02 
1659	 8.16305616294223E-02 
1660	 8.20773700265509E-02 
1661	 8.25667096645862E-02 
1662	 8.25037784232212E-02 
1663	 8.28085165275321E-02 
1664	 8.29562099980391E-02 
1665	 8.21871961046621E-02 
1666	 8.17849332424988E-02 
1667	 8.21073902187323E-02 
1668	 8.16985507229266E-02 
1669	 8.13989063926557E-02 
1670	 8.13737209655452E-02 
1671	 8.14079058051041E-02 
1672	 0.081445793816729 
1673	 8.15772024229679E-02 
1674	 8.17019666008723E-02 
1675	 8.16472042956104E-02 
1676	 0.082231079495973 
1677	 8.27324012718905E-02 
1678	 8.19847136701973E-02 
1679	 8.12435789820235E-02 
1680	 8.11144284042868E-02 
1681	 8.15647502296186E-02 
1682	 8.25601135246099E-02 
1683	 8.30630921542038E-02 
1684	 8.28453955933962E-02 
1685	 0.081944656168325 
1686	 8.16933700241548E-02 
1687	 8.29386981844251E-02 
1688	 8.34245508453848E-02 
1689	 8.25790420277194E-02 
1690	 8.14476083631564E-02 
1691	 8.12147222433242E-02 
1692	 8.21081495769233E-02 
1693	 8.23889518216906E-02 
1694	 0.081784415273665 
1695	 8.07860518349224E-02 
1696	 8.08480529005096E-02 
1697	 8.28221809233303E-02 
1698	 8.43828820401589E-02 
1699	 0.084001103633331 
1700	 8.30004255413483E-02 
1701	 0.082646490212527 
1702	 0.082804086888625 
1703	 8.37606218622011E-02 
1704	 8.40921610652734E-02 
1705	 8.29901902575407E-02 
1706	 8.24496090217413E-02 
1707	 8.28687928239184E-02 
1708	 8.32736413789826E-02 
1709	 8.34467622969074E-02 
1710	 8.36520830960001E-02 
1711	 8.36850914889524E-02 
1712	 8.33744374960829E-02 
1713	 8.30135055213599E-02 
1714	 8.27823513701744E-02 
1715	 8.22196314966996E-02 
1716	 8.26547599018539E-02 
1717	 8.26638974928495E-02 
1718	 8.27833046746639E-02 
1719	 8.34470988108605E-02 
1720	 8.34176312084087E-02 
1721	 8.33513215896463E-02 
1722	 8.43605715774569E-02 
1723	 8.55027255432085E-02 
1724	 8.59849947595525E-02 
1725	 0.086551423663102 
1726	 8.59600178110072E-02 
1727	 8.43747301789645E-02 
1728	 0.084268791504475 
1729	 8.44927976183113E-02 
1730	 0.083971985838953 
1731	 8.50402760512201E-02 
1732	 8.63242153568043E-02 
1733	 8.58365338004282E-02 
1734	 8.65490806027629E-02 
1735	 8.74614470676802E-02 
1736	 0.086314526988459 
1737	 8.60771904424014E-02 
1738	 8.71566845601461E-02 
1739	 8.64400045434547E-02 
1740	 0.084591939977351 
1741	 8.42101592027026E-02 
1742	 0.084225420228436 
1743	 8.50726458328222E-02 
1744	 8.78566260412653E-02 
1745	 8.91465215493401E-02 
1746	 8.67648938725356E-02 
1747	 8.61217395040809E-02 
1748	 8.52606289156267E-02 
1749	 8.55211301141809E-02 
1750	 8.77837337711338E-02 
1751	 8.83198055828674E-02 
1752	 8.78081653556494E-02 
1753	 8.78279374640411E-02 
1754	 8.81502004511029E-02 
1755	 8.78134097646871E-02 
1756	 8.70749633307584E-02 
1757	 0.087156794503097 
1758	 8.55934170501107E-02 
1759	 8.65670473882704E-02 
1760	 8.98306234134556E-02 
1761	 8.89928859071325E-02 
1762	 8.86948876187669E-02 
1763	 0.089979160847512 
1764	 8.90038729399029E-02 
1765	 9.02711727054584E-02 
1766	 0.091761729477065 
1767	 0.090776677108089 
1768	 9.03039945539164E-02 
1769	 9.10529571896557E-02 
1770	 9.26846963067407E-02 
1771	 9.06545127134757E-02 
1772	 8.93549089547278E-02 
1773	 9.05544504256744E-02 
1774	 0.087170706693539 
1775	 9.00067061617057E-02 
1776	 9.05918422926106E-02 
1777	 8.78235653405584E-02 
1778	 8.89309422479509E-02 
1779	 9.26623153122566E-02 
1780	 9.24423904292735E-02 
1781	 9.05848122727825E-02 
1782	 9.23603481974355E-02 
1783	 9.53015497333633E-02 
1784	 9.59370002523182E-02 
1785	 9.98092520113084E-02 
1786	 9.79019073423326E-02 
1787	 8.36529117143197E-02 
1788	 8.28781579804745E-02 
1789	 9.07364284640671E-02 
1790	 9.03333979836503E-02 
1791	 0.103349405297017 
1792	 0.103627081283606 
1793	 9.02235229731269E-02 
1794	 9.09332644892564E-02 
1795	 7.64016191688507E-02 
1796	 7.41087680898163E-02 
1797	 0.107862121844085 
1798	 0.147305129596396 
1799	 0.182992874812942 
1800	 0.104797499888058 
1801	 8.38123763536054E-02 
1802	 0.059349105839856 
1803	 4.54311164291234E-02 
1804	 0.231147131949629 
1805	 0.286928813854454 
1806	 0.100421080777016 
1807	 8.03056649432276E-03 
1808	-0.383987159540467 
1809	-0.289649541477966 
1810	 0.373499550132306 
1811	 0.537292784166362 
1812	 0.834845729646583 
1813	 0.839966197874919 
1814	-0.328036490955607 
1815	-0.904206312047824 
1816	-0.088516758449976 
1817	 0.262158030995175 
1818	 0.560440971318336 
1819	-1.59888337916664E-02 
1820	-0.291687068567725 
1821	 0.621618305573321 
1822	 1.18444240848659 
1823	 1.45436294503462 
1824	 1.35962717742063 
1825	-0.355823575753894 
1826	-0.303181835425627 
1827	 0.521424492423149 
1828	 0.756204250638967 
1829	 2.01552089492649 
1830	 2.32252524508285 
1831	-1.97100083332506 
1832	-2.60003500722443 
1833	-11.830778697391 
1834	-5.19143851744199 
1835	-2.230093454246 
1836	-1.8281412158181 
1837	-0.478032586835136 
1838	-0.468267673569581 
1839	-1.39673299221488 
1840	 1.59126682890718 
1841	 4.34888316259439 
1842	 2.83614693345858 
1843	 5.34443434841513 
1844	-0.125878696509558 
1845	-7.16385847418354E-02 
1846	-0.405545345735493 
1847	-0.683335636444171 
1848	 15.1888099390712 
1849	 1.04439905605699 
1850	 0.521701332067492 
1851	 0.317343071973627 
1852	 0.584820667912655 
1853	 0.761538728679934 
1854	 1.10374307621144 
1855	-0.941864809987587 
1856	-0.827926244601473 
1857	-0.442893027389414 
1858	-0.617355353595636 
1859	-7.70080257908963 
1860	 4.14784978133997 
1861	 5.57092323773991 
1862	-2.31017906207946 
1863	-0.761648250672813 
1864	-6.23271910398578E-02 
1865	 0.147781214482249 
1866	-0.722126108805001 
1867	-1.34349046800571 
1868	 3.90372552268557 
1869	-4.67143761068804 
1870	-0.739219849716925 
1871	-0.392711853064692 
1872	-0.541002769880623 
1873	-0.744007544314358 
1874	-0.516506897466499 
1875	-0.466945044329521 
1876	-0.441878023390472 
1877	-0.499965740085923 
1878	-0.494890256258435 
1879	-0.264985834743287 
1880	-0.361972541679788 
1881	-0.744347719479305 
1882	-1.06420707356079 
1883	-25.2078155638479 
1884	 5.82521853624986 
1885	 4.13902820589213 
1886	 1.79494445061836 
1887	 5.30486345676163 
1888	-0.163154658417225 
1889	 0.267697781418205 
1890	 0.41899159417013 
1891	 0.488066136765438 
1892	 0.325591289579568 
1893	-0.203620172848202 
1894	 5.94684051623408E-02 
1895	 1.55908290226006 
1896	 2.74038558200359 
1897	-4.72184758175075 
1898	-2.32822421864184 
1899	-0.424326136866717 
1900	 0.664407097915194 
1901	 0.548318190217958 
1902	 1.1065697990995 
1903	 4.97546683539219 
1904	 5.97969521767625 
1905	 2.63301128873964 
1906	 4.83373650441815 
1907	 13.6766407668731 
1908	 146.216160285678 
1909	 1904.37560808185 
1910	 18.89014044934 
1911	-24.6071854382468 
1912	-12.566810781271 
1913	-18.6777494352579 
1914	-1.12258579711066 
1915	-0.531921558125472 
1916	-1.79619395619184 
1917	 12.624080942581 
1918	-3.01631812356359 
1919	-1.3356162032757 
1920	-1.45564199614491 
1921	-0.998202748172952 
1922	-0.937346741594537 
1923	-1.09891510550414 
1924	-0.517350455262515 
1925	 0.446392557864729 
1926	 1.35178982667368 
1927	 1.43374224683796 
1928	 0.329467013010683 
1929	-0.302308604442894 
1930	-0.687413991620456 
1931	-0.435356816229064 
1932	-0.473726050224837 
1933	-7.89207547010693E-02 
1934	-0.161197222606977 
1935	-0.253968275205784 
1936	-0.278599916765893 
1937	-0.805971090124758 
1938	-0.634783884350951 
1939	-0.70296176557244 
1940	-0.435931064285961 
1941	 9.29006970645499 
1942	 1.72752682437171 
1943	 0.47427669768012 
1944	 0.288189421678474 
1945	-0.310785627157543 
1946	-0.718698079461166 
1947	 0.463209926546498 
1948	 0.910452654872961 
1949	 0.890371179841379 
1950	 1.00651207985327 
1951	 0.643775784622582 
1952	 0.48010901472885 
1953	 0.2859087816635 
1954	 0.581394642010985 
1955	 0.577698127110331 
1956	 0.458089310313134 
1957	 0.471570122784979 
1958	 0.382012629969749 
1959	 0.23135721457174 
1960	 0.145970898112792 
1961	 0.111080960884768 
1962	 0.113659692497297 
1963	 0.139266744642623 
1964	 0.148453727801985 
1965	 0.158891107933576 
1966	 0.158430978312202 
1967	 0.146710639644069 
1968	 0.127625197494478 
1969	 0.127505546666055 
1970	 0.122772955287219 
1971	 0.109448959322407 
1972	 0.10212715848973 
1973	 9.94895132976359E-02 
1974	 9.59226133227156E-02 
1975	 9.66816887299553E-02 
1976	 0.104699367677578 
1977	 0.104753647734526 
1978	 0.097381522332511 
1979	 9.54884888621988E-02 
1980	 9.34490182597426E-02 
1981	 9.23352313470376E-02 
1982	 9.48460832507534E-02 
1983	 9.85298474483866E-02 
1984	 9.89980687601662E-02 
1985	 9.88978719629699E-02 
1986	 9.49277640235867E-02 
1987	 0.094511558149078 
1988	 9.99836309278765E-02 
1989	 0.101551407799753 
1990	 0.102420522320162 
1991	 0.10395361869823 
1992	 0.105968503889325 
1993	 0.109266916526675 
1994	 0.110016604425932 
1995	 0.111174708292901 
1996	 0.112125403360596 
1997	 0.110369354619093 
1998	 0.10170048406472 
1999	 9.94295705962728E-02 
2000	 0.10834299438521 
2001	 0.108139127261414 
2002	 0.105281418281885 
2003	 0.111463543176995 
2004	 0.105406214823837 
2005	 9.33023153864595E-02 
2006	 9.66430418868914E-02 
2007	 9.30752471258631E-02 
2008	 8.97969230475158E-02 
2009	 8.95286551034574E-02 
2010	 9.48384000558618E-02 
2011	 9.86096596361287E-02 
2012	 0.10706679881133 
2013	 0.100096046652065 
2014	 9.99697214897797E-02 
2015	 0.109620719338685 
2016	 0.101680161297594 
2017	 9.94812259054532E-02 
2018	 9.75386170757524E-02 
2019	 8.57128013081613E-02 
2020	 8.26785842141021E-02 
2021	 8.65323121003132E-02 
2022	 8.84047367648034E-02 
2023	 9.15974493995989E-02 
2024	 9.34806391932115E-02 
2025	 9.45596697352509E-02 
2026	 0.094545253604379 
2027	 9.44049068946188E-02 
2028	 9.36512757363209E-02 
2029	 0.092351369183968 
2030	 9.22158368574829E-02 
2031	 9.27723169493653E-02 
2032	 9.35010608490279E-02 
2033	 9.31597378677887E-02 
2034	 9.13432930620123E-02 
2035	 9.19770935186888E-02 
2036	 9.27212991867783E-02 
2037	 9.20180767572104E-02 
2038	 9.30671731253046E-02 
2039	 9.29863354083963E-02 
2040	 0.091105560658625 
2041	 9.00650692933007E-02 
2042	 8.84484908217065E-02 
2043	 8.80575757597128E-02 
2044	 8.85107013738848E-02 
2045	 8.75041885610182E-02 
2046	 8.91070412089349E-02 
2047	 9.21441577798873E-02 
2048	 9.27217510844627E-02 
2049	 9.36690131983647E-02 
2050	 9.16472861807618E-02 
2051	 9.24814160019228E-02 
2052	 9.52453754651846E-02 
2053	 9.19505692508206E-02 
2054	 9.10103480161642E-02 
2055	 0.091724133425154 
2056	 9.09971175682752E-02 
2057	 8.82645283384119E-02 
2058	 8.90659098011015E-02 
2059	 9.30989051199902E-02 
2060	 9.28593841864404E-02 
2061	 9.08942211422641E-02 
2062	 0.09155010652019 
2063	 8.99316653525416E-02 
2064	 8.79704764225318E-02 
2065	 9.04167071366587E-02 
2066	 9.28680814296958E-02 
2067	 9.27260996069168E-02 
2068	 9.06796750312994E-02 
2069	 8.89932653479849E-02 
2070	 8.73569901901293E-02 
2071	 8.80446117106026E-02 
2072	 8.95276891933736E-02 
2073	 8.94668178165083E-02 
2074	 8.79663807939644E-02 
2075	 8.82048378138922E-02 
2076	 8.90126447761418E-02 
2077	 0.088840104300078 
2078	 0.089401282315251 
2079	 0.08995150731728 
2080	 9.03273066716681E-02 
2081	 8.90197060344721E-02 
2082	 8.69251382562289E-02 
2083	 8.63607758398412E-02 
2084	 8.67926120694396E-02 
2085	 8.67665703537445E-02 
2086	 8.62486823830748E-02 
2087	 8.38323868674503E-02 
2088	 8.21729053831916E-02 
2089	 8.00773646110043E-02 
2090	 8.01322021108579E-02 
2091	 0.083474738966456 
2092	 8.46615186551723E-02 
2093	 8.46295067808019E-02 
2094	 8.48222135288217E-02 
2095	 0.084550269734031 
2096	 8.40266481920118E-02 
2097	 8.22499968327097E-02 
2098	 8.28294933976368E-02 
2099	 8.49722957031045E-02 
2100	 8.69342236474211E-02 
2101	 8.78623939452322E-02 
2102	 8.80115850270133E-02 
2103	 8.47360127556602E-02 
2104	 8.20398672336914E-02 
2105	 8.04680454496768E-02 
2106	 7.79230737181255E-02 
2107	 7.70285468704549E-02 
2108	 7.73511847375703E-02 
2109	 8.13354528971409E-02 
2110	 0.08572601995829 
2111	 8.65726907758652E-02 
2112	 8.69914204274081E-02 
2113	 8.66331855863166E-02 
2114	 8.16490337854079E-02 
2115	 0.080981489309195 
2116	 8.37689421360191E-02 
2117	 8.42115787358438E-02 
2118	 8.46174784857343E-02 
2119	 8.47670144466321E-02 
2120	 8.50396678969777E-02 
2121	 8.22831096241772E-02 
2122	 7.87215337649743E-02 
2123	 7.99832762075866E-02 
2124	 8.18880886042434E-02 
2125	 8.27816292474578E-02 
2126	 8.76034757518992E-02 
2127	 9.02595557425982E-02 
2128	 8.66836256610388E-02 
2129	 8.40936463348121E-02 
2130	 8.31341748091168E-02 
2131	 8.16583029799891E-02 
2132	 8.25050374429453E-02 
2133	 8.49436848789319E-02 
2134	 8.59858226142498E-02 
2135	 8.56381444730819E-02 
2136	 8.67650663051113E-02 
2137	 8.91949346194543E-02 
2138	 8.99641408381784E-02 
2139	 9.09736576349218E-02 
2140	 9.07933709939285E-02 
2141	 8.80215152304822E-02 
2142	 0.08698326920404 
2143	 8.67249437271663E-02 
2144	 8.62660885912363E-02 
2145	 0.083858125876584 
2146	 8.24751603316646E-02 
2147	 8.30033227114335E-02 
2148	 8.36875067775797E-02 
2149	 8.64263318652659E-02 
2150	 8.99634355642992E-02 
2151	 9.08983490481275E-02 
2152	 9.00688184947918E-02 
2153	 8.60971399169943E-02 
2154	 8.27711372665384E-02 
2155	 8.49948400013026E-02 
2156	 8.73562402094052E-02 
2157	 8.80482438077495E-02 
2158	 9.21166582193934E-02 
2159	 9.32745676612521E-02 
2160	 8.99182279587481E-02 
2161	 8.83610004109284E-02 
2162	 8.87569209621913E-02 
2163	 8.85240686197624E-02 
2164	 8.65096960688557E-02 
2165	 8.44885249195807E-02 
2166	 8.38736098496675E-02 
2167	 8.11891141534326E-02 
2168	 7.52443489258024E-02 
2169	 7.28671644611469E-02 
2170	 7.11962051754966E-02 
2171	 7.02594804730563E-02 
2172	 7.41762809592952E-02 
2173	 7.62567695025983E-02 
2174	 7.60932391526928E-02 
2175	 7.88576352499889E-02 
2176	 7.98437653382004E-02 
2177	 8.00428250250994E-02 
2178	 8.31114187349279E-02 
2179	 8.62867163917073E-02 
2180	 8.68820178492643E-02 
2181	 8.55955572483541E-02 
2182	 8.53393366359965E-02 
2183	 8.51336106770632E-02 
2184	 8.27052485797736E-02 
2185	 8.28211097202701E-02 
2186	 8.31616258726746E-02 
2187	 8.22967010311533E-02 
2188	 0.082587468374364 
2189	 0.085380326552326 
2190	 8.59671829036902E-02 
2191	 8.76671100795981E-02 
2192	 8.74953887895638E-02 
2193	 8.37444793268548E-02 
2194	 8.40507671046594E-02 
2195	 8.50173088420374E-02 
2196	 8.45594953493645E-02 
2197	 8.74471529582002E-02 
2198	 8.77019196276686E-02 
2199	 8.51439016855962E-02 
2200	 0.08270084597151 
2201	 7.84457125360187E-02 
2202	 7.57583045227537E-02 
2203	 8.04313970451107E-02 
2204	 8.36167045859237E-02 
2205	 8.96404466913556E-02 
2206	 0.094159197515754 
2207	 9.02243801563681E-02 
2208	 0.089637819706476 
2209	 8.64934054062468E-02 
2210	 0.080292479850365 
2211	 7.88117103268096E-02 
2212	 7.36059024512623E-02 
2213	 6.95376277626852E-02 
2214	 7.27209664494854E-02 
2215	 7.17015426963556E-02 
2216	 6.74369848672675E-02 
2217	 6.86658181755253E-02 
2218	 7.33817865666725E-02 
2219	 7.49173787472588E-02 
2220	 7.88940171143999E-02 
2221	 8.09640593338008E-02 
2222	 8.05511405583229E-02 
2223	 7.95580347963231E-02 
2224	 7.73312306714799E-02 
2225	 7.72464858301142E-02 
2226	 7.80605188594743E-02 
2227	 7.50127580901479E-02 
2228	 7.03330736969943E-02 
2229	 6.89821853336494E-02 
2230	 6.63100574485987E-02 
2231	 6.46233842096294E-02 
2232	 6.52182264698501E-02 
2233	 6.74861900257991E-02 
2234	 7.11755082271032E-02 
2235	 7.18817259906451E-02 
2236	 7.43928652744828E-02 
2237	 7.78550380538465E-02 
2238	 7.46611691342553E-02 
2239	 7.45573716988264E-02 
2240	 7.93627615235787E-02 
2241	 7.98560189811481E-02 
2242	 7.82112223229614E-02 
2243	 7.73139643306035E-02 
2244	 0.078532695344524 
2245	 8.21425954616978E-02 
2246	 9.04154873610486E-02 
2247	 9.53457725439419E-02 
2248	 9.11657139148068E-02 
2249	 8.65779938890042E-02 
2250	 8.35487539663195E-02 
2251	 8.33740205742671E-02 
2252	 8.25804096596952E-02 
2253	 8.28245360625488E-02 
2254	 8.96330271702304E-02 
2255	 9.32308182270356E-02 
2256	 9.31368356476126E-02 
2257	 9.39661679044461E-02 
2258	 8.99281906662211E-02 
2259	 8.41785872144133E-02 
2260	 8.19084695082966E-02 
2261	 8.35332624712291E-02 
2262	 8.31875564624556E-02 
2263	 0.085029141121335 
2264	 8.45130403331888E-02 
2265	 8.18154636860652E-02 
2266	 0.080096016700119 
2267	 7.60773193353179E-02 
2268	 7.50580982490925E-02 
2269	 7.66718247177647E-02 
2270	 7.78686603084014E-02 
2271	 8.04534230571131E-02 
2272	 8.26551841885797E-02 
2273	 8.70700197615981E-02 
2274	 8.71869107282271E-02 
2275	 8.10650508464583E-02 
2276	 8.10419211591318E-02 
2277	 8.49621393858033E-02 
2278	 8.17531395400056E-02 
2279	 8.00693095322574E-02 
2280	 7.90649569145019E-02 
2281	 7.25373269281429E-02 
2282	 6.43349727020792E-02 
2283	 5.98254616385682E-02 
2284	 0.058484379789765 
2285	 0.06743012060179 
2286	 7.35226276605417E-02 
2287	 8.18064072016077E-02 
2288	 9.16461068971145E-02 
2289	 8.88201723279114E-02 
2290	 8.69474149633114E-02 
2291	 8.75282356965801E-02 
2292	 8.52979839926265E-02 
2293	 8.12470002132109E-02 
2294	 7.42221075260124E-02 
2295	 0.066568857203994 
2296	 6.05274954909715E-02 
2297	 0.060031166269365 
2298	 6.15853664665933E-02 
2299	 6.28791856069166E-02 
2300	 6.84280371176193E-02 
2301	 6.95372881895598E-02 
2302	 0.061232199684423 
2303	 6.08656942822442E-02 
2304	 0.075768339438313 
2305	 8.57293878113974E-02 
2306	 8.68964856035742E-02 
2307	 8.87053090730537E-02 
2308	 8.03467927260807E-02 
2309	 6.95803578380068E-02 
2310	 6.95506225773958E-02 
2311	 6.73524111984869E-02 
2312	 6.60281342226087E-02 
2313	 6.81741619323409E-02 
2314	 7.08992559229549E-02 
2315	 7.86643165781681E-02 
2316	 7.69142782522658E-02 
2317	 8.02073114068083E-02 
2318	 8.94663417504849E-02 
2319	 7.54980178468216E-02 
2320	 6.65371786873476E-02 
2321	 6.66396244543022E-02 
2322	 5.85293354385094E-02 
2323	 6.11119199540815E-02 
2324	 7.69172002127389E-02 
2325	 7.53300593354959E-02 
2326	 6.25923157315897E-02 
2327	 6.74533236307642E-02 
2328	 6.60503550118308E-02 
2329	 6.88498249845869E-02 
2330	 8.08897533526748E-02 
2331	 8.30932901941545E-02 
2332	 8.88892296406794E-02 
2333	 8.50103827276505E-02 
2334	 0.087169442265686 
2335	 9.96845174174355E-02 
2336	 0.101052849577833 
2337	 0.102515138737354 
2338	 0.110696566854387 
2339	 0.106327196212071 
2340	 0.072066553948433 
2341	 5.23447674144284E-02 
2342	 6.07570685529289E-02 
2343	 6.31100184332884E-02 
2344	 8.57837084095661E-02 
2345	 0.110505582513563 
2346	 8.79395664568497E-02 
2347	 7.06517743584851E-02 
2348	 7.31798684093229E-02 
2349	 7.70965289666581E-02 
2350	 9.45605808554776E-02 
2351	 0.10906677647906 
2352	 0.109334100374146 
2353	 0.10253743788079 
2354	 0.103536729525259 
2355	 0.101221556007858 
2356	 9.23656004095123E-02 
2357	 6.85657622990749E-02 
2358	 7.33091845917972E-02 
2359	 0.102900941248638 
2360	 9.60673367092615E-02 
2361	 9.26408248210376E-02 
2362	 0.109120419865808 
2363	 0.10586296821101 
2364	 9.95515206194622E-02 
2365	 0.122394502693443 
2366	 0.104928780059976 
2367	 5.71796417021792E-02 
2368	 8.37105035504014E-02 
2369	 9.68686667515223E-02 
2370	 9.28875286339196E-02 
2371	 0.105247544539099 
2372	 0.06433513535086 
2373	 2.03419071638118E-02 
2374	 3.50629127515033E-02 
2375	 0.05692850702856 
2376	 8.80588524704768E-02 
2377	 0.123258807011764 
2378	 7.25046089359287E-02 
2379	 1.39168612545218E-02 
2380	 1.99998189797157E-02 
2381	-0.049212393421867 
2382	-3.35830667192963E-02 
2383	 5.18418489375822E-02 
2384	-2.70676264813586E-02 
2385	-8.21820102671376E-02 
2386	-0.032111181795985 
2387	-3.86932453995552E-03 
2388	 0.118472650162285 
2389	 0.118476774334062 
2390	 0.110284487272667 
2391	 7.68366417301674E-02 
2392	-3.15321053956121E-02 
2393	 0.190022199945379 
2394	 0.423234598346517 
2395	 0.373638036406282 
2396	 0.261932767243923 
2397	 0.201852329541124 
2398	 0.15588206752608 
2399	 9.86777809519345E-02 
2400	 0.215416761776418 
2401	 0.215708957006472 
2402	 6.75276176803187E-02 
2403	 7.88993893126628E-02 
2404	 6.44822794687587E-02 
2405	 0.107781181113892 
2406	 0.288571618142653 
2407	 0.306400898853047 
2408	 0.214053902956219 
2409	 0.112542547975565 
2410	 3.9220099294359E-03 
2411	-0.124562343050055 
2412	-0.111343949880157 
2413	-4.03229968625823E-02 
2414	-0.119705919692435 
2415	 2.66041446226974E-02 
2416	 2.9053501365899 
2417	-5.06242805660044 
2418	-77.7024267744899 
2419	 14.407644244343 
2420	 0.617106490913503 
2421	-4.63098623624096E-02 
2422	 1.31722976745273 
2423	-1.30237482957138 
2424	 88.0769610631531 
2425	 1.78460447839409 
2426	 0.826690695688531 
2427	 0.504514760364718 
2428	 0.273239183079268 
2429	 0.544776713681508 
2430	 0.324694182624238 
2431	-0.227697950030551 
2432	-0.113307165168504 
2433	-0.332328955877971 
2434	-0.344265193163704 
2435	-4.75987347090584E-02 
2436	-0.489913660560012 
2437	-0.763331630406178 
2438	-1.41607631364503 
2439	-0.939993423245886 
2440	-1.22288093765319E-02 
2441	 0.393078400116135 
2442	 0.080610260105393 
2443	 1.80680465016931E-02 
2444	-1.29728533124116 
2445	-0.331526569170652 
2446	 0.40976148300779 
2447	 0.288556222410606 
2448	-0.393629959408054 
2449	 2.53019583815082 
2450	 1.45533618307927 
2451	 0.464705953496489 
2452	-0.536158757340096 
2453	-1.15082530563529 
2454	-6.33467347561742 
2455	-19.1866573266038 
2456	-3.30889332246582 
2457	-1.65703500841489 
2458	-1.00929748362386 
2459	-0.329251685094973 
2460	-3.85579422899589E-02 
2461	-0.119373822193666 
2462	-0.138202944318935 
2463	-7.56681169978047E-02 
2464	 6.87827787507076E-02 
2465	 0.200994208971443 
2466	 0.348315214041637 
2467	-0.388185451635428 
2468	-0.673748883282148 
2469	 4.37819405363346E-02 
2470	 0.119286784074991 
2471	 6.52210438293117E-05 
2472	 0.054670188847373 
2473	-0.127240135912689 
2474	-0.521572448385017 
2475	-0.492782184355873 
2476	-0.32105334917775 
2477	-0.123914461651011 
2478	 0.442431566413234 
2479	 0.98102963557019 
2480	 1.67685803023582 
2481	 1.66496920985948 
2482	 0.50244620912354 
2483	-6.47613522869526E-02 
2484	-0.220791707417526 
2485	 3.98459626297327E-02 
2486	-6.31142374083188E-02 
2487	-0.189865858184184 
2488	-3.38755396802267E-02 
2489	 9.64645228612199E-02 
2490	 6.50338742380079E-02 
2491	-6.98645445580394E-02 
2492	-7.95405918950057E-02 
2493	-0.350896912009966 
2494	-1.24005516912624 
2495	 1.98900495403935 
2496	-1.14359695556532 
2497	-1.14125600204666 
2498	-6.77707997411123E-02 
2499	-0.151223936304502 
2500	-9.39059776758736E-02 
