Wavelength	rt0728algea00002.asd
350	 0.100379491215073 
351	 0.100559167021781 
352	 0.100050327912993 
353	 0.100081976537966 
354	 0.101006812896447 
355	 0.100685577349668 
356	 0.100568490701028 
357	 0.100612471619944 
358	 0.100532465054038 
359	 0.101095383714722 
360	 0.10131081868171 
361	 0.101178092220501 
362	 0.101348027565727 
363	 0.101319246409835 
364	 0.101362396443439 
365	 0.10165513856124 
366	 0.102122560259256 
367	 0.10196236218679 
368	 0.101722477199177 
369	 0.102059814724402 
370	 0.102697898943939 
371	 0.102790553179511 
372	 0.102843919214073 
373	 0.103876517645749 
374	 0.103750985151035 
375	 0.103783459877814 
376	 0.104322680123031 
377	 0.103934492645147 
378	 0.103753955236227 
379	 0.104208588333946 
380	 0.105139849932515 
381	 0.105159307833976 
382	 0.105668113683545 
383	 0.106599570592661 
384	 0.107150494450208 
385	 0.106907524694707 
386	 0.107129167562179 
387	 0.10789382199283 
388	 0.107887070703932 
389	 0.108503354604005 
390	 0.109105389660745 
391	 0.109151008564111 
392	 0.109196916174991 
393	 0.109924864903145 
394	 0.110573704966816 
395	 0.110310001698165 
396	 0.11090632892112 
397	 0.111578701402327 
398	 0.112003207458118 
399	 0.112391794786055 
400	 0.112760702346803 
401	 0.11286874924298 
402	 0.112732600604693 
403	 0.112986713045265 
404	 0.113552722421313 
405	 0.11412103914063 
406	 0.114359432726922 
407	 0.114382576802537 
408	 0.114661771622038 
409	 0.115203352235773 
410	 0.115559042878306 
411	 0.115913263851891 
412	 0.116256533977472 
413	 0.116623002580403 
414	 0.11728570628346 
415	 0.117501018537506 
416	 0.117678655477655 
417	 0.118466803446304 
418	 0.118793170526052 
419	 0.119214048353302 
420	 0.119912649339281 
421	 0.120555248977758 
422	 0.121159456955462 
423	 0.121606619846611 
424	 0.12189310450186 
425	 0.122363128998308 
426	 0.122984654024237 
427	 0.123711390111198 
428	 0.124473432591099 
429	 0.125178275025369 
430	 0.125994078328093 
431	 0.126851026038066 
432	 0.127387978645874 
433	 0.12812639649104 
434	 0.128930058681979 
435	 0.129601823480487 
436	 0.130199271281458 
437	 0.13098865034349 
438	 0.131839365787681 
439	 0.132444586555926 
440	 0.133077115230321 
441	 0.133811638835409 
442	 0.134570529535089 
443	 0.135083855635577 
444	 0.135684531259396 
445	 0.13635043021295 
446	 0.136977575892368 
447	 0.137579879754781 
448	 0.138028358538236 
449	 0.13843414899861 
450	 0.139053321667037 
451	 0.139556967954656 
452	 0.140012774312005 
453	 0.140448345048415 
454	 0.14066356524579 
455	 0.141022501373389 
456	 0.141463690744726 
457	 0.141790560734944 
458	 0.141998680469713 
459	 0.142331355025954 
460	 0.142786260095447 
461	 0.143106806869913 
462	 0.143403811477736 
463	 0.143628063288217 
464	 0.143783364078346 
465	 0.144100665151799 
466	 0.144341385664945 
467	 0.144612120159811 
468	 0.145112872200368 
469	 0.145388376142875 
470	 0.145657271629999 
471	 0.145964908965349 
472	 0.146038637227022 
473	 0.146379683392903 
474	 0.146829990461709 
475	 0.147162036115126 
476	 0.14758970630906 
477	 0.147872440961741 
478	 0.148105601856015 
479	 0.148582443193095 
480	 0.149021317978861 
481	 0.149364165315359 
482	 0.149680164277334 
483	 0.150238255919211 
484	 0.15074938021076 
485	 0.151175439896622 
486	 0.151605824398763 
487	 0.152248321557603 
488	 0.152851577454174 
489	 0.153302628633521 
490	 0.153667757618092 
491	 0.154356936314393 
492	 0.155066568741484 
493	 0.155564703386852 
494	 0.156231778155178 
495	 0.156877585271519 
496	 0.157533942115035 
497	 0.158305653579903 
498	 0.158929166647121 
499	 0.159555707084428 
500	 0.16029039118244 
501	 0.161103071853533 
502	 0.161787217350688 
503	 0.162427422709767 
504	 0.163157662880812 
505	 0.163897842576623 
506	 0.164782097361333 
507	 0.165661724197322 
508	 0.166216453730208 
509	 0.167125911083657 
510	 0.168081136173168 
511	 0.168838905489582 
512	 0.169712551600239 
513	 0.170475627290984 
514	 0.171242285625893 
515	 0.172203531092689 
516	 0.173011886178403 
517	 0.173913650143366 
518	 0.174900067809832 
519	 0.175597138747309 
520	 0.176566483032437 
521	 0.17757048776121 
522	 0.178340022178045 
523	 0.179131537205788 
524	 0.179983610446858 
525	 0.180850528557589 
526	 0.181648739950996 
527	 0.182560759027345 
528	 0.183525927765234 
529	 0.184473139940968 
530	 0.185391629737023 
531	 0.186269423633334 
532	 0.187142498279685 
533	 0.188052978641805 
534	 0.188971764192192 
535	 0.18985723260177 
536	 0.190687518429387 
537	 0.191457729104061 
538	 0.192360209921638 
539	 0.193275855711747 
540	 0.194080766600753 
541	 0.194905760648058 
542	 0.19574587162593 
543	 0.196616248819692 
544	 0.197538066089234 
545	 0.198429851517658 
546	 0.199371410160821 
547	 0.200359820164327 
548	 0.201201210789408 
549	 0.201943856486244 
550	 0.202755432331228 
551	 0.203754505491297 
552	 0.204511641237897 
553	 0.205213644294502 
554	 0.205988921878798 
555	 0.206848484891515 
556	 0.207528221576374 
557	 0.208214458820186 
558	 0.209079345934109 
559	 0.20991921819866 
560	 0.210585068258594 
561	 0.211141007914487 
562	 0.211783330081793 
563	 0.212462217766534 
564	 0.213103675239384 
565	 0.213662680088978 
566	 0.214155679339007 
567	 0.214629969605063 
568	 0.215139286504165 
569	 0.215695854028968 
570	 0.216102622313311 
571	 0.216520330516493 
572	 0.216965250505156 
573	 0.217277280763318 
574	 0.217597557036266 
575	 0.217995401722332 
576	 0.218467004260925 
577	 0.218855607286428 
578	 0.219181242168952 
579	 0.219444223416868 
580	 0.219649027999384 
581	 0.219916682080428 
582	 0.220205004300118 
583	 0.220403494466123 
584	 0.220285229946417 
585	 0.220389150488665 
586	 0.220519388524876 
587	 0.220314852307081 
588	 0.220234529991489 
589	 0.22037182005475 
590	 0.220624933807947 
591	 0.220742204866303 
592	 0.220793055076788 
593	 0.22083959344159 
594	 0.220911699458993 
595	 0.220941371412542 
596	 0.22098259635147 
597	 0.220960002639541 
598	 0.220770653527422 
599	 0.22077224399728 
600	 0.220786310693878 
601	 0.220679021536238 
602	 0.22049431754049 
603	 0.220426591445627 
604	 0.22043813723513 
605	 0.220396707674546 
606	 0.220123958680733 
607	 0.220017372314612 
608	 0.220081370339309 
609	 0.219899438076131 
610	 0.219721051978649 
611	 0.21961827356291 
612	 0.219601132662596 
613	 0.219638608219521 
614	 0.219444394798236 
615	 0.219217983126166 
616	 0.219353747579492 
617	 0.219226636951375 
618	 0.219074912549657 
619	 0.219081344048454 
620	 0.219200011591941 
621	 0.219200669055016 
622	 0.21916340982919 
623	 0.219195911897154 
624	 0.21894403087414 
625	 0.218943161544307 
626	 0.219149299219164 
627	 0.218969896664031 
628	 0.219071720395359 
629	 0.2190691996968 
630	 0.218762967283322 
631	 0.218983622068807 
632	 0.219114319554467 
633	 0.219012588070909 
634	 0.218814018416904 
635	 0.218901534240109 
636	 0.219042091273047 
637	 0.21909476619004 
638	 0.219142100465864 
639	 0.219173094361129 
640	 0.219214986952883 
641	 0.219264013416879 
642	 0.219162208698466 
643	 0.218989275140619 
644	 0.218853549175156 
645	 0.218857442004175 
646	 0.218557269104826 
647	 0.218328034678027 
648	 0.218367713534678 
649	 0.218064952250962 
650	 0.217818538375169 
651	 0.217544669206838 
652	 0.217062262859509 
653	 0.216691047647359 
654	 0.216164067927366 
655	 0.215449653262592 
656	 0.214975474711332 
657	 0.214452421558389 
658	 0.213917262167074 
659	 0.213414485283759 
660	 0.212853924051001 
661	 0.212329763505671 
662	 0.211823676784438 
663	 0.211283970246324 
664	 0.21097665944433 
665	 0.210639580131621 
666	 0.210207705312844 
667	 0.210107127488605 
668	 0.20991329452083 
669	 0.209726810230865 
670	 0.209732457592777 
671	 0.209615095321681 
672	 0.20954099281367 
673	 0.209573867205133 
674	 0.209660161788328 
675	 0.209753910117645 
676	 0.20997523996011 
677	 0.210358539020701 
678	 0.210664050348216 
679	 0.210788544389824 
680	 0.210973254716252 
681	 0.211551701508863 
682	 0.212230316522062 
683	 0.212861282570493 
684	 0.213411266558084 
685	 0.214036114272166 
686	 0.214680001533452 
687	 0.21541083438905 
688	 0.216282006577738 
689	 0.217379971834507 
690	 0.218497848746628 
691	 0.219551092574393 
692	 0.220566135419512 
693	 0.221934626209057 
694	 0.223324818862698 
695	 0.224526674503841 
696	 0.22589143711539 
697	 0.226939531310883 
698	 0.22777795700836 
699	 0.228594803141071 
700	 0.229520612945219 
701	 0.230643197049425 
702	 0.231741631922354 
703	 0.232465430350622 
704	 0.233144924697045 
705	 0.233585825843055 
706	 0.233727424730336 
707	 0.234010148117329 
708	 0.234253150822532 
709	 0.234323451526277 
710	 0.234128578239783 
711	 0.233768559932098 
712	 0.233192534652532 
713	 0.232408342241602 
714	 0.231466475982866 
715	 0.230405378146082 
716	 0.229370632622135 
717	 0.228522995578692 
718	 0.227118006586275 
719	 0.225680458874411 
720	 0.224579754271518 
721	 0.223609434617604 
722	 0.222600797194962 
723	 0.221104583147795 
724	 0.219238143612002 
725	 0.21752283984891 
726	 0.215884489312354 
727	 0.214145382981481 
728	 0.212163301817358 
729	 0.209959186821568 
730	 0.207513825262217 
731	 0.205229896965247 
732	 0.203362088344363 
733	 0.201792484794719 
734	 0.20044388195645 
735	 0.199180061752837 
736	 0.197748738220775 
737	 0.196941008340936 
738	 0.196582235170066 
739	 0.19629739704351 
740	 0.195789028064649 
741	 0.195643462001367 
742	 0.195746872321514 
743	 0.19567442734009 
744	 0.195757791243754 
745	 0.195699577444567 
746	 0.195459828097853 
747	 0.195410994580338 
748	 0.195584093433159 
749	 0.19569498598657 
750	 0.195570822297963 
751	 0.19571415927159 
752	 0.195722829714208 
753	 0.195582167926929 
754	 0.195508981002146 
755	 0.195669333385374 
756	 0.195830334842295 
757	 0.195825377600268 
758	 0.195552841721901 
759	 0.195229802017027 
760	 0.195013766605262 
761	 0.195007977604886 
762	 0.194877244352577 
763	 0.195258332510793 
764	 0.195813624459678 
765	 0.196092691032316 
766	 0.196414085485748 
767	 0.196676912800067 
768	 0.196823251073011 
769	 0.196834146936286 
770	 0.19704155060701 
771	 0.197324334361172 
772	 0.197590404746793 
773	 0.198144104911446 
774	 0.198368013200166 
775	 0.198490408436939 
776	 0.198986385927406 
777	 0.199333119715489 
778	 0.199541077060759 
779	 0.199745837009609 
780	 0.20015940561026 
781	 0.200677035861361 
782	 0.201136857443268 
783	 0.201433506677805 
784	 0.201587396751123 
785	 0.201922083504804 
786	 0.202392834010897 
787	 0.202832406257999 
788	 0.203300878877587 
789	 0.203817947763211 
790	 0.204337339194277 
791	 0.204792836806149 
792	 0.205400663383913 
793	 0.205822408274367 
794	 0.206011518502866 
795	 0.20648203977694 
796	 0.207075045559215 
797	 0.207512845405107 
798	 0.207726646773654 
799	 0.208443187288238 
800	 0.20855514233128 
801	 0.208487447117288 
802	 0.209287424528329 
803	 0.209436305606276 
804	 0.209512312792303 
805	 0.209730053011153 
806	 0.209726021155896 
807	 0.209710176717538 
808	 0.209537819158792 
809	 0.209171470239823 
810	 0.209066646739662 
811	 0.208573546494468 
812	 0.207950922889672 
813	 0.207717215910398 
814	 0.206979579112828 
815	 0.206442587024074 
816	 0.206066838925732 
817	 0.205232131015469 
818	 0.204857870221477 
819	 0.204326184467685 
820	 0.203327348796799 
821	 0.202069598626922 
822	 0.200720714887337 
823	 0.199374690393021 
824	 0.197914995666273 
825	 0.195622548872267 
826	 0.193550963418343 
827	 0.191467325490433 
828	 0.189070435630179 
829	 0.187697192133466 
830	 0.185977119012878 
831	 0.183845901945748 
832	 0.182319835678951 
833	 0.181461756242978 
834	 0.180637389505274 
835	 0.179693831861303 
836	 0.179193406362382 
837	 0.178612476256217 
838	 0.178018654816975 
839	 0.177577226896516 
840	 0.17738003827941 
841	 0.177250676187437 
842	 0.176885361840622 
843	 0.176145774109471 
844	 0.175783442013277 
845	 0.175424713626895 
846	 0.174977242884079 
847	 0.17457124711511 
848	 0.174244964946861 
849	 0.174050477118866 
850	 0.173826104582244 
851	 0.173195119784652 
852	 0.173043246645892 
853	 0.173250516214142 
854	 0.173259846190959 
855	 0.172107761047174 
856	 0.171926854298292 
857	 0.171933403792074 
858	 0.171120110629609 
859	 0.170743153109967 
860	 0.170674924909649 
861	 0.170506186125256 
862	 0.169902301221403 
863	 0.169953022442214 
864	 0.169894442344382 
865	 0.169580988330071 
866	 0.169459100535502 
867	 0.168700916119482 
868	 0.167804845468688 
869	 0.167320394817956 
870	 0.167572623525806 
871	 0.167405154632027 
872	 0.166898518299535 
873	 0.16643989646843 
874	 0.16644570473862 
875	 0.166061857096235 
876	 0.165583262259174 
877	 0.165363490676971 
878	 0.164519845150442 
879	 0.164102866438367 
880	 0.163736221873688 
881	 0.162685369554019 
882	 0.162335508937345 
883	 0.162498731075728 
884	 0.162265178626707 
885	 0.160713719922696 
886	 0.160925156443088 
887	 0.160756524322972 
888	 0.159812982196951 
889	 0.160197897448827 
890	 0.16025096055596 
891	 0.159845309749701 
892	 0.159049236717229 
893	 0.157810858415304 
894	 0.157389073625288 
895	 0.157125708603849 
896	 0.156313956612945 
897	 0.156441908608629 
898	 0.15627474408144 
899	 0.155569730637505 
900	 0.154661541653437 
901	 0.154071561237906 
902	 0.154261866548727 
903	 0.154113813902709 
904	 0.152719835230938 
905	 0.153103634657801 
906	 0.153745020910625 
907	 0.153480068476721 
908	 0.151898262154717 
909	 0.151408141739105 
910	 0.150335003099368 
911	 0.149406782335194 
912	 0.151193323814594 
913	 0.151118718607165 
914	 0.148614591234676 
915	 0.145930419196911 
916	 0.146940473493927 
917	 0.14702566033646 
918	 0.145704723255923 
919	 0.144267599879888 
920	 0.145148762354845 
921	 0.144930739313297 
922	 0.144447879042461 
923	 0.144166523743051 
924	 0.141956297818287 
925	 0.140372425662217 
926	 0.140009350451481 
927	 0.140569344652291 
928	 0.140913734318104 
929	 0.14025101691461 
930	 0.140250475141221 
931	 0.143035100489403 
932	 0.13799198929163 
933	 0.139529924409374 
934	 0.13901062722237 
935	 0.123760710125409 
936	 0.123169143632399 
937	 0.129741990908665 
938	 0.135499532360551 
939	 0.135231083926234 
940	 0.128895434329802 
941	 0.127686707156405 
942	 0.129761052568356 
943	 0.127939965644976 
944	 0.129278233213354 
945	 0.127314509091469 
946	 0.124122863401599 
947	 0.125374121336048 
948	 0.123054244591465 
949	 0.124710244715426 
950	 0.127786953187556 
951	 0.12479049636319 
952	 0.118156365586122 
953	 0.121031491525401 
954	 0.129650905243821 
955	 0.130871250891357 
956	 0.129728632575994 
957	 0.127302333976136 
958	 0.125002441196275 
959	 0.124099431308473 
960	 0.12212220903972 
961	 0.123863158554912 
962	 0.125848825523092 
963	 0.121238944605691 
964	 0.116967222567594 
965	 0.120374752319995 
966	 0.125667800791112 
967	 0.121744282730863 
968	 0.120777482205926 
969	 0.124332823253829 
970	 0.127643905420816 
971	 0.123466687605122 
972	 0.121074523308681 
973	 0.120782688946425 
974	 0.121580951437998 
975	 0.121847934573202 
976	 0.117835160345687 
977	 0.117275376574101 
978	 0.121498455559826 
979	 0.124676208626655 
980	 0.119436079059703 
981	 0.117596859987168 
982	 0.121344320129494 
983	 0.1237436260938 
984	 0.123315308182603 
985	 0.12171479089909 
986	 0.12113207809217 
987	 0.122817261153852 
988	 0.121805379436852 
989	 0.120812602727667 
990	 0.120528076728313 
991	 0.120001829799299 
992	 0.122067651180498 
993	 0.122934771544202 
994	 0.122806860572931 
995	 0.124112719425603 
996	 0.122242617880911 
997	 0.121010683533386 
998	 0.122959685396647 
999	 0.12722524698144 
1000	 0.12312223071588 
1001	 0.12498860057607 
1002	 0.124243948808507 
1003	 0.124086804496015 
1004	 0.123870593640522 
1005	 0.124057104406745 
1006	 0.125084953698999 
1007	 0.124942185126121 
1008	 0.124753650299288 
1009	 0.125623965383695 
1010	 0.126390360629019 
1011	 0.126316561998399 
1012	 0.125987788714103 
1013	 0.125044950080229 
1014	 0.124447484377034 
1015	 0.12250169017293 
1016	 0.123011161843172 
1017	 0.125530716000165 
1018	 0.126611762320622 
1019	 0.128708934864314 
1020	 0.129518433418722 
1021	 0.128586015474491 
1022	 0.128643738957778 
1023	 0.128929482206503 
1024	 0.129033980151183 
1025	 0.129109021559444 
1026	 0.128842484131471 
1027	 0.129019288504181 
1028	 0.129013359948049 
1029	 0.129352832634277 
1030	 0.130567913885691 
1031	 0.130740581357164 
1032	 0.130450635296562 
1033	 0.130261130344601 
1034	 0.129330749784317 
1035	 0.129162839590618 
1036	 0.129166926084161 
1037	 0.129517686594478 
1038	 0.130360126680892 
1039	 0.131351468021083 
1040	 0.132537993184962 
1041	 0.133436409784625 
1042	 0.133702333991837 
1043	 0.133571832197509 
1044	 0.13338002338471 
1045	 0.132434997211236 
1046	 0.132194753618832 
1047	 0.132307903326358 
1048	 0.132014377678336 
1049	 0.131476371433607 
1050	 0.131445571395934 
1051	 0.131290964993809 
1052	 0.131549907664174 
1053	 0.132871310565032 
1054	 0.13339157956202 
1055	 0.13343365727777 
1056	 0.133712112504071 
1057	 0.133937725827305 
1058	 0.134035874608889 
1059	 0.133823227762611 
1060	 0.133519269762663 
1061	 0.133375329840796 
1062	 0.132675124972275 
1063	 0.13264525092912 
1064	 0.13345661788832 
1065	 0.133606536024224 
1066	 0.133684841182686 
1067	 0.133596278378337 
1068	 0.13265835209898 
1069	 0.132683520416951 
1070	 0.133788857203385 
1071	 0.133912102005764 
1072	 0.134214909445732 
1073	 0.133917676417498 
1074	 0.133848740710364 
1075	 0.132837214112199 
1076	 0.132689323996536 
1077	 0.133299575697667 
1078	 0.133622255814831 
1079	 0.134023848655232 
1080	 0.134110440212187 
1081	 0.13420004319097 
1082	 0.13413847627368 
1083	 0.133483347930826 
1084	 0.133283246194471 
1085	 0.133457559486797 
1086	 0.133417044726573 
1087	 0.13359428517308 
1088	 0.133503037103048 
1089	 0.133305493905414 
1090	 0.132633303167911 
1091	 0.132193117447884 
1092	 0.131345344905994 
1093	 0.13101577660244 
1094	 0.131202104194201 
1095	 0.131045659592011 
1096	 0.131018556401381 
1097	 0.13088100327954 
1098	 0.130171493699498 
1099	 0.129952492218465 
1100	 0.130326866307989 
1101	 0.130130860374053 
1102	 0.130213281431303 
1103	 0.129900000359633 
1104	 0.128613908165419 
1105	 0.127581863812342 
1106	 0.127591124816175 
1107	 0.1263101870668 
1108	 0.126509696293045 
1109	 0.127978961374194 
1110	 0.128692912094724 
1111	 0.130439613122298 
1112	 0.130901486888757 
1113	 0.129936911858606 
1114	 0.12870348279449 
1115	 0.124146210430419 
1116	 0.122440108983402 
1117	 0.124786084553718 
1118	 0.1251100911692 
1119	 0.125847599052613 
1120	 0.128400971859466 
1121	 0.139524827236198 
1122	 0.125192296183268 
1123	 0.109811066320993 
1124	 0.120512935282246 
1125	 0.102104480053064 
1126	 0.103404485062855 
1127	 0.121005910960515 
1128	 0.106327598523336 
1129	 0.109619481197667 
1130	 0.117942476191374 
1131	 0.121312211556838 
1132	 0.133133708398767 
1133	 0.131013100620078 
1134	 0.115551757959351 
1135	 0.114492868119707 
1136	 0.111248266086058 
1137	 0.111701698631477 
1138	 0.122381159334384 
1139	 0.129222287303575 
1140	 0.11678420547969 
1141	 0.113940085215174 
1142	 0.119445776819823 
1143	 0.116668291329954 
1144	 0.118629724561988 
1145	 0.120309574181202 
1146	 0.108543679382703 
1147	 0.102177617179262 
1148	 0.108481074708598 
1149	 0.112859300268041 
1150	 0.114929415024992 
1151	 0.119162163002164 
1152	 0.120743282286926 
1153	 0.117515835238833 
1154	 0.118047999701031 
1155	 0.121998557639382 
1156	 0.119705453170685 
1157	 0.116860238492913 
1158	 0.118046249062055 
1159	 0.116161481650901 
1160	 0.114498892871354 
1161	 0.114266820052333 
1162	 0.113616076245315 
1163	 0.112901513827177 
1164	 0.11395688089182 
1165	 0.11629396471233 
1166	 0.116450162915309 
1167	 0.115860805339703 
1168	 0.115942014332599 
1169	 0.115425429623703 
1170	 0.115387147492202 
1171	 0.115293556621664 
1172	 0.115587281307424 
1173	 0.115433129187024 
1174	 0.114855745981317 
1175	 0.11484001907396 
1176	 0.114779078679367 
1177	 0.114378967798436 
1178	 0.114774014869946 
1179	 0.115970414476658 
1180	 0.115971651315605 
1181	 0.116034430221481 
1182	 0.116145628861325 
1183	 0.114812710317999 
1184	 0.114448507032811 
1185	 0.114408893516635 
1186	 0.113479711349567 
1187	 0.113674141897627 
1188	 0.113914890697756 
1189	 0.113191907990507 
1190	 0.112999429532767 
1191	 0.11319110673267 
1192	 0.113314991428804 
1193	 0.113118820607535 
1194	 0.113562119214911 
1195	 0.11418449198793 
1196	 0.114089661204644 
1197	 0.113509241156984 
1198	 0.113892965075203 
1199	 0.114510909444597 
1200	 0.11391635696793 
1201	 0.113268774088655 
1202	 0.11353257859618 
1203	 0.113785032776543 
1204	 0.114251505247651 
1205	 0.115204929529569 
1206	 0.114650436016253 
1207	 0.113840913225859 
1208	 0.114129095535578 
1209	 0.113535399815454 
1210	 0.113548444866562 
1211	 0.114542281973047 
1212	 0.114288939469957 
1213	 0.113824494672092 
1214	 0.113649893556976 
1215	 0.113547732827315 
1216	 0.112813462996853 
1217	 0.112624225053504 
1218	 0.113357903201447 
1219	 0.113993684722113 
1220	 0.114064417988276 
1221	 0.114160523639303 
1222	 0.114467896308483 
1223	 0.114182384407884 
1224	 0.114006916638255 
1225	 0.114129352208718 
1226	 0.113716426000188 
1227	 0.113924120377159 
1228	 0.114589755800269 
1229	 0.114627133421713 
1230	 0.114831474048376 
1231	 0.114965263889724 
1232	 0.114525847566872 
1233	 0.114344277351277 
1234	 0.114381249694086 
1235	 0.114520389084752 
1236	 0.114873302936975 
1237	 0.114744941982682 
1238	 0.11454615078209 
1239	 0.114459662294035 
1240	 0.113934747838974 
1241	 0.113396453072863 
1242	 0.113850604026017 
1243	 0.114491310444562 
1244	 0.114581570738858 
1245	 0.114531254382722 
1246	 0.114546433575642 
1247	 0.114089334288165 
1248	 0.113870949937582 
1249	 0.114550013110281 
1250	 0.114727808767765 
1251	 0.114257375923969 
1252	 0.114076627850061 
1253	 0.11413112639049 
1254	 0.11396266741363 
1255	 0.113947266866917 
1256	 0.114251260502603 
1257	 0.11512927531159 
1258	 0.114992441689574 
1259	 0.114227996368201 
1260	 0.114143875046435 
1261	 0.1138587913075 
1262	 0.113530316397879 
1263	 0.113360990758581 
1264	 0.114123278806883 
1265	 0.114618858626548 
1266	 0.113837970735378 
1267	 0.113276275179932 
1268	 0.113598883074749 
1269	 0.113124377791376 
1270	 0.112378959483476 
1271	 0.112467382484265 
1272	 0.112627850896349 
1273	 0.112554248515198 
1274	 0.112665287084032 
1275	 0.113191583632799 
1276	 0.113204112865448 
1277	 0.113043658850225 
1278	 0.113673775813352 
1279	 0.11364109052429 
1280	 0.112743649632714 
1281	 0.11261744747327 
1282	 0.112864722700151 
1283	 0.112803016219038 
1284	 0.11291568599962 
1285	 0.112972484364969 
1286	 0.112659738483954 
1287	 0.112442918363064 
1288	 0.112406778155375 
1289	 0.112562059232166 
1290	 0.113030167802467 
1291	 0.112936424153563 
1292	 0.112463654018069 
1293	 0.112276617948489 
1294	 0.112169256010624 
1295	 0.111755529348961 
1296	 0.111801733190714 
1297	 0.112512259647688 
1298	 0.112826742572797 
1299	 0.112207525859028 
1300	 0.112095049813165 
1301	 0.111939277919339 
1302	 0.1109046121232 
1303	 0.110693251395949 
1304	 0.110839768265795 
1305	 0.111089738858443 
1306	 0.111278911233705 
1307	 0.111823051069432 
1308	 0.111853315518982 
1309	 0.111617562278083 
1310	 0.111565874896984 
1311	 0.111177174740298 
1312	 0.11121446367073 
1313	 0.111778248087784 
1314	 0.111761225210057 
1315	 0.111676907566964 
1316	 0.111582688901255 
1317	 0.111161367151325 
1318	 0.110636407027127 
1319	 0.109917720207311 
1320	 0.10952969360529 
1321	 0.109365579665733 
1322	 0.108710813262336 
1323	 0.109279970934366 
1324	 0.109784709250377 
1325	 0.108285502265643 
1326	 0.10680257375807 
1327	 0.10628085990396 
1328	 0.105459941453286 
1329	 0.104917372326259 
1330	 0.104375967827363 
1331	 0.104930945766993 
1332	 0.106952084414394 
1333	 0.108330777722546 
1334	 0.107401103626281 
1335	 0.108186091514785 
1336	 0.107097120791595 
1337	 0.105001359481274 
1338	 0.103081390855902 
1339	 0.105089073127114 
1340	 0.106796073988712 
1341	 0.107204257274614 
1342	 0.113556987862758 
1343	 0.117142121217308 
1344	 0.114462568612695 
1345	 0.11257092536986 
1346	 0.111920754959121 
1347	 0.116510125047648 
1348	 0.122248912660026 
1349	 0.124489428398635 
1350	 0.136395637410052 
1351	 0.155795736239692 
1352	 0.166804142482126 
1353	 0.186513856755325 
1354	 0.267986013761143 
1355	 0.336128188708518 
1356	 0.162996041268262 
1357	 0.10941278346056 
1358	 0.172568310200609 
1359	 9.24525863485487E-02 
1360	 0.160889868191735 
1361	 0.454076552359225 
1362	 2.00340908485965 
1363	-6.8949021096915 
1364	 1.41364656591697 
1365	 0.387356305967793 
1366	 7.81022334985675E-02 
1367	-0.154854595345601 
1368	-0.222982566654048 
1369	-0.161766913659403 
1370	-0.359830404112926 
1371	-0.458724277405111 
1372	-0.455805812570921 
1373	-0.722271543204755 
1374	-1.00510636397369 
1375	-1.51298673711251 
1376	-0.953809607122446 
1377	 0.20780829037336 
1378	 2.93001854675472 
1379	-3.48981586842836 
1380	 6.63782990897035 
1381	-0.960163546831634 
1382	 2.62071186193408 
1383	 0.343956538832788 
1384	 0.242156362896268 
1385	-0.141688474023245 
1386	-0.124159356381284 
1387	 0.282953029270041 
1388	 0.223806381731009 
1389	-0.529085053619744 
1390	-0.611524073689984 
1391	-0.656902834481148 
1392	-0.774870711169173 
1393	-0.61203903808263 
1394	 2.21602380566764E-02 
1395	-8.71389704671065E-02 
1396	-0.717180503823487 
1397	-0.507311978433079 
1398	-0.434083499032965 
1399	 6.89069930992352E-03 
1400	 0.457205971762168 
1401	-6.17151570896681E-02 
1402	 0.21584183741229 
1403	 0.983064778710493 
1404	 0.594658463252825 
1405	 0.292073010852731 
1406	 0.586717817443872 
1407	 0.602494474765879 
1408	-0.842610241522268 
1409	-1.01835622882818 
1410	 0.255824992903211 
1411	 0.451638933661392 
1412	 0.333411667383569 
1413	 3.67908653924387E-02 
1414	-0.609206149940709 
1415	-0.512394623663989 
1416	-0.205344922558568 
1417	-0.329403704679152 
1418	-0.530447612191962 
1419	-0.244425832088347 
1420	-0.477251896663935 
1421	-0.473822246148947 
1422	-5.51266962721843E-02 
1423	 7.22584197826176E-02 
1424	 0.08999890570472 
1425	 7.07128340033064E-02 
1426	 0.115071251598592 
1427	 0.127396209066531 
1428	 8.10828204403957E-02 
1429	 2.71503752320677E-02 
1430	-4.66818117235818E-02 
1431	-4.79855268562936E-02 
1432	-7.49729143569887E-02 
1433	-8.63509442564009E-02 
1434	 1.70251432218212E-02 
1435	 6.84502052220218E-02 
1436	 0.058580437892156 
1437	 0.081532389029392 
1438	 0.125535888433832 
1439	 5.01800106338017E-02 
1440	 3.67078384870619E-02 
1441	 4.57410774234973E-02 
1442	 7.16725781248473E-03 
1443	 3.97022602333484E-02 
1444	 0.106987333211467 
1445	 0.115440433017205 
1446	 7.16665495764741E-02 
1447	 6.27500569854471E-02 
1448	 9.19030954221125E-02 
1449	 8.49792557148951E-02 
1450	 8.18229632202188E-02 
1451	 9.87050447862939E-02 
1452	 8.86838649664858E-02 
1453	 7.56806275075982E-02 
1454	 6.45102949041267E-02 
1455	 5.98147632894342E-02 
1456	 0.063492524296516 
1457	 6.72722209024218E-02 
1458	 6.15513993662157E-02 
1459	 5.74140660274294E-02 
1460	 6.73511078803588E-02 
1461	 7.84599881004549E-02 
1462	 7.37379394982234E-02 
1463	 7.74938614685219E-02 
1464	 8.05199666415604E-02 
1465	 5.71139927560318E-02 
1466	 5.01072541798978E-02 
1467	 7.18101746772989E-02 
1468	 7.51215454453901E-02 
1469	 0.057236092404432 
1470	 5.81333688001621E-02 
1471	 7.19178311275893E-02 
1472	 7.62075559269338E-02 
1473	 8.06809214999507E-02 
1474	 8.17925247746689E-02 
1475	 7.98248459882546E-02 
1476	 7.90198181483168E-02 
1477	 7.81511833820032E-02 
1478	 7.49199484244269E-02 
1479	 7.08046228420928E-02 
1480	 6.56708145277659E-02 
1481	 5.32276601456941E-02 
1482	 5.41706969927634E-02 
1483	 6.40328836347984E-02 
1484	 6.61841496646896E-02 
1485	 7.03038814173469E-02 
1486	 7.18504487440756E-02 
1487	 6.80480516075841E-02 
1488	 0.067362286344341 
1489	 6.90865998526182E-02 
1490	 6.97830010359659E-02 
1491	 6.99397337372231E-02 
1492	 6.96990048837733E-02 
1493	 6.91772291771454E-02 
1494	 6.92237710907998E-02 
1495	 6.96587723070967E-02 
1496	 6.94990684224941E-02 
1497	 6.82514618727232E-02 
1498	 6.88878385521604E-02 
1499	 7.14689698167271E-02 
1500	 7.17153866889713E-02 
1501	 7.07738298685728E-02 
1502	 7.12254885172304E-02 
1503	 7.18096880020847E-02 
1504	 7.12685074101396E-02 
1505	 7.02521783537172E-02 
1506	 7.15398207415576E-02 
1507	 7.24946293920895E-02 
1508	 7.15818213916163E-02 
1509	 7.21565130782217E-02 
1510	 7.29389992129374E-02 
1511	 7.30772503388804E-02 
1512	 7.35774579395794E-02 
1513	 7.41467490432146E-02 
1514	 7.48342186257888E-02 
1515	 7.50174772754312E-02 
1516	 7.46687618880719E-02 
1517	 7.41690803182694E-02 
1518	 7.42601128754817E-02 
1519	 7.50473179905127E-02 
1520	 7.45975251972846E-02 
1521	 7.36073768644623E-02 
1522	 7.41311064556575E-02 
1523	 7.44245440978532E-02 
1524	 7.39589956551567E-02 
1525	 7.50700088826492E-02 
1526	 7.60221908550003E-02 
1527	 7.52582605024598E-02 
1528	 7.51588963918398E-02 
1529	 7.58101898294775E-02 
1530	 7.57080679091979E-02 
1531	 7.58117129056624E-02 
1532	 7.65073947450533E-02 
1533	 7.64664522860871E-02 
1534	 7.67258605965897E-02 
1535	 7.78903422591541E-02 
1536	 7.80265422343102E-02 
1537	 7.79470404269427E-02 
1538	 7.85028824551801E-02 
1539	 7.82441636149769E-02 
1540	 7.77671429341829E-02 
1541	 7.77943237867775E-02 
1542	 7.79314784348016E-02 
1543	 7.80996017489435E-02 
1544	 7.89028287487918E-02 
1545	 7.98270420163402E-02 
1546	 8.00995661284243E-02 
1547	 8.07883697419703E-02 
1548	 8.09084610392728E-02 
1549	 8.03618991212235E-02 
1550	 8.07323529895019E-02 
1551	 8.02949638371016E-02 
1552	 7.95767463546719E-02 
1553	 8.02730909001908E-02 
1554	 8.03918500217746E-02 
1555	 8.09029920932912E-02 
1556	 8.24991610308525E-02 
1557	 8.24216746126517E-02 
1558	 8.16140152880662E-02 
1559	 8.18482733083574E-02 
1560	 8.19394165986652E-02 
1561	 8.18811639157489E-02 
1562	 8.20017658190166E-02 
1563	 8.18627888547506E-02 
1564	 8.18746300867841E-02 
1565	 8.24421208533215E-02 
1566	 0.083527528482315 
1567	 8.37252741063743E-02 
1568	 8.34219475866216E-02 
1569	 0.083694004035588 
1570	 8.40008079154124E-02 
1571	 0.08440738268006 
1572	 8.45433660099152E-02 
1573	 8.45228289450481E-02 
1574	 8.52020150972823E-02 
1575	 8.58934392323591E-02 
1576	 8.58029462108556E-02 
1577	 8.66611253171692E-02 
1578	 8.74417284190116E-02 
1579	 8.72934232404278E-02 
1580	 8.73362613209371E-02 
1581	 8.59881683585989E-02 
1582	 8.53443028237667E-02 
1583	 8.59359396304029E-02 
1584	 8.54505413652256E-02 
1585	 8.55762579892187E-02 
1586	 8.59496333441125E-02 
1587	 8.52360103593621E-02 
1588	 0.085151116834929 
1589	 8.59613213599557E-02 
1590	 8.61679273870892E-02 
1591	 8.61231235814143E-02 
1592	 8.69462159013897E-02 
1593	 8.78461723526295E-02 
1594	 8.79199361755043E-02 
1595	 8.73907376844607E-02 
1596	 8.70765902788337E-02 
1597	 8.77676983355318E-02 
1598	 8.81943595550755E-02 
1599	 8.82324010577742E-02 
1600	 8.90667727546708E-02 
1601	 8.90361543088053E-02 
1602	 8.77902269374693E-02 
1603	 8.75058132874779E-02 
1604	 8.77646888773835E-02 
1605	 8.72762592256889E-02 
1606	 8.71160579202954E-02 
1607	 0.088239968255134 
1608	 8.87577350934831E-02 
1609	 8.81563960024997E-02 
1610	 8.84699376126777E-02 
1611	 8.84954754445403E-02 
1612	 8.76534262610003E-02 
1613	 8.80366262355274E-02 
1614	 8.89665107007468E-02 
1615	 8.90152107285651E-02 
1616	 8.94761642800784E-02 
1617	 8.99460131657501E-02 
1618	 8.94703323167819E-02 
1619	 8.94384297765625E-02 
1620	 8.93949073620995E-02 
1621	 8.92029092880935E-02 
1622	 8.90860090617114E-02 
1623	 8.89745583081876E-02 
1624	 8.90673090292302E-02 
1625	 8.90703102841784E-02 
1626	 8.94562838434425E-02 
1627	 0.089497342158929 
1628	 8.89686531007069E-02 
1629	 8.93799729811086E-02 
1630	 9.02476622820509E-02 
1631	 9.01965240607839E-02 
1632	 8.99848990785449E-02 
1633	 8.99813512006279E-02 
1634	 8.98334810644484E-02 
1635	 8.99888792172704E-02 
1636	 9.07661622044308E-02 
1637	 9.16330374221343E-02 
1638	 9.17572088471312E-02 
1639	 9.17620549092306E-02 
1640	 9.17450242660862E-02 
1641	 9.04874065301763E-02 
1642	 8.94362650135735E-02 
1643	 0.089799840380663 
1644	 9.00056414030592E-02 
1645	 9.05359370153759E-02 
1646	 9.11738687427448E-02 
1647	 9.08219673681232E-02 
1648	 9.04594305731573E-02 
1649	 9.08250087861676E-02 
1650	 9.10558940062041E-02 
1651	 9.03420888596647E-02 
1652	 9.03444555261371E-02 
1653	 9.06756606576964E-02 
1654	 0.090377308635431 
1655	 9.04940954445275E-02 
1656	 9.01825798656883E-02 
1657	 8.86186833416843E-02 
1658	 8.82323456631244E-02 
1659	 8.86579106252416E-02 
1660	 8.83260193357173E-02 
1661	 0.087822907829181 
1662	 8.83810326376837E-02 
1663	 8.90010966683389E-02 
1664	 8.93332519146663E-02 
1665	 9.09328322081008E-02 
1666	 9.09528874327244E-02 
1667	 8.91399022135366E-02 
1668	 9.02430972190045E-02 
1669	 9.13066293380976E-02 
1670	 9.20064990476573E-02 
1671	 9.19217344525124E-02 
1672	 9.09574620546174E-02 
1673	 8.96825258258373E-02 
1674	 8.96603555301262E-02 
1675	 9.10529929646324E-02 
1676	 9.18120090072548E-02 
1677	 9.12315429019029E-02 
1678	 9.03642813459104E-02 
1679	 9.08897616330118E-02 
1680	 0.091516296073506 
1681	 0.091137174282239 
1682	 9.23454722759173E-02 
1683	 9.28463156429988E-02 
1684	 9.08209694770256E-02 
1685	 9.08552276693803E-02 
1686	 9.17725435773384E-02 
1687	 0.091536176027184 
1688	 0.092645437399625 
1689	 9.37291727339492E-02 
1690	 9.42347351208502E-02 
1691	 9.34556303894763E-02 
1692	 9.13522050976265E-02 
1693	 9.06811282568118E-02 
1694	 8.94143926347758E-02 
1695	 0.088490859792845 
1696	 8.96761507797474E-02 
1697	 9.00027845827774E-02 
1698	 8.95349259770472E-02 
1699	 8.97924761717573E-02 
1700	 9.05547759987232E-02 
1701	 9.05675950790884E-02 
1702	 9.05800332063411E-02 
1703	 9.01076816733376E-02 
1704	 8.83585910296213E-02 
1705	 8.84883270125572E-02 
1706	 8.98266439729518E-02 
1707	 9.04744583925984E-02 
1708	 9.14406970315243E-02 
1709	 0.092143799936588 
1710	 9.12221386251947E-02 
1711	 9.03135309850144E-02 
1712	 9.07603467013585E-02 
1713	 9.10269441417298E-02 
1714	 9.04851640357811E-02 
1715	 8.95085083342456E-02 
1716	 8.91964562781019E-02 
1717	 8.88086497713215E-02 
1718	 8.89661979513889E-02 
1719	 9.00196194322639E-02 
1720	 8.97184793985957E-02 
1721	 8.93738793016162E-02 
1722	 8.95962168375723E-02 
1723	 8.87851228303331E-02 
1724	 8.90458781671236E-02 
1725	 8.89389990731498E-02 
1726	 8.79181184454404E-02 
1727	 8.85822199461134E-02 
1728	 8.84313485238937E-02 
1729	 8.78714028816411E-02 
1730	 8.90207345863241E-02 
1731	 8.98241286069393E-02 
1732	 0.088294754891002 
1733	 8.69773011333392E-02 
1734	 8.68626446873297E-02 
1735	 8.58497673636899E-02 
1736	 0.086880182151361 
1737	 0.088336929572048 
1738	 8.75803360687981E-02 
1739	 0.088435298179677 
1740	 0.089300044513789 
1741	 8.90651899536241E-02 
1742	 9.10998066091154E-02 
1743	 9.18012930293426E-02 
1744	 8.95412464503657E-02 
1745	 8.89922467572076E-02 
1746	 8.66178995949133E-02 
1747	 0.084957720789152 
1748	 8.57115430365811E-02 
1749	 8.48471836947158E-02 
1750	 0.081760557910385 
1751	 8.21795210172753E-02 
1752	 0.084389402870609 
1753	 8.44441176876031E-02 
1754	 8.55790806091219E-02 
1755	 8.61293979781078E-02 
1756	 8.49943846252117E-02 
1757	 0.088722018737921 
1758	 8.77039284472084E-02 
1759	 8.44777173750411E-02 
1760	 8.35686187196627E-02 
1761	 8.34750156653065E-02 
1762	 8.53177689920738E-02 
1763	 8.64717907927441E-02 
1764	 8.47875864616052E-02 
1765	 8.42773206115658E-02 
1766	 8.32987376831864E-02 
1767	 8.21983598168427E-02 
1768	 8.41010997841568E-02 
1769	 8.15169746098642E-02 
1770	 8.06218325015868E-02 
1771	 8.71746618088912E-02 
1772	 8.78862520127186E-02 
1773	 8.66287513674207E-02 
1774	 8.79429291141609E-02 
1775	 8.71681193481343E-02 
1776	 8.55737870876268E-02 
1777	 8.21714422738139E-02 
1778	 8.10052596186237E-02 
1779	 7.81630615185717E-02 
1780	 7.99507687619893E-02 
1781	 9.36322704914319E-02 
1782	 9.37935893682914E-02 
1783	 8.40963772003965E-02 
1784	 8.11370569073385E-02 
1785	 6.95407722912121E-02 
1786	 6.92879128285434E-02 
1787	 9.09000260572801E-02 
1788	 8.90085662163084E-02 
1789	 0.073257495744588 
1790	 7.26432811238331E-02 
1791	 4.34977515690007E-02 
1792	 4.09192173561545E-02 
1793	 7.82434669769554E-02 
1794	 7.72812251935595E-02 
1795	 0.101672864973463 
1796	 0.127541749861967 
1797	 8.60035828264235E-02 
1798	 9.36273784065696E-02 
1799	 0.10059157416741 
1800	 0.145184062652271 
1801	 0.172870546582961 
1802	 0.180481187383302 
1803	 0.157501988041421 
1804	-5.28002222699022E-02 
1805	-0.24734762808934 
1806	-0.583533566146908 
1807	-0.825940140819432 
1808	 1.29006257886448E-02 
1809	 0.114950835336405 
1810	-5.59406137112094E-02 
1811	-9.97726093531182E-02 
1812	-0.97136982204076 
1813	-3.6040110393919 
1814	 1.1304946229146 
1815	 1.07962393479331 
1816	 1.39772767948865 
1817	-0.650074500239999 
1818	-6.48359087132367E-02 
1819	 1.07978392539982 
1820	 0.780529774855735 
1821	-2.13929062348699 
1822	 0.555917013217957 
1823	 14.4384293633982 
1824	-60.1020650124406 
1825	-2.96534362178624 
1826	-1.78465240915018 
1827	-0.313662455084123 
1828	 0.357400685408411 
1829	 1.23062789784352 
1830	 2.6717538133609 
1831	 0.363453179935812 
1832	 0.437048154152286 
1833	 0.409805573267001 
1834	 0.650850972855872 
1835	 10.7254190416454 
1836	-8.98707044872184 
1837	 1.28813526905997 
1838	 1.34298833771502 
1839	 2.23015843349436 
1840	 0.875521835889245 
1841	 0.420769163524724 
1842	-0.564543985329888 
1843	-0.942662272547137 
1844	-0.33958010362256 
1845	-0.421845840782785 
1846	-0.394699834908415 
1847	-0.331316817389 
1848	-0.499754470516027 
1849	-0.11945047502532 
1850	-4.86387643994086E-02 
1851	 0.740073746146822 
1852	-1.38370206998254 
1853	-0.370103616989181 
1854	-0.270961512272206 
1855	 2.3248305201744 
1856	-0.3630481285954 
1857	-0.818280943093056 
1858	-0.886816180941138 
1859	-1.23410141974353 
1860	-1.64452847420814 
1861	-2.8123840551878 
1862	-3.68398301460675 
1863	 19.3678947525186 
1864	 2.72059438632218 
1865	 1.87420824379292 
1866	 0.456451643539797 
1867	 0.529299487636959 
1868	 0.228702714578119 
1869	-7.93430719385719E-02 
1870	-0.451275461729 
1871	-0.61067134660833 
1872	-1.7225549529698 
1873	-1.51395081218245 
1874	-5.43027629663114 
1875	 0.506644920224985 
1876	 0.340835247103735 
1877	-11.1286691640509 
1878	-5.70044501039693 
1879	 2.04724706121802 
1880	 1.59271614764433 
1881	 4.29254050941917E-02 
1882	 429.67194831915 
1883	-6.97789613917655 
1884	-8.75067317182077 
1885	-1.68108465750369 
1886	-0.55637756187426 
1887	-0.310503777809506 
1888	 0.191674224627795 
1889	 0.185758829655523 
1890	 0.474188729310363 
1891	 0.548547374329004 
1892	 0.872611504436934 
1893	 0.483785122098658 
1894	 7.20861278366726E-02 
1895	-1.96705795344284E-03 
1896	 0.215720593742577 
1897	-5.15929564919301E-02 
1898	-0.389269336446237 
1899	-2.37923114080815 
1900	 24.8999546166918 
1901	-6.13799663090116 
1902	-9.65764865944275 
1903	-127.744707041877 
1904	 3.37599473762096 
1905	 3.25489785645588 
1906	 1.25698388407632 
1907	 0.160188508882195 
1908	-0.433214541623469 
1909	-1.00643626863084 
1910	-0.382173946690197 
1911	-0.109774148370941 
1912	 0.326603899772201 
1913	 0.567985602698012 
1914	 1.36841242454534 
1915	 2.37111488611596 
1916	 0.982457741321848 
1917	-8.1688615686832E-03 
1918	-0.737090290895747 
1919	-0.644444545927401 
1920	-51.9404700911931 
1921	 1.54695391445707 
1922	-2.23405963172413 
1923	-1.82864096021484 
1924	-6.91357141853253 
1925	 2.76379399325549 
1926	 1.58948990783268 
1927	 2.74328946685203 
1928	-9.31484716395079 
1929	-27.5310422975044 
1930	 1.24370581797008 
1931	 0.467171561813849 
1932	-0.459041428627739 
1933	-1.69004423718279 
1934	 1.0277096609202 
1935	-0.491865343733712 
1936	-0.575705470724063 
1937	-1.65854738083367 
1938	-2.75634179491614 
1939	-6.02094293899303 
1940	 4.72448473007651 
1941	 4.41960558689917 
1942	-29.4956850270035 
1943	-0.596446075951166 
1944	 0.158183468653718 
1945	 0.301323372185096 
1946	 0.344466528149976 
1947	 0.79480670604687 
1948	 0.39122944731059 
1949	 0.223446848379861 
1950	 5.41626793383634E-02 
1951	-4.82012166141596E-02 
1952	-8.48874625966257E-02 
1953	-0.039896515124523 
1954	-0.223472300994236 
1955	-0.398430179779047 
1956	-0.4131092647084 
1957	-0.522614691933248 
1958	-0.405808761055293 
1959	-0.295049545689453 
1960	-0.195871797350732 
1961	-7.53853247441373E-02 
1962	-4.79428707569318E-02 
1963	-2.10562397725375E-02 
1964	-7.8837210354568E-03 
1965	-3.08797499716912E-02 
1966	-0.029230219029521 
1967	-2.93609726534758E-02 
1968	-1.53399175970413E-03 
1969	 1.36675351243673E-02 
1970	 2.11955835017895E-02 
1971	 2.53611162608381E-02 
1972	 0.018329862935369 
1973	 1.59540270809436E-02 
1974	 2.01611121557814E-02 
1975	 3.15385100117962E-02 
1976	 4.39375172533971E-02 
1977	 5.21379923734837E-02 
1978	 5.82462828469407E-02 
1979	 6.49371522610133E-02 
1980	 7.09281756805532E-02 
1981	 7.20670573179487E-02 
1982	 6.83549532286713E-02 
1983	 7.03807931019097E-02 
1984	 6.22300134956272E-02 
1985	 5.07555170617573E-02 
1986	 4.73547916380822E-02 
1987	 3.80327626716272E-02 
1988	 3.93842083374507E-02 
1989	 4.14696474067593E-02 
1990	 3.35122003171008E-02 
1991	 4.01237807951774E-02 
1992	 4.52925503295702E-02 
1993	 4.52641686503597E-02 
1994	 4.48688087941247E-02 
1995	 5.16709650567442E-02 
1996	 4.75873213910189E-02 
1997	 3.73945458742823E-02 
1998	 3.04019394177041E-02 
1999	 3.10203140279589E-02 
2000	 3.32601721528094E-02 
2001	 3.43550465708587E-02 
2002	 3.78896328120008E-02 
2003	 4.63330958783875E-02 
2004	 4.09588664065991E-02 
2005	 2.14315976932354E-02 
2006	 4.13388352368672E-02 
2007	 6.68107628000797E-02 
2008	 8.57429088071624E-02 
2009	 9.87965124850216E-02 
2010	 0.114844031242643 
2011	 0.104976271867713 
2012	 7.13960580659909E-02 
2013	 5.83742344256203E-02 
2014	 0.04903738476016 
2015	 5.24036681267995E-02 
2016	 6.07677096619017E-02 
2017	 6.66491215744128E-02 
2018	 6.10348501501902E-02 
2019	 6.39854022636706E-02 
2020	 7.48037924509186E-02 
2021	 7.00563557540268E-02 
2022	 6.34441427460822E-02 
2023	 6.16987255656621E-02 
2024	 5.72319831686328E-02 
2025	 4.30136771586721E-02 
2026	 4.42526177805386E-02 
2027	 5.58097201564092E-02 
2028	 0.05581315594485 
2029	 5.35874562316251E-02 
2030	 6.01553483496118E-02 
2031	 5.81386531287645E-02 
2032	 5.52981469961366E-02 
2033	 6.37101114101901E-02 
2034	 6.19374671570619E-02 
2035	 5.34431040502729E-02 
2036	 5.31933699574901E-02 
2037	 5.13685775966875E-02 
2038	 5.03258137806853E-02 
2039	 0.049845217200017 
2040	 5.35754794856722E-02 
2041	 0.053768552967515 
2042	 0.050934391866988 
2043	 4.95424317592837E-02 
2044	 4.92063425270787E-02 
2045	 4.81030081227333E-02 
2046	 4.74344905560908E-02 
2047	 5.05770612758135E-02 
2048	 5.12989883213658E-02 
2049	 5.57292360229886E-02 
2050	 5.82076622772074E-02 
2051	 0.055100020808561 
2052	 6.25611263792053E-02 
2053	 6.86443435585719E-02 
2054	 6.89728931093983E-02 
2055	 7.35065398996913E-02 
2056	 0.072460991910187 
2057	 6.15535731887549E-02 
2058	 5.48042119984276E-02 
2059	 4.70960518077821E-02 
2060	 4.35985007300553E-02 
2061	 4.04119140947311E-02 
2062	 4.06914124879144E-02 
2063	 4.57657192717642E-02 
2064	 5.06177117502791E-02 
2065	 5.09220620126316E-02 
2066	 5.18970415225806E-02 
2067	 5.36763391076283E-02 
2068	 5.25637283284027E-02 
2069	 5.22351460954133E-02 
2070	 5.67086983583094E-02 
2071	 5.86524143100931E-02 
2072	 5.75611104514239E-02 
2073	 5.73284139212307E-02 
2074	 5.57177707423581E-02 
2075	 0.055383320007788 
2076	 0.055755506910749 
2077	 5.66830447490022E-02 
2078	 5.83663238234677E-02 
2079	 5.82500965449021E-02 
2080	 5.70467123786812E-02 
2081	 5.81960237928283E-02 
2082	 5.66267524914893E-02 
2083	 5.66648077919037E-02 
2084	 5.80683115857652E-02 
2085	 5.54061879229158E-02 
2086	 5.55555655433842E-02 
2087	 5.54070273101448E-02 
2088	 5.34172990048982E-02 
2089	 5.44214836014971E-02 
2090	 5.40300542228781E-02 
2091	 5.41648832791709E-02 
2092	 5.68029246330069E-02 
2093	 6.48150697202088E-02 
2094	 6.57923204310323E-02 
2095	 0.064644755874871 
2096	 6.39956792770057E-02 
2097	 5.84282915784001E-02 
2098	 5.65274957900293E-02 
2099	 5.61231540876287E-02 
2100	 5.83750358295735E-02 
2101	 6.04005977206854E-02 
2102	 6.02923567147755E-02 
2103	 6.27873345075076E-02 
2104	 6.23265224191856E-02 
2105	 6.42986038544131E-02 
2106	 6.94493475360839E-02 
2107	 7.01224587075984E-02 
2108	 7.19243399306166E-02 
2109	 7.19546018006119E-02 
2110	 6.98901759903839E-02 
2111	 6.94833564598492E-02 
2112	 6.94553156516733E-02 
2113	 6.91751310577157E-02 
2114	 6.93063873886597E-02 
2115	 6.77379534817806E-02 
2116	 6.36857487980279E-02 
2117	 6.27095916670471E-02 
2118	 6.19617985412617E-02 
2119	 6.19573418578963E-02 
2120	 6.42682658796801E-02 
2121	 6.71960875817276E-02 
2122	 0.066585843669474 
2123	 6.32843326319978E-02 
2124	 5.78065018062258E-02 
2125	 5.72532413569371E-02 
2126	 6.44435152344117E-02 
2127	 6.95119413106697E-02 
2128	 6.85918299765591E-02 
2129	 6.86335668420304E-02 
2130	 6.83808305794226E-02 
2131	 6.46760541570496E-02 
2132	 0.06622925343807 
2133	 6.89040106688512E-02 
2134	 6.85290621986818E-02 
2135	 6.25989397959385E-02 
2136	 6.10861533533269E-02 
2137	 6.08998663182475E-02 
2138	 6.14084157270273E-02 
2139	 6.47130091753381E-02 
2140	 6.59904133600572E-02 
2141	 6.68372994062634E-02 
2142	 0.068271145402363 
2143	 7.09323966329325E-02 
2144	 6.69251356205471E-02 
2145	 0.067763935760618 
2146	 6.73110252973947E-02 
2147	 6.09162714811024E-02 
2148	 6.19534613768425E-02 
2149	 6.54223469686172E-02 
2150	 6.44311475935447E-02 
2151	 6.80346421482335E-02 
2152	 6.72604610625676E-02 
2153	 6.12884271693573E-02 
2154	 5.96957860592098E-02 
2155	 5.71941647694116E-02 
2156	 5.60577553524788E-02 
2157	 5.57779811706974E-02 
2158	 5.81256550701981E-02 
2159	 5.75341438518937E-02 
2160	 5.53189494331672E-02 
2161	 5.57533294493028E-02 
2162	 5.44440379426999E-02 
2163	 5.54896968957302E-02 
2164	 6.24182621709415E-02 
2165	 0.063581881943622 
2166	 6.36041430003128E-02 
2167	 6.31910846471791E-02 
2168	 5.69598276870472E-02 
2169	 5.59704860772849E-02 
2170	 5.83808979721961E-02 
2171	 5.80579151254526E-02 
2172	 6.04508077768716E-02 
2173	 0.061849754481624 
2174	 6.00162319477542E-02 
2175	 6.27824819920029E-02 
2176	 6.89759128350181E-02 
2177	 7.21358630071687E-02 
2178	 7.69078308217195E-02 
2179	 7.62966039252638E-02 
2180	 7.08935166990212E-02 
2181	 7.10003962976346E-02 
2182	 0.06952375179226 
2183	 6.72233984234687E-02 
2184	 0.067444742332393 
2185	 6.71346783402733E-02 
2186	 6.40261243411641E-02 
2187	 5.74737722627456E-02 
2188	 5.79978957142304E-02 
2189	 5.88518394582002E-02 
2190	 5.77824279567584E-02 
2191	 6.20043886229631E-02 
2192	 6.33187273019477E-02 
2193	 0.06101997334522 
2194	 6.07127924120328E-02 
2195	 6.24554198307434E-02 
2196	 6.23207336889785E-02 
2197	 5.89996336037878E-02 
2198	 5.72986925336335E-02 
2199	 5.81340742865806E-02 
2200	 5.67502248885263E-02 
2201	 0.049397343840388 
2202	 4.61380677004019E-02 
2203	 4.70528991240795E-02 
2204	 0.049525817478705 
2205	 0.055109666887606 
2206	 0.061152662574221 
2207	 6.25178391378142E-02 
2208	 6.08609053097012E-02 
2209	 0.060013484349165 
2210	 5.61496002739155E-02 
2211	 4.98504946881543E-02 
2212	 4.65818810998113E-02 
2213	 4.67164652058327E-02 
2214	 4.65562559127086E-02 
2215	 0.050492227773204 
2216	 5.15357617385211E-02 
2217	 5.40051153764556E-02 
2218	 5.78762985649011E-02 
2219	 6.26103562915104E-02 
2220	 7.18288484143264E-02 
2221	 7.27128263861391E-02 
2222	 6.58730930354406E-02 
2223	 6.42892920846779E-02 
2224	 5.89512379084335E-02 
2225	 5.70394794947488E-02 
2226	 6.13234897982917E-02 
2227	 6.60670284650018E-02 
2228	 7.25434269458403E-02 
2229	 0.075853284499972 
2230	 8.11691370922323E-02 
2231	 0.083843642636902 
2232	 8.12613414514187E-02 
2233	 7.85023058133764E-02 
2234	 7.67962767955495E-02 
2235	 7.20253423803351E-02 
2236	 6.37481562084022E-02 
2237	 6.08452016240053E-02 
2238	 0.063682019788902 
2239	 6.71618263753422E-02 
2240	 6.57268904632727E-02 
2241	 6.88426277704289E-02 
2242	 6.54703462608652E-02 
2243	 5.47229131087663E-02 
2244	 5.37570563366016E-02 
2245	 5.50298613107089E-02 
2246	 5.15047823024321E-02 
2247	 5.08044325013607E-02 
2248	 0.051969565424211 
2249	 4.19095814161456E-02 
2250	 3.89322689133279E-02 
2251	 4.47654103233666E-02 
2252	 4.60900758691384E-02 
2253	 5.75540475989887E-02 
2254	 6.44999137518382E-02 
2255	 6.19509852244684E-02 
2256	 6.35498063767521E-02 
2257	 5.63074294833056E-02 
2258	 5.19091735325985E-02 
2259	 5.35806990617695E-02 
2260	 5.03385827868531E-02 
2261	 4.75049402456104E-02 
2262	 4.50780533922054E-02 
2263	 0.038116532367155 
2264	 3.30807054201777E-02 
2265	 2.66899803773444E-02 
2266	 2.59322169979577E-02 
2267	 2.77702677503825E-02 
2268	 3.06257932514521E-02 
2269	 4.54306041997016E-02 
2270	 4.52231438523925E-02 
2271	 0.031830171645539 
2272	 3.40715235796222E-02 
2273	 3.42736163259439E-02 
2274	 3.86030259274265E-02 
2275	 5.77838969836241E-02 
2276	 6.78064032222008E-02 
2277	 7.43377599786849E-02 
2278	 7.81759067178399E-02 
2279	 8.31698758541152E-02 
2280	 8.32763401257565E-02 
2281	 7.44233614599451E-02 
2282	 6.86585147672753E-02 
2283	 0.073145533383613 
2284	 6.35050679504489E-02 
2285	 6.42139250255278E-02 
2286	 7.71717234360806E-02 
2287	 7.55581450374566E-02 
2288	 8.81331478493238E-02 
2289	 0.100146074835824 
2290	 0.100388269208818 
2291	 0.107434068584425 
2292	 0.10207520576849 
2293	 9.08900826099032E-02 
2294	 8.04239269061133E-02 
2295	 7.43724877092604E-02 
2296	 7.17410469204868E-02 
2297	 7.56542101480209E-02 
2298	 8.61244467403365E-02 
2299	 0.082307047796068 
2300	 8.99500115292649E-02 
2301	 9.13350959830426E-02 
2302	 6.62724845575789E-02 
2303	 5.66481445177988E-02 
2304	 4.85779699545741E-02 
2305	 3.60036008129832E-02 
2306	 4.68260805757229E-02 
2307	 5.07564894001428E-02 
2308	 5.37369427241486E-02 
2309	 7.65786413314312E-02 
2310	 7.80215110376634E-02 
2311	 7.81286164057023E-02 
2312	 8.57605809613849E-02 
2313	 6.09050617826029E-02 
2314	 5.16282156792426E-02 
2315	 7.23850255732596E-02 
2316	 6.59515480490977E-02 
2317	 0.062445044795212 
2318	 7.29621002822971E-02 
2319	 6.67041943323651E-02 
2320	 0.060821957452881 
2321	 5.35652675007021E-02 
2322	 6.46987127887364E-02 
2323	 8.73320420493703E-02 
2324	 0.110672120686913 
2325	 0.131133085570357 
2326	 0.112445437429032 
2327	 9.86918151979161E-02 
2328	 8.94692700175709E-02 
2329	 5.39467968033536E-02 
2330	 4.89446448566692E-02 
2331	 4.35122099609389E-02 
2332	 1.34118147259238E-02 
2333	 1.57215910633382E-03 
2334	 1.92693373701493E-02 
2335	 2.71820365716852E-02 
2336	 1.12241884369423E-02 
2337	 0.04282133770494 
2338	 6.06249338316386E-02 
2339	 5.88217222492833E-02 
2340	 9.47313381544888E-02 
2341	 0.114923558321765 
2342	 0.102693396703034 
2343	 6.26141010739564E-02 
2344	 4.41938584736468E-02 
2345	-5.73838162156474E-04 
2346	-3.71918971652118E-02 
2347	-1.09061797992478E-02 
2348	 2.96814899005502E-03 
2349	 0.037430238132777 
2350	 9.65681696807216E-02 
2351	 0.124582722382036 
2352	 0.122768655963637 
2353	 0.141629331379796 
2354	 0.141357859386436 
2355	 6.84937247816989E-02 
2356	 4.76725110503252E-02 
2357	 2.60067568314397E-02 
2358	-3.07860160449183E-02 
2359	 0.016862533693375 
2360	 3.17578755295074E-02 
2361	 5.68795996264559E-03 
2362	 8.31043629159466E-03 
2363	 4.27266707202092E-03 
2364	 3.74988747507482E-03 
2365	-1.15454090221994E-02 
2366	 3.90699691194358E-02 
2367	 4.99781987162517E-02 
2368	 0.024418179164176 
2369	 3.20064672626112E-02 
2370	-2.90349345428247E-02 
2371	-4.13015985289577E-02 
2372	 2.06415968776925E-02 
2373	-2.59524348948736E-03 
2374	-3.25951745916754E-02 
2375	-6.95603475858688E-03 
2376	-1.06583470060929E-02 
2377	 2.60128461781397E-02 
2378	 7.40262715989697E-02 
2379	 0.116769584354254 
2380	 6.91290661804988E-02 
2381	-1.78848202603118E-02 
2382	-3.1902357477418E-03 
2383	-1.14505991873387E-02 
2384	-3.44135222578269E-02 
2385	-0.089046189390192 
2386	-7.63245556068666E-02 
2387	-7.93440920630985E-02 
2388	-0.42453492143359 
2389	-0.413974293488436 
2390	-0.48530348340109 
2391	-0.506624061174834 
2392	-0.327467687687984 
2393	-0.194891907322886 
2394	-0.181149910256646 
2395	-0.287446352818039 
2396	-0.3075710944485 
2397	-0.521008237629697 
2398	-0.869064115550993 
2399	-0.654570741071481 
2400	-1.44003623153809 
2401	-3.22119177220059 
2402	 1.42426643241866 
2403	-0.250256870235029 
2404	-0.151129137862521 
2405	-0.21608902357101 
2406	-0.186430105523744 
2407	-1.12162007826052E-02 
2408	-0.220531775859166 
2409	-0.444710725025892 
2410	-0.801359135611247 
2411	-0.715402696491154 
2412	-0.588098474875651 
2413	-1.36691131689107 
2414	-2.41919101392735 
2415	 2.74507123452714 
2416	 0.921063677011811 
2417	 0.4082528645592 
2418	-0.302372715436025 
2419	-1.23214437479851 
2420	-8.45534190807043 
2421	 0.981585492130052 
2422	-0.623574437569799 
2423	 2.77628423128721 
2424	 0.329555064685628 
2425	 0.474451443142254 
2426	 0.116689854660006 
2427	 0.274858510379939 
2428	 0.63191405466164 
2429	 2.17897372188187 
2430	-2.93700949392375 
2431	 0.116958726925028 
2432	 7.39845134306392E-02 
2433	 1.95555484880121E-02 
2434	 2.29196443242678E-02 
2435	-0.225356948779358 
2436	-0.758902142946179 
2437	-0.751267309908162 
2438	-1.5807013541658 
2439	-1.35843943616189 
2440	-0.369282434916447 
2441	-0.515695768793669 
2442	-0.760286765438537 
2443	-1.14578177783409 
2444	-4.24760316834254 
2445	-3.90161313378943 
2446	-3.5956020356417 
2447	-2.00169923592526 
2448	-2.02202502102656 
2449	 2.43840292094557 
2450	 2.15583706304886 
2451	 7.8213161784962 
2452	-1.26864612714539 
2453	-0.732515239403326 
2454	 0.118349299059442 
2455	-0.372072644544494 
2456	-0.204524133491916 
2457	-1.02745339550456 
2458	 2.26847885882889 
2459	 0.583316152351069 
2460	 1.26211719507225 
2461	-88.156251926639 
2462	 0.400632357409696 
2463	 0.876199013294211 
2464	-4.62165952431149 
2465	-1.35694139809946 
2466	-0.921853495361034 
2467	-0.652597765390544 
2468	 0.278880185840973 
2469	-0.215273455549987 
2470	 0.271891339535295 
2471	 0.764477567807867 
2472	 0.73357238342815 
2473	 0.334443676236987 
2474	-0.715282681575779 
2475	-0.777724205680269 
2476	 0.456164668236008 
2477	 1.73718898231845 
2478	 8.17642082547488 
2479	 25.371619813186 
2480	-63.4371030558954 
2481	-1.17377529681362 
2482	-0.559807344142765 
2483	 0.407029371800017 
2484	 0.601205054433049 
2485	 1.11624799859162 
2486	 3.48307412734869 
2487	 24.3416921460106 
2488	-12.8158558974042 
2489	-10.3451215264857 
2490	 2.24006661206029 
2491	 1.30644345042302 
2492	 0.936757996165078 
2493	 0.804318415877276 
2494	 0.578136836756686 
2495	 0.481572642972001 
2496	 0.648435106402911 
2497	 0.588073311331336 
2498	 0.731094175974619 
2499	 3.04469619567638 
2500	 65.7088207292265 
