Wavelength	rt0728west00009.asd
350	 6.14436590813244E-02 
351	 6.11481142314549E-02 
352	 6.14036590607806E-02 
353	 0.061586818313131 
354	 6.13858722577748E-02 
355	 0.061832579112854 
356	 6.15999334596299E-02 
357	 6.13417211649981E-02 
358	 6.18942092250107E-02 
359	 6.21388248606541E-02 
360	 6.22379580584611E-02 
361	 6.23034741554809E-02 
362	 6.23820810442337E-02 
363	 6.24884984332528E-02 
364	 6.25290605492977E-02 
365	 6.25126174484706E-02 
366	 6.26250864090483E-02 
367	 6.24395451217726E-02 
368	 6.23656421781251E-02 
369	 6.27151509979709E-02 
370	 6.26263967010058E-02 
371	 6.28874229835378E-02 
372	 6.34173734392858E-02 
373	 6.36405219302625E-02 
374	 6.35781471517488E-02 
375	 6.37110511232089E-02 
376	 6.41439523918516E-02 
377	 6.44099466512111E-02 
378	 6.45710852205879E-02 
379	 6.46312379672762E-02 
380	 0.064698299551683 
381	 6.52842043362251E-02 
382	 0.065018781766068 
383	 6.47680634002566E-02 
384	 6.59844545028246E-02 
385	 6.60531336200414E-02 
386	 6.60448021639408E-02 
387	 0.0665715768083 
388	 6.73520713868826E-02 
389	 0.067326989752927 
390	 6.71503158940659E-02 
391	 6.74006697741284E-02 
392	 6.75895657162685E-02 
393	 6.79157066893352E-02 
394	 6.83656422795945E-02 
395	 6.87580794740844E-02 
396	 6.83987109211514E-02 
397	 6.84652162754183E-02 
398	 6.90689212919482E-02 
399	 6.93583390234974E-02 
400	 6.94349979275092E-02 
401	 6.94973468841753E-02 
402	 6.96794615563478E-02 
403	 6.99370306374116E-02 
404	 7.02376819723936E-02 
405	 7.05066833710221E-02 
406	 7.06938455310488E-02 
407	 7.09720796393163E-02 
408	 7.11588120713239E-02 
409	 7.12599059204881E-02 
410	 0.071478036865287 
411	 7.18121014386933E-02 
412	 0.072183287551464 
413	 7.25060448207817E-02 
414	 7.27191855501317E-02 
415	 7.28096166634031E-02 
416	 7.30301849140869E-02 
417	 7.35973888399869E-02 
418	 7.38248028866663E-02 
419	 7.41035556693947E-02 
420	 7.45063590257531E-02 
421	 7.46965416339818E-02 
422	 7.49855516730795E-02 
423	 7.53719600720413E-02 
424	 7.58129489341953E-02 
425	 7.63638394825945E-02 
426	 7.68108659544556E-02 
427	 7.71922644514626E-02 
428	 7.76544493238798E-02 
429	 7.81393976423379E-02 
430	 7.85582450884875E-02 
431	 7.89067015082904E-02 
432	 7.92805559199128E-02 
433	 7.98569681895611E-02 
434	 8.04633700962726E-02 
435	 8.09407037572502E-02 
436	 8.14188696361004E-02 
437	 8.18177470324889E-02 
438	 8.22164909061715E-02 
439	 8.27600404696677E-02 
440	 8.33720213616656E-02 
441	 8.39899342166251E-02 
442	 0.084518079551185 
443	 0.084804035815544 
444	 8.51992101463268E-02 
445	 8.57429431449778E-02 
446	 8.63298161576204E-02 
447	 8.66955615362487E-02 
448	 8.70622802453125E-02 
449	 8.74579148140067E-02 
450	 8.77777873383654E-02 
451	 8.82471087243758E-02 
452	 8.86814754260719E-02 
453	 8.89730957585141E-02 
454	 8.92755132136961E-02 
455	 8.97033212306224E-02 
456	 9.01077918445786E-02 
457	 9.03062968305889E-02 
458	 9.05115260630572E-02 
459	 9.07881952238512E-02 
460	 9.11674969461845E-02 
461	 9.16373312791259E-02 
462	 9.18704285027804E-02 
463	 9.20461513308276E-02 
464	 9.23489075149043E-02 
465	 9.26782841798649E-02 
466	 9.29872896666636E-02 
467	 9.32929032112436E-02 
468	 9.36282921470727E-02 
469	 9.38408337320285E-02 
470	 9.41442815588427E-02 
471	 9.45662377156074E-02 
472	 9.48449445699546E-02 
473	 9.51805832747613E-02 
474	 9.55156497346991E-02 
475	 9.57918605522066E-02 
476	 9.61744752320411E-02 
477	 9.66340786152664E-02 
478	 9.70545337650298E-02 
479	 0.097297860593037 
480	 9.76442630389124E-02 
481	 9.79979378384659E-02 
482	 9.83310511741723E-02 
483	 9.88689335860971E-02 
484	 9.93228870994655E-02 
485	 9.97831520486504E-02 
486	 0.100387879502202 
487	 0.100723639956752 
488	 0.101108421367031 
489	 0.10163327522956 
490	 0.102139267404136 
491	 0.102780946285615 
492	 0.103262672858467 
493	 0.103498358879648 
494	 0.104220748477695 
495	 0.104850495291361 
496	 0.105435056815421 
497	 0.106254691219477 
498	 0.106659432569667 
499	 0.107242054744097 
500	 0.108175756403903 
501	 0.108796472926821 
502	 0.109439490566892 
503	 0.110079462280856 
504	 0.110664918994238 
505	 0.111422483382791 
506	 0.112231492633898 
507	 0.11292756532981 
508	 0.11335800611207 
509	 0.113916386731082 
510	 0.11469887439631 
511	 0.115587212744313 
512	 0.116086072638545 
513	 0.116688327583089 
514	 0.117492540556476 
515	 0.118404220568941 
516	 0.119319852912683 
517	 0.120143148419209 
518	 0.120889875960095 
519	 0.121705967811759 
520	 0.122691855337323 
521	 0.12358161718129 
522	 0.124229739852846 
523	 0.125180181935181 
524	 0.126110383463396 
525	 0.127001735457346 
526	 0.128032194176144 
527	 0.12890404014365 
528	 0.129783508904904 
529	 0.130745645560367 
530	 0.131539158841522 
531	 0.132473561581039 
532	 0.133477525100523 
533	 0.13437096316206 
534	 0.135265068378966 
535	 0.136227138532761 
536	 0.137260667970463 
537	 0.138294380959342 
538	 0.139326636511521 
539	 0.140342148835347 
540	 0.141347170974103 
541	 0.142441393409568 
542	 0.14338162265689 
543	 0.144266800611786 
544	 0.145373106837992 
545	 0.146369533972701 
546	 0.147310617748222 
547	 0.148265671391997 
548	 0.149237780136793 
549	 0.150213032148446 
550	 0.151185281935632 
551	 0.152152836541191 
552	 0.153111545466441 
553	 0.154066167931756 
554	 0.155058143159154 
555	 0.156158864100583 
556	 0.157166982918194 
557	 0.15808938709124 
558	 0.158980250079144 
559	 0.159891152441997 
560	 0.160823383642109 
561	 0.161704550931964 
562	 0.162445307740219 
563	 0.163238449340526 
564	 0.164047006064396 
565	 0.164841964126433 
566	 0.165682241069018 
567	 0.166471440977594 
568	 0.167135219285953 
569	 0.167666146095644 
570	 0.16837893424563 
571	 0.168945123372812 
572	 0.169340484045952 
573	 0.169894308902874 
574	 0.170265250698516 
575	 0.170665425460213 
576	 0.171209867591722 
577	 0.171289547505315 
578	 0.171411213308652 
579	 0.171678241123622 
580	 0.17192475862095 
581	 0.172029742163402 
582	 0.172061991171142 
583	 0.172084815841731 
584	 0.172093638447431 
585	 0.172180409457025 
586	 0.172423727284003 
587	 0.172815508122679 
588	 0.172910706055461 
589	 0.17273784762495 
590	 0.172398864834119 
591	 0.172003377195796 
592	 0.171610894154847 
593	 0.171164025681779 
594	 0.170599849183146 
595	 0.169905997376733 
596	 0.169066333083905 
597	 0.168005905685133 
598	 0.16668381351095 
599	 0.165554139046593 
600	 0.164667710048155 
601	 0.163994749942371 
602	 0.163472641207812 
603	 0.163034027558229 
604	 0.162766406083154 
605	 0.16274606681936 
606	 0.162695880470739 
607	 0.162693084508497 
608	 0.162755814586608 
609	 0.162822022211722 
610	 0.162813906231165 
611	 0.162828829919282 
612	 0.16293231566933 
613	 0.162989854146203 
614	 0.162979039504178 
615	 0.162887535124581 
616	 0.162753991607958 
617	 0.162931900724522 
618	 0.163046061348837 
619	 0.16295947320483 
620	 0.163044743493202 
621	 0.163055440060012 
622	 0.162988129624577 
623	 0.162953805263672 
624	 0.163225099177505 
625	 0.163447188095603 
626	 0.163504965316846 
627	 0.163536938712061 
628	 0.163532193682218 
629	 0.163405057679959 
630	 0.163181618231712 
631	 0.163223679303675 
632	 0.163237898439189 
633	 0.163163874188813 
634	 0.163076806653378 
635	 0.163202560511996 
636	 0.163122237222662 
637	 0.162798415357888 
638	 0.162811524375076 
639	 0.16293959002827 
640	 0.162903582846979 
641	 0.162574682499171 
642	 0.162497447559488 
643	 0.16256742844758 
644	 0.162676096103084 
645	 0.162727598439151 
646	 0.162854520022855 
647	 0.162792451075881 
648	 0.162387073939341 
649	 0.161839013034131 
650	 0.161595413784511 
651	 0.161381426398583 
652	 0.160750892708254 
653	 0.160127920134793 
654	 0.159537959211716 
655	 0.158799119785832 
656	 0.157605769280862 
657	 0.156614402610142 
658	 0.155845147488644 
659	 0.155121047712258 
660	 0.154167531304317 
661	 0.153496520260559 
662	 0.153067258972754 
663	 0.152529945330933 
664	 0.152121363614808 
665	 0.151663838787616 
666	 0.151133442502092 
667	 0.150874798195636 
668	 0.150758199136863 
669	 0.150619090786886 
670	 0.150352363959871 
671	 0.150220576869701 
672	 0.150205168675376 
673	 0.150294782550643 
674	 0.150485190100272 
675	 0.150484018333426 
676	 0.150622924898246 
677	 0.151060880818301 
678	 0.151201045992806 
679	 0.15147267296875 
680	 0.151881485523565 
681	 0.152268975174053 
682	 0.152752246546827 
683	 0.153306817260901 
684	 0.15391406000565 
685	 0.154645039736818 
686	 0.15559858575991 
687	 0.156306236167493 
688	 0.156412319930963 
689	 0.156522762516621 
690	 0.156904647796569 
691	 0.157435923421086 
692	 0.157734017305449 
693	 0.15774136577522 
694	 0.157213645763419 
695	 0.156303610010736 
696	 0.155541422931748 
697	 0.155258073567664 
698	 0.155067374768911 
699	 0.154440201624688 
700	 0.153499110917996 
701	 0.152292219846268 
702	 0.151003239142067 
703	 0.149817254891317 
704	 0.148668407558827 
705	 0.147385990925665 
706	 0.145909725819851 
707	 0.144318094131915 
708	 0.142528058809252 
709	 0.140559374283829 
710	 0.138492345687889 
711	 0.13646498157686 
712	 0.134275405033683 
713	 0.131974697244129 
714	 0.129853321737475 
715	 0.128338981488852 
716	 0.126796519507468 
717	 0.124499396623711 
718	 0.121609169274339 
719	 0.118120515259095 
720	 0.114961297915071 
721	 0.112179018306095 
722	 0.110168494630963 
723	 0.107826311301414 
724	 0.104952012510424 
725	 0.101904041162954 
726	 9.90692349158719E-02 
727	 9.60186510660625E-02 
728	 9.24492636623539E-02 
729	 8.89074870861489E-02 
730	 8.53094290243297E-02 
731	 8.19616126910305E-02 
732	 7.89591447287544E-02 
733	 7.63261474010244E-02 
734	 7.43442040449262E-02 
735	 7.29337123853206E-02 
736	 7.14242929032272E-02 
737	 7.02584834932764E-02 
738	 6.94248002529397E-02 
739	 6.88176187249527E-02 
740	 6.83093539197558E-02 
741	 6.79083815676783E-02 
742	 6.76026019084982E-02 
743	 6.73770481240573E-02 
744	 6.73192774503645E-02 
745	 6.72774591317362E-02 
746	 6.72041917560312E-02 
747	 6.72200937749962E-02 
748	 6.72770415064549E-02 
749	 0.067243481569401 
750	 6.70683887743994E-02 
751	 6.70177483620803E-02 
752	 6.69984036429836E-02 
753	 0.067047836069603 
754	 6.72221679785013E-02 
755	 6.71363594241434E-02 
756	 6.71202264063885E-02 
757	 6.73081300863949E-02 
758	 6.75037518216567E-02 
759	 0.068276510623176 
760	 6.92445580606619E-02 
761	 0.069127255489885 
762	 6.93084151677262E-02 
763	 6.90895876190171E-02 
764	 6.87525000376361E-02 
765	 6.86699687994148E-02 
766	 6.83624362975206E-02 
767	 6.82259150994467E-02 
768	 6.83309015147644E-02 
769	 6.84584180653513E-02 
770	 6.86024369332682E-02 
771	 0.068877260881753 
772	 6.92761281856044E-02 
773	 6.93898909636468E-02 
774	 6.95410085592219E-02 
775	 6.98317390493347E-02 
776	 7.02488809447354E-02 
777	 7.07347526162267E-02 
778	 7.10007806144413E-02 
779	 7.11676640851679E-02 
780	 7.17410057015057E-02 
781	 7.21814534287894E-02 
782	 7.25405829296912E-02 
783	 7.29467530344987E-02 
784	 7.34397046870273E-02 
785	 7.41312027492742E-02 
786	 7.48418321931975E-02 
787	 7.53925685887958E-02 
788	 7.63100362102943E-02 
789	 7.68855107910966E-02 
790	 0.077104736937673 
791	 7.75525729632933E-02 
792	 7.80481655198573E-02 
793	 7.85276243461604E-02 
794	 0.079075205178235 
795	 7.99816614329734E-02 
796	 8.06934648623025E-02 
797	 8.11826847269319E-02 
798	 0.081609961452858 
799	 8.20288482427217E-02 
800	 8.26211465180387E-02 
801	 8.30998076665334E-02 
802	 0.083081899591223 
803	 8.34949674664499E-02 
804	 8.37600773916724E-02 
805	 8.36969669425165E-02 
806	 8.36865204840088E-02 
807	 0.083935310362532 
808	 8.40583094994094E-02 
809	 8.38446681901082E-02 
810	 8.39001080083728E-02 
811	 8.40736211502834E-02 
812	 0.084253132742379 
813	 8.42896415221197E-02 
814	 8.40190328309489E-02 
815	 8.36797728617281E-02 
816	 8.30394795397185E-02 
817	 8.16477022796973E-02 
818	 0.08044908350622 
819	 7.94891785723148E-02 
820	 0.078658120978082 
821	 7.79297443298899E-02 
822	 7.61764597474286E-02 
823	 0.07392483961704 
824	 7.19638765104869E-02 
825	 7.01532898136904E-02 
826	 6.83428759109237E-02 
827	 6.62874582114519E-02 
828	 6.40268414236988E-02 
829	 6.23722169684762E-02 
830	 6.05757110471393E-02 
831	 5.86976643662429E-02 
832	 5.74532210133419E-02 
833	 0.056755851372057 
834	 5.59006212457648E-02 
835	 5.48749004440771E-02 
836	 5.45931730585672E-02 
837	 5.37993773300338E-02 
838	 5.31962405609007E-02 
839	 5.32955848049557E-02 
840	 5.31224454632966E-02 
841	 5.26505870493636E-02 
842	 5.21971884928662E-02 
843	 5.20276354883864E-02 
844	 5.13654678270963E-02 
845	 5.11316305406998E-02 
846	 5.12540312477275E-02 
847	 5.10046421285709E-02 
848	 5.07006674598626E-02 
849	 5.03367523244766E-02 
850	 4.99513594533941E-02 
851	 0.049663436665315 
852	 4.95914793582017E-02 
853	 4.94328088044392E-02 
854	 4.91251164080854E-02 
855	 4.92919947007574E-02 
856	 4.91902277379508E-02 
857	 4.89011615991001E-02 
858	 4.86258136682605E-02 
859	 4.80355856117664E-02 
860	 0.048168625545467 
861	 4.83803002878031E-02 
862	 4.75854914914752E-02 
863	 0.047751847291259 
864	 4.75518549790171E-02 
865	 4.69482235408552E-02 
866	 0.047142617839625 
867	 4.72898435306334E-02 
868	 4.71210320743349E-02 
869	 4.66752274157867E-02 
870	 4.62730873075119E-02 
871	 4.61378361761405E-02 
872	 4.59276852254337E-02 
873	 4.55176084645037E-02 
874	 0.045568634865622 
875	 4.54500134437585E-02 
876	 4.53222881457989E-02 
877	 4.53594066494577E-02 
878	 0.044835820110712 
879	 4.45781410192453E-02 
880	 4.43712849421478E-02 
881	 4.37502789878958E-02 
882	 0.043917673743569 
883	 4.40122419856213E-02 
884	 4.37530243544363E-02 
885	 4.34168410323224E-02 
886	 4.31731823448323E-02 
887	 4.32243926696753E-02 
888	 0.043335965202665 
889	 4.28595149265662E-02 
890	 4.24454571283572E-02 
891	 4.23206931525822E-02 
892	 4.24099465241268E-02 
893	 0.042188379035075 
894	 4.22951258258124E-02 
895	 4.26033630458394E-02 
896	 4.28349311144203E-02 
897	 4.31599018325149E-02 
898	 4.26769483938414E-02 
899	 4.25948867222211E-02 
900	 4.35975114975682E-02 
901	 4.21876443357982E-02 
902	 4.11611440425541E-02 
903	 4.09620483428056E-02 
904	 4.10873010041857E-02 
905	 0.041438890417301 
906	 4.08699353079157E-02 
907	 4.01816223489551E-02 
908	 4.13072674499941E-02 
909	 4.19497500091364E-02 
910	 4.13853134311492E-02 
911	 4.06112126084913E-02 
912	 4.15624918636523E-02 
913	 4.15993598302975E-02 
914	 4.00555013491835E-02 
915	 3.82333288497929E-02 
916	 0.038785303781791 
917	 3.91136137641648E-02 
918	 3.90596665828863E-02 
919	 3.88215406511192E-02 
920	 3.85559673673981E-02 
921	 3.85213396127878E-02 
922	 3.83879681403306E-02 
923	 3.79870687655288E-02 
924	 3.77500712765956E-02 
925	 3.77766806919555E-02 
926	 3.81740223832283E-02 
927	 3.91631877817954E-02 
928	 4.15863267356856E-02 
929	 4.09420744799114E-02 
930	 3.67742896237116E-02 
931	 0.033777872301637 
932	 4.39250657181654E-02 
933	 4.55980303032832E-02 
934	 3.43514819438625E-02 
935	 2.68901747652785E-02 
936	 0.043753154132687 
937	 3.71058173062485E-02 
938	 2.45365962707897E-02 
939	 3.13757576497495E-02 
940	 3.56689705670811E-02 
941	 3.78659073401971E-02 
942	 3.93011522107571E-02 
943	 3.94511041053324E-02 
944	 2.50515639624169E-02 
945	 2.41028359934827E-02 
946	 3.84063278449013E-02 
947	 4.93834207445016E-02 
948	 3.84766616427972E-02 
949	 3.41509749433302E-02 
950	 3.66544509902224E-02 
951	 0.030643563340922 
952	 2.85968141520492E-02 
953	 3.63662899645137E-02 
954	 4.53258664191625E-02 
955	 4.12732051486546E-02 
956	 3.31138078705161E-02 
957	 3.16876277807637E-02 
958	 3.58998590442097E-02 
959	 3.75347428409697E-02 
960	 3.86873432766203E-02 
961	 3.61552558677785E-02 
962	 3.27626523805632E-02 
963	 3.38367108176359E-02 
964	 3.47409406432776E-02 
965	 3.36188764408159E-02 
966	 3.29564989230835E-02 
967	 0.036180075951723 
968	 3.33186978417904E-02 
969	 3.26362307014521E-02 
970	 3.47098581428221E-02 
971	 3.34010111959828E-02 
972	 3.32815054237217E-02 
973	 3.41899419477338E-02 
974	 3.42421132465014E-02 
975	 3.15693506943043E-02 
976	 3.42040844780289E-02 
977	 3.46912767958506E-02 
978	 3.36819989071763E-02 
979	 3.78486064621681E-02 
980	 3.46680253568184E-02 
981	 3.15932004441738E-02 
982	 3.29071684600044E-02 
983	 3.70674563611726E-02 
984	 3.30083225001606E-02 
985	 0.032225668296838 
986	 3.44971501169055E-02 
987	 0.031149284973541 
988	 3.28209305924121E-02 
989	 3.34089521186584E-02 
990	 3.21263047484739E-02 
991	 3.28018844337885E-02 
992	 3.45272757614152E-02 
993	 3.47192204607622E-02 
994	 3.37806174753608E-02 
995	 3.37440284338541E-02 
996	 0.032110140774656 
997	 3.18397180380634E-02 
998	 3.18734793242923E-02 
999	 2.99677485500901E-02 
1000	 3.31962459123295E-02 
1001	 3.47119340356683E-02 
1002	 3.34114555924468E-02 
1003	 0.033229514800031 
1004	 3.39154711372438E-02 
1005	 3.40973633404423E-02 
1006	 3.45290978077732E-02 
1007	 3.49254951624262E-02 
1008	 3.42866118397323E-02 
1009	 3.40862017882863E-02 
1010	 3.39492355179734E-02 
1011	 3.36858671576133E-02 
1012	 3.41264532124375E-02 
1013	 3.40528940673855E-02 
1014	 3.42590131466701E-02 
1015	 3.48576587588149E-02 
1016	 3.48461954699588E-02 
1017	 3.46229347569358E-02 
1018	 3.44379566235128E-02 
1019	 3.34587483345444E-02 
1020	 3.32789968097251E-02 
1021	 3.36718198193975E-02 
1022	 3.38707207347143E-02 
1023	 3.42205312051672E-02 
1024	 3.46284045190356E-02 
1025	 3.48404293334278E-02 
1026	 3.51627934250991E-02 
1027	 3.53152732297504E-02 
1028	 3.58031658379555E-02 
1029	 3.53760130708666E-02 
1030	 3.38606004599789E-02 
1031	 3.36106676321812E-02 
1032	 3.31159622488095E-02 
1033	 3.34793567977007E-02 
1034	 3.56661748875375E-02 
1035	 3.63999179703958E-02 
1036	 3.69919398888323E-02 
1037	 3.70134294287888E-02 
1038	 3.60074113824489E-02 
1039	 0.035138728446729 
1040	 3.44340734889804E-02 
1041	 3.40784885619886E-02 
1042	 0.034363537799302 
1043	 3.57648175381325E-02 
1044	 3.57283293361895E-02 
1045	 0.035347915985351 
1046	 3.53589501970082E-02 
1047	 3.48552850798347E-02 
1048	 3.45662304416718E-02 
1049	 3.46976576490775E-02 
1050	 3.48926178433128E-02 
1051	 3.47767010470102E-02 
1052	 0.034849301008885 
1053	 3.61428126155739E-02 
1054	 3.61456549321394E-02 
1055	 3.44056912309704E-02 
1056	 3.40356168054805E-02 
1057	 3.39723837484195E-02 
1058	 3.36499120287667E-02 
1059	 3.40359324698572E-02 
1060	 3.60614315981743E-02 
1061	 0.036413869766313 
1062	 3.61005841572551E-02 
1063	 3.58632711884542E-02 
1064	 3.47867539595794E-02 
1065	 3.45826631331413E-02 
1066	 3.48478257083502E-02 
1067	 3.48337742921659E-02 
1068	 0.035151567009118 
1069	 3.52751088586264E-02 
1070	 3.47117880506525E-02 
1071	 3.48386300314414E-02 
1072	 3.60228051723954E-02 
1073	 3.61946681065919E-02 
1074	 3.62989085086647E-02 
1075	 3.64749822060993E-02 
1076	 3.64707048201488E-02 
1077	 3.58108657417267E-02 
1078	 3.56637961919641E-02 
1079	 3.57531324125498E-02 
1080	 3.58519172887877E-02 
1081	 3.60494318549475E-02 
1082	 3.60885389015974E-02 
1083	 3.64250733209887E-02 
1084	 3.64303689841064E-02 
1085	 3.59190211234958E-02 
1086	 3.56227698400803E-02 
1087	 3.51184504382932E-02 
1088	 3.48923447335983E-02 
1089	 0.034296015022124 
1090	 3.50621235182664E-02 
1091	 3.54978060186096E-02 
1092	 3.63925920007037E-02 
1093	 0.036535777831766 
1094	 3.65719931200247E-02 
1095	 0.036484400089765 
1096	 3.57770858794118E-02 
1097	 3.56408278346577E-02 
1098	 3.56752829610496E-02 
1099	 0.035770129252704 
1100	 3.60880591371738E-02 
1101	 0.036306830963251 
1102	 3.68645199379094E-02 
1103	 3.70984012165035E-02 
1104	 3.68207287254554E-02 
1105	 3.70345102477837E-02 
1106	 3.69246484760522E-02 
1107	 3.74138011092037E-02 
1108	 3.84101377835997E-02 
1109	 3.79909982483432E-02 
1110	 3.80161583633511E-02 
1111	 3.77353387166956E-02 
1112	 3.79139379494418E-02 
1113	 3.85124897417327E-02 
1114	 3.81663087640228E-02 
1115	 3.67868076871985E-02 
1116	 3.69029839418243E-02 
1117	 3.79341729579754E-02 
1118	 3.83866132599094E-02 
1119	 4.15968606162149E-02 
1120	 4.20464561991788E-02 
1121	 3.56585257000106E-02 
1122	 2.89105776905675E-02 
1123	 3.17111335457243E-02 
1124	 0.038854297910689 
1125	 4.12701230901131E-02 
1126	 4.09112264496623E-02 
1127	 2.52843707901708E-02 
1128	 6.96023988453789E-03 
1129	 8.67109174138712E-03 
1130	 2.32995174548701E-02 
1131	 2.95822064323281E-02 
1132	 4.30003664880185E-02 
1133	 4.57657126116255E-02 
1134	 4.15685933635649E-02 
1135	 3.80519364273614E-02 
1136	 0.031642793294218 
1137	 3.07218128383634E-02 
1138	 3.10276346816557E-02 
1139	 3.13399943281298E-02 
1140	 3.20490063187716E-02 
1141	 3.80103288260475E-02 
1142	 0.035939534358332 
1143	 0.029661794004415 
1144	 3.37930647061091E-02 
1145	 3.22713750574836E-02 
1146	 0.029880250020382 
1147	 3.62764234913838E-02 
1148	 0.036271617553785 
1149	 3.07800462317157E-02 
1150	 3.17558466472421E-02 
1151	 3.91191030780553E-02 
1152	 3.88124812866916E-02 
1153	 3.52286131522294E-02 
1154	 3.55991172253993E-02 
1155	 3.61860933255234E-02 
1156	 3.45202991857525E-02 
1157	 3.53382588341914E-02 
1158	 3.78733492757733E-02 
1159	 3.66490849013249E-02 
1160	 3.48291681242255E-02 
1161	 3.56374563944467E-02 
1162	 3.58589619805415E-02 
1163	 3.50901941261047E-02 
1164	 3.53520982243264E-02 
1165	 3.51885716028062E-02 
1166	 3.44639260157065E-02 
1167	 3.52391504730303E-02 
1168	 3.62120591736968E-02 
1169	 3.57619535479699E-02 
1170	 3.48915379572917E-02 
1171	 3.45489186295735E-02 
1172	 3.41860958892688E-02 
1173	 3.38472415746078E-02 
1174	 3.36269546043775E-02 
1175	 3.37002353183872E-02 
1176	 3.37038129506083E-02 
1177	 3.39044494595873E-02 
1178	 3.42470375263413E-02 
1179	 3.43433165646316E-02 
1180	 3.43052552560852E-02 
1181	 3.37689441137503E-02 
1182	 3.35088901815888E-02 
1183	 0.034464230316251 
1184	 3.47155595228389E-02 
1185	 3.44102057630227E-02 
1186	 3.45239794377214E-02 
1187	 3.39515199573383E-02 
1188	 3.43019903543891E-02 
1189	 3.53124420323985E-02 
1190	 3.50695120680251E-02 
1191	 3.48657681426246E-02 
1192	 3.48043891420522E-02 
1193	 0.034481025370619 
1194	 3.40949624483497E-02 
1195	 3.43706307379684E-02 
1196	 3.45106962386622E-02 
1197	 3.46739369968962E-02 
1198	 3.48225096691705E-02 
1199	 3.43166300686718E-02 
1200	 3.40275641586623E-02 
1201	 3.44102902598907E-02 
1202	 3.43629515462951E-02 
1203	 3.41849052475803E-02 
1204	 3.47053959718343E-02 
1205	 3.44159181768883E-02 
1206	 3.36100574286433E-02 
1207	 3.39605245868693E-02 
1208	 3.41113541201458E-02 
1209	 3.36263522298191E-02 
1210	 3.33456721142117E-02 
1211	 3.34678483107314E-02 
1212	 3.39969101729259E-02 
1213	 0.034512718608167 
1214	 3.45731068350253E-02 
1215	 3.45736507631942E-02 
1216	 3.43040193566153E-02 
1217	 3.43491035268462E-02 
1218	 3.44330431050556E-02 
1219	 3.47890227148053E-02 
1220	 3.51081586023102E-02 
1221	 3.43062324949675E-02 
1222	 3.34803144945697E-02 
1223	 3.32975377725443E-02 
1224	 3.32020106189018E-02 
1225	 0.033237506103781 
1226	 3.34972075024595E-02 
1227	 3.38849642768922E-02 
1228	 0.03406427464934 
1229	 3.40925585544774E-02 
1230	 3.38938204900446E-02 
1231	 3.35383173545045E-02 
1232	 3.34189399973574E-02 
1233	 3.32037369265327E-02 
1234	 3.30781098846032E-02 
1235	 3.31313345372721E-02 
1236	 3.33431532147812E-02 
1237	 3.32180132961918E-02 
1238	 3.29483062295058E-02 
1239	 3.31955854773146E-02 
1240	 3.35149136837747E-02 
1241	 3.34256774288257E-02 
1242	 3.35290905406889E-02 
1243	 3.35409314630756E-02 
1244	 3.32807268045915E-02 
1245	 3.32447562487116E-02 
1246	 3.31781352131627E-02 
1247	 3.30574110213563E-02 
1248	 3.30632941538721E-02 
1249	 3.33146285796146E-02 
1250	 3.33104881886321E-02 
1251	 3.32565328951936E-02 
1252	 3.35043344440615E-02 
1253	 3.32181562713535E-02 
1254	 3.30217793533919E-02 
1255	 3.32848285595376E-02 
1256	 3.33754759070395E-02 
1257	 3.29160788522061E-02 
1258	 3.29423616263725E-02 
1259	 0.033598901284903 
1260	 3.37160756603793E-02 
1261	 3.33518903353016E-02 
1262	 3.36084282152724E-02 
1263	 3.41788814936844E-02 
1264	 3.44298078154793E-02 
1265	 3.45128892942743E-02 
1266	 3.44193245446863E-02 
1267	 3.34539992350542E-02 
1268	 3.30219853982593E-02 
1269	 3.32404719958285E-02 
1270	 3.31571700432401E-02 
1271	 3.31605099125708E-02 
1272	 3.33492356600054E-02 
1273	 3.37566821997341E-02 
1274	 3.37991206142634E-02 
1275	 3.35846625689602E-02 
1276	 3.34222436302057E-02 
1277	 3.31998869216634E-02 
1278	 3.33152653249868E-02 
1279	 3.33532077686678E-02 
1280	 3.34536514119351E-02 
1281	 3.36202692263208E-02 
1282	 0.033573568243693 
1283	 0.033545085442377 
1284	 3.37684627104922E-02 
1285	 3.38933856248683E-02 
1286	 3.37891556041667E-02 
1287	 3.38166803930542E-02 
1288	 3.42777327362608E-02 
1289	 3.42007239348699E-02 
1290	 3.37002970961362E-02 
1291	 0.033158373979205 
1292	 3.30272135909126E-02 
1293	 3.32481820523804E-02 
1294	 3.33293309822641E-02 
1295	 3.40825064606358E-02 
1296	 3.51030617176176E-02 
1297	 3.47103673570603E-02 
1298	 3.39779902461896E-02 
1299	 3.44464993744114E-02 
1300	 3.49208187367487E-02 
1301	 3.45303377812297E-02 
1302	 3.44912216139156E-02 
1303	 0.03434995696289 
1304	 3.38926684921003E-02 
1305	 3.38964846744673E-02 
1306	 3.38897040289181E-02 
1307	 3.49624576140415E-02 
1308	 3.50938867965142E-02 
1309	 0.034285211613563 
1310	 3.40304800630406E-02 
1311	 0.0338006753968 
1312	 3.35225481020811E-02 
1313	 3.33028816307526E-02 
1314	 3.34105312255878E-02 
1315	 3.39714643918048E-02 
1316	 3.41088873703437E-02 
1317	 3.37543422244415E-02 
1318	 3.39625541660367E-02 
1319	 3.47249893628364E-02 
1320	 3.50878694228917E-02 
1321	 3.59535129048794E-02 
1322	 3.60268867205012E-02 
1323	 3.55133827562972E-02 
1324	 3.53631430003815E-02 
1325	 3.51255401778699E-02 
1326	 3.46724089959643E-02 
1327	 0.035067200620123 
1328	 3.49043101164258E-02 
1329	 3.41400657033116E-02 
1330	 3.31992983675457E-02 
1331	 3.33574432886277E-02 
1332	 3.46403895382714E-02 
1333	 3.44532267123201E-02 
1334	 0.034085901407828 
1335	 0.034839833399926 
1336	 3.43682398245824E-02 
1337	 3.49384454391593E-02 
1338	 3.81818606909676E-02 
1339	 3.98815663106082E-02 
1340	 3.98840483796033E-02 
1341	 4.13437554987684E-02 
1342	 0.04601464889715 
1343	 4.65710735136776E-02 
1344	 4.29065193295745E-02 
1345	 4.14862475265462E-02 
1346	 0.036459035805949 
1347	 3.23944480845842E-02 
1348	 2.99713088960412E-02 
1349	 0.034509548610677 
1350	 5.10307471854088E-02 
1351	 5.92710919245715E-02 
1352	 8.84873857051476E-02 
1353	 0.130189859758794 
1354	 0.129540162739676 
1355	 0.138473898975996 
1356	 0.271417686509692 
1357	 0.272647664517983 
1358	 0.303742061689924 
1359	 0.364281204521048 
1360	 0.250170958775932 
1361	 0.273846093858383 
1362	 0.392397803870543 
1363	 0.210527436837959 
1364	 0.132998090943055 
1365	 9.31661957368475E-02 
1366	-0.629159978548139 
1367	-3.29877937133887 
1368	-7.90856636671825 
1369	-0.35866264077047 
1370	-0.275950810555284 
1371	-0.857538524224105 
1372	-0.387897249604 
1373	-1.00256445388051E-02 
1374	-0.328906067454326 
1375	-1.19513733232464 
1376	-1.0175278018891 
1377	-0.907050409170887 
1378	-0.656906969804743 
1379	 1.01509591497179 
1380	 1.18063643512612 
1381	 0.633700408646733 
1382	 0.544296191633201 
1383	 2.36988009007836E-02 
1384	-0.104760185602431 
1385	 0.123999160418481 
1386	 0.25687463729082 
1387	-0.117786073510223 
1388	-0.477970033255978 
1389	-0.162903642577099 
1390	-6.44299098409737E-02 
1391	-0.213874009435558 
1392	 0.328152821875414 
1393	 0.784537311768669 
1394	 0.809373399182676 
1395	 0.763107498540149 
1396	 1.08385692362444 
1397	 0.268915235971993 
1398	-0.227917471986569 
1399	-0.247504737242281 
1400	 0.16081473411159 
1401	 0.404972905856863 
1402	 0.251870809971695 
1403	 0.198000590024086 
1404	 8.80398002456273E-02 
1405	 0.076403096095805 
1406	 0.360702736437563 
1407	 0.179617817548362 
1408	-0.197343549135182 
1409	-0.591864737609451 
1410	-2.27610463968803 
1411	-1.06930593960856 
1412	-0.113038557274977 
1413	-3.32721093792394E-02 
1414	 0.138218154444829 
1415	 0.127336557365713 
1416	-0.111594524652233 
1417	-0.393092338864084 
1418	-0.464484535929258 
1419	-0.412737173354122 
1420	-0.645124569696057 
1421	-0.514492073909132 
1422	 3.95826101369548E-02 
1423	 9.77902594406551E-02 
1424	 5.47745378602954E-02 
1425	 5.58741881868271E-02 
1426	-7.69047439775406E-02 
1427	-0.113279554569454 
1428	-8.61140031484842E-02 
1429	-5.07838696770153E-02 
1430	 2.70663504887967E-02 
1431	 2.06754149853675E-02 
1432	-4.38895873771104E-02 
1433	-0.025492310804979 
1434	 1.53892660830762E-02 
1435	 2.02104712470574E-02 
1436	 9.64428366062531E-02 
1437	 0.122012072440595 
1438	 2.12905848466153E-02 
1439	 1.72911037679104E-03 
1440	 8.48254538746248E-03 
1441	-3.47215692356248E-02 
1442	-2.42708579656561E-02 
1443	-6.52536596197858E-03 
1444	-1.30739642269196E-02 
1445	 4.20654174922969E-03 
1446	 2.88590602444576E-02 
1447	 4.67358863427934E-02 
1448	 4.02163937803879E-02 
1449	 4.06047263133273E-02 
1450	 5.98583629859835E-02 
1451	 5.06680826310491E-02 
1452	 4.05923143593801E-02 
1453	 4.80022477367421E-02 
1454	 4.73778188990197E-02 
1455	 3.75386621600428E-02 
1456	 3.18526924144755E-02 
1457	 2.99989890919861E-02 
1458	 3.15989309635469E-02 
1459	 0.029990739383037 
1460	 3.02292925174529E-02 
1461	 0.038506038676625 
1462	 4.13511300968467E-02 
1463	 3.94052568127928E-02 
1464	 3.96669055901281E-02 
1465	 4.14731835351504E-02 
1466	 0.0437829194553 
1467	 4.63150956316419E-02 
1468	 0.045369494337291 
1469	 4.51623388450421E-02 
1470	 4.33237827535342E-02 
1471	 3.50320232652742E-02 
1472	 2.98191437018164E-02 
1473	 2.65296648069581E-02 
1474	 2.72795501338189E-02 
1475	 2.97420863841047E-02 
1476	 3.18665709522223E-02 
1477	 0.037588573905039 
1478	 3.87871425587787E-02 
1479	 3.53218855248148E-02 
1480	 3.67785526294312E-02 
1481	 4.19764874134681E-02 
1482	 4.09389340653877E-02 
1483	 3.66716440284944E-02 
1484	 3.84792410660808E-02 
1485	 4.20318974898554E-02 
1486	 4.08144707737901E-02 
1487	 4.03371543269104E-02 
1488	 4.02443522440299E-02 
1489	 3.69368164563341E-02 
1490	 0.036004001102636 
1491	 3.77170661049305E-02 
1492	 3.79357490129345E-02 
1493	 3.71099223838147E-02 
1494	 3.68843256885737E-02 
1495	 3.74044653237615E-02 
1496	 3.73859703555393E-02 
1497	 3.63220762218699E-02 
1498	 3.65285386224144E-02 
1499	 3.79393128570156E-02 
1500	 3.80256727666774E-02 
1501	 3.76944061990169E-02 
1502	 3.77103933420833E-02 
1503	 3.75585324460791E-02 
1504	 3.69647286018938E-02 
1505	 3.62595006052896E-02 
1506	 3.61054805720929E-02 
1507	 3.55660408393217E-02 
1508	 3.52051822655902E-02 
1509	 3.61981375109748E-02 
1510	 3.70646339565627E-02 
1511	 0.036478084603592 
1512	 3.54652212170193E-02 
1513	 3.51007498423014E-02 
1514	 3.49318215651682E-02 
1515	 3.50900049000623E-02 
1516	 3.57272236865311E-02 
1517	 3.55851969282811E-02 
1518	 3.51037855672378E-02 
1519	 3.51006493384516E-02 
1520	 3.50315349181928E-02 
1521	 3.48683355885858E-02 
1522	 3.48132040689738E-02 
1523	 3.49342234459312E-02 
1524	 3.49870056911531E-02 
1525	 3.47970326849607E-02 
1526	 3.44268245407313E-02 
1527	 3.42295490222013E-02 
1528	 3.45091769293352E-02 
1529	 3.43577834513501E-02 
1530	 3.44156559461422E-02 
1531	 3.52157880815938E-02 
1532	 3.51762095154818E-02 
1533	 3.51871738927143E-02 
1534	 3.55664681349504E-02 
1535	 3.49173254095652E-02 
1536	 3.42315669010272E-02 
1537	 3.42996494269189E-02 
1538	 0.034653099678732 
1539	 3.50472145002465E-02 
1540	 3.50878769250515E-02 
1541	 3.48266519176531E-02 
1542	 3.47256583054143E-02 
1543	 3.45263265061644E-02 
1544	 3.43524071966099E-02 
1545	 0.034731224702232 
1546	 3.48062629656457E-02 
1547	 0.034384004845394 
1548	 3.43958561277395E-02 
1549	 3.46482013720224E-02 
1550	 3.46825848540905E-02 
1551	 3.45183851078376E-02 
1552	 3.43836052089352E-02 
1553	 3.41357311122149E-02 
1554	 0.0338274249897 
1555	 0.034418441949244 
1556	 3.52379883374919E-02 
1557	 3.50721047522211E-02 
1558	 3.47506682922397E-02 
1559	 3.45940436380057E-02 
1560	 3.42340940008726E-02 
1561	 3.41529965914483E-02 
1562	 3.41732029117198E-02 
1563	 3.41165102860931E-02 
1564	 3.45221914164488E-02 
1565	 3.48866347718512E-02 
1566	 3.47410592602695E-02 
1567	 3.46650164914549E-02 
1568	 3.48496959880977E-02 
1569	 3.49016235680847E-02 
1570	 3.47662609594662E-02 
1571	 3.44400260343366E-02 
1572	 3.40798611352753E-02 
1573	 3.38238913585749E-02 
1574	 3.38429616146397E-02 
1575	 3.44034494123134E-02 
1576	 3.42659958597629E-02 
1577	 3.40136117810027E-02 
1578	 3.48849890913751E-02 
1579	 3.52097010269103E-02 
1580	 3.47025014830686E-02 
1581	 3.43940101061909E-02 
1582	 3.41215661648715E-02 
1583	 3.36197834832559E-02 
1584	 3.37552427587987E-02 
1585	 3.42351005506422E-02 
1586	 0.033976403143857 
1587	 3.35830776812253E-02 
1588	 0.033194693719396 
1589	 3.29677701196163E-02 
1590	 3.32608882533813E-02 
1591	 3.39615406712167E-02 
1592	 3.42622863437917E-02 
1593	 3.38388452354406E-02 
1594	 3.37507059017768E-02 
1595	 3.37020798673454E-02 
1596	 3.35781555536532E-02 
1597	 0.033840057417597 
1598	 0.034187108281289 
1599	 3.41500269974349E-02 
1600	 3.41164477020352E-02 
1601	 3.43785765066587E-02 
1602	 3.39957472066132E-02 
1603	 0.033592504531288 
1604	 3.36525949068265E-02 
1605	 3.38373942912614E-02 
1606	 3.40841168251817E-02 
1607	 3.39219593264509E-02 
1608	 3.38375573225403E-02 
1609	 3.38002982280836E-02 
1610	 3.37389749115082E-02 
1611	 3.39576640050448E-02 
1612	 3.38369097583627E-02 
1613	 3.34126250839352E-02 
1614	 3.31890594077544E-02 
1615	 3.33314617986653E-02 
1616	 3.37659747401794E-02 
1617	 3.41256764877537E-02 
1618	 3.37505932431123E-02 
1619	 3.30221062895886E-02 
1620	 3.35445263838555E-02 
1621	 3.43455783762231E-02 
1622	 3.43126152570333E-02 
1623	 3.45282362894064E-02 
1624	 3.42107204711855E-02 
1625	 3.34381191086789E-02 
1626	 3.35504513066094E-02 
1627	 3.35359237134695E-02 
1628	 3.33420834616939E-02 
1629	 3.37757368783648E-02 
1630	 3.36109583489345E-02 
1631	 3.35674465831139E-02 
1632	 3.41334824800601E-02 
1633	 3.40629273530371E-02 
1634	 3.42806726311624E-02 
1635	 3.46258259646594E-02 
1636	 3.48549711120518E-02 
1637	 3.52338277438713E-02 
1638	 3.50540644535135E-02 
1639	 3.46752229577495E-02 
1640	 3.41598416595817E-02 
1641	 3.33067571444518E-02 
1642	 3.32014304697536E-02 
1643	 0.034001396159764 
1644	 3.43199487143175E-02 
1645	 3.40675527816821E-02 
1646	 3.36327147776492E-02 
1647	 0.033337143756252 
1648	 3.36842919838383E-02 
1649	 3.38841732593746E-02 
1650	 3.40245519143397E-02 
1651	 3.47801344436856E-02 
1652	 3.49963567257253E-02 
1653	 3.44467063094525E-02 
1654	 3.41747185245397E-02 
1655	 3.34671821347742E-02 
1656	 3.31392387948039E-02 
1657	 3.28884316366245E-02 
1658	 3.33424837056602E-02 
1659	 0.034678559716753 
1660	 3.44839168405402E-02 
1661	 0.033842550621868 
1662	 3.40062690979707E-02 
1663	 3.36020652111209E-02 
1664	 3.33788033179073E-02 
1665	 3.42719097572514E-02 
1666	 3.38089468387992E-02 
1667	 3.17560876231579E-02 
1668	 3.24745302367558E-02 
1669	 0.033399907435481 
1670	 3.41489838907122E-02 
1671	 0.034346281405723 
1672	 3.36468065835674E-02 
1673	 3.32159576186635E-02 
1674	 3.43594013514926E-02 
1675	 3.51250650989582E-02 
1676	 3.50274951716604E-02 
1677	 3.50174963154087E-02 
1678	 3.46338493017705E-02 
1679	 3.39209244156593E-02 
1680	 3.36826126648006E-02 
1681	 3.39862026107893E-02 
1682	 3.38140683439223E-02 
1683	 3.40350589938868E-02 
1684	 3.48258792532245E-02 
1685	 3.45925567531479E-02 
1686	 3.41632090843984E-02 
1687	 3.41852003990191E-02 
1688	 0.033773397940608 
1689	 3.36376060705374E-02 
1690	 3.43479612684144E-02 
1691	 3.43464695379125E-02 
1692	 3.35498456857731E-02 
1693	 3.32894224947683E-02 
1694	 3.31027873433067E-02 
1695	 3.34187893225133E-02 
1696	 3.46825258355176E-02 
1697	 3.49043478711244E-02 
1698	 3.37416193545231E-02 
1699	 3.37174265717768E-02 
1700	 3.45997830206075E-02 
1701	 3.48024454027516E-02 
1702	 3.60564669711656E-02 
1703	 3.63567640146772E-02 
1704	 3.48265487437856E-02 
1705	 3.51718285961179E-02 
1706	 3.56192801370713E-02 
1707	 0.03454781740508 
1708	 3.40128334260586E-02 
1709	 3.37913512605104E-02 
1710	 3.27931591122566E-02 
1711	 3.30406553204295E-02 
1712	 3.49382064657346E-02 
1713	 3.57877604339871E-02 
1714	 3.54601978768978E-02 
1715	 3.42886964966751E-02 
1716	 3.47138190646258E-02 
1717	 3.41873192970992E-02 
1718	 3.48990928100798E-02 
1719	 3.58624490211606E-02 
1720	 3.45075488297763E-02 
1721	 0.033530668752997 
1722	 3.43096123494717E-02 
1723	 3.38457774864103E-02 
1724	 0.033046403628544 
1725	 3.43816717300639E-02 
1726	 3.54764294186574E-02 
1727	 3.49086873825309E-02 
1728	 3.44408680370135E-02 
1729	 3.36971898211955E-02 
1730	 3.30151849216086E-02 
1731	 3.34140470401454E-02 
1732	 3.39187124055924E-02 
1733	 3.39282881878689E-02 
1734	 3.29156845424453E-02 
1735	 3.21044012365903E-02 
1736	 3.32745169850276E-02 
1737	 3.40695268055352E-02 
1738	 0.033749823833715 
1739	 3.43934039299248E-02 
1740	 3.35833302290389E-02 
1741	 3.18831871556064E-02 
1742	 3.34724439978753E-02 
1743	 3.50349656230514E-02 
1744	 0.034559401409733 
1745	 3.62086912778179E-02 
1746	 3.53787437232427E-02 
1747	 3.48171541151621E-02 
1748	 3.46922888488599E-02 
1749	 3.49181880705246E-02 
1750	 3.63424484407448E-02 
1751	 3.66287275938914E-02 
1752	 3.63640130697387E-02 
1753	 0.035359732826373 
1754	 0.031851945609586 
1755	 3.25173556250093E-02 
1756	 0.036502652356798 
1757	 3.81163866746877E-02 
1758	 3.79386612233343E-02 
1759	 3.43703769957562E-02 
1760	 3.24964927707112E-02 
1761	 3.50907021529498E-02 
1762	 3.71683906743999E-02 
1763	 3.75860617506977E-02 
1764	 3.68447998451467E-02 
1765	 3.50822552567987E-02 
1766	 3.43856523738247E-02 
1767	 3.51133383661931E-02 
1768	 3.66369484321961E-02 
1769	 3.74840003897503E-02 
1770	 0.037273562222747 
1771	 3.77971086180789E-02 
1772	 3.82175096154198E-02 
1773	 3.77562331976491E-02 
1774	 3.57610785926841E-02 
1775	 3.63472128462444E-02 
1776	 3.55602768560353E-02 
1777	 3.21137939717016E-02 
1778	 3.24964712170037E-02 
1779	 3.47632556097284E-02 
1780	 3.41937805250184E-02 
1781	 3.66334478296504E-02 
1782	 3.71914631137726E-02 
1783	 3.11379059539595E-02 
1784	 3.03516954660817E-02 
1785	 3.52705688967898E-02 
1786	 3.65131652884427E-02 
1787	 3.67062289037322E-02 
1788	 3.86771629352598E-02 
1789	 4.18322782859912E-02 
1790	 3.33918395333242E-02 
1791	 0.030837322786875 
1792	 2.82497763902069E-02 
1793	 1.90419052640155E-02 
1794	 3.59702578546596E-02 
1795	 5.28712741862476E-02 
1796	 3.79209945878466E-02 
1797	 0.045363665695 
1798	 4.51480092258123E-02 
1799	 0.022801909550431 
1800	 3.60263466811842E-02 
1801	 2.12795383447941E-02 
1802	-8.94315192519089E-02 
1803	-0.118450193678589 
1804	-3.95081234901387E-02 
1805	-2.48503673284144E-02 
1806	 0.126419565506066 
1807	 0.235788670954224 
1808	 8.50147284143929E-02 
1809	 1.79914838351972E-02 
1810	-3.29559442630772E-02 
1811	-8.20204759996808E-02 
1812	-0.114196219896135 
1813	-0.258816218595729 
1814	-1.09704971620791 
1815	-1.56914719370891 
1816	-0.756029602726166 
1817	-1.05811753763448 
1818	-0.598443058361297 
1819	-0.283605181543725 
1820	-0.375948262807069 
1821	 0.553252636724753 
1822	 1.95545924664392 
1823	 0.39810267340361 
1824	-0.168832195629516 
1825	-0.79423317426487 
1826	-0.571214827943505 
1827	-3.94051964192902E-02 
1828	 0.187875778749535 
1829	 1.91857624793363 
1830	 2.57210846136706 
1831	-0.175704938169447 
1832	 0.249733989166155 
1833	 16.8104719720003 
1834	 7.48825467914524 
1835	 0.701958328051232 
1836	 0.43769320337413 
1837	-0.267319366197636 
1838	-0.348558401663934 
1839	 0.110188529550711 
1840	-3.18495409034218 
1841	-4.68139902324486 
1842	-1.5273133922184 
1843	-2.9328916781105 
1844	-6.48866727484022E-02 
1845	 8.41131606707969E-03 
1846	 1.12298618884063 
1847	 2.46043765691512 
1848	-45.6133244976513 
1849	-2.42786117941665 
1850	-2.00348690200436 
1851	-2.38109100857584 
1852	-1.45100773999326 
1853	-1.76572345004108 
1854	-2.8282348165013 
1855	 3.20069225210223 
1856	 1.92903249169342 
1857	 3.11846968543306 
1858	 1.75321501708017 
1859	-5.18314518321457 
1860	 0.941238409348696 
1861	 1.30929634649943 
1862	-0.477815882831008 
1863	 0.846880925098182 
1864	 0.61562776846084 
1865	 0.388188099226078 
1866	-0.811191782085881 
1867	-3.26160066488076 
1868	 16.7936324876514 
1869	-10.4591407903842 
1870	 0.30792639045649 
1871	 0.406323352596317 
1872	 0.495774480874399 
1873	 1.06475336182315 
1874	 0.83996680981704 
1875	 0.375571094930519 
1876	 0.519543244393055 
1877	 1.23254540229843 
1878	 1.27047762157515 
1879	 1.60748249416843 
1880	 1.80864511501966 
1881	 1.45355016536357 
1882	 0.5400483916027 
1883	-8.45065116453942E-02 
1884	 1.45103104536121 
1885	 1.6147091355243 
1886	 1.21242493258593 
1887	 5.19990308825914 
1888	-8.16587974460104E-02 
1889	 0.477346906228874 
1890	 1.51976612421483 
1891	 1.33749265409639 
1892	 1.03584320668265 
1893	 8.58135009853623E-02 
1894	-0.270244311951644 
1895	 0.452865616301266 
1896	 0.40681399518955 
1897	-4.04785001172667 
1898	-2.69208166489654 
1899	-1.18908650822701 
1900	-1.11477975906677 
1901	-2.38224891998875 
1902	-2.43078702892457 
1903	-2.95114949422889 
1904	-2.01444821985043 
1905	-1.70497157330297 
1906	-1.39869967936001 
1907	-1.80888651310005 
1908	-29.6068879410441 
1909	-159.680734839272 
1910	 0.404233527715038 
1911	-3.53612559567382 
1912	 1.26654019849807 
1913	 6.12353788489451 
1914	 1.02697432985344 
1915	 1.24602683839986 
1916	 6.27349190521478 
1917	-20.4696693230769 
1918	 4.24231124829887 
1919	 2.71217939357487 
1920	 1.72271517273559 
1921	 0.880343351131754 
1922	 0.20024247168788 
1923	-0.707322687391911 
1924	-0.785112917115221 
1925	-1.29044349988792 
1926	-1.75354773404613 
1927	-1.01077703093293 
1928	-0.593469048368655 
1929	-0.66248742456801 
1930	-0.225993838335755 
1931	-0.678586198052286 
1932	-0.289551940509874 
1933	 0.222846117660018 
1934	 9.85869500432852E-02 
1935	 0.191359169203538 
1936	 0.340845204912432 
1937	 0.333552509863244 
1938	 0.244888501796793 
1939	-0.140462036071821 
1940	-0.804123158184254 
1941	 15.4593470753092 
1942	 4.41383584533123 
1943	 4.1877124616034 
1944	 1.89332195505814 
1945	 1.56614786958478 
1946	 0.687069356325674 
1947	-2.93896363031646E-02 
1948	 9.97247976924304E-02 
1949	 0.151613661225937 
1950	 0.187404462860983 
1951	 0.673130495475049 
1952	 0.660817958560762 
1953	 0.31409773272205 
1954	 9.71809607146614E-02 
1955	 0.223068381426152 
1956	-4.59764744192218E-02 
1957	-0.153554005698783 
1958	-0.146280673202265 
1959	-0.158769376422789 
1960	-0.130520435651952 
1961	-3.27743167217903E-02 
1962	 6.54059752162783E-02 
1963	 8.00360625240242E-02 
1964	 6.59336074575272E-02 
1965	 3.93700678443228E-02 
1966	 0.026639526312265 
1967	 1.95176453393134E-04 
1968	-3.02081867587416E-04 
1969	 3.56019461279313E-03 
1970	 1.43374085262572E-02 
1971	 2.87790457407953E-02 
1972	 3.40313355680118E-02 
1973	 3.76140970249808E-02 
1974	 0.040002623769195 
1975	 0.036853980866281 
1976	 3.39286272255529E-02 
1977	 3.45957423865197E-02 
1978	 4.03454255247097E-02 
1979	 4.25516303584597E-02 
1980	 0.044963842825573 
1981	 4.23487431329472E-02 
1982	 4.19169293129632E-02 
1983	 4.03941299481297E-02 
1984	 3.86506585796834E-02 
1985	 3.88056638295954E-02 
1986	 3.73396519402548E-02 
1987	 3.59541949340062E-02 
1988	 3.35927662960176E-02 
1989	 3.08821269987952E-02 
1990	 3.16810851111815E-02 
1991	 3.54695278367437E-02 
1992	 3.82961215632571E-02 
1993	 4.00494606111329E-02 
1994	 4.21694081893187E-02 
1995	 4.49128737618552E-02 
1996	 4.17965048305677E-02 
1997	 0.04095472060602 
1998	 0.046276587420829 
1999	 5.08100200791897E-02 
2000	 5.89433141741662E-02 
2001	 6.23057613847474E-02 
2002	 6.18115342988563E-02 
2003	 0.064391082180769 
2004	 0.063348262728146 
2005	 6.28425614500094E-02 
2006	 6.37699049674425E-02 
2007	 0.056106076655964 
2008	 4.50466760776855E-02 
2009	 3.97246427072176E-02 
2010	 3.78960258838896E-02 
2011	 3.62428770687521E-02 
2012	 3.88735610739031E-02 
2013	 3.73816174271137E-02 
2014	 3.52583113160527E-02 
2015	 3.21256338530254E-02 
2016	 3.30079642896345E-02 
2017	 3.86818992483635E-02 
2018	 3.87698410551865E-02 
2019	 3.74904425763979E-02 
2020	 3.51792001522174E-02 
2021	 3.48610471141612E-02 
2022	 3.76735871079749E-02 
2023	 3.72106294727858E-02 
2024	 3.80926224337018E-02 
2025	 3.94827792285542E-02 
2026	 4.05003425195628E-02 
2027	 4.13270900582089E-02 
2028	 4.37157623878454E-02 
2029	 4.05470942910565E-02 
2030	 3.53004752957897E-02 
2031	 3.48914850616304E-02 
2032	 3.35234017995767E-02 
2033	 3.41503622942635E-02 
2034	 3.72353370380711E-02 
2035	 3.77051289449964E-02 
2036	 3.84808382536323E-02 
2037	 4.06064395783306E-02 
2038	 4.10084720886044E-02 
2039	 4.14398908875214E-02 
2040	 4.11204466425475E-02 
2041	 4.01797901300619E-02 
2042	 0.038444950602991 
2043	 3.78606567791537E-02 
2044	 3.69743169836351E-02 
2045	 3.51240050059494E-02 
2046	 3.53483120117329E-02 
2047	 3.84146452173253E-02 
2048	 4.21934894848202E-02 
2049	 4.21051826091836E-02 
2050	 4.31213418260263E-02 
2051	 4.23340543205462E-02 
2052	 3.91585837886717E-02 
2053	 4.01409760995259E-02 
2054	 3.98483681177966E-02 
2055	 4.08539128576777E-02 
2056	 4.25121286482777E-02 
2057	 4.61661093274661E-02 
2058	 4.68448416347367E-02 
2059	 4.64449445781182E-02 
2060	 0.045392317226982 
2061	 4.19420471301539E-02 
2062	 4.14325467344148E-02 
2063	 3.76735547299493E-02 
2064	 3.77883532689751E-02 
2065	 4.16605772858114E-02 
2066	 3.54454672712301E-02 
2067	 3.13139792905019E-02 
2068	 3.23648009927588E-02 
2069	 3.26919790318496E-02 
2070	 3.75251487790122E-02 
2071	 4.07887493544784E-02 
2072	 4.26115449824957E-02 
2073	 4.32045454457564E-02 
2074	 3.95654680322938E-02 
2075	 3.82390726963396E-02 
2076	 3.68264195734537E-02 
2077	 3.74846267971552E-02 
2078	 4.02751557253264E-02 
2079	 4.05548914136195E-02 
2080	 4.09787505652732E-02 
2081	 4.20501737525463E-02 
2082	 4.12889059406457E-02 
2083	 4.02198825826512E-02 
2084	 4.11527299879002E-02 
2085	 4.23567864148699E-02 
2086	 0.041427470679686 
2087	 0.039772622580444 
2088	 4.04337041274439E-02 
2089	 4.11006461050483E-02 
2090	 3.96972699914831E-02 
2091	 3.98021432329033E-02 
2092	 3.94985658914759E-02 
2093	 3.72066326333703E-02 
2094	 3.67942802803395E-02 
2095	 3.86031050767507E-02 
2096	 3.88450754946016E-02 
2097	 3.89742044900848E-02 
2098	 3.82520146733921E-02 
2099	 3.65532114988144E-02 
2100	 3.48416389609754E-02 
2101	 3.48197304764703E-02 
2102	 3.71142359553262E-02 
2103	 4.05861209755202E-02 
2104	 0.041916676184944 
2105	 4.03570622948974E-02 
2106	 3.89437563425033E-02 
2107	 3.75526234302324E-02 
2108	 3.76468807188813E-02 
2109	 4.01450434531901E-02 
2110	 4.04386009160099E-02 
2111	 3.93965340882568E-02 
2112	 3.77530859114399E-02 
2113	 3.62685695074642E-02 
2114	 3.33843338826151E-02 
2115	 3.28818202959784E-02 
2116	 3.36969385537852E-02 
2117	 3.40662186980492E-02 
2118	 3.48981546309206E-02 
2119	 3.55291117811987E-02 
2120	 3.57254342185026E-02 
2121	 3.72997720939335E-02 
2122	 0.038631825956682 
2123	 3.92858344423197E-02 
2124	 3.75618655142768E-02 
2125	 3.78305841622091E-02 
2126	 0.03727136722414 
2127	 3.53661636255355E-02 
2128	 3.67059138283793E-02 
2129	 3.69223420639598E-02 
2130	 3.58592206839014E-02 
2131	 3.39293681467011E-02 
2132	 3.42864702291421E-02 
2133	 3.44842260784808E-02 
2134	 0.034831169353606 
2135	 3.80944272802193E-02 
2136	 3.98628718768986E-02 
2137	 4.05559006237148E-02 
2138	 0.039821267667417 
2139	 0.036620570078688 
2140	 3.62360119518998E-02 
2141	 3.71401599302333E-02 
2142	 3.67843823795855E-02 
2143	 3.80000910220169E-02 
2144	 3.81675748235215E-02 
2145	 3.56094582856624E-02 
2146	 3.07952424574544E-02 
2147	 2.91666998735323E-02 
2148	 3.04445996954109E-02 
2149	 3.15903712710859E-02 
2150	 3.50838944899134E-02 
2151	 3.82183663019483E-02 
2152	 3.98765431841725E-02 
2153	 4.11611943385116E-02 
2154	 4.03158121870104E-02 
2155	 3.68993970714949E-02 
2156	 3.43468904646629E-02 
2157	 3.32962405516255E-02 
2158	 3.29166585871566E-02 
2159	 3.31024784377828E-02 
2160	 3.62266874507939E-02 
2161	 3.52838425641223E-02 
2162	 3.05954932385018E-02 
2163	 2.92137430425488E-02 
2164	 2.76098468954012E-02 
2165	 0.027728653820019 
2166	 3.26080772463425E-02 
2167	 3.34432610784466E-02 
2168	 3.10691235895299E-02 
2169	 3.06876964837257E-02 
2170	 2.93254103026073E-02 
2171	 2.93954150997546E-02 
2172	 3.28250926206384E-02 
2173	 3.44831436310966E-02 
2174	 3.30133289983747E-02 
2175	 3.17382157955828E-02 
2176	 2.95021258250995E-02 
2177	 0.030971432861253 
2178	 3.45001900050523E-02 
2179	 3.72385875295784E-02 
2180	 3.81460626677493E-02 
2181	 3.50821602449413E-02 
2182	 0.034103059403212 
2183	 3.61028363346897E-02 
2184	 3.67103189210894E-02 
2185	 3.72430514463308E-02 
2186	 3.71929880030099E-02 
2187	 3.42749194201257E-02 
2188	 3.35803006884218E-02 
2189	 3.43729311768534E-02 
2190	 3.41362391610932E-02 
2191	 3.29255415735044E-02 
2192	 3.39222563339626E-02 
2193	 3.74452350002412E-02 
2194	 0.038480924774808 
2195	 3.86572776410811E-02 
2196	 4.06966120758432E-02 
2197	 4.16497155057239E-02 
2198	 4.20284967582625E-02 
2199	 4.42634884619298E-02 
2200	 4.83084712181056E-02 
2201	 4.49580763647062E-02 
2202	 0.041944143905882 
2203	 4.03582775830662E-02 
2204	 0.036134169472368 
2205	 0.03655639675198 
2206	 3.81850448054005E-02 
2207	 3.95332610369581E-02 
2208	 4.38607371609233E-02 
2209	 4.22594117998848E-02 
2210	 4.11339311353712E-02 
2211	 4.36370322892193E-02 
2212	 3.97584387806518E-02 
2213	 3.55620411366872E-02 
2214	 3.42634478525814E-02 
2215	 3.24602015957738E-02 
2216	 2.93290338594422E-02 
2217	 2.63769147447274E-02 
2218	 2.32517392217988E-02 
2219	 2.18652265986751E-02 
2220	 1.96197362258622E-02 
2221	 2.10889753703807E-02 
2222	 2.71592228398596E-02 
2223	 3.01457147167473E-02 
2224	 3.51345316202414E-02 
2225	 3.59043749782034E-02 
2226	 3.07134161290978E-02 
2227	 3.19803333080208E-02 
2228	 3.54357158192721E-02 
2229	 3.62247219669096E-02 
2230	 4.13449259893274E-02 
2231	 4.17974700705693E-02 
2232	 3.52422468819052E-02 
2233	 3.26745004600054E-02 
2234	 3.10230482797649E-02 
2235	 0.029307298360125 
2236	 2.89625758875549E-02 
2237	 2.91544679233256E-02 
2238	 2.57798061389697E-02 
2239	 2.30638751264694E-02 
2240	 2.37525446632748E-02 
2241	 2.40082420850161E-02 
2242	 2.30895575686282E-02 
2243	 0.02601770877342 
2244	 2.61332567165704E-02 
2245	 2.59516413928821E-02 
2246	 3.19869445357411E-02 
2247	 3.31501938397312E-02 
2248	 0.033733971257445 
2249	 0.037543742318402 
2250	 3.46364071870337E-02 
2251	 2.99108492815679E-02 
2252	 2.94920718093616E-02 
2253	 2.34589708812515E-02 
2254	 0.019619970688843 
2255	 2.28116892499025E-02 
2256	 2.07154003595665E-02 
2257	 1.86059587342865E-02 
2258	 2.29580364431412E-02 
2259	 2.24986023792723E-02 
2260	 1.87963430500189E-02 
2261	 1.20865548090882E-02 
2262	 1.13722181770541E-02 
2263	 7.38970725869001E-03 
2264	 8.85389580575039E-03 
2265	 1.91689467526788E-02 
2266	 2.34955988187079E-02 
2267	 2.58932457798731E-02 
2268	 2.92879653586915E-02 
2269	 3.28995971039369E-02 
2270	 3.58448030158997E-02 
2271	 3.90156718524759E-02 
2272	 3.81445408861214E-02 
2273	 3.55152258004647E-02 
2274	 3.40820107134914E-02 
2275	 2.90603240186884E-02 
2276	 2.64034063474944E-02 
2277	 2.29006276911223E-02 
2278	 2.24589216536925E-02 
2279	 2.87160089787911E-02 
2280	 0.029359349496433 
2281	 2.69680671476329E-02 
2282	 3.05972888131565E-02 
2283	 3.05323032791904E-02 
2284	 2.18477996410647E-02 
2285	 2.95150177281069E-02 
2286	 3.76465359143585E-02 
2287	 3.78377476550809E-02 
2288	 4.48898676044833E-02 
2289	 4.39177044519262E-02 
2290	 3.47529746603965E-02 
2291	 3.20748182224407E-02 
2292	 2.97005166106165E-02 
2293	 2.47962598964976E-02 
2294	 2.53938782342697E-02 
2295	 2.66370413313973E-02 
2296	 2.32120397976746E-02 
2297	 0.022555828824291 
2298	 2.81695516356885E-02 
2299	 3.05449910939261E-02 
2300	 3.31277004046863E-02 
2301	 4.32934917441025E-02 
2302	 3.76221503874418E-02 
2303	 2.90501807482073E-02 
2304	 3.35551410380488E-02 
2305	 2.06930555294546E-02 
2306	 1.58231098283006E-02 
2307	 3.25582291404147E-02 
2308	 3.75116283759934E-02 
2309	 3.56725739013781E-02 
2310	 3.33720069049029E-02 
2311	 2.29603001139156E-02 
2312	 9.45460782769786E-03 
2313	 1.12156706352165E-02 
2314	 2.29790162265348E-02 
2315	 3.08287622178353E-02 
2316	 3.83309468924895E-02 
2317	 0.034663105949292 
2318	 2.87089187463949E-02 
2319	 2.44071474213403E-02 
2320	 1.51310764083725E-02 
2321	 1.61011494953055E-02 
2322	 1.34731295277246E-02 
2323	 6.83909939839419E-03 
2324	 8.28604137290721E-03 
2325	 6.86329832499873E-03 
2326	 1.33573877089749E-02 
2327	 1.85724908017101E-02 
2328	 6.16637000378435E-03 
2329	 9.09856065741151E-03 
2330	 6.53227084518984E-03 
2331	-2.85750083501445E-03 
2332	 1.56774107818092E-02 
2333	 2.46013938693536E-02 
2334	 0.032258363085967 
2335	 5.80175177011629E-02 
2336	 7.23256521501014E-02 
2337	 7.56976768582158E-02 
2338	 7.26316374878007E-02 
2339	 6.21250939636724E-02 
2340	 4.45707835924317E-02 
2341	 4.23505121915076E-02 
2342	 5.03380468309208E-02 
2343	 3.63977888799482E-02 
2344	 1.08356792055053E-02 
2345	-1.26218261367282E-02 
2346	-2.02508840763544E-02 
2347	-1.30589941083295E-02 
2348	-1.27066784768613E-04 
2349	-1.64897691007272E-02 
2350	-3.36065646636742E-02 
2351	-8.22490542446899E-04 
2352	 2.54672075752328E-02 
2353	 4.99772104397072E-02 
2354	 6.87781531324728E-02 
2355	 0.037529981364419 
2356	 4.79348563807892E-03 
2357	 1.29738538902702E-02 
2358	 2.03494152485489E-02 
2359	 3.56071153271209E-02 
2360	 5.76615306509542E-02 
2361	 5.20384359081651E-02 
2362	 4.88264412429143E-02 
2363	 4.54137822771784E-02 
2364	 3.12202477538575E-02 
2365	 3.16185925714129E-02 
2366	 2.19875315271525E-02 
2367	 1.56059804260371E-02 
2368	 9.61998524768699E-03 
2369	-3.75996034984923E-02 
2370	-1.48023680341769E-02 
2371	 4.77790669474521E-02 
2372	 7.36029300684951E-02 
2373	 0.131120569599826 
2374	 0.108338900112426 
2375	 0.023271093661404 
2376	-1.26313185918513E-02 
2377	-1.38144043583524E-02 
2378	 3.15752562964653E-02 
2379	 0.119607849307897 
2380	 0.173344247503788 
2381	 0.117127605750719 
2382	 6.68134126169485E-02 
2383	 2.96479390166777E-02 
2384	 9.90285692093718E-03 
2385	 1.41870555877777E-02 
2386	 6.97356861920605E-02 
2387	 0.135963294684642 
2388	 6.98540584002284E-02 
2389	 2.24430276541101E-02 
2390	-2.76775760105276E-02 
2391	-0.156426441739413 
2392	-0.228041304510618 
2393	-0.256989461485876 
2394	-0.212223204725119 
2395	-0.121511144613854 
2396	-4.56619014515581E-02 
2397	 6.28691769676208E-02 
2398	 0.216700735548378 
2399	 0.185647733026733 
2400	 0.150550080009045 
2401	 0.137498180029815 
2402	-5.38784989773454E-02 
2403	-0.137547010083964 
2404	-0.010637692958029 
2405	 1.10297560956811E-02 
2406	 7.46221426440758E-02 
2407	 0.405130538272919 
2408	 0.459346966130303 
2409	 0.482276139402992 
2410	 0.52284047734495 
2411	 0.10434097244108 
2412	 5.45391277087929E-02 
2413	 0.160717286471148 
2414	 7.05402052491926E-02 
2415	 0.466734593730454 
2416	 3.09325199814378 
2417	-0.916178865100677 
2418	-19.9632393400897 
2419	 3.47265411445114 
2420	-0.74347402829745 
2421	-0.678721595080819 
2422	 3.94977912952387 
2423	 2.05321237308901 
2424	-23.1622713226713 
2425	-1.17585140355821 
2426	-0.267585394920847 
2427	-0.107969586191078 
2428	-6.60917992956085E-02 
2429	 0.235574740261839 
2430	 3.48474678537376E-02 
2431	-0.306032966228971 
2432	-0.395376558674886 
2433	-0.293096547441576 
2434	 2.35138795885957E-04 
2435	 0.138809835939415 
2436	 0.231328233548701 
2437	 0.124385272653638 
2438	-0.774671794073376 
2439	-1.13428857467094 
2440	-1.23258908626723 
2441	-4.76759157816384 
2442	-2.9339765729153 
2443	-1.96127790381708 
2444	-5.34594388528731 
2445	-1.95064497126408 
2446	-0.800475137461149 
2447	-1.15245077975602 
2448	-1.04865201947536 
2449	 1.30326354359632 
2450	 1.19542173995894 
2451	 1.93742009499557 
2452	 4.28592804425032 
2453	 3.38841646974071 
2454	 16.1869990630597 
2455	 27.3748518693949 
2456	 2.89961894157836 
2457	 1.29431164170892 
2458	 0.793263271254079 
2459	 0.834847475239619 
2460	 0.497925556537602 
2461	 0.413958267556885 
2462	 0.330085459278304 
2463	-2.50053319120833E-02 
2464	-6.94885899868827E-02 
2465	-5.93385489286356E-02 
2466	 0.482717728784165 
2467	 3.75376536526574 
2468	 2.14563066136036 
2469	 1.0389065011606 
2470	 0.616644987241383 
2471	 0.442595928131373 
2472	 0.48673840240656 
2473	 0.472184164915749 
2474	 0.199918971810348 
2475	-0.384090208039033 
2476	-0.418647659409408 
2477	-0.398814227170718 
2478	-7.72453504232881E-02 
2479	 0.19856469503791 
2480	 0.193420265439367 
2481	 0.482336546060909 
2482	 0.223250008347544 
2483	-0.121029823094782 
2484	-0.297041705632823 
2485	-8.20649281614495E-02 
2486	 0.366065859094284 
2487	 0.679963507282114 
2488	 0.600607481506296 
2489	 0.362138977041861 
2490	 0.18588977772957 
2491	 0.302122887208225 
2492	 0.463263825307759 
2493	 9.27991465310618 
2494	-6.65487496913408E-02 
2495	-1.8894760692365 
2496	-2.30212291228196 
2497	 7.72466081186283E-03 
2498	 0.113459863182128 
2499	 0.455397744454761 
2500	 0.430249296617475 
