Wavelength	rt0728algea00001.asd
350	 9.68320970517874E-02 
351	 9.66769626667492E-02 
352	 0.096543462466637 
353	 9.68820947787534E-02 
354	 9.75444269856547E-02 
355	 0.097237061203021 
356	 9.73652989311058E-02 
357	 9.76207831625031E-02 
358	 0.097360889413202 
359	 0.096871573330415 
360	 9.70085659577784E-02 
361	 9.74671842119594E-02 
362	 9.72537025468071E-02 
363	 9.70053744649127E-02 
364	 9.71049089448562E-02 
365	 9.75212696501413E-02 
366	 0.09766860875608 
367	 9.79448876050387E-02 
368	 9.82127488811437E-02 
369	 9.82902173589767E-02 
370	 9.83467060761632E-02 
371	 9.81596339513512E-02 
372	 9.81534655311702E-02 
373	 9.89555993466629E-02 
374	 9.94926472132661E-02 
375	 9.98513021225952E-02 
376	 0.100121951545899 
377	 0.100229754710933 
378	 0.100138260002315 
379	 0.100304403142656 
380	 0.100993917563455 
381	 0.101595999979565 
382	 0.101903149903986 
383	 0.102237097034482 
384	 0.102965975821144 
385	 0.102745686444387 
386	 0.102693783846403 
387	 0.103251857707606 
388	 0.10386137446217 
389	 0.103917460119712 
390	 0.104210116209992 
391	 0.105133117338322 
392	 0.105471600405238 
393	 0.105629265267483 
394	 0.105972124398542 
395	 0.106671890567556 
396	 0.10700618803721 
397	 0.107189294915233 
398	 0.10738738576201 
399	 0.107662533793885 
400	 0.108013279512961 
401	 0.108417606487673 
402	 0.108764351163163 
403	 0.108683520043634 
404	 0.108963822970795 
405	 0.109477122709025 
406	 0.109807912008926 
407	 0.110097726574121 
408	 0.110444643440083 
409	 0.110835035012555 
410	 0.111151178565594 
411	 0.111356003368716 
412	 0.111720240602504 
413	 0.112313153478684 
414	 0.112601904687328 
415	 0.112877121537024 
416	 0.113282952099096 
417	 0.113839548074253 
418	 0.114170669542331 
419	 0.114674659669181 
420	 0.115368031053055 
421	 0.115819958750287 
422	 0.116403879353397 
423	 0.116910264737258 
424	 0.117230349194535 
425	 0.117878799428287 
426	 0.118461161398357 
427	 0.119072570431843 
428	 0.119940047716083 
429	 0.120410175197415 
430	 0.121138377893596 
431	 0.122160492098621 
432	 0.122668873408781 
433	 0.12311748815869 
434	 0.123818248017862 
435	 0.124781392130905 
436	 0.125208132769887 
437	 0.125908956987437 
438	 0.126853096628751 
439	 0.127568161883484 
440	 0.128185900535004 
441	 0.128853892091463 
442	 0.129570656728188 
443	 0.130105535651366 
444	 0.130762261334626 
445	 0.13144154287777 
446	 0.131974335387655 
447	 0.132370847071247 
448	 0.132824934060975 
449	 0.133358471112962 
450	 0.1338579785851 
451	 0.134242980509753 
452	 0.134675085627567 
453	 0.13520358403768 
454	 0.135575505372005 
455	 0.135874728755318 
456	 0.136228025109809 
457	 0.136695572847939 
458	 0.13687675141188 
459	 0.137040478127695 
460	 0.13734559847423 
461	 0.137786807503001 
462	 0.138048402322141 
463	 0.138292751370282 
464	 0.138642834251218 
465	 0.138814462237486 
466	 0.139041549535387 
467	 0.13941527194671 
468	 0.139903184618247 
469	 0.14016138470337 
470	 0.140392345571274 
471	 0.140674900919669 
472	 0.14084948898301 
473	 0.141020240218398 
474	 0.141407891684222 
475	 0.142049590598933 
476	 0.142247158230145 
477	 0.142455906487237 
478	 0.142799996873197 
479	 0.1431655575471 
480	 0.143568070147456 
481	 0.144060875303453 
482	 0.144585592874877 
483	 0.144819969420009 
484	 0.145255379692715 
485	 0.145846019985419 
486	 0.146366868534584 
487	 0.146840229389642 
488	 0.147290550135565 
489	 0.147789086556709 
490	 0.148439339541725 
491	 0.149051828822445 
492	 0.149533823243603 
493	 0.149932738188686 
494	 0.150621460852035 
495	 0.151300567394539 
496	 0.151950707260006 
497	 0.152686742526344 
498	 0.153489195437232 
499	 0.154146817247181 
500	 0.154674763580058 
501	 0.155462381968833 
502	 0.156175851173784 
503	 0.156923310231969 
504	 0.157798496274866 
505	 0.158276362889198 
506	 0.15900947294172 
507	 0.160018433516468 
508	 0.16082216127435 
509	 0.161691854245849 
510	 0.162466808745155 
511	 0.163104887569231 
512	 0.164006949692863 
513	 0.164842911432598 
514	 0.165672009080555 
515	 0.166654759208754 
516	 0.167458690196905 
517	 0.168314361508864 
518	 0.169253383250487 
519	 0.170009287201893 
520	 0.170845487489234 
521	 0.171783558639001 
522	 0.17275079799548 
523	 0.173540206731856 
524	 0.174329862644983 
525	 0.175191004520455 
526	 0.176107595469502 
527	 0.176974771418757 
528	 0.177814342640034 
529	 0.178676468564886 
530	 0.179650970283436 
531	 0.180491568761473 
532	 0.181282103863816 
533	 0.182191471691605 
534	 0.183079866343529 
535	 0.183959541905683 
536	 0.184838843739101 
537	 0.185705312796472 
538	 0.186741780966672 
539	 0.187674992332453 
540	 0.188321610676139 
541	 0.189154102212785 
542	 0.190026956582038 
543	 0.190911625067571 
544	 0.191848791046595 
545	 0.192767751865539 
546	 0.193671874634706 
547	 0.194559780539456 
548	 0.195399610029833 
549	 0.196265730311511 
550	 0.197132757893907 
551	 0.197954519759585 
552	 0.19879764164544 
553	 0.199555943959178 
554	 0.200285559510771 
555	 0.201223542435878 
556	 0.202089514776728 
557	 0.202877143093099 
558	 0.203632865196222 
559	 0.204378730770121 
560	 0.205058280503799 
561	 0.205733251208111 
562	 0.20651287961162 
563	 0.207128234587561 
564	 0.207648016771316 
565	 0.208151870798702 
566	 0.208652650424428 
567	 0.209074384465785 
568	 0.209539936701059 
569	 0.210155873343258 
570	 0.210508469748192 
571	 0.210845334531537 
572	 0.211318027295765 
573	 0.211919241610136 
574	 0.212301512374305 
575	 0.212631784398556 
576	 0.213097088596104 
577	 0.213565909863083 
578	 0.213781543642487 
579	 0.213893142577216 
580	 0.214256862431195 
581	 0.214512985432067 
582	 0.214793083299409 
583	 0.215118304791147 
584	 0.215181793921884 
585	 0.215347570562161 
586	 0.215510115342726 
587	 0.21548387429605 
588	 0.215722368289447 
589	 0.215933192122818 
590	 0.216027227215593 
591	 0.216207387608034 
592	 0.216358723660646 
593	 0.216497640972733 
594	 0.216649763111341 
595	 0.216820560003485 
596	 0.216871476686302 
597	 0.216856243835262 
598	 0.216936748204614 
599	 0.217193402796682 
600	 0.217267326737169 
601	 0.217048041421538 
602	 0.216917718606241 
603	 0.216946328821671 
604	 0.216968073099438 
605	 0.216781017666816 
606	 0.216479754236357 
607	 0.216303234368023 
608	 0.216223072401622 
609	 0.215940763821662 
610	 0.215723542570106 
611	 0.215612407624942 
612	 0.215554905953516 
613	 0.215383213508712 
614	 0.215142733145629 
615	 0.214963667462645 
616	 0.214970827269898 
617	 0.214736180063776 
618	 0.214522616173159 
619	 0.214519914035857 
620	 0.214703632548912 
621	 0.214637574177676 
622	 0.214549036401523 
623	 0.214712846281739 
624	 0.21443660273284 
625	 0.214311018250476 
626	 0.214402839253769 
627	 0.214256783050675 
628	 0.214355145550873 
629	 0.214419967700554 
630	 0.214257945936155 
631	 0.214272248240852 
632	 0.214282893691189 
633	 0.214280471704364 
634	 0.214334143673414 
635	 0.214505076695587 
636	 0.214592341652295 
637	 0.214580505176967 
638	 0.214752012553038 
639	 0.214882679777637 
640	 0.214935997507809 
641	 0.214940724846569 
642	 0.214960539168976 
643	 0.214925343901076 
644	 0.21485022437285 
645	 0.214809933168563 
646	 0.214604894796325 
647	 0.214378015139326 
648	 0.214207213350919 
649	 0.21382489894621 
650	 0.213527718269056 
651	 0.213245657506788 
652	 0.212787318442669 
653	 0.212028568930384 
654	 0.21143940034706 
655	 0.21100478747569 
656	 0.210054997819173 
657	 0.209313061423931 
658	 0.208717325900726 
659	 0.208103144032579 
660	 0.207608416637411 
661	 0.206923833253057 
662	 0.206227072556879 
663	 0.205936486135579 
664	 0.205396826931696 
665	 0.204831207816827 
666	 0.2044733024339 
667	 0.204401378052439 
668	 0.204267136220157 
669	 0.20406420571693 
670	 0.203920404636354 
671	 0.203960077775694 
672	 0.204044455759668 
673	 0.204152691900399 
674	 0.204374710487352 
675	 0.204445223689758 
676	 0.204605040037686 
677	 0.205009069065065 
678	 0.205364389013521 
679	 0.205645864011412 
680	 0.205962543254808 
681	 0.206489881751682 
682	 0.207321626729967 
683	 0.208089604829237 
684	 0.208700529830732 
685	 0.209548149791224 
686	 0.210564637683751 
687	 0.211770924940502 
688	 0.213088640302684 
689	 0.214442689374923 
690	 0.215995270826942 
691	 0.217673811780673 
692	 0.219313448950621 
693	 0.221383897887689 
694	 0.223661481962502 
695	 0.225828171743576 
696	 0.22793151082053 
697	 0.230012821508104 
698	 0.231989865888085 
699	 0.233654062654997 
700	 0.235525968488795 
701	 0.237627218369173 
702	 0.239603218014374 
703	 0.241013886650661 
704	 0.242537050544225 
705	 0.243878309885048 
706	 0.244821621323173 
707	 0.245777842028209 
708	 0.246621575794315 
709	 0.247222067850528 
710	 0.247492441979924 
711	 0.247658604113616 
712	 0.247711500374992 
713	 0.247597315337186 
714	 0.24721984130673 
715	 0.246640244266753 
716	 0.245886973268393 
717	 0.245065100553355 
718	 0.244220513216274 
719	 0.243289581823141 
720	 0.242566025520809 
721	 0.242073194121021 
722	 0.241441076065236 
723	 0.240289992430995 
724	 0.238608469234401 
725	 0.236720695630589 
726	 0.235591016918664 
727	 0.234348744249287 
728	 0.232296445686079 
729	 0.230445594953497 
730	 0.228310328232384 
731	 0.226083653990486 
732	 0.224081621037676 
733	 0.222738880994026 
734	 0.221553319644338 
735	 0.220306759324354 
736	 0.219170057123695 
737	 0.218468316670094 
738	 0.218106629540751 
739	 0.217863189142739 
740	 0.217423463146525 
741	 0.217291158612771 
742	 0.217405316914674 
743	 0.21743027880903 
744	 0.217459008000201 
745	 0.217384738124934 
746	 0.217309017931908 
747	 0.217623834523511 
748	 0.217676908540121 
749	 0.217594854901056 
750	 0.217645910064625 
751	 0.217881710443224 
752	 0.217904373086286 
753	 0.217717087499576 
754	 0.217578697400819 
755	 0.217741305019801 
756	 0.217924373557193 
757	 0.217983253491553 
758	 0.218039123306625 
759	 0.217828782302949 
760	 0.21747936041849 
761	 0.217489796997607 
762	 0.217196414744313 
763	 0.217422159947957 
764	 0.218016112579609 
765	 0.218541652577696 
766	 0.218889417669326 
767	 0.219179300704719 
768	 0.219412074214834 
769	 0.219473616618494 
770	 0.219833111284336 
771	 0.220120622902932 
772	 0.220145650142268 
773	 0.220691195522691 
774	 0.221157596371317 
775	 0.221441424109052 
776	 0.221680941227817 
777	 0.222023938612895 
778	 0.22232043439896 
779	 0.222609874683329 
780	 0.22312579774686 
781	 0.223628197681434 
782	 0.223996445027736 
783	 0.224268383087452 
784	 0.22480192617876 
785	 0.225131873592511 
786	 0.22539523242286 
787	 0.225893429297754 
788	 0.226521224323574 
789	 0.226997691800494 
790	 0.227418701957768 
791	 0.228141042418564 
792	 0.228653569578205 
793	 0.228953718863334 
794	 0.229223278396944 
795	 0.229801353753114 
796	 0.230490609782505 
797	 0.230925338642759 
798	 0.231038845779312 
799	 0.23186894264579 
800	 0.232054323624603 
801	 0.231882626934413 
802	 0.232422967434564 
803	 0.232630816103984 
804	 0.23298457993104 
805	 0.233407156669801 
806	 0.233153843823256 
807	 0.233216984060817 
808	 0.233078406012397 
809	 0.232401421986312 
810	 0.232158636599966 
811	 0.23185719780911 
812	 0.231462186428531 
813	 0.231039885786722 
814	 0.23002817042314 
815	 0.229872201758436 
816	 0.230070922764578 
817	 0.228789131239713 
818	 0.228149915128954 
819	 0.227688115946278 
820	 0.226916254378075 
821	 0.225641291726457 
822	 0.224133758376682 
823	 0.22274581091029 
824	 0.221463798358217 
825	 0.219338867071093 
826	 0.216899866654458 
827	 0.21444135231856 
828	 0.212369633256043 
829	 0.210763556282217 
830	 0.208953523687498 
831	 0.207031086743096 
832	 0.205639807675658 
833	 0.204083967688845 
834	 0.203009761135844 
835	 0.202550851795127 
836	 0.202063976345147 
837	 0.201342926098622 
838	 0.200637504728684 
839	 0.200179372669273 
840	 0.199856193704392 
841	 0.199682504745351 
842	 0.199607150886925 
843	 0.199455596536702 
844	 0.198604680760526 
845	 0.198022761596647 
846	 0.197644572453685 
847	 0.196816940783333 
848	 0.19681794363184 
849	 0.196545884039296 
850	 0.195865007199924 
851	 0.19610819285543 
852	 0.195685379632146 
853	 0.195273061361841 
854	 0.195264460451405 
855	 0.194411212986176 
856	 0.194306709546626 
857	 0.194293475209579 
858	 0.193616707410291 
859	 0.193508997006712 
860	 0.193258756297038 
861	 0.192696173820005 
862	 0.192003076748097 
863	 0.19154159210977 
864	 0.19158043821952 
865	 0.191733749273768 
866	 0.191149668456796 
867	 0.190446624312936 
868	 0.190020641888207 
869	 0.189766757544992 
870	 0.18903742024494 
871	 0.189068569807193 
872	 0.189086183948847 
873	 0.188507800269535 
874	 0.188195033287321 
875	 0.187487961522508 
876	 0.186760604135474 
877	 0.186421905945401 
878	 0.185821515403513 
879	 0.185209047114915 
880	 0.184670043700413 
881	 0.184197271662417 
882	 0.183764502023876 
883	 0.18329417579689 
884	 0.182760657786938 
885	 0.182216873784534 
886	 0.181987648500201 
887	 0.181331509319588 
888	 0.180474259333009 
889	 0.180708771900502 
890	 0.18015691989153 
891	 0.179298136537606 
892	 0.178742278127777 
893	 0.178490751324621 
894	 0.178484600168127 
895	 0.177999699621122 
896	 0.176632814660321 
897	 0.175788216713423 
898	 0.17508183760416 
899	 0.174246767463163 
900	 0.173414554825283 
901	 0.173945560145687 
902	 0.173318648200035 
903	 0.172457650603063 
904	 0.172989332220316 
905	 0.17319973636991 
906	 0.172644496480506 
907	 0.171633038238897 
908	 0.171015906099618 
909	 0.170436833558736 
910	 0.169325629271387 
911	 0.168175393738454 
912	 0.16818982787981 
913	 0.16787128490921 
914	 0.165554145967192 
915	 0.162758309138205 
916	 0.163733645225076 
917	 0.163860185181125 
918	 0.163182302717055 
919	 0.162414839248997 
920	 0.16213721930811 
921	 0.161365978747092 
922	 0.160614493669361 
923	 0.159650155618051 
924	 0.155924948672774 
925	 0.157541493876228 
926	 0.158693779369168 
927	 0.153074694318763 
928	 0.153621397334348 
929	 0.155151486848709 
930	 0.154234511008125 
931	 0.149158046983219 
932	 0.15013093184814 
933	 0.148775516412723 
934	 0.143015092544439 
935	 0.137660409575091 
936	 0.137700389233271 
937	 0.138983586321168 
938	 0.139804616764308 
939	 0.139863299476787 
940	 0.139232312105738 
941	 0.14078815558863 
942	 0.141691235331737 
943	 0.13806695613006 
944	 0.140803166840882 
945	 0.132836115099579 
946	 0.124943423984843 
947	 0.137247817688995 
948	 0.142558360522334 
949	 0.137956542243503 
950	 0.129947571659257 
951	 0.127905047755364 
952	 0.128712108868665 
953	 0.135241584978178 
954	 0.140878233144734 
955	 0.136605557852254 
956	 0.136506080068939 
957	 0.136456592489471 
958	 0.133561631686872 
959	 0.128107372744655 
960	 0.127648343961804 
961	 0.129682773394605 
962	 0.129418525536485 
963	 0.124044419989927 
964	 0.12461629714769 
965	 0.131549261059948 
966	 0.135635803878119 
967	 0.126508915869232 
968	 0.12460175062987 
969	 0.12723503704845 
970	 0.129950805482968 
971	 0.129407894991617 
972	 0.127424468698444 
973	 0.128150359264345 
974	 0.128841969919313 
975	 0.122344303110118 
976	 0.123810021726055 
977	 0.127340381823213 
978	 0.128627399984349 
979	 0.127853537342226 
980	 0.12756382347364 
981	 0.126423495066296 
982	 0.12523234416649 
983	 0.126272235710509 
984	 0.128288364556647 
985	 0.130071575182764 
986	 0.130107035096344 
987	 0.127697282365037 
988	 0.128157947750824 
989	 0.129235241615236 
990	 0.129661978227686 
991	 0.129736655470712 
992	 0.130904516730641 
993	 0.130474555555412 
994	 0.129319061131735 
995	 0.129925577758077 
996	 0.12703538333033 
997	 0.128445855245748 
998	 0.132446833771827 
999	 0.132069952567352 
1000	 0.129478609783596 
1001	 0.110286551481993 
1002	 0.110263539918847 
1003	 0.110448921864835 
1004	 0.111218727781724 
1005	 0.111765578875936 
1006	 0.111937592185959 
1007	 0.112948991844616 
1008	 0.113281661931885 
1009	 0.113533581484655 
1010	 0.113549860173113 
1011	 0.113280636965181 
1012	 0.113582719126769 
1013	 0.113550742042772 
1014	 0.113402529965009 
1015	 0.112854311372315 
1016	 0.112903527387199 
1017	 0.112806623908747 
1018	 0.113313896049498 
1019	 0.114759069622139 
1020	 0.115518717129906 
1021	 0.11633889045698 
1022	 0.117057564039497 
1023	 0.116793021720693 
1024	 0.116872968758222 
1025	 0.116584912957738 
1026	 0.115656943158226 
1027	 0.115282939440581 
1028	 0.114790110144836 
1029	 0.114897356760358 
1030	 0.115464668839946 
1031	 0.115934992161471 
1032	 0.116864252121792 
1033	 0.11726771208876 
1034	 0.117251393928137 
1035	 0.117716532182962 
1036	 0.118051553575478 
1037	 0.118822585000376 
1038	 0.120340316543679 
1039	 0.121386693602528 
1040	 0.122514568372503 
1041	 0.123385354774724 
1042	 0.123312885922938 
1043	 0.12214692278318 
1044	 0.121995527498157 
1045	 0.121226475671427 
1046	 0.121580115805898 
1047	 0.123321618783959 
1048	 0.12404890178382 
1049	 0.125210662595959 
1050	 0.125240988944576 
1051	 0.123447742657056 
1052	 0.123346985180116 
1053	 0.12347812946544 
1054	 0.123842375851802 
1055	 0.126355349101321 
1056	 0.127202150955136 
1057	 0.127318421246949 
1058	 0.126338545657386 
1059	 0.12603681310711 
1060	 0.124814471964509 
1061	 0.124755317224213 
1062	 0.12564610035096 
1063	 0.125963871638714 
1064	 0.126450281766109 
1065	 0.126717857608844 
1066	 0.126731295748139 
1067	 0.126824673528573 
1068	 0.127150610529284 
1069	 0.127063567861323 
1070	 0.126185915197911 
1071	 0.126137479807018 
1072	 0.126676902353697 
1073	 0.12664449241979 
1074	 0.126693933431563 
1075	 0.127255715584463 
1076	 0.127410155632171 
1077	 0.127200399546708 
1078	 0.126796360482064 
1079	 0.125955397077114 
1080	 0.126043108763527 
1081	 0.126143321730404 
1082	 0.126271096465822 
1083	 0.12831460989544 
1084	 0.128196563380573 
1085	 0.125377909244338 
1086	 0.12476326603543 
1087	 0.124714349022427 
1088	 0.124090639953709 
1089	 0.123916567572347 
1090	 0.124919088440785 
1091	 0.125055821088915 
1092	 0.124132568669593 
1093	 0.123599810358067 
1094	 0.123696629014238 
1095	 0.123299512163984 
1096	 0.121653916104502 
1097	 0.121423143090278 
1098	 0.122518799857927 
1099	 0.122384207940945 
1100	 0.122288939357454 
1101	 0.122035543380139 
1102	 0.120745504640265 
1103	 0.12015674592146 
1104	 0.120676859287172 
1105	 0.119506874507253 
1106	 0.119210407853908 
1107	 0.118126026161994 
1108	 0.116582346911382 
1109	 0.117301960399743 
1110	 0.116919550333801 
1111	 0.115697683811717 
1112	 0.116461372651897 
1113	 0.121135378553077 
1114	 0.119979909765946 
1115	 0.114221830406697 
1116	 0.112113756972077 
1117	 0.101984245737096 
1118	 9.73921976714876E-02 
1119	 0.112708323368278 
1120	 0.117946222431324 
1121	 0.119133328672885 
1122	 0.114025436261526 
1123	 0.100001341275661 
1124	 0.103456054602882 
1125	 0.124212633762807 
1126	 0.117696458218098 
1127	 0.116971567420548 
1128	 0.122744556715243 
1129	 0.121723272664804 
1130	 0.118013599594511 
1131	 0.118410411036523 
1132	 0.117114459564936 
1133	 0.112835698379787 
1134	 0.110581733874582 
1135	 0.106244412689195 
1136	 9.69820663147765E-02 
1137	 9.37258840332186E-02 
1138	 9.37821747091215E-02 
1139	 8.90279545103683E-02 
1140	 8.22210214687262E-02 
1141	 9.21281880092572E-02 
1142	 9.84512112725765E-02 
1143	 9.39185621872029E-02 
1144	 0.101604921817643 
1145	 0.108702259416492 
1146	 0.10366621327265 
1147	 0.104606725880517 
1148	 0.108610654607802 
1149	 0.102139924898774 
1150	 9.82783738730261E-02 
1151	 9.47508940594387E-02 
1152	 9.63544655592853E-02 
1153	 0.100007112840155 
1154	 0.100883000194079 
1155	 0.103534879784687 
1156	 0.103262312673646 
1157	 0.101453841288909 
1158	 9.87681970883445E-02 
1159	 9.88014638551676E-02 
1160	 0.100087536906488 
1161	 0.10151673116275 
1162	 0.103021966485283 
1163	 0.101739514744664 
1164	 0.101359781748944 
1165	 0.102364991844353 
1166	 0.101167140639386 
1167	 0.100665917758057 
1168	 0.101412807657958 
1169	 0.10103965909685 
1170	 0.10011615648894 
1171	 0.100116898930441 
1172	 0.101100542027043 
1173	 0.101070153343101 
1174	 0.100464343955179 
1175	 0.101349658690522 
1176	 0.101651009716392 
1177	 0.101556562715093 
1178	 0.102359783728116 
1179	 0.102233585569297 
1180	 0.101680922482967 
1181	 0.10253019889465 
1182	 0.103017514672027 
1183	 0.103203630279634 
1184	 0.103214384038236 
1185	 0.102041061122498 
1186	 0.101287389459855 
1187	 0.101136421603084 
1188	 0.100877712259633 
1189	 0.100635184615519 
1190	 0.10066208597548 
1191	 0.100769133370839 
1192	 0.100958069319205 
1193	 0.101467406918251 
1194	 0.102423966427415 
1195	 0.102536956289125 
1196	 0.102003693970167 
1197	 0.101961341490724 
1198	 0.101872168568633 
1199	 0.101421216935688 
1200	 0.101406728683211 
1201	 0.101152022408929 
1202	 0.100682246166934 
1203	 0.100674584437284 
1204	 0.100904183406878 
1205	 0.101781994132858 
1206	 0.101794108618845 
1207	 0.101569340782136 
1208	 0.102899602048752 
1209	 0.10232926813057 
1210	 0.100750474475675 
1211	 0.101082657301407 
1212	 0.101499627771777 
1213	 0.10187040058332 
1214	 0.10166540682642 
1215	 0.102090297315271 
1216	 0.101528395377389 
1217	 0.100617332306213 
1218	 0.100466988148383 
1219	 0.101349994629472 
1220	 0.10191125463407 
1221	 0.101541264240969 
1222	 0.101050054569475 
1223	 0.101419285467478 
1224	 0.101763992808989 
1225	 0.101477727626533 
1226	 0.101544191692029 
1227	 0.101436192171294 
1228	 0.101630279581516 
1229	 0.10265622018635 
1230	 0.103149372421408 
1231	 0.103041857711971 
1232	 0.103068816340727 
1233	 0.102698959977593 
1234	 0.10220382607258 
1235	 0.102167243013484 
1236	 0.102417866507319 
1237	 0.102461000421491 
1238	 0.102704690118982 
1239	 0.102972855073567 
1240	 0.102804544932673 
1241	 0.102972715532212 
1242	 0.102718924450054 
1243	 0.102015406810918 
1244	 0.102003363324821 
1245	 0.102189973061967 
1246	 0.102395401599397 
1247	 0.103040443398875 
1248	 0.103060313641089 
1249	 0.102741819298737 
1250	 0.103112572567546 
1251	 0.103498074848532 
1252	 0.103651747311617 
1253	 0.103520855833973 
1254	 0.103532297745626 
1255	 0.103467198772584 
1256	 0.103161723107752 
1257	 0.103102965306813 
1258	 0.103015931999477 
1259	 0.102011943236883 
1260	 0.102156972553624 
1261	 0.103680780566103 
1262	 0.103850078322312 
1263	 0.10365709184655 
1264	 0.103637023108603 
1265	 0.103330396995497 
1266	 0.103164814275967 
1267	 0.103462366878353 
1268	 0.103988376063981 
1269	 0.104664874213688 
1270	 0.104530735420592 
1271	 0.104104830632267 
1272	 0.104270014646875 
1273	 0.103565228885631 
1274	 0.103032560030802 
1275	 0.103386954111861 
1276	 0.10319908621434 
1277	 0.1026529644096 
1278	 0.102755837576269 
1279	 0.103134049687346 
1280	 0.103121146430228 
1281	 0.10283685804892 
1282	 0.101977458629975 
1283	 0.10202884439776 
1284	 0.102501820934329 
1285	 0.102591868381381 
1286	 0.103402180274936 
1287	 0.103532929978431 
1288	 0.102394010168469 
1289	 0.101986858277675 
1290	 0.101771210811647 
1291	 0.102054145060725 
1292	 0.102166400769452 
1293	 0.101981320327869 
1294	 0.102239834226923 
1295	 0.101979594581218 
1296	 0.101542453575071 
1297	 0.101454036281718 
1298	 0.100207569049561 
1299	 0.100031111623377 
1300	 0.101369104547933 
1301	 0.101952013575142 
1302	 0.102868919692474 
1303	 0.103861726286767 
1304	 0.103550635824865 
1305	 0.102734713153287 
1306	 0.102497005968089 
1307	 0.102790367687854 
1308	 0.102962128935562 
1309	 0.103127479329098 
1310	 0.102858149469609 
1311	 0.102414813744731 
1312	 0.101638403279007 
1313	 0.100412406848351 
1314	 9.98855581276303E-02 
1315	 9.88627285633396E-02 
1316	 0.098768344435587 
1317	 0.100748775408805 
1318	 0.100651755908048 
1319	 9.92877720180724E-02 
1320	 9.92529011929148E-02 
1321	 0.098828991207332 
1322	 9.77183054293616E-02 
1323	 9.74922771531525E-02 
1324	 9.99395223506996E-02 
1325	 0.101848103043195 
1326	 9.88219362242952E-02 
1327	 9.77762129184083E-02 
1328	 9.84686973058668E-02 
1329	 9.71206090930968E-02 
1330	 9.66657795417215E-02 
1331	 0.097947988759026 
1332	 9.98597061844663E-02 
1333	 9.93570485994862E-02 
1334	 0.100665842120877 
1335	 0.10115824362865 
1336	 9.96426582797117E-02 
1337	 0.097079211889023 
1338	 9.37975933199239E-02 
1339	 9.33624002235344E-02 
1340	 9.32013430029389E-02 
1341	 9.31850787519255E-02 
1342	 0.095939212359772 
1343	 9.67323392000986E-02 
1344	 9.74618216472075E-02 
1345	 9.60510657417008E-02 
1346	 8.90625799200023E-02 
1347	 8.90685632173107E-02 
1348	 9.27600291819183E-02 
1349	 8.92547559315776E-02 
1350	 9.36251874743612E-02 
1351	 9.60498741509697E-02 
1352	 6.35276460857012E-02 
1353	 3.14835901722712E-02 
1354	-3.33292811346154E-02 
1355	 4.28351166588898E-02 
1356	 0.303612790213887 
1357	 0.469576422217388 
1358	 0.492274161518649 
1359	 0.66752635292333 
1360	 0.454744781650254 
1361	-0.155457736724925 
1362	-1.54882112740167 
1363	 1.76500396786724 
1364	-0.410338642286332 
1365	-0.205538426423429 
1366	 0.19376884398572 
1367	-0.127998898468106 
1368	-0.404107711539384 
1369	-0.950199147438295 
1370	-0.925143319588494 
1371	-0.804670571600419 
1372	-0.767461584267801 
1373	-0.133492614537656 
1374	-7.74033356651999E-02 
1375	-1.81930110051568 
1376	-2.75943907848697 
1377	-3.77784576889375 
1378	-19.7387485751838 
1379	 16.0311905442778 
1380	-21.2675426372609 
1381	 5.14475218585782 
1382	-16.2038965744231 
1383	-0.565558930041884 
1384	-0.3649761893212 
1385	-9.78589482680754E-02 
1386	-4.69745677855578E-02 
1387	-0.156040652135316 
1388	-0.177681939943466 
1389	-0.608439672719258 
1390	-1.08549483997002 
1391	-1.01012422401985 
1392	-1.26587750755748 
1393	-1.23412794541038 
1394	-0.264531426457472 
1395	-0.254783289046338 
1396	-0.43509777427748 
1397	-0.335643520743014 
1398	-0.224684841223828 
1399	 0.469022751651276 
1400	 0.899050548959021 
1401	 0.565965938725135 
1402	-1.55054747072031E-02 
1403	-0.264275661552724 
1404	-0.190393802574132 
1405	-0.106461456130916 
1406	 0.871116811047605 
1407	 1.09951869991815 
1408	 0.954471681178571 
1409	 0.526344192045765 
1410	-0.125355623012031 
1411	-0.520010992785789 
1412	-1.42247370667164 
1413	-1.51333949401516 
1414	-1.1429989673249 
1415	-0.789455068489429 
1416	-6.67692021102705E-02 
1417	-0.131552479247513 
1418	-1.40041838389473 
1419	-1.22329892155813 
1420	-1.15028801373499 
1421	-0.86206635644264 
1422	 1.51720540208806E-03 
1423	 0.14872531142885 
1424	 0.065874221665772 
1425	 5.49605852239278E-02 
1426	 0.134613978595176 
1427	 0.124587820044122 
1428	-1.98114843260041E-02 
1429	-6.61911154193894E-02 
1430	-8.35644455532866E-02 
1431	-0.073487814989984 
1432	 1.35944128871458E-02 
1433	 5.01944613394294E-02 
1434	 0.076713570599052 
1435	 8.31471104222279E-02 
1436	 3.60903266056342E-02 
1437	 1.47115380513947E-02 
1438	 5.03273524021381E-02 
1439	 3.09739490923734E-02 
1440	-2.18666975790137E-02 
1441	-0.023368176601247 
1442	-6.18733596359309E-02 
1443	-4.81272827760788E-02 
1444	-1.49890785039297E-02 
1445	 2.51573720474475E-02 
1446	 7.91278685198808E-02 
1447	 7.96372319097366E-02 
1448	 7.51159206367381E-02 
1449	 7.00819518237431E-02 
1450	 7.48467784167713E-02 
1451	 7.96012829335638E-02 
1452	 3.54136969592656E-02 
1453	 1.85874831924979E-02 
1454	 2.50761068419936E-02 
1455	 3.21258990447873E-02 
1456	 3.13944678684337E-02 
1457	 5.04960835559476E-02 
1458	 5.92667845670271E-02 
1459	 0.052580038023559 
1460	 4.90721007612421E-02 
1461	 5.77050172820217E-02 
1462	 5.82046220315167E-02 
1463	 3.91813936696868E-02 
1464	 3.79548107842601E-02 
1465	 5.44492537476461E-02 
1466	 5.81288144856635E-02 
1467	 6.25571491146963E-02 
1468	 0.05585249036066 
1469	 3.27421099046876E-02 
1470	 3.11914280350005E-02 
1471	 0.033360321798534 
1472	 0.033696654840437 
1473	 5.10071905133798E-02 
1474	 5.26531757464162E-02 
1475	 0.037162070922072 
1476	 3.50377610268782E-02 
1477	 3.87217904694338E-02 
1478	 3.98793912402519E-02 
1479	 4.15569505869792E-02 
1480	 4.54797025938261E-02 
1481	 5.11302159163624E-02 
1482	 5.14361427460677E-02 
1483	 5.01532344153203E-02 
1484	 5.09587337710106E-02 
1485	 4.87023836865196E-02 
1486	 5.05895463126669E-02 
1487	 5.63047385273799E-02 
1488	 0.058256640194611 
1489	 5.96969494173761E-02 
1490	 6.03034475547364E-02 
1491	 6.03922305950572E-02 
1492	 5.97624675262738E-02 
1493	 5.69064839439153E-02 
1494	 5.74874765516536E-02 
1495	 6.06885792438469E-02 
1496	 6.04069405668631E-02 
1497	 5.91652885732302E-02 
1498	 5.95968237838231E-02 
1499	 5.92452085054237E-02 
1500	 5.87413558409766E-02 
1501	 0.059381820608243 
1502	 0.060056045328117 
1503	 6.04217301756058E-02 
1504	 6.00082256659984E-02 
1505	 5.91249244067798E-02 
1506	 5.97044423580942E-02 
1507	 6.04216357414204E-02 
1508	 5.98294183186203E-02 
1509	 6.04590856110608E-02 
1510	 6.18443122672782E-02 
1511	 6.10269908410683E-02 
1512	 5.99404996748379E-02 
1513	 6.07592569083607E-02 
1514	 0.061556121340262 
1515	 6.21853938505699E-02 
1516	 6.35533299911941E-02 
1517	 6.41893194831885E-02 
1518	 6.35310909407775E-02 
1519	 6.33193531961332E-02 
1520	 6.40074308102971E-02 
1521	 6.43386310833108E-02 
1522	 6.43332250846669E-02 
1523	 6.43757749991248E-02 
1524	 6.40943757352776E-02 
1525	 6.37903661501893E-02 
1526	 0.063673219311481 
1527	 6.43278276004506E-02 
1528	 6.47131906565211E-02 
1529	 6.44092988819171E-02 
1530	 0.065091181088092 
1531	 6.52477796295417E-02 
1532	 6.52223714842125E-02 
1533	 6.63240172036906E-02 
1534	 6.68080129589622E-02 
1535	 6.72775318931398E-02 
1536	 0.068102474605236 
1537	 6.83581144348225E-02 
1538	 6.87686834297118E-02 
1539	 6.88475669406336E-02 
1540	 6.86735939479136E-02 
1541	 6.84955282289401E-02 
1542	 6.79280483133674E-02 
1543	 6.83239517211503E-02 
1544	 6.90620119814889E-02 
1545	 6.94748217716063E-02 
1546	 7.02211971963539E-02 
1547	 7.07111127842676E-02 
1548	 7.09789114354569E-02 
1549	 7.05662324005636E-02 
1550	 6.99369157288579E-02 
1551	 7.04357846368045E-02 
1552	 7.07659418829099E-02 
1553	 7.04028168276822E-02 
1554	 7.05327861477061E-02 
1555	 0.070905287071715 
1556	 0.070660486204524 
1557	 7.03138805031604E-02 
1558	 7.14905936412762E-02 
1559	 0.072419670523811 
1560	 7.13955788847434E-02 
1561	 7.14405156014568E-02 
1562	 7.24260074928648E-02 
1563	 7.24288898646206E-02 
1564	 7.23870135473827E-02 
1565	 7.36633761494269E-02 
1566	 7.49662265477283E-02 
1567	 0.074539802083939 
1568	 7.44928101687235E-02 
1569	 7.42548570204005E-02 
1570	 7.29715478496826E-02 
1571	 7.31329707117379E-02 
1572	 7.37080665331216E-02 
1573	 7.34308630097195E-02 
1574	 7.31991353734012E-02 
1575	 7.29523786478379E-02 
1576	 7.28160769785884E-02 
1577	 7.38066763630355E-02 
1578	 0.075169654479899 
1579	 0.075074894523949 
1580	 7.48104829310695E-02 
1581	 7.51171114309669E-02 
1582	 7.49361931284976E-02 
1583	 7.50874054513135E-02 
1584	 7.59256201826736E-02 
1585	 7.68934462161308E-02 
1586	 7.74751650815153E-02 
1587	 7.76084545987266E-02 
1588	 7.78929583917528E-02 
1589	 7.75073320711249E-02 
1590	 7.60764981107263E-02 
1591	 7.53252955604182E-02 
1592	 7.60758021032564E-02 
1593	 7.70260723999861E-02 
1594	 7.74927154285117E-02 
1595	 7.79352776678844E-02 
1596	 7.76942336744347E-02 
1597	 7.72812633717553E-02 
1598	 7.74706663710878E-02 
1599	 7.76474822910021E-02 
1600	 7.78736497007028E-02 
1601	 0.077974043159113 
1602	 7.81832100574707E-02 
1603	 7.84684642491624E-02 
1604	 7.85859915902676E-02 
1605	 7.88034871878506E-02 
1606	 7.88849450454307E-02 
1607	 7.91915493400366E-02 
1608	 7.99282873064688E-02 
1609	 8.00217853221722E-02 
1610	 7.94306132503834E-02 
1611	 8.02155175921455E-02 
1612	 8.07802108191284E-02 
1613	 7.99157049919689E-02 
1614	 7.99483324442908E-02 
1615	 7.99044266547668E-02 
1616	 7.91595033367469E-02 
1617	 7.83378255893925E-02 
1618	 7.76790364080537E-02 
1619	 7.77315375919744E-02 
1620	 7.80535341079989E-02 
1621	 7.94014351914288E-02 
1622	 8.14378028238148E-02 
1623	 8.16324515767958E-02 
1624	 8.09126860835708E-02 
1625	 8.03885810681457E-02 
1626	 8.01396372199362E-02 
1627	 8.07699988450615E-02 
1628	 8.01322034744117E-02 
1629	 7.92077246776481E-02 
1630	 7.94363432005675E-02 
1631	 7.84888960159163E-02 
1632	 7.84382752994426E-02 
1633	 8.03241342940139E-02 
1634	 8.11832689677667E-02 
1635	 8.13912921588137E-02 
1636	 0.081916699175632 
1637	 8.18999633697909E-02 
1638	 8.14883801079284E-02 
1639	 8.19120528536042E-02 
1640	 8.23304442887768E-02 
1641	 8.13710150323563E-02 
1642	 8.03861567353157E-02 
1643	 8.07400444328705E-02 
1644	 8.18932014841063E-02 
1645	 8.23264230610361E-02 
1646	 8.16390780104785E-02 
1647	 8.11909142783153E-02 
1648	 8.11249445311425E-02 
1649	 8.11290706711901E-02 
1650	 8.20276547580904E-02 
1651	 8.25202930307441E-02 
1652	 8.17331110347616E-02 
1653	 8.25492267459116E-02 
1654	 8.25602476754038E-02 
1655	 8.10573626276308E-02 
1656	 8.05890611230639E-02 
1657	 8.06492932616569E-02 
1658	 8.08654748254693E-02 
1659	 8.22947099121228E-02 
1660	 0.082351752574606 
1661	 8.08009834720229E-02 
1662	 8.06639593641837E-02 
1663	 8.12021327977257E-02 
1664	 8.09526361522816E-02 
1665	 8.10634005105691E-02 
1666	 8.12430648379366E-02 
1667	 8.03669897471937E-02 
1668	 8.07308302742496E-02 
1669	 8.14876869121561E-02 
1670	 8.08725748354987E-02 
1671	 8.02496895084468E-02 
1672	 8.07180119723144E-02 
1673	 8.14165933582857E-02 
1674	 0.082751631879387 
1675	 8.35467660571393E-02 
1676	 8.32779633108367E-02 
1677	 8.28927209703298E-02 
1678	 8.16628858051669E-02 
1679	 8.11479474749661E-02 
1680	 8.20080489523669E-02 
1681	 8.27384248067162E-02 
1682	 8.28085730626521E-02 
1683	 8.27074041202685E-02 
1684	 8.28244069624331E-02 
1685	 8.18434041142554E-02 
1686	 8.05617243647378E-02 
1687	 8.08631035221206E-02 
1688	 8.14196877556395E-02 
1689	 8.19409638714444E-02 
1690	 8.33555320559495E-02 
1691	 8.41933936756903E-02 
1692	 0.083472366285752 
1693	 8.21131832692086E-02 
1694	 8.10093759373121E-02 
1695	 8.08134463275744E-02 
1696	 8.07307083087244E-02 
1697	 8.06584345243421E-02 
1698	 0.081223322080668 
1699	 0.080950337875438 
1700	 8.02926098494242E-02 
1701	 8.07508928877549E-02 
1702	 8.15572017116659E-02 
1703	 8.21796656597916E-02 
1704	 8.32425815938751E-02 
1705	 8.40353980854522E-02 
1706	 8.27940178379489E-02 
1707	 8.16051743081677E-02 
1708	 8.20233967474204E-02 
1709	 8.15303359684232E-02 
1710	 8.05260651151385E-02 
1711	 8.07468178691194E-02 
1712	 8.09093120648957E-02 
1713	 8.17828659204655E-02 
1714	 8.17604678889595E-02 
1715	 8.07287561869935E-02 
1716	 8.11168438605113E-02 
1717	 8.14323595176028E-02 
1718	 0.082627919629607 
1719	 8.21623151124916E-02 
1720	 8.09061553036232E-02 
1721	 8.12051822033443E-02 
1722	 8.03963868255901E-02 
1723	 8.06021324498927E-02 
1724	 8.17697146836481E-02 
1725	 8.02868407937074E-02 
1726	 7.89767637471048E-02 
1727	 7.89776622525866E-02 
1728	 7.83841327674056E-02 
1729	 7.71691483749664E-02 
1730	 7.70931446532763E-02 
1731	 7.74617078578203E-02 
1732	 7.61336049363791E-02 
1733	 0.076477816724362 
1734	 7.72886986981649E-02 
1735	 7.57123645500735E-02 
1736	 7.59404679595085E-02 
1737	 7.74661726201936E-02 
1738	 7.79344516417181E-02 
1739	 8.02225519622294E-02 
1740	 0.081511255952969 
1741	 7.94040859453558E-02 
1742	 7.94478772985055E-02 
1743	 7.95905819561955E-02 
1744	 0.078643157095728 
1745	 7.95620698752555E-02 
1746	 7.94841638792558E-02 
1747	 7.89679542522032E-02 
1748	 7.76012244793653E-02 
1749	 0.076780845401349 
1750	 7.61143805011914E-02 
1751	 7.54388085533756E-02 
1752	 7.55521177975888E-02 
1753	 7.62735260009441E-02 
1754	 7.65708343041447E-02 
1755	 7.64138410454695E-02 
1756	 7.71586406756054E-02 
1757	 0.076254796371606 
1758	 7.66844489036743E-02 
1759	 7.85090418295275E-02 
1760	 0.075954088293205 
1761	 7.20664866030421E-02 
1762	 0.069866373521974 
1763	 6.95925720663944E-02 
1764	 7.10758930491684E-02 
1765	 7.45243174484919E-02 
1766	 7.78413951593676E-02 
1767	 7.71785918579629E-02 
1768	 7.74709768735255E-02 
1769	 7.58548143315552E-02 
1770	 7.30413361836552E-02 
1771	 7.80723244125272E-02 
1772	 0.078449970640867 
1773	 7.33986616310697E-02 
1774	 7.66597980971348E-02 
1775	 7.09217570760059E-02 
1776	 6.92765172911834E-02 
1777	 7.76695895102958E-02 
1778	 7.88165679823242E-02 
1779	 7.75144274853577E-02 
1780	 7.75517102138647E-02 
1781	 7.19532864504369E-02 
1782	 6.85772831849353E-02 
1783	 6.64377109782755E-02 
1784	 6.29985748657414E-02 
1785	 6.18609016619742E-02 
1786	 6.27159002045437E-02 
1787	 5.97892484944045E-02 
1788	 0.061765181390158 
1789	 6.93144031598861E-02 
1790	 6.79101015187448E-02 
1791	 0.085866274917627 
1792	 0.101534226461386 
1793	 0.106582062362185 
1794	 9.69808613316488E-02 
1795	 7.63883863422799E-02 
1796	 4.10013354689524E-02 
1797	-6.95343959558975E-03 
1798	-0.035406049786615 
1799	-5.25254149342961E-02 
1800	-5.91464490491667E-02 
1801	-5.89634140792093E-02 
1802	-1.76237533707408E-02 
1803	 6.01688991268232E-03 
1804	 6.32658274659829E-02 
1805	 9.59949878290071E-02 
1806	 4.77512609521253E-02 
1807	-6.94950556925109E-02 
1808	-0.365795447348301 
1809	-0.537542157702524 
1810	-0.485329350840054 
1811	-0.665923002250058 
1812	-0.985352231822737 
1813	-3.23168168394364 
1814	 2.27035178019431 
1815	 1.39834496876432 
1816	 0.122465092211312 
1817	 7.97545981114474E-02 
1818	 0.142990044307402 
1819	-1.36222431455877 
1820	-1.32517416546127 
1821	 9.53019550446938 
1822	 2.9111688816755 
1823	 13.4198583377498 
1824	-34.6965079094271 
1825	-0.429020296489166 
1826	 0.107305570057346 
1827	 0.844981372652107 
1828	 0.975705509738614 
1829	 0.145364706675708 
1830	-0.60395500778751 
1831	 0.379512469618211 
1832	 0.448430502332443 
1833	 1.14772632428805 
1834	 1.52568458735756 
1835	 20.2583184117673 
1836	-14.9748267675073 
1837	 1.35270055745935E-02 
1838	-0.406754386195658 
1839	-1.04401488641455 
1840	 0.501625240360264 
1841	 2.29183336518162 
1842	 4.28481523106623 
1843	 4.04793909519286 
1844	 0.927245348191279 
1845	 0.548901048480455 
1846	 0.151899689735056 
1847	 0.121326521853434 
1848	 0.555299416675963 
1849	 0.396461690541833 
1850	 0.143280587921137 
1851	 0.235081058585384 
1852	 0.950010108745941 
1853	 1.06262964909821 
1854	 1.67690456342844 
1855	-4.30613183455914 
1856	-0.325674512413333 
1857	 0.542753827662225 
1858	 0.657643195279519 
1859	 0.90784090223507 
1860	 1.43891463344381 
1861	 2.12769871739277 
1862	 3.17196619348738 
1863	-39.9292121986257 
1864	-9.44656788706774 
1865	-15.3629099478935 
1866	 2.2130206880656 
1867	 1.31702228266828 
1868	 0.2137465781369 
1869	 4.36982229325509E-02 
1870	 0.17188294162627 
1871	 0.405217459604076 
1872	 2.0609200960013 
1873	 3.45661728845101 
1874	 30.3118186656174 
1875	-1.45533657664108 
1876	-1.06848278182975 
1877	 8.93189393742632 
1878	 2.61025704879384 
1879	-7.65593068927311 
1880	-6.20697130608839 
1881	-1.27277172600255 
1882	 80.1050344359708 
1883	 2.28746565754814 
1884	 4.155421633463 
1885	 0.233182581389901 
1886	 0.583120561938417 
1887	-0.934346583382634 
1888	-0.108153674999294 
1889	-0.363997655561348 
1890	-0.875369767772818 
1891	-1.1380323217962 
1892	-2.69954458229661 
1893	 6.06785746617794 
1894	 1.18748111616576 
1895	 0.699834730515785 
1896	 0.685103913712811 
1897	 0.445988741643014 
1898	 3.56635917509577E-03 
1899	-1.14322803382162 
1900	 13.6040747480493 
1901	-1.0184934104502 
1902	-2.14116413151358 
1903	-45.8788810984565 
1904	 2.59998526719381 
1905	 4.61035072010823 
1906	 1.8896712343599 
1907	 0.294145382567067 
1908	 0.816193986662011 
1909	 0.226687499778501 
1910	 5.04108101792981E-02 
1911	 0.52096058942681 
1912	 1.03465194966981 
1913	 1.18842988890509 
1914	 1.77700126818428 
1915	 3.45947563232681 
1916	 3.22781083990597 
1917	 2.36297179086256 
1918	 1.18503424604908 
1919	 2.03433612934969 
1920	 272.346687549537 
1921	-5.29625274391411 
1922	 2.48248681609077 
1923	 2.25569934827406 
1924	 8.00950470817661 
1925	-3.63939882933005 
1926	-2.95453937876176 
1927	-14.0048925247171 
1928	-20.0092113158176 
1929	-60.4745857337542 
1930	 5.89748978573346 
1931	 2.32748269275915 
1932	 2.36493997698139 
1933	 3.30375703365235 
1934	-50.1615936634401 
1935	-2.17937923927657 
1936	-1.72584336749911 
1937	-1.67772635197996 
1938	-2.22858614666329 
1939	-3.80573262908927 
1940	 1.96224373978558 
1941	-6.97486887060419E-02 
1942	 17.1798360775704 
1943	 1.86056464418369 
1944	 2.37985414669937 
1945	 1.66125471623632 
1946	 2.1586244350212 
1947	 2.85546409227328 
1948	 1.07649354593498 
1949	 0.545478923260218 
1950	 0.520857343876386 
1951	 0.616209101325049 
1952	 0.476300972202991 
1953	 0.200309579083291 
1954	 4.12195025376424E-02 
1955	 6.59008908993205E-02 
1956	-0.028404394821708 
1957	 2.44927812468639E-02 
1958	 0.137906347703654 
1959	-0.029010032715325 
1960	-0.114260633653842 
1961	-0.112351232287322 
1962	-0.110417549224861 
1963	-8.31945288287583E-02 
1964	-7.83306430386553E-02 
1965	-8.63359157563915E-02 
1966	-6.82971968190792E-02 
1967	-4.60998631820199E-02 
1968	-1.92205232580471E-02 
1969	-8.88214685778265E-04 
1970	 2.37393098176874E-02 
1971	 4.41707422036136E-02 
1972	 3.67552611565496E-02 
1973	 3.71167146915057E-02 
1974	 4.34052203932877E-02 
1975	 3.21763980219996E-02 
1976	 2.89123234192184E-02 
1977	 2.81799566883881E-02 
1978	 2.97663147272072E-02 
1979	 0.029323357151377 
1980	 3.00701329418355E-02 
1981	 2.54902425464422E-02 
1982	 2.63318135229812E-02 
1983	 2.76079855852351E-02 
1984	 2.34732043967196E-02 
1985	 2.60984210725075E-02 
1986	 3.48703108410988E-02 
1987	 3.45492978694909E-02 
1988	 0.040735404068589 
1989	 4.80222476700693E-02 
1990	 4.75302618637067E-02 
1991	 5.25638626667415E-02 
1992	 5.16741159291758E-02 
1993	 4.87506760547566E-02 
1994	 0.050225705561381 
1995	 0.055186509235335 
1996	 0.054297304273679 
1997	 5.04855163503934E-02 
1998	 5.07409472602993E-02 
1999	 4.32221858404713E-02 
2000	 3.25770080872056E-02 
2001	 4.33170696529237E-02 
2002	 5.91602973272038E-02 
2003	 6.60306442023373E-02 
2004	 6.59833431959612E-02 
2005	 4.88232162528815E-02 
2006	 2.28998158184425E-02 
2007	 4.77335604527456E-03 
2008	-1.06442774919566E-02 
2009	-1.44538128919044E-02 
2010	-0.012772013221679 
2011	 6.03871648687305E-04 
2012	 2.80591119165176E-02 
2013	 5.87724302408859E-02 
2014	 6.07868591167365E-02 
2015	 4.87136351848589E-02 
2016	 3.87140282971561E-02 
2017	 2.94453778737606E-02 
2018	 3.97510783193664E-02 
2019	 4.90239572345079E-02 
2020	 4.74893357350876E-02 
2021	 4.79219231546246E-02 
2022	 4.85833311057081E-02 
2023	 5.17241400350587E-02 
2024	 4.90795904366719E-02 
2025	 4.31041786381001E-02 
2026	 3.96890699186082E-02 
2027	 3.46841085007749E-02 
2028	 2.95922658487096E-02 
2029	 2.74006071679486E-02 
2030	 3.11441202562377E-02 
2031	 3.42409638648052E-02 
2032	 3.71098940296806E-02 
2033	 3.95649607268519E-02 
2034	 4.05291663608295E-02 
2035	 3.89649337305395E-02 
2036	 3.76709794603668E-02 
2037	 4.05099594955834E-02 
2038	 4.44801096628799E-02 
2039	 4.72067438522954E-02 
2040	 0.051353202435112 
2041	 5.21592787756786E-02 
2042	 5.03665997045243E-02 
2043	 4.93853126145204E-02 
2044	 4.62773358996205E-02 
2045	 4.53403902893854E-02 
2046	 4.57221398305678E-02 
2047	 4.71889358031356E-02 
2048	 4.77568485735299E-02 
2049	 4.45553299386983E-02 
2050	 3.99636027211915E-02 
2051	 3.71985609760208E-02 
2052	 3.89675528767508E-02 
2053	 4.03290515352291E-02 
2054	 3.92248380127947E-02 
2055	 3.72999437258462E-02 
2056	 3.67217868892871E-02 
2057	 3.47579874709685E-02 
2058	 3.40412145306743E-02 
2059	 3.44009224173338E-02 
2060	 3.54355572247523E-02 
2061	 3.67560006100016E-02 
2062	 3.42380601064876E-02 
2063	 3.67428098281964E-02 
2064	 4.66103412803934E-02 
2065	 5.13243997468195E-02 
2066	 5.72813774696587E-02 
2067	 6.01679647138739E-02 
2068	 5.83676061408775E-02 
2069	 6.14325861537287E-02 
2070	 5.94512935752655E-02 
2071	 5.66135113262319E-02 
2072	 5.51401629723376E-02 
2073	 0.051581748613173 
2074	 4.27674969627261E-02 
2075	 4.02911854865014E-02 
2076	 4.12790111456341E-02 
2077	 4.00231707932122E-02 
2078	 0.039280485607585 
2079	 3.98614391079054E-02 
2080	 3.96457345319836E-02 
2081	 4.03521510647494E-02 
2082	 4.46545016338737E-02 
2083	 4.61439095414893E-02 
2084	 4.84225011531738E-02 
2085	 4.99055299384283E-02 
2086	 4.68497036906374E-02 
2087	 4.48688939807208E-02 
2088	 4.43199032254588E-02 
2089	 4.08410672335618E-02 
2090	 4.17576002751091E-02 
2091	 4.63209022637311E-02 
2092	 4.81341106141431E-02 
2093	 0.050714331264563 
2094	 5.08133900734741E-02 
2095	 4.83516385074982E-02 
2096	 4.61249583151487E-02 
2097	 3.99863123153409E-02 
2098	 3.84679533279333E-02 
2099	 3.84380376807634E-02 
2100	 4.20622728812708E-02 
2101	 4.38796126593948E-02 
2102	 4.64149227985785E-02 
2103	 4.79627854381015E-02 
2104	 4.37082017265822E-02 
2105	 4.62246923503404E-02 
2106	 5.04499196440904E-02 
2107	 5.37152619817539E-02 
2108	 5.93921939475561E-02 
2109	 0.05878158135199 
2110	 5.70142778154482E-02 
2111	 0.053835305544296 
2112	 5.29666906874441E-02 
2113	 5.40010933957143E-02 
2114	 5.85148254174023E-02 
2115	 5.87911545793294E-02 
2116	 5.95721034910171E-02 
2117	 5.81945147716813E-02 
2118	 5.20714573791105E-02 
2119	 5.08470700004686E-02 
2120	 5.13850828073216E-02 
2121	 5.15682744701669E-02 
2122	 5.63358281921675E-02 
2123	 0.057445703271142 
2124	 5.68525629437389E-02 
2125	 5.66550510966578E-02 
2126	 5.35591749811108E-02 
2127	 5.41615744594294E-02 
2128	 5.54017123269238E-02 
2129	 5.54983160662426E-02 
2130	 5.71939476523379E-02 
2131	 5.69202884185567E-02 
2132	 5.61366189658628E-02 
2133	 5.83329997488346E-02 
2134	 0.058848960114185 
2135	 5.88760534439969E-02 
2136	 5.84129843510085E-02 
2137	 5.78321626228238E-02 
2138	 5.55379481273889E-02 
2139	 5.07446321900534E-02 
2140	 4.95747345970947E-02 
2141	 4.98707677502527E-02 
2142	 4.92556379792335E-02 
2143	 5.00886856973634E-02 
2144	 4.89900638214551E-02 
2145	 5.39251819221203E-02 
2146	 5.81412345619072E-02 
2147	 6.31801748569504E-02 
2148	 7.13271624277404E-02 
2149	 6.67081711588947E-02 
2150	 5.76557300753841E-02 
2151	 5.36905651125202E-02 
2152	 5.01470197398325E-02 
2153	 4.99224296873392E-02 
2154	 4.97749032149253E-02 
2155	 4.93024196283699E-02 
2156	 4.86095216164633E-02 
2157	 0.048430030392264 
2158	 4.98532647222681E-02 
2159	 5.22784094766048E-02 
2160	 5.45859841490703E-02 
2161	 5.57647252219598E-02 
2162	 5.98142427774524E-02 
2163	 5.95796501986049E-02 
2164	 5.49745089698247E-02 
2165	 5.43122048232973E-02 
2166	 5.27112725294006E-02 
2167	 5.15607627125673E-02 
2168	 5.19738319094788E-02 
2169	 5.30498333422614E-02 
2170	 0.054237469467319 
2171	 5.70944668137504E-02 
2172	 6.02782206506467E-02 
2173	 5.84467547938893E-02 
2174	 5.83551038904145E-02 
2175	 5.82843167923365E-02 
2176	 0.051047177004523 
2177	 5.13118631840243E-02 
2178	 5.21003265087102E-02 
2179	 4.89737690553461E-02 
2180	 0.0525933966729 
2181	 5.75239965433101E-02 
2182	 6.43327352254515E-02 
2183	 6.67994095125136E-02 
2184	 6.50723999562021E-02 
2185	 6.50952878808208E-02 
2186	 6.05403230039924E-02 
2187	 4.54950340122161E-02 
2188	 4.03409713071748E-02 
2189	 3.92405026192545E-02 
2190	 3.56969652717671E-02 
2191	 3.20190277735397E-02 
2192	 3.41704832331135E-02 
2193	 4.21960441031276E-02 
2194	 4.43078699172152E-02 
2195	 4.93786321716623E-02 
2196	 5.06698371317788E-02 
2197	 4.23954217645602E-02 
2198	 3.80655562909467E-02 
2199	 3.18889972258976E-02 
2200	 3.52935302743053E-02 
2201	 4.50804244850662E-02 
2202	 4.78284411036439E-02 
2203	 5.13629808594492E-02 
2204	 5.79068095043785E-02 
2205	 5.44557774759276E-02 
2206	 4.84102677919456E-02 
2207	 4.78430815845742E-02 
2208	 4.82342558780414E-02 
2209	 4.51912148339772E-02 
2210	 4.11133328025512E-02 
2211	 3.83784539964733E-02 
2212	 3.54064622553076E-02 
2213	 0.032668825531728 
2214	 3.76115202420207E-02 
2215	 4.85382016523453E-02 
2216	 0.049818732257264 
2217	 5.10432186508559E-02 
2218	 5.11910771204094E-02 
2219	 5.30335692652947E-02 
2220	 5.33872352453029E-02 
2221	 0.054597034908527 
2222	 5.90836763137988E-02 
2223	 5.55911601679193E-02 
2224	 4.40421492564748E-02 
2225	 4.04013970568811E-02 
2226	 3.51171229555587E-02 
2227	 3.53345114826842E-02 
2228	 4.58171609195378E-02 
2229	 4.90125502956215E-02 
2230	 0.050391999700971 
2231	 5.31930967276703E-02 
2232	 0.053238030117983 
2233	 5.30467799804709E-02 
2234	 5.50186974171425E-02 
2235	 0.054945297810874 
2236	 4.55613255163105E-02 
2237	 4.35515947679036E-02 
2238	 4.04781090852102E-02 
2239	 3.53668092020313E-02 
2240	 4.20967698927404E-02 
2241	 5.23116379704233E-02 
2242	 6.44237272375882E-02 
2243	 0.06617769037354 
2244	 5.84388588409984E-02 
2245	 4.84998661082148E-02 
2246	 3.85785815177679E-02 
2247	 4.61609739435408E-02 
2248	 5.67244802357507E-02 
2249	 5.80811821146388E-02 
2250	 5.60310621510704E-02 
2251	 4.55877756692101E-02 
2252	 3.33728803429665E-02 
2253	 3.01947326161254E-02 
2254	 3.35804033724123E-02 
2255	 3.89156674874971E-02 
2256	 4.21110673121313E-02 
2257	 4.96242622760385E-02 
2258	 5.75410926398955E-02 
2259	 5.73428215347813E-02 
2260	 5.63586216424291E-02 
2261	 5.74465080440555E-02 
2262	 5.18284785192134E-02 
2263	 0.034556142171928 
2264	 3.16676650975671E-02 
2265	 3.02935278635465E-02 
2266	 3.35476911043075E-02 
2267	 5.26071749247121E-02 
2268	 5.49947601210923E-02 
2269	 5.09689131942936E-02 
2270	 4.88645316358208E-02 
2271	 4.04713150511813E-02 
2272	 3.38773736883289E-02 
2273	 2.45460416391387E-02 
2274	 0.021541947089264 
2275	 1.56615247263115E-02 
2276	 1.82844029046724E-02 
2277	 3.68637170725843E-02 
2278	 4.75031843660052E-02 
2279	 6.24955090334987E-02 
2280	 6.85649983551659E-02 
2281	 6.45498388343219E-02 
2282	 6.53778508521096E-02 
2283	 6.24441226346393E-02 
2284	 5.78291552226712E-02 
2285	 5.06597190619636E-02 
2286	 4.59447469024765E-02 
2287	 5.46756195632571E-02 
2288	 0.062181058263455 
2289	 6.86841113604934E-02 
2290	 6.35536412902428E-02 
2291	 4.37377053542492E-02 
2292	 3.13881115846869E-02 
2293	 2.05602820390341E-02 
2294	 1.82061143269838E-02 
2295	 2.78820430541636E-02 
2296	 1.99914954438573E-02 
2297	 2.03434961455934E-02 
2298	 0.025577725424709 
2299	 2.55785581292912E-02 
2300	 4.70629981515942E-02 
2301	 6.56960750217633E-02 
2302	 6.98768834250055E-02 
2303	 7.17051319353076E-02 
2304	 5.64277825541269E-02 
2305	 3.67329528033139E-02 
2306	 3.52975710315598E-02 
2307	 9.42649095304596E-03 
2308	-7.10202110623163E-03 
2309	 8.14089157711931E-03 
2310	 6.96479952702915E-03 
2311	 3.46883230124585E-02 
2312	 6.81224459454606E-02 
2313	 5.57805978264066E-02 
2314	 4.89456107689132E-02 
2315	 4.52351120104355E-02 
2316	 3.70995928758115E-02 
2317	 4.67784718916541E-02 
2318	 6.24735938555765E-02 
2319	 5.93936949361935E-02 
2320	 4.86483940105749E-02 
2321	 7.02105871140619E-02 
2322	 6.89105473684667E-02 
2323	 4.37546051999142E-02 
2324	 4.33805951056611E-02 
2325	 3.27436374096456E-02 
2326	 2.36587950076356E-02 
2327	 3.99534855786168E-02 
2328	 6.49648265729878E-02 
2329	 5.46306673473488E-02 
2330	 4.52059069393252E-02 
2331	 7.73198504386946E-02 
2332	 0.102954907369831 
2333	 0.124282336327953 
2334	 0.1478681845571 
2335	 0.168634350620597 
2336	 0.171088129238297 
2337	 0.16331759383521 
2338	 0.151282207023544 
2339	 0.105949374780677 
2340	 5.90676622584142E-02 
2341	 0.021809953161393 
2342	 1.14151279113573E-02 
2343	 1.61659341664114E-02 
2344	 1.44476975904233E-02 
2345	 1.27382654778417E-02 
2346	-2.77609888269592E-03 
2347	-2.34750308566362E-02 
2348	-5.84059060703007E-02 
2349	-0.082782585177234 
2350	-8.92158750165523E-02 
2351	-0.112111601041814 
2352	-0.133595320439793 
2353	-0.104399885707035 
2354	-6.99291461523574E-02 
2355	-4.73524768312542E-02 
2356	 3.11381762860299E-02 
2357	 0.047431613052695 
2358	-2.53898354483025E-04 
2359	 1.59833282064425E-02 
2360	-7.74843576173444E-03 
2361	-8.09183304068225E-02 
2362	-0.084040523853172 
2363	-0.118892003336754 
2364	-0.1828650605033 
2365	-0.180452645058688 
2366	-0.199890579494959 
2367	-0.171277719489789 
2368	-0.094735548928591 
2369	-4.99469421162825E-02 
2370	 5.84428422461103E-02 
2371	 0.128327365872158 
2372	 0.156586772250413 
2373	 0.211869321752185 
2374	 0.227900485466129 
2375	 0.253308337053742 
2376	 0.273189642947856 
2377	 0.229240584709284 
2378	 0.141746815252135 
2379	 9.32073966078131E-02 
2380	 0.108088865764483 
2381	 7.28031782754284E-02 
2382	 6.01220946599661E-02 
2383	 0.148246208521408 
2384	 0.148806408853562 
2385	 0.137399987784944 
2386	 0.147793252150329 
2387	-0.499667108335917 
2388	-0.653369390806544 
2389	-0.545142489800153 
2390	-0.812877102603736 
2391	-0.344193755105601 
2392	-0.106219118861963 
2393	-7.78470926565158E-02 
2394	 0.176019440334935 
2395	 0.19795942681755 
2396	 9.03103761830229E-02 
2397	 0.216954510549754 
2398	 3.97302537459675E-02 
2399	-0.13769644788728 
2400	 0.158134169179435 
2401	 0.966671060844926 
2402	 3.27717890016891 
2403	 1.70206939457762 
2404	 0.660621922496469 
2405	 0.385380122889071 
2406	 0.329011295764356 
2407	-8.03547608670231E-02 
2408	-0.920872042692871 
2409	-1.50991879581228 
2410	-1.15717325536086 
2411	-1.00500477384983 
2412	-1.42972601193622 
2413	-2.72660745525841 
2414	-3.99847305545056 
2415	 2.604704767887 
2416	 0.743639314181017 
2417	 0.798958885702982 
2418	 1.47346673956002 
2419	 2.47858678489389 
2420	 18.0230332348233 
2421	-1.52801087567893 
2422	-1.45724845429948 
2423	 9.72630215541997 
2424	 1.92245657325149 
2425	 0.874098570260292 
2426	 0.675528520625527 
2427	 0.763029409697018 
2428	 2.12725735120887 
2429	 10.322412207915 
2430	-19.9706939882155 
2431	-1.37293493101273 
2432	-0.36547879187483 
2433	-0.262024991083214 
2434	-0.101202914405475 
2435	-0.35871410569097 
2436	-1.18435557753913 
2437	-1.02886553372807 
2438	-0.811856448278841 
2439	-0.400914575048568 
2440	-0.25208007671997 
2441	-0.204677675841781 
2442	-0.184859627671816 
2443	-0.253227278803121 
2444	 0.163581942347349 
2445	 0.503378572059348 
2446	 0.201378298061292 
2447	 0.652231508374698 
2448	 0.221952937185375 
2449	 1.62782147243389 
2450	 1.77272811121702 
2451	 11.1239693496271 
2452	-2.73610009321316 
2453	-2.03746676333972 
2454	 2.67932832302478 
2455	 0.858952058434783 
2456	 1.1587605054842 
2457	 1.93799833389298 
2458	-0.650572154384251 
2459	-1.61639640624237E-02 
2460	 0.368116211875347 
2461	-105.558934790279 
2462	-0.336956019809799 
2463	 0.677909766028783 
2464	 0.266653267792998 
2465	-3.70228668722194E-02 
2466	-0.033726647274092 
2467	-0.349872546691951 
2468	 7.77299602340663 
2469	 1.19211357586458 
2470	 1.45102894855593 
2471	 1.52228088480069 
2472	 1.19018511129494 
2473	-9.63990004223872E-02 
2474	-2.12007026754507E-02 
2475	 0.768995875177449 
2476	 1.57654323979313 
2477	 4.07048908218024 
2478	 9.28523626765958 
2479	 22.738973111508 
2480	-236.039441193963 
2481	 3.14204742331575 
2482	 1.88222361948519 
2483	 0.446029309762311 
2484	-0.064723600915733 
2485	 0.352580740811714 
2486	 1.52194224897205 
2487	 21.2238269994055 
2488	-13.8020516690017 
2489	-4.59662292764811 
2490	 0.151140285393261 
2491	-0.174400460983515 
2492	 5.27374405174401E-02 
2493	 0.255895796819567 
2494	 0.164307858393183 
2495	-0.237428495250309 
2496	-0.55331270803413 
2497	-0.476201295913247 
2498	-0.332500590884004 
2499	 0.717602871220536 
2500	 51.7202551073351 
