Wavelength	rt0728west00001.asd
350	 8.58805824633688E-02 
351	 8.47551371702691E-02 
352	 8.52156314309686E-02 
353	 0.085828342981432 
354	 8.55946434052167E-02 
355	 8.60682198955825E-02 
356	 8.58827413534455E-02 
357	 8.55790680726106E-02 
358	 8.59393089212487E-02 
359	 8.61628247864912E-02 
360	 8.62525938747653E-02 
361	 8.63482342956678E-02 
362	 8.66280077045811E-02 
363	 8.68652652634277E-02 
364	 8.67800691852322E-02 
365	 8.65483308070858E-02 
366	 8.70288217297432E-02 
367	 8.70079904976411E-02 
368	 8.68077013800791E-02 
369	 8.70434950622307E-02 
370	 8.79302602200663E-02 
371	 8.80564664933076E-02 
372	 8.78826087238884E-02 
373	 8.87268009859704E-02 
374	 0.088840428924185 
375	 8.87389051899988E-02 
376	 8.89053715193833E-02 
377	 8.94277741077821E-02 
378	 0.089950325731674 
379	 9.01625248098487E-02 
380	 9.00407325040289E-02 
381	 0.090359399837086 
382	 9.02728213291785E-02 
383	 9.04335915095771E-02 
384	 9.17719133169617E-02 
385	 9.19536429359836E-02 
386	 9.17865886609118E-02 
387	 9.19387154836157E-02 
388	 9.25662106581454E-02 
389	 9.29108405263897E-02 
390	 9.28820495772713E-02 
391	 9.27997792804489E-02 
392	 9.35726941900852E-02 
393	 9.45476698282348E-02 
394	 9.49004749438297E-02 
395	 9.42335067106515E-02 
396	 9.42731034528551E-02 
397	 0.094722692266757 
398	 9.52359724827987E-02 
399	 9.55633739795039E-02 
400	 9.55153736557021E-02 
401	 9.55574367198795E-02 
402	 9.59207750710453E-02 
403	 9.61145140172835E-02 
404	 0.096359004408165 
405	 9.67216907255773E-02 
406	 9.71466767504614E-02 
407	 9.71964525335046E-02 
408	 9.73372401889402E-02 
409	 9.76833697570176E-02 
410	 9.79605215151248E-02 
411	 9.83607839510679E-02 
412	 9.88447998232359E-02 
413	 9.92749610734038E-02 
414	 9.93511536020126E-02 
415	 9.94699416448001E-02 
416	 0.099768865841557 
417	 0.100225727247552 
418	 0.100606545306155 
419	 0.100972469060924 
420	 0.101308763007228 
421	 0.101506868587695 
422	 0.101945212380884 
423	 0.102475109866193 
424	 0.102932956489822 
425	 0.103445968190503 
426	 0.103993213817865 
427	 0.104446465634257 
428	 0.104722515120733 
429	 0.10546313885927 
430	 0.10605523535421 
431	 0.106341079571587 
432	 0.106826701254493 
433	 0.107511963626456 
434	 0.108131367489974 
435	 0.108524720714884 
436	 0.109025526805923 
437	 0.109520201270563 
438	 0.109998414376595 
439	 0.110509988823042 
440	 0.111134747248075 
441	 0.11177585282604 
442	 0.1123459979118 
443	 0.112800282030878 
444	 0.113266104486978 
445	 0.113810136378693 
446	 0.114411534032398 
447	 0.114810447421789 
448	 0.115179229766399 
449	 0.115611891992475 
450	 0.116124879374017 
451	 0.116635240980637 
452	 0.117003659788625 
453	 0.117232303522788 
454	 0.117610779787299 
455	 0.118028446304849 
456	 0.118415079031349 
457	 0.118737054909614 
458	 0.119102683921086 
459	 0.119511900211452 
460	 0.119909368006102 
461	 0.120193377779073 
462	 0.120415980970162 
463	 0.12068756381077 
464	 0.121052533145273 
465	 0.121344780379763 
466	 0.121655497345329 
467	 0.122021299051021 
468	 0.122442866053802 
469	 0.122867979517268 
470	 0.123197366040835 
471	 0.123468137709257 
472	 0.123897412146827 
473	 0.124261746279902 
474	 0.124546426562291 
475	 0.124837581748029 
476	 0.125374454023679 
477	 0.125849274126959 
478	 0.126183997272625 
479	 0.126480600849032 
480	 0.126853539271597 
481	 0.127237035581285 
482	 0.127620966115397 
483	 0.128163910058311 
484	 0.128737027027845 
485	 0.129322333000334 
486	 0.129892531751609 
487	 0.130131912029386 
488	 0.13055418847741 
489	 0.131199170451137 
490	 0.131631861271092 
491	 0.13218615537198 
492	 0.13279284300266 
493	 0.133374369251793 
494	 0.134075878698526 
495	 0.134615508844137 
496	 0.135130161879994 
497	 0.13590630416146 
498	 0.136490541052728 
499	 0.137103524842806 
500	 0.137889524528879 
501	 0.138772993684457 
502	 0.13951289399401 
503	 0.140138809696821 
504	 0.140770796151956 
505	 0.141482896047068 
506	 0.14226596895847 
507	 0.142995808026841 
508	 0.143496072299024 
509	 0.144177395026315 
510	 0.144934498803366 
511	 0.145618559148869 
512	 0.146166879234739 
513	 0.146848630970059 
514	 0.147715856650462 
515	 0.148677476375926 
516	 0.14949046733099 
517	 0.150294905274997 
518	 0.151152517458227 
519	 0.151984095781334 
520	 0.152944050348478 
521	 0.153887149139788 
522	 0.154703825097879 
523	 0.155625814821222 
524	 0.156533257045542 
525	 0.15742662493467 
526	 0.158387185382804 
527	 0.159315429511391 
528	 0.160245391871575 
529	 0.161208351993398 
530	 0.162209046847025 
531	 0.163109095425644 
532	 0.163984520714378 
533	 0.164958006707453 
534	 0.165900553235657 
535	 0.166854884808902 
536	 0.167837064756096 
537	 0.168814214694123 
538	 0.169896074959202 
539	 0.170985381744255 
540	 0.171992135088009 
541	 0.173028808065421 
542	 0.174054905735346 
543	 0.175060983008272 
544	 0.17605572534689 
545	 0.176978496231545 
546	 0.177893598239732 
547	 0.178842221656626 
548	 0.179794744555367 
549	 0.180776767675249 
550	 0.181739601324086 
551	 0.182644290865504 
552	 0.183661248091241 
553	 0.184581701227711 
554	 0.185436989662594 
555	 0.186537015998327 
556	 0.187495981858106 
557	 0.188426857372171 
558	 0.189434745386089 
559	 0.19021605311225 
560	 0.191070905007699 
561	 0.191956747600934 
562	 0.192650474434368 
563	 0.193417296257474 
564	 0.19420178193459 
565	 0.194955876145106 
566	 0.195736492519818 
567	 0.196478273388325 
568	 0.19714785660101 
569	 0.197732475394698 
570	 0.198265061188571 
571	 0.19878184703854 
572	 0.199303389354598 
573	 0.199827092185679 
574	 0.200232304135216 
575	 0.200572589199222 
576	 0.2008813526442 
577	 0.200976780433755 
578	 0.201109376461052 
579	 0.201309570520335 
580	 0.201458565715898 
581	 0.201455853349399 
582	 0.201457013535841 
583	 0.20150412428387 
584	 0.201352097560071 
585	 0.201393680172191 
586	 0.201612920020437 
587	 0.201827000875179 
588	 0.201903646150563 
589	 0.201636083223996 
590	 0.201113492639622 
591	 0.200687807605396 
592	 0.200187246463675 
593	 0.199490533661602 
594	 0.198595839386763 
595	 0.197816272700042 
596	 0.196764332953528 
597	 0.195404430651921 
598	 0.193937327156815 
599	 0.192577634911861 
600	 0.191524047480307 
601	 0.190769120057139 
602	 0.189969601952879 
603	 0.189466983046284 
604	 0.189257069628044 
605	 0.189199654293884 
606	 0.189062872712964 
607	 0.189004700817587 
608	 0.189050355414293 
609	 0.189069160149449 
610	 0.189080579697738 
611	 0.189111779552096 
612	 0.189165042193654 
613	 0.189148047977362 
614	 0.189216384547597 
615	 0.189262025264251 
616	 0.189083026225876 
617	 0.189068339612681 
618	 0.189125523619581 
619	 0.189150274637347 
620	 0.189105634707659 
621	 0.189099813401556 
622	 0.189093224398712 
623	 0.189059818897088 
624	 0.189288475424436 
625	 0.189502557150966 
626	 0.189591659520999 
627	 0.189625127331034 
628	 0.189568453237895 
629	 0.189406784896398 
630	 0.189193683318079 
631	 0.189152475951132 
632	 0.189109177462087 
633	 0.189007586490154 
634	 0.188875918199636 
635	 0.188944355401571 
636	 0.188923810453654 
637	 0.188701243765932 
638	 0.188473690181583 
639	 0.188386825338196 
640	 0.188338150734798 
641	 0.188202008776267 
642	 0.188109289698275 
643	 0.188086709524945 
644	 0.188146006895747 
645	 0.18827782119726 
646	 0.188338246674968 
647	 0.188181563604079 
648	 0.18779315737373 
649	 0.187403005967302 
650	 0.187024413009736 
651	 0.186555612533878 
652	 0.185895037426896 
653	 0.185138686970715 
654	 0.184411900396913 
655	 0.18363274238964 
656	 0.182543208189065 
657	 0.181320737034677 
658	 0.180424368345048 
659	 0.17998890744321 
660	 0.179166877275561 
661	 0.178521056522073 
662	 0.178070998574414 
663	 0.177530589984762 
664	 0.177047225257657 
665	 0.17667024209327 
666	 0.176385826314922 
667	 0.176103977646609 
668	 0.175828902685541 
669	 0.175565344155821 
670	 0.175335342648317 
671	 0.175198290610228 
672	 0.175217321394047 
673	 0.175323462051116 
674	 0.175337319005293 
675	 0.175341676393118 
676	 0.175410043864205 
677	 0.17556685159962 
678	 0.175717434813172 
679	 0.175895068552564 
680	 0.176094804200099 
681	 0.17631323429938 
682	 0.17666534163187 
683	 0.177043286661194 
684	 0.177440525360108 
685	 0.178064900972313 
686	 0.178726645820157 
687	 0.179059418274351 
688	 0.178933546633485 
689	 0.178986788820337 
690	 0.179195749142565 
691	 0.179429541858426 
692	 0.179466301159409 
693	 0.179213264103366 
694	 0.178499434682631 
695	 0.177444080572815 
696	 0.176356026404114 
697	 0.175700200240102 
698	 0.17528732108036 
699	 0.17472174951914 
700	 0.173608763465589 
701	 0.172073454778678 
702	 0.17045484017207 
703	 0.169083566927152 
704	 0.167708431739771 
705	 0.166291205099078 
706	 0.164782235947172 
707	 0.162872501207138 
708	 0.160874687690381 
709	 0.158786503603866 
710	 0.156553753286203 
711	 0.154484079318154 
712	 0.152120056862923 
713	 0.14954457630959 
714	 0.14740036917685 
715	 0.145945113237038 
716	 0.144587335262697 
717	 0.142567403724154 
718	 0.139517936989019 
719	 0.135885699218839 
720	 0.132672416303682 
721	 0.129820269331849 
722	 0.127973131861391 
723	 0.125789848903926 
724	 0.122979231874936 
725	 0.120145657653495 
726	 0.117280275852752 
727	 0.114247198327921 
728	 0.111013304903122 
729	 0.107932233809704 
730	 0.104550042241238 
731	 0.101264875724978 
732	 9.84489874682783E-02 
733	 9.60302475335094E-02 
734	 9.42388711603868E-02 
735	 9.29677509514006E-02 
736	 9.15495334754207E-02 
737	 9.06298645645734E-02 
738	 8.98692838957049E-02 
739	 8.90138382339675E-02 
740	 8.86952007019012E-02 
741	 8.83324342911588E-02 
742	 8.79803746800371E-02 
743	 8.79478283789165E-02 
744	 8.77737813255837E-02 
745	 8.76637405545662E-02 
746	 8.76263767264927E-02 
747	 0.087320906027716 
748	 8.74245660802336E-02 
749	 8.74878450931594E-02 
750	 8.71412969022621E-02 
751	 8.72697465389632E-02 
752	 8.73020181255754E-02 
753	 8.71943072906392E-02 
754	 8.71887925875849E-02 
755	 8.72709390862218E-02 
756	 8.72727804265998E-02 
757	 8.72325449458319E-02 
758	 8.76035112504715E-02 
759	 8.84741593291996E-02 
760	 8.95185069856398E-02 
761	 8.96390499619732E-02 
762	 8.97281607048182E-02 
763	 8.95168029919197E-02 
764	 8.90424426500182E-02 
765	 8.84861850628554E-02 
766	 8.81439192279116E-02 
767	 8.80285157328834E-02 
768	 8.80760187008376E-02 
769	 8.81637747220413E-02 
770	 8.82317381137906E-02 
771	 8.83808935409794E-02 
772	 8.86546428318883E-02 
773	 8.88538926326616E-02 
774	 8.90272801304779E-02 
775	 8.92195525797793E-02 
776	 8.94758145692732E-02 
777	 0.089816584719437 
778	 9.00907229823316E-02 
779	 9.03078962092766E-02 
780	 9.06476299675344E-02 
781	 9.10737192480157E-02 
782	 9.14658605843077E-02 
783	 9.17819261680778E-02 
784	 9.21838592081741E-02 
785	 0.092724414240112 
786	 9.33748532204354E-02 
787	 9.40542212740335E-02 
788	 9.46838594140032E-02 
789	 9.51967228345654E-02 
790	 9.55380237998286E-02 
791	 9.57224817210005E-02 
792	 0.096202612862378 
793	 9.66628194058647E-02 
794	 9.70541595075778E-02 
795	 9.79260477716918E-02 
796	 9.83865357505371E-02 
797	 9.87323902771112E-02 
798	 9.93360943682838E-02 
799	 9.94460844636207E-02 
800	 9.99551994368222E-02 
801	 0.100648106236931 
802	 0.100786220499575 
803	 0.100957440727253 
804	 0.101112964270292 
805	 0.101161590894318 
806	 0.101037237272311 
807	 0.101134215926094 
808	 0.101275381705956 
809	 0.101293607490771 
810	 0.101379482325845 
811	 0.101491633302164 
812	 0.101786706087886 
813	 0.102309903696884 
814	 0.101931643190234 
815	 0.101406575785657 
816	 0.100865467386424 
817	 9.98344079056893E-02 
818	 9.85796843263647E-02 
819	 9.74743225374184E-02 
820	 9.66570143818373E-02 
821	 9.61708232082756E-02 
822	 9.48299105123965E-02 
823	 0.092833621827134 
824	 9.08597707813193E-02 
825	 8.92005260310738E-02 
826	 8.77017230890367E-02 
827	 8.61354454530615E-02 
828	 8.44315929595711E-02 
829	 8.29709071002148E-02 
830	 8.12575954404221E-02 
831	 7.96661306684075E-02 
832	 7.90858296819476E-02 
833	 7.83474939055299E-02 
834	 7.74308581064896E-02 
835	 7.65764011259146E-02 
836	 7.61559877903127E-02 
837	 7.58535634919774E-02 
838	 7.55469561771524E-02 
839	 7.51618020419937E-02 
840	 7.45815244840462E-02 
841	 7.43871045606251E-02 
842	 7.43824908112918E-02 
843	 7.41092671542836E-02 
844	 7.33416419871818E-02 
845	 7.31560037746764E-02 
846	 7.34139914309708E-02 
847	 0.073169123410292 
848	 0.072579845785211 
849	 7.21561124511047E-02 
850	 7.21531468199553E-02 
851	 7.23898295382799E-02 
852	 7.20998733733946E-02 
853	 7.16710236207221E-02 
854	 7.15115454454708E-02 
855	 7.14775995551273E-02 
856	 7.13015945053938E-02 
857	 7.11531572613053E-02 
858	 7.11895912255224E-02 
859	 7.10929691702768E-02 
860	 7.06371656552233E-02 
861	 7.01268256019076E-02 
862	 7.00590334163544E-02 
863	 7.03679917736287E-02 
864	 7.00743744546104E-02 
865	 6.94351993850388E-02 
866	 6.97393965328868E-02 
867	 7.00627971230752E-02 
868	 6.97671152818024E-02 
869	 6.90782858693283E-02 
870	 6.91941474930496E-02 
871	 6.88077931445933E-02 
872	 6.85967033750972E-02 
873	 6.89314792814024E-02 
874	 6.85603121225822E-02 
875	 6.80580165009346E-02 
876	 6.80513050925625E-02 
877	 6.86034169505273E-02 
878	 6.77092428841636E-02 
879	 0.067450476160003 
880	 6.74693109294502E-02 
881	 0.06667359637383 
882	 6.71221272583681E-02 
883	 6.74708399448542E-02 
884	 6.71619490643093E-02 
885	 6.65206598629554E-02 
886	 6.65926940280381E-02 
887	 6.66303301921384E-02 
888	 6.63461375666569E-02 
889	 0.066217243852425 
890	 6.63119095933052E-02 
891	 6.62275249857873E-02 
892	 6.59104791898808E-02 
893	 6.61841713314758E-02 
894	 6.66306186127752E-02 
895	 6.70402138506845E-02 
896	 6.72736411556367E-02 
897	 0.067298899947237 
898	 6.75156213202573E-02 
899	 6.76226998763973E-02 
900	 6.71343490111639E-02 
901	 6.57532068615695E-02 
902	 6.56388285610444E-02 
903	 6.60682390899492E-02 
904	 6.57057316870962E-02 
905	 6.60947778382323E-02 
906	 6.53580120808242E-02 
907	 6.42791903613281E-02 
908	 6.52938908882554E-02 
909	 6.55474785720678E-02 
910	 6.53164007006705E-02 
911	 6.52810311995592E-02 
912	 6.60045282234702E-02 
913	 0.0665262529154 
914	 0.06505342613619 
915	 6.26677830132335E-02 
916	 6.31878985655458E-02 
917	 6.42973300307866E-02 
918	 0.064314250788888 
919	 6.32158490610965E-02 
920	 6.27576715314659E-02 
921	 6.28791166751278E-02 
922	 6.30701494016402E-02 
923	 6.29728520508704E-02 
924	 6.27816857308875E-02 
925	 6.38586933643323E-02 
926	 6.39806423030486E-02 
927	 6.18270983932804E-02 
928	 6.56726651584169E-02 
929	 6.39592001738817E-02 
930	 5.94215475683106E-02 
931	 6.47961162784262E-02 
932	 7.45465994446928E-02 
933	 7.11723712930503E-02 
934	 6.25606022146099E-02 
935	 6.80341095656528E-02 
936	 6.92675654548711E-02 
937	 6.90204289302061E-02 
938	 6.17992338526117E-02 
939	 4.86229270190464E-02 
940	 6.69792524860725E-02 
941	 7.07667429000154E-02 
942	 6.40605627017439E-02 
943	 6.98953285496413E-02 
944	 5.83899295242046E-02 
945	 5.76888431581886E-02 
946	 6.64661725429601E-02 
947	 6.58552673803022E-02 
948	 6.09408523235335E-02 
949	 6.35066531935939E-02 
950	 6.56589453143798E-02 
951	 5.42646022742941E-02 
952	 5.96321359893985E-02 
953	 6.37229954365582E-02 
954	 6.48398277473552E-02 
955	 0.070628552525606 
956	 6.19365994044952E-02 
957	 5.50661564665769E-02 
958	 5.77153936888601E-02 
959	 0.066051341449161 
960	 5.82599231320132E-02 
961	 5.59926652777671E-02 
962	 6.04301924956838E-02 
963	 5.89570225390829E-02 
964	 6.21979129205629E-02 
965	 6.25379823372997E-02 
966	 6.07900284940908E-02 
967	 6.26168864947525E-02 
968	 5.98683961906215E-02 
969	 0.058141595352779 
970	 5.99601393335289E-02 
971	 6.33918664323569E-02 
972	 6.00234922892814E-02 
973	 5.65024628889389E-02 
974	 0.056304015304244 
975	 0.057590556897832 
976	 5.89158259160999E-02 
977	 5.74599983192962E-02 
978	 5.59778083170156E-02 
979	 5.97874936095696E-02 
980	 5.85805797671566E-02 
981	 5.80275015958528E-02 
982	 0.058755323951792 
983	 5.71547046136783E-02 
984	 5.81676822235867E-02 
985	 5.87804128189977E-02 
986	 0.057846388528521 
987	 5.65794710371423E-02 
988	 5.76094615820464E-02 
989	 5.74802161498198E-02 
990	 5.64352343888376E-02 
991	 5.73767666132228E-02 
992	 5.87845387015735E-02 
993	 5.83569477168583E-02 
994	 5.68273494663874E-02 
995	 5.66873693801134E-02 
996	 5.69499014220661E-02 
997	 5.82342458912544E-02 
998	 5.85189981027973E-02 
999	 5.58272388917247E-02 
1000	 5.72926957288707E-02 
1001	 5.73855879509002E-02 
1002	 5.66621475965337E-02 
1003	 5.62090401120299E-02 
1004	 5.49910357718148E-02 
1005	 5.46900974957245E-02 
1006	 5.46789889290224E-02 
1007	 5.54300333490576E-02 
1008	 5.63228237015898E-02 
1009	 5.58841984574196E-02 
1010	 5.58812562590697E-02 
1011	 5.58078306906392E-02 
1012	 5.51669992783619E-02 
1013	 5.53251431424681E-02 
1014	 5.54579699741396E-02 
1015	 5.54212488567958E-02 
1016	 5.56050584288455E-02 
1017	 5.66239488660981E-02 
1018	 5.68110269617448E-02 
1019	 5.62643498301315E-02 
1020	 5.63690013449672E-02 
1021	 5.67719042086746E-02 
1022	 5.65695760082735E-02 
1023	 5.65850217165634E-02 
1024	 5.65773327129106E-02 
1025	 5.65746141298289E-02 
1026	 5.62640173658067E-02 
1027	 5.58082500415355E-02 
1028	 5.51573952125891E-02 
1029	 5.53879921842105E-02 
1030	 5.57319083324617E-02 
1031	 5.60768489121075E-02 
1032	 5.73183356411676E-02 
1033	 5.78557277799655E-02 
1034	 5.78683166805662E-02 
1035	 5.78299349804438E-02 
1036	 5.80813866589499E-02 
1037	 5.78438136309155E-02 
1038	 5.71635194423615E-02 
1039	 5.60281611386098E-02 
1040	 5.52399020731743E-02 
1041	 5.47714333529324E-02 
1042	 0.054720932867385 
1043	 5.53072089125758E-02 
1044	 5.55193081070557E-02 
1045	 5.59226127566997E-02 
1046	 5.61083602149908E-02 
1047	 5.59579941298378E-02 
1048	 5.61916632837393E-02 
1049	 5.65830298857011E-02 
1050	 5.70299676308383E-02 
1051	 5.80644674235259E-02 
1052	 5.83876353513734E-02 
1053	 5.85118673522573E-02 
1054	 5.83197712725871E-02 
1055	 5.68456812921856E-02 
1056	 5.64616066907971E-02 
1057	 5.64617643530893E-02 
1058	 5.69001981446464E-02 
1059	 5.69085799498841E-02 
1060	 5.73692687981549E-02 
1061	 5.76410865000802E-02 
1062	 5.74233991038515E-02 
1063	 5.74950630703769E-02 
1064	 5.81763659131736E-02 
1065	 5.82990352631765E-02 
1066	 5.79042242998447E-02 
1067	 5.77580756261335E-02 
1068	 5.74754550469649E-02 
1069	 5.74179697009584E-02 
1070	 5.76713015331186E-02 
1071	 5.76974834959002E-02 
1072	 0.057695399932687 
1073	 5.78474831694751E-02 
1074	 5.75811684655982E-02 
1075	 5.67998560613335E-02 
1076	 5.67102500419638E-02 
1077	 5.66350825006237E-02 
1078	 5.68251515049751E-02 
1079	 5.76563938275449E-02 
1080	 5.79912175918598E-02 
1081	 5.84198049756716E-02 
1082	 5.83942843092459E-02 
1083	 5.76767302672693E-02 
1084	 5.75744985726467E-02 
1085	 5.76645860089627E-02 
1086	 5.75234791035882E-02 
1087	 5.72332476969977E-02 
1088	 5.74731270851349E-02 
1089	 5.81459822621626E-02 
1090	 5.82355951904569E-02 
1091	 5.83614316045529E-02 
1092	 5.92144063296398E-02 
1093	 5.91785562712263E-02 
1094	 5.79104499587629E-02 
1095	 5.77932870587467E-02 
1096	 5.79601397239328E-02 
1097	 5.82187926182432E-02 
1098	 5.92310887516821E-02 
1099	 5.95933855067737E-02 
1100	 5.97524947480152E-02 
1101	 6.00822898102871E-02 
1102	 6.00075192463252E-02 
1103	 6.01463266366422E-02 
1104	 6.11619823367013E-02 
1105	 6.09842283319105E-02 
1106	 5.90880659745574E-02 
1107	 5.96371254939158E-02 
1108	 5.90834626864265E-02 
1109	 5.70315925233258E-02 
1110	 5.70554641093003E-02 
1111	 5.92173465877468E-02 
1112	 5.93984891380739E-02 
1113	 5.94448174244531E-02 
1114	 6.06580535654614E-02 
1115	 6.24965957078885E-02 
1116	 6.26957898748528E-02 
1117	 6.31993241504502E-02 
1118	 0.063732565721573 
1119	 5.73118199654819E-02 
1120	 5.48020115474801E-02 
1121	 5.81256117220197E-02 
1122	 0.06546247264355 
1123	 6.74757881618169E-02 
1124	 0.069136595696711 
1125	 0.058278517983543 
1126	 5.50350420026941E-02 
1127	 5.97913974252053E-02 
1128	 0.054533853208601 
1129	 5.50290361194359E-02 
1130	 5.98664749915708E-02 
1131	 5.90009543384417E-02 
1132	 5.94529497048063E-02 
1133	 5.59729386143686E-02 
1134	 0.045299121568421 
1135	 4.56209092469262E-02 
1136	 4.67779593024974E-02 
1137	 5.11475250883532E-02 
1138	 6.39584905079664E-02 
1139	 7.16075411324203E-02 
1140	 7.13041843421732E-02 
1141	 6.32952790029198E-02 
1142	 5.19983367361531E-02 
1143	 5.05303134396388E-02 
1144	 5.76557010995993E-02 
1145	 6.33073908723554E-02 
1146	 6.50750603693408E-02 
1147	 6.05148945858582E-02 
1148	 5.45615448853988E-02 
1149	 5.39650007093872E-02 
1150	 5.35691385956933E-02 
1151	 5.68864352180239E-02 
1152	 5.86616644218203E-02 
1153	 5.97235485293554E-02 
1154	 5.90352083066783E-02 
1155	 5.80610391998762E-02 
1156	 5.83803797377366E-02 
1157	 5.77493162042706E-02 
1158	 5.75648473640088E-02 
1159	 0.058859362244872 
1160	 5.97790639815957E-02 
1161	 5.95812115049282E-02 
1162	 5.88668597738987E-02 
1163	 5.86057504219455E-02 
1164	 0.058658074906288 
1165	 5.82152315173916E-02 
1166	 5.83975974474133E-02 
1167	 5.85301465453342E-02 
1168	 5.71751275764261E-02 
1169	 5.61918945838068E-02 
1170	 5.64410538925825E-02 
1171	 5.62683940836679E-02 
1172	 5.60188471285432E-02 
1173	 5.59250331353283E-02 
1174	 5.60543524369843E-02 
1175	 5.56527624552208E-02 
1176	 5.55342139360567E-02 
1177	 5.65905119747556E-02 
1178	 5.76721646692284E-02 
1179	 5.74239089823483E-02 
1180	 5.67790601528447E-02 
1181	 5.67914927714863E-02 
1182	 5.68260325039725E-02 
1183	 5.69416192633138E-02 
1184	 5.69878812424503E-02 
1185	 5.68879911665442E-02 
1186	 5.63667718721757E-02 
1187	 5.54709395181727E-02 
1188	 5.55653385863647E-02 
1189	 5.56488282362018E-02 
1190	 0.054867156229191 
1191	 5.49225315950849E-02 
1192	 5.52278423605169E-02 
1193	 5.59753378407226E-02 
1194	 5.57113456436315E-02 
1195	 5.58702842203594E-02 
1196	 5.65260299890639E-02 
1197	 5.61966326358566E-02 
1198	 5.60766217309662E-02 
1199	 5.66461931486671E-02 
1200	 5.63928198992234E-02 
1201	 5.57766911019331E-02 
1202	 5.58716204423644E-02 
1203	 5.58682095301433E-02 
1204	 5.53396593334545E-02 
1205	 5.52162243152926E-02 
1206	 5.57784932395356E-02 
1207	 5.60003728654423E-02 
1208	 5.56693668833364E-02 
1209	 5.57685479762915E-02 
1210	 5.60918615369247E-02 
1211	 5.59253985745994E-02 
1212	 5.60492771333618E-02 
1213	 0.056548762370503 
1214	 5.64890612098602E-02 
1215	 0.055732305653728 
1216	 5.49364404427918E-02 
1217	 5.47629114390626E-02 
1218	 5.48207831606801E-02 
1219	 5.49568457261558E-02 
1220	 0.055042076844249 
1221	 5.49598290819653E-02 
1222	 5.47349470632904E-02 
1223	 5.49480858681059E-02 
1224	 5.53345118769728E-02 
1225	 5.52815175349779E-02 
1226	 5.52543412496275E-02 
1227	 0.055291460134275 
1228	 5.52468725283867E-02 
1229	 5.52300735163763E-02 
1230	 0.054993752850251 
1231	 5.46304645398917E-02 
1232	 5.44882734736932E-02 
1233	 5.46085467480395E-02 
1234	 5.49462677947554E-02 
1235	 5.50387513855946E-02 
1236	 5.46863728155355E-02 
1237	 5.45004632461821E-02 
1238	 5.43207465720133E-02 
1239	 5.43972837628629E-02 
1240	 5.40946729177849E-02 
1241	 5.39253263688255E-02 
1242	 0.054039842860339 
1243	 5.41132931346104E-02 
1244	 5.44930664514085E-02 
1245	 5.48991758144531E-02 
1246	 5.45275163429254E-02 
1247	 5.40191204618936E-02 
1248	 5.39614939345544E-02 
1249	 5.40809371380902E-02 
1250	 5.43280618791114E-02 
1251	 5.45312455533851E-02 
1252	 5.45993361055447E-02 
1253	 5.45037608595528E-02 
1254	 5.43924097628539E-02 
1255	 5.45612333621139E-02 
1256	 5.45838762833617E-02 
1257	 0.054191933998586 
1258	 0.05419537722034 
1259	 5.47179340579758E-02 
1260	 5.47380723145131E-02 
1261	 5.43951180571422E-02 
1262	 5.44831371553682E-02 
1263	 5.47534237405122E-02 
1264	 5.45341396839193E-02 
1265	 5.43623775453364E-02 
1266	 5.46662927187156E-02 
1267	 5.45472145087564E-02 
1268	 5.44876607212462E-02 
1269	 5.51074815179511E-02 
1270	 5.52495757067019E-02 
1271	 0.054477119796768 
1272	 5.40401538320773E-02 
1273	 5.41915489228489E-02 
1274	 5.43478691495772E-02 
1275	 5.45274611056168E-02 
1276	 5.46147854381679E-02 
1277	 5.45656856848779E-02 
1278	 5.44710215084959E-02 
1279	 5.43306504553051E-02 
1280	 5.44024594393145E-02 
1281	 5.43742770823876E-02 
1282	 5.38247666775697E-02 
1283	 5.36550477877285E-02 
1284	 5.38244054706017E-02 
1285	 5.39542215717054E-02 
1286	 5.42101517602028E-02 
1287	 5.43452282255934E-02 
1288	 5.44756737119945E-02 
1289	 0.054663784316629 
1290	 5.48735960294925E-02 
1291	 5.48168201155382E-02 
1292	 5.47452494666678E-02 
1293	 5.47769692848682E-02 
1294	 5.49523661818303E-02 
1295	 5.48154018167512E-02 
1296	 5.47200914585135E-02 
1297	 5.50383457353406E-02 
1298	 5.53600527560578E-02 
1299	 5.56828690153528E-02 
1300	 5.56598773067338E-02 
1301	 0.055634221963664 
1302	 5.56685947328949E-02 
1303	 5.55117978678097E-02 
1304	 5.57812574955612E-02 
1305	 5.66653819121891E-02 
1306	 5.71176163625124E-02 
1307	 5.72547374922255E-02 
1308	 5.71546969612762E-02 
1309	 0.056849850707548 
1310	 0.056670754275331 
1311	 0.055920672258803 
1312	 5.60628505622266E-02 
1313	 5.72704116029903E-02 
1314	 5.73936202287257E-02 
1315	 5.72063414764013E-02 
1316	 5.73257841610793E-02 
1317	 5.65978024334088E-02 
1318	 5.66457281980572E-02 
1319	 5.82708983140978E-02 
1320	 5.86706839428499E-02 
1321	 5.83140826356246E-02 
1322	 5.82020202324504E-02 
1323	 5.89331609772721E-02 
1324	 5.81032203882227E-02 
1325	 0.057882597511907 
1326	 0.058340234288024 
1327	 5.70353665815339E-02 
1328	 5.75802045369255E-02 
1329	 6.02271495813912E-02 
1330	 6.17223502824303E-02 
1331	 6.22540757566208E-02 
1332	 6.16582781842621E-02 
1333	 6.04999262895572E-02 
1334	 5.86328557399889E-02 
1335	 5.74615364819215E-02 
1336	 0.056943586320762 
1337	 0.059475866667572 
1338	 6.61284092308169E-02 
1339	 6.60982614747427E-02 
1340	 6.29924821229532E-02 
1341	 6.56946642700841E-02 
1342	 0.067517513927201 
1343	 6.62010986178772E-02 
1344	 7.23759722684508E-02 
1345	 7.59864856883974E-02 
1346	 6.37714505790294E-02 
1347	 5.68757702994272E-02 
1348	 6.55727879923343E-02 
1349	 0.066250044352885 
1350	 4.54557644144627E-02 
1351	 2.88108492145571E-02 
1352	 2.45666355935549E-02 
1353	 1.01589880073612E-02 
1354	-2.49716796613473E-02 
1355	-3.26145864488126E-02 
1356	 6.37377044987037E-02 
1357	 0.131512678396004 
1358	-6.14653398692511E-02 
1359	-0.237491278471364 
1360	-0.270245566033196 
1361	-0.560640524965159 
1362	-0.909342976936395 
1363	-0.551997339918758 
1364	-0.46153311947796 
1365	-0.855769989016059 
1366	-1.35306766626054 
1367	-0.922256309209068 
1368	-0.784420699151115 
1369	-0.67795508544086 
1370	-0.568270685336072 
1371	-0.422932131529786 
1372	-0.755402750730785 
1373	-0.888725811947494 
1374	-1.00712175158689 
1375	-1.53907628987228 
1376	-1.31575744242908 
1377	-0.72988321943208 
1378	-0.664433201899671 
1379	-0.826732857760637 
1380	-0.652310631911163 
1381	-0.618635646882636 
1382	-0.351545616280561 
1383	 0.187079846064849 
1384	 0.172529697115386 
1385	 2.20701025027187E-02 
1386	-9.38669500801002E-02 
1387	-1.94672771976219 
1388	-3.48229670488962 
1389	-0.955253124946407 
1390	-0.909049595216961 
1391	-1.63835791370442 
1392	-0.925785179926942 
1393	-0.816165101366378 
1394	-0.775158938411588 
1395	 4.56720521037332E-02 
1396	 7.05246688598978E-02 
1397	 9.31334649939599E-02 
1398	 0.399244417569293 
1399	-0.537829765619314 
1400	-0.923627767702529 
1401	 0.246973134492031 
1402	 0.357871422609126 
1403	 4.90412166101459E-02 
1404	 5.05506762604146E-02 
1405	 0.104623764438358 
1406	-0.194710029164983 
1407	-0.623938594381468 
1408	-0.172597824440883 
1409	-0.234154727969724 
1410	-1.86679057184827 
1411	-0.958569067589088 
1412	 4.34206671573494E-02 
1413	 5.76356481510128E-02 
1414	-0.259961751283861 
1415	-0.310266928296057 
1416	-1.00061361570421 
1417	-0.984822418737482 
1418	 1.05897340669647E-02 
1419	 0.131094210197132 
1420	 0.32426344753441 
1421	 0.361772634761179 
1422	 0.176595959619079 
1423	 5.47933174166763E-02 
1424	-0.143518248581273 
1425	-0.134868473128359 
1426	-4.13857911112324E-02 
1427	-5.15484205927895E-02 
1428	 6.57644897222732E-03 
1429	 4.64354974784406E-02 
1430	-2.20781145098935E-02 
1431	-3.19963587855709E-02 
1432	 2.51190431906115E-02 
1433	 5.19853327970432E-02 
1434	 4.83619948294745E-02 
1435	 6.13262302296996E-02 
1436	 0.086414849077494 
1437	 0.131312529736057 
1438	 0.135661879352421 
1439	 9.48100694912922E-02 
1440	 3.05011102458264E-02 
1441	-0.011902538571157 
1442	 1.04446428984322E-02 
1443	 4.46616874496856E-02 
1444	 5.57625477419849E-02 
1445	 7.35491741599513E-02 
1446	 9.17018424223906E-02 
1447	 7.75202600693995E-02 
1448	 5.25471535455633E-02 
1449	 5.65564872546487E-02 
1450	 7.81335042853602E-02 
1451	 7.84549558044742E-02 
1452	 6.31592142991829E-02 
1453	 6.17679038301249E-02 
1454	 0.066491812876231 
1455	 6.37821136470057E-02 
1456	 5.92961798434105E-02 
1457	 6.46073042114065E-02 
1458	 6.78049898286552E-02 
1459	 6.10350698687176E-02 
1460	 5.78625891804353E-02 
1461	 6.40567406924367E-02 
1462	 6.75683255137932E-02 
1463	 6.43053352967303E-02 
1464	 6.08324063861676E-02 
1465	 6.22338864153365E-02 
1466	 6.56079774862589E-02 
1467	 6.51664692310633E-02 
1468	 0.061024741132346 
1469	 6.02758639383048E-02 
1470	 6.17459841348166E-02 
1471	 5.83280691693061E-02 
1472	 5.09619826801948E-02 
1473	 4.57392403088453E-02 
1474	 4.88792910201175E-02 
1475	 4.95996669654551E-02 
1476	 4.88915968379752E-02 
1477	 5.49661495849981E-02 
1478	 0.059164116065312 
1479	 5.81680254992462E-02 
1480	 5.81142027014092E-02 
1481	 6.08009654599564E-02 
1482	 6.49444106500375E-02 
1483	 6.84066983853601E-02 
1484	 6.91064692507002E-02 
1485	 7.23591700124774E-02 
1486	 7.20271775416465E-02 
1487	 6.78551423923358E-02 
1488	 6.48286954238848E-02 
1489	 0.061162892336214 
1490	 6.04809594384212E-02 
1491	 6.02694566139968E-02 
1492	 6.07254424631884E-02 
1493	 6.44148081704326E-02 
1494	 6.41314470530374E-02 
1495	 6.12689586545432E-02 
1496	 6.03586811189768E-02 
1497	 5.85755068499766E-02 
1498	 5.78450159569222E-02 
1499	 5.87511481443659E-02 
1500	 5.91693214297487E-02 
1501	 5.96935037749231E-02 
1502	 5.96248281825587E-02 
1503	 5.94098446432423E-02 
1504	 0.059010182304165 
1505	 5.76232066216053E-02 
1506	 5.70322640297482E-02 
1507	 5.81370971301139E-02 
1508	 5.89714856892177E-02 
1509	 5.88029669237452E-02 
1510	 5.88991309968207E-02 
1511	 5.81084718914259E-02 
1512	 5.67295751806965E-02 
1513	 5.72724145046903E-02 
1514	 5.75624226418101E-02 
1515	 5.70007557930465E-02 
1516	 5.75812621955188E-02 
1517	 5.76910842900256E-02 
1518	 5.72479020959974E-02 
1519	 5.71081899064694E-02 
1520	 5.70542306352721E-02 
1521	 5.71033877902499E-02 
1522	 5.69902993610217E-02 
1523	 5.73708413227125E-02 
1524	 5.74114587947521E-02 
1525	 5.65483129040629E-02 
1526	 5.65218732638757E-02 
1527	 5.68045365904555E-02 
1528	 5.68059954549993E-02 
1529	 5.74008292406958E-02 
1530	 5.74297581673711E-02 
1531	 5.64889595217851E-02 
1532	 5.57697656344661E-02 
1533	 5.55095914807754E-02 
1534	 5.57141440923539E-02 
1535	 5.57476402526964E-02 
1536	 0.055425056466727 
1537	 5.52657607827029E-02 
1538	 5.52256371821492E-02 
1539	 5.54193342363011E-02 
1540	 0.05555001419514 
1541	 0.055256801675842 
1542	 5.51667274682542E-02 
1543	 5.53402025043262E-02 
1544	 5.55381398493106E-02 
1545	 5.57170019720336E-02 
1546	 5.55666643531905E-02 
1547	 5.53840319333195E-02 
1548	 5.54418142009847E-02 
1549	 5.59751149898027E-02 
1550	 5.60247014806467E-02 
1551	 5.51222480033199E-02 
1552	 5.48920258167001E-02 
1553	 5.50227546379293E-02 
1554	 0.054713195867878 
1555	 5.47691124287876E-02 
1556	 5.50807564696979E-02 
1557	 5.51317536505784E-02 
1558	 5.49415323249758E-02 
1559	 5.46995296259418E-02 
1560	 5.45850775927392E-02 
1561	 5.43718859589402E-02 
1562	 5.43079066876539E-02 
1563	 5.47505882264284E-02 
1564	 0.055216454134447 
1565	 5.48992199868032E-02 
1566	 5.41581851932893E-02 
1567	 5.39779751895081E-02 
1568	 5.36688149179809E-02 
1569	 5.34695622826927E-02 
1570	 5.40074802772335E-02 
1571	 5.38991505454937E-02 
1572	 5.38040423208615E-02 
1573	 5.45138050065661E-02 
1574	 5.47459256769928E-02 
1575	 5.43775351180223E-02 
1576	 5.39922992051805E-02 
1577	 5.38449562103557E-02 
1578	 5.40143016211267E-02 
1579	 5.40984567658952E-02 
1580	 5.41430772731062E-02 
1581	 5.45809969270892E-02 
1582	 5.45385081825432E-02 
1583	 5.40665394643205E-02 
1584	 5.40466508988175E-02 
1585	 5.39944730244675E-02 
1586	 5.39561062987722E-02 
1587	 0.054481337227591 
1588	 5.49697312201451E-02 
1589	 5.47006989999397E-02 
1590	 5.42594271556077E-02 
1591	 5.38741359246259E-02 
1592	 5.34924806907084E-02 
1593	 5.35568316142645E-02 
1594	 5.38307043442588E-02 
1595	 5.41213847848709E-02 
1596	 0.054425581425496 
1597	 5.45124525326472E-02 
1598	 5.42065415175615E-02 
1599	 5.38307437505498E-02 
1600	 5.40009078451859E-02 
1601	 5.45919388259702E-02 
1602	 5.46188323857836E-02 
1603	 5.42559831955019E-02 
1604	 5.45142737092938E-02 
1605	 5.44968802639523E-02 
1606	 0.054173512449526 
1607	 5.42943443632729E-02 
1608	 5.45732825564543E-02 
1609	 5.48097759480432E-02 
1610	 5.43641482081296E-02 
1611	 5.40251720395872E-02 
1612	 5.42226540120158E-02 
1613	 5.42833236705951E-02 
1614	 5.41899582217159E-02 
1615	 5.38740422921578E-02 
1616	 0.053856583483718 
1617	 5.34697931584974E-02 
1618	 5.30500788804374E-02 
1619	 5.38433853162287E-02 
1620	 5.39827349678551E-02 
1621	 0.053461983329447 
1622	 0.053696812040224 
1623	 5.41598923574014E-02 
1624	 5.43531033502041E-02 
1625	 5.39189903107659E-02 
1626	 5.37664100976295E-02 
1627	 5.42765375111262E-02 
1628	 5.43022615353552E-02 
1629	 5.39149813275951E-02 
1630	 5.38085285990797E-02 
1631	 5.35161103750857E-02 
1632	 5.27783042391767E-02 
1633	 5.28950259190743E-02 
1634	 5.38380730950671E-02 
1635	 5.38523655577594E-02 
1636	 5.26782027727855E-02 
1637	 0.051995998398873 
1638	 5.25772245084855E-02 
1639	 5.33022751533425E-02 
1640	 5.36143095688339E-02 
1641	 0.053723748376002 
1642	 5.34943005138938E-02 
1643	 5.31217751147278E-02 
1644	 5.33747778485815E-02 
1645	 5.40224499209845E-02 
1646	 0.053867962354831 
1647	 5.28158972730365E-02 
1648	 5.23751200090148E-02 
1649	 5.29599161822515E-02 
1650	 5.30368183616101E-02 
1651	 5.31256211971127E-02 
1652	 5.35180030215267E-02 
1653	 5.38359757664003E-02 
1654	 5.38973220780011E-02 
1655	 0.054094990126291 
1656	 5.40001728351563E-02 
1657	 5.29476200748232E-02 
1658	 5.27424704598682E-02 
1659	 5.32005170259417E-02 
1660	 5.33410707757443E-02 
1661	 5.38235980460782E-02 
1662	 5.39548855534686E-02 
1663	 5.36056943503939E-02 
1664	 5.33439269978514E-02 
1665	 5.29332743183618E-02 
1666	 5.30747886887256E-02 
1667	 0.053803495074606 
1668	 5.42959578846344E-02 
1669	 5.35595400739609E-02 
1670	 5.23193334728479E-02 
1671	 5.22520431670633E-02 
1672	 5.25448543354031E-02 
1673	 5.28195535475922E-02 
1674	 5.39325992180835E-02 
1675	 0.054418561629889 
1676	 5.37110144019979E-02 
1677	 0.05307465415258 
1678	 0.053148724829236 
1679	 5.29238311597766E-02 
1680	 5.24970356473955E-02 
1681	 5.33623139737585E-02 
1682	 5.38780583211421E-02 
1683	 5.32183296244943E-02 
1684	 5.32997071825237E-02 
1685	 5.39201983039498E-02 
1686	 5.38982792290571E-02 
1687	 5.40150071315564E-02 
1688	 5.42803174673498E-02 
1689	 5.38981230175905E-02 
1690	 5.33029522568175E-02 
1691	 0.053517827404581 
1692	 5.40315247255778E-02 
1693	 5.34788024906621E-02 
1694	 5.34129629622163E-02 
1695	 5.32422312812002E-02 
1696	 5.18894231028671E-02 
1697	 5.24709059297599E-02 
1698	 5.36871197577812E-02 
1699	 5.33875006147156E-02 
1700	 5.39277115655968E-02 
1701	 5.40276597382296E-02 
1702	 5.22986473122697E-02 
1703	 5.20441927685706E-02 
1704	 5.30657477031204E-02 
1705	 5.34888895030507E-02 
1706	 0.053481433621194 
1707	 5.28022632285444E-02 
1708	 5.28859977432662E-02 
1709	 5.30738547019604E-02 
1710	 0.053017657484048 
1711	 5.43427154982711E-02 
1712	 5.38941364574267E-02 
1713	 5.29426201140357E-02 
1714	 5.35618531215708E-02 
1715	 0.054298301562218 
1716	 5.43751224696148E-02 
1717	 5.49966586276837E-02 
1718	 5.37927247258964E-02 
1719	 5.25255815666855E-02 
1720	 5.31970358794974E-02 
1721	 5.34717606568126E-02 
1722	 5.30214427107433E-02 
1723	 5.40360139558072E-02 
1724	 5.58443971183561E-02 
1725	 5.60411991134433E-02 
1726	 5.52770776466361E-02 
1727	 5.50217521182634E-02 
1728	 5.47524926824556E-02 
1729	 5.49711673073975E-02 
1730	 5.55634802463055E-02 
1731	 0.056064264646992 
1732	 5.54002589656256E-02 
1733	 5.29389741776857E-02 
1734	 5.32686340086925E-02 
1735	 5.45489586691953E-02 
1736	 5.33337204720324E-02 
1737	 5.45206648883806E-02 
1738	 5.52634089649094E-02 
1739	 5.31804948849139E-02 
1740	 0.053004310933883 
1741	 5.26341096360415E-02 
1742	 5.17726286604938E-02 
1743	 5.30543152232757E-02 
1744	 5.32984212087834E-02 
1745	 5.23572243389381E-02 
1746	 0.051563941700054 
1747	 5.14745260081256E-02 
1748	 0.052955966457629 
1749	 5.38378786615285E-02 
1750	 5.48717384828204E-02 
1751	 5.52624086949178E-02 
1752	 5.49637261449211E-02 
1753	 5.43334493318286E-02 
1754	 5.23280154041468E-02 
1755	 5.26107235217151E-02 
1756	 5.47018892945666E-02 
1757	 5.55731812634044E-02 
1758	 0.055649720840566 
1759	 0.055364266043218 
1760	 5.53685057194477E-02 
1761	 5.63754637535016E-02 
1762	 5.74866509236678E-02 
1763	 0.056141463517981 
1764	 5.25076136264548E-02 
1765	 5.18966571256384E-02 
1766	 5.32850414394644E-02 
1767	 5.38209581570734E-02 
1768	 0.055432518635065 
1769	 5.49154962940136E-02 
1770	 5.30989371761116E-02 
1771	 0.05491723426377 
1772	 5.71468917524265E-02 
1773	 5.56309215377286E-02 
1774	 5.33194954192325E-02 
1775	 5.29432650416712E-02 
1776	 5.20615899820134E-02 
1777	 5.50433322599228E-02 
1778	 5.63960165503377E-02 
1779	 5.34939683362107E-02 
1780	 5.34408468535119E-02 
1781	 5.58917134036864E-02 
1782	 5.71647176741343E-02 
1783	 0.058867556884806 
1784	 6.02706693505826E-02 
1785	 6.20937657284602E-02 
1786	 6.25471508884837E-02 
1787	 6.10212944577789E-02 
1788	 6.08204309082061E-02 
1789	 6.12652208582383E-02 
1790	 5.78099111511552E-02 
1791	 5.79556383476735E-02 
1792	 6.24758143750686E-02 
1793	 0.050590100274443 
1794	 3.93597989708361E-02 
1795	 3.65495127411456E-02 
1796	 3.07028389332578E-02 
1797	 4.41479798755528E-02 
1798	 7.86250619332346E-02 
1799	 9.72143437858898E-02 
1800	 6.71029174208552E-02 
1801	 5.78965033001313E-02 
1802	 0.025988370882807 
1803	 1.89452154227617E-02 
1804	 0.13027267379416 
1805	 0.165174032912272 
1806	 7.07028036300733E-02 
1807	 5.65357797494118E-02 
1808	-1.49860361285848E-02 
1809	-9.10884025597321E-02 
1810	 4.04600928446729E-02 
1811	 1.86179709427317E-02 
1812	-0.206421454379497 
1813	-0.266806784755534 
1814	-0.433464818057646 
1815	-1.09740510974738 
1816	-0.941655217942881 
1817	-1.15236936065945 
1818	-0.7009511705564 
1819	-0.313416182023391 
1820	 0.176890684709655 
1821	 1.12466602116769 
1822	 2.17811412536482 
1823	 0.124526579308592 
1824	-0.440129215973406 
1825	-0.647316607593127 
1826	-0.715966627812303 
1827	-0.554323566315979 
1828	-0.514501147192545 
1829	-0.668756627736775 
1830	-0.556318094852485 
1831	 0.116229823474033 
1832	-0.972302938650182 
1833	-20.6396292032769 
1834	-8.34735121067859 
1835	-0.897376713668194 
1836	-0.461018179846309 
1837	 0.418948255565807 
1838	 0.796679913151041 
1839	 1.50414445033043 
1840	-1.57414587301421 
1841	-2.68390092563153 
1842	-2.46150198698329 
1843	-3.92656745993801 
1844	-0.434051166588381 
1845	-0.503864840970772 
1846	-0.620219861182244 
1847	-0.922339711084208 
1848	 0.326288497877337 
1849	-0.407260294111765 
1850	 0.188483835773185 
1851	 0.370438447361487 
1852	 0.43663576450046 
1853	 1.01330235052583 
1854	 1.86973642223946 
1855	-1.42865655556813 
1856	-1.3076067834189 
1857	-3.2222142552753 
1858	-2.61366157076808 
1859	-8.09026438515048 
1860	 1.72816544698047 
1861	 1.55881803981514 
1862	-0.459400222146118 
1863	 0.176114520406883 
1864	-0.481002545389682 
1865	-1.18886428675134 
1866	-5.79201556689348 
1867	-10.1464591966945 
1868	 15.7862439303007 
1869	-10.9403966644083 
1870	-0.511554665463915 
1871	 8.65842769643171E-02 
1872	-0.111430086870431 
1873	-7.96056151496144E-02 
1874	 1.77824004925778E-02 
1875	-0.336207585497149 
1876	-0.299375645372486 
1877	 6.91686262482014E-02 
1878	 9.82278299306761E-02 
1879	 0.233463059824654 
1880	 0.32461536265933 
1881	 0.236443009754005 
1882	-0.278201880730645 
1883	-11.2327573991167 
1884	 2.3108446821909 
1885	 1.9412087888011 
1886	 0.794733473100356 
1887	 0.9480578778976 
1888	 1.29099599351401 
1889	 1.49630424071577 
1890	 2.08957333786519 
1891	 1.61099542072033 
1892	 0.991236240845324 
1893	 0.582879716989712 
1894	 6.17687403992513E-02 
1895	-0.578925503873795 
1896	-4.27727982810784 
1897	 7.77267013953565 
1898	 0.536148317141211 
1899	-0.57647788403691 
1900	-0.445266892764428 
1901	-0.382184449563246 
1902	-0.614364125794228 
1903	 9.91586666766456E-02 
1904	 1.25495971831847 
1905	-0.654798783830187 
1906	-1.84203978750831 
1907	-5.6731351078085 
1908	-51.8409624077349 
1909	-65.4795430981867 
1910	-1.53189469207468 
1911	-0.439722429936209 
1912	-0.942426741603189 
1913	-0.724167308261016 
1914	 0.623670797060296 
1915	 0.390547298048174 
1916	 0.660501128963347 
1917	-9.61298279446496E-02 
1918	-0.676364385517693 
1919	-0.517567151154377 
1920	-0.938775874822172 
1921	-0.810075559816835 
1922	-0.941893332402678 
1923	-0.987231790140653 
1924	-0.396085521672017 
1925	 0.731514712847765 
1926	 2.16296179494525 
1927	 3.96869446273005 
1928	 1.36409428754302 
1929	-0.104063074048111 
1930	-1.42432526232354 
1931	-1.40111708505037 
1932	-1.26858623842506 
1933	-0.738780904947574 
1934	-0.561685557904228 
1935	-0.869876784241358 
1936	-0.635756661862743 
1937	 0.148650450913095 
1938	 0.204312467255152 
1939	 0.425608851305107 
1940	 0.681099925253366 
1941	-12.6200208908212 
1942	-1.82316758834436 
1943	-0.975923777813382 
1944	-0.817749803805456 
1945	-0.205513908669792 
1946	 0.521075485403573 
1947	 6.18144799504545E-02 
1948	-0.23342645598537 
1949	-0.584979405781086 
1950	-0.370543088508859 
1951	 0.025140138600001 
1952	 9.33751426367256E-02 
1953	 0.181268461666562 
1954	 0.47156886573858 
1955	 0.347295760732782 
1956	 9.78346705979759E-02 
1957	 0.115564732483017 
1958	 0.120164714409832 
1959	 9.52681766762564E-02 
1960	 8.61366892975872E-02 
1961	 7.80256598266731E-02 
1962	 7.25568496582659E-02 
1963	 5.51001376816303E-02 
1964	 0.04852930632343 
1965	 5.58533322808787E-02 
1966	 7.05104664388114E-02 
1967	 9.25287134009688E-02 
1968	 0.103468729880386 
1969	 0.105370440283615 
1970	 0.100788739434553 
1971	 7.92216831121585E-02 
1972	 0.06563539131378 
1973	 6.15418199336129E-02 
1974	 6.03338097944168E-02 
1975	 6.21259059473664E-02 
1976	 6.01933600539017E-02 
1977	 5.63708245454236E-02 
1978	 0.059306249141662 
1979	 6.06413477119335E-02 
1980	 6.37553133110549E-02 
1981	 6.06231513727381E-02 
1982	 6.28308331029889E-02 
1983	 6.35148839192061E-02 
1984	 6.09288648742827E-02 
1985	 0.068490244178785 
1986	 7.19317253558577E-02 
1987	 6.91343655077002E-02 
1988	 7.01674356382826E-02 
1989	 6.88808305392836E-02 
1990	 6.54592488225334E-02 
1991	 6.54939242477929E-02 
1992	 6.18437361470567E-02 
1993	 5.57384114460443E-02 
1994	 5.45400944721282E-02 
1995	 5.70214578213694E-02 
1996	 5.96828639903912E-02 
1997	 6.18766502854745E-02 
1998	 6.47693803350259E-02 
1999	 6.81353601662218E-02 
2000	 6.93092169353156E-02 
2001	 7.37008490568859E-02 
2002	 8.68811384774209E-02 
2003	 9.23760967556505E-02 
2004	 8.33232706160226E-02 
2005	 7.96187943053092E-02 
2006	 8.00675636491634E-02 
2007	 7.26552741875646E-02 
2008	 7.93879625129335E-02 
2009	 8.38627944767688E-02 
2010	 8.88401575640778E-02 
2011	 8.44495425329531E-02 
2012	 0.075872849403082 
2013	 7.80595489168767E-02 
2014	 6.94531727946349E-02 
2015	 6.16295401674404E-02 
2016	 6.68534450627375E-02 
2017	 5.92167887410363E-02 
2018	 5.14665502322558E-02 
2019	 4.86557779040731E-02 
2020	 4.23132120355309E-02 
2021	 4.41739363592292E-02 
2022	 5.13758377410293E-02 
2023	 5.44834239836328E-02 
2024	 5.53270217403138E-02 
2025	 5.67022409269416E-02 
2026	 5.47966627116101E-02 
2027	 4.71108196993635E-02 
2028	 4.72975037954454E-02 
2029	 5.10136415296966E-02 
2030	 5.49109564371507E-02 
2031	 5.89301424619874E-02 
2032	 6.10393280762066E-02 
2033	 5.91176986255878E-02 
2034	 5.58961187767428E-02 
2035	 5.51111842063074E-02 
2036	 5.48693770972353E-02 
2037	 5.55908799257045E-02 
2038	 5.66571619163518E-02 
2039	 5.69183197418795E-02 
2040	 5.66555066120406E-02 
2041	 5.68826981742532E-02 
2042	 5.69435842122744E-02 
2043	 0.05634079798927 
2044	 5.56955624438388E-02 
2045	 5.47953298284238E-02 
2046	 5.46981469892872E-02 
2047	 5.94816724158665E-02 
2048	 6.21119469736452E-02 
2049	 6.20568349087392E-02 
2050	 0.061121038638201 
2051	 5.37013786152429E-02 
2052	 4.98360069510686E-02 
2053	 5.27336246166349E-02 
2054	 5.32740464366282E-02 
2055	 5.42954382060153E-02 
2056	 5.38157522477454E-02 
2057	 5.02555840048019E-02 
2058	 4.94867335564915E-02 
2059	 4.87385866976086E-02 
2060	 4.99456147470688E-02 
2061	 5.41307999939759E-02 
2062	 5.74633736905297E-02 
2063	 5.87230038931232E-02 
2064	 5.98008694195741E-02 
2065	 6.07492475660043E-02 
2066	 6.06646682098408E-02 
2067	 6.10263533735982E-02 
2068	 6.23713729274852E-02 
2069	 6.17995979356665E-02 
2070	 5.95612990827667E-02 
2071	 5.64788783737376E-02 
2072	 5.24067116586028E-02 
2073	 0.05084851176473 
2074	 5.02336800893477E-02 
2075	 4.99227447431144E-02 
2076	 5.19993410493778E-02 
2077	 5.22015745711306E-02 
2078	 4.99271471724271E-02 
2079	 4.98458990014845E-02 
2080	 5.06646675047137E-02 
2081	 5.16765246044053E-02 
2082	 5.19875798846705E-02 
2083	 5.51444573696175E-02 
2084	 5.82423054226248E-02 
2085	 5.82991811904355E-02 
2086	 5.78772584065058E-02 
2087	 5.60608706394085E-02 
2088	 5.41650340839988E-02 
2089	 5.46827409369198E-02 
2090	 5.62175748421765E-02 
2091	 5.66731441647612E-02 
2092	 5.64324598546979E-02 
2093	 5.44339321886139E-02 
2094	 5.33850019164368E-02 
2095	 5.14305278831944E-02 
2096	 5.21044255544457E-02 
2097	 5.48735441841923E-02 
2098	 5.62336317556839E-02 
2099	 5.82344994720003E-02 
2100	 6.10425456484364E-02 
2101	 6.02307245396411E-02 
2102	 5.71928686559027E-02 
2103	 5.72745661845047E-02 
2104	 5.60466237546128E-02 
2105	 5.28660156436068E-02 
2106	 0.052430588256964 
2107	 5.07822643699832E-02 
2108	 4.81754052231448E-02 
2109	 4.94378916405618E-02 
2110	 5.12922488033152E-02 
2111	 5.07030287332933E-02 
2112	 5.02341072143578E-02 
2113	 5.08770075482239E-02 
2114	 5.20861371075538E-02 
2115	 5.17188769636314E-02 
2116	 5.15084734148775E-02 
2117	 0.051463948255354 
2118	 0.049025385784151 
2119	 4.94838837211197E-02 
2120	 5.21887160613789E-02 
2121	 5.47749066200926E-02 
2122	 5.89208218318854E-02 
2123	 6.02968110447108E-02 
2124	 5.74618929064915E-02 
2125	 5.67261508794791E-02 
2126	 5.41755738014857E-02 
2127	 0.049952769468853 
2128	 4.92077861482484E-02 
2129	 5.05767618750168E-02 
2130	 5.00881689585126E-02 
2131	 4.88710686634569E-02 
2132	 0.047733057108817 
2133	 4.45750231547548E-02 
2134	 4.37840707933257E-02 
2135	 4.38172791586151E-02 
2136	 4.49622556458913E-02 
2137	 4.84489143453323E-02 
2138	 5.02938117949134E-02 
2139	 5.22484634345113E-02 
2140	 5.32332690184741E-02 
2141	 5.40258293058875E-02 
2142	 5.35241849294866E-02 
2143	 0.050881626992496 
2144	 5.01142084313338E-02 
2145	 4.97546825667477E-02 
2146	 4.94765131499449E-02 
2147	 5.31089198930734E-02 
2148	 5.61582936295443E-02 
2149	 5.75690281613553E-02 
2150	 5.78594016255172E-02 
2151	 0.055732645316662 
2152	 5.41170178442155E-02 
2153	 5.40531521055199E-02 
2154	 5.48615249266188E-02 
2155	 5.57102341420443E-02 
2156	 5.61807265919424E-02 
2157	 5.58479703873795E-02 
2158	 5.29388389439188E-02 
2159	 5.29000949887474E-02 
2160	 5.49040524427633E-02 
2161	 5.57572972955045E-02 
2162	 5.78660900477656E-02 
2163	 5.72710779474394E-02 
2164	 5.34478845869003E-02 
2165	 5.19734437246322E-02 
2166	 5.19405862061186E-02 
2167	 5.11045862511728E-02 
2168	 5.00293057000757E-02 
2169	 4.91198003596831E-02 
2170	 4.69347238896003E-02 
2171	 4.49031931988596E-02 
2172	 4.73424948849458E-02 
2173	 5.00878079876005E-02 
2174	 4.99376729831121E-02 
2175	 4.98430747714533E-02 
2176	 4.90082941599382E-02 
2177	 5.11111541763212E-02 
2178	 5.63645087199629E-02 
2179	 5.71461204850927E-02 
2180	 5.37899848759714E-02 
2181	 5.06817602744622E-02 
2182	 4.80653030066578E-02 
2183	 0.047473061847032 
2184	 5.13250186276226E-02 
2185	 5.43319248553589E-02 
2186	 5.29936354231964E-02 
2187	 4.69537946253236E-02 
2188	 4.53683742441252E-02 
2189	 4.15473159934023E-02 
2190	 3.98857126017847E-02 
2191	 4.42023535316941E-02 
2192	 4.45010955727354E-02 
2193	 4.08994966744552E-02 
2194	 4.09643048700496E-02 
2195	 4.21901305205834E-02 
2196	 4.28774034565591E-02 
2197	 4.63909831655606E-02 
2198	 4.74482127965433E-02 
2199	 4.84391118254592E-02 
2200	 4.39876510423787E-02 
2201	 4.18208796877512E-02 
2202	 0.041519613006459 
2203	 4.16662163539287E-02 
2204	 0.047643718539284 
2205	 5.25514188748575E-02 
2206	 0.057087271726483 
2207	 5.68655740204108E-02 
2208	 5.06515355538685E-02 
2209	 4.78586700869619E-02 
2210	 0.046027515121295 
2211	 4.94644754712353E-02 
2212	 5.64600940733654E-02 
2213	 5.67085673085007E-02 
2214	 5.46128999271091E-02 
2215	 5.52043639274562E-02 
2216	 5.35272426395913E-02 
2217	 0.052414439074254 
2218	 5.58820435289187E-02 
2219	 5.68099153439411E-02 
2220	 5.31970994886306E-02 
2221	 5.20457719239567E-02 
2222	 5.35340349246387E-02 
2223	 5.12890883647701E-02 
2224	 4.58182188581461E-02 
2225	 4.41074599409642E-02 
2226	 4.29246592606779E-02 
2227	 4.22093698959746E-02 
2228	 4.35102158447603E-02 
2229	 4.44161436341654E-02 
2230	 4.45175538366566E-02 
2231	 0.047060532792831 
2232	 5.38167325564324E-02 
2233	 5.51213404129099E-02 
2234	 5.64173499660954E-02 
2235	 5.35773492094862E-02 
2236	 4.53551418460423E-02 
2237	 4.22632981150279E-02 
2238	 4.36127575347085E-02 
2239	 0.046573267384416 
2240	 5.14729150184425E-02 
2241	 5.35456589912926E-02 
2242	 5.48115881833359E-02 
2243	 5.34573910067815E-02 
2244	 5.30556633321123E-02 
2245	 5.67453565169375E-02 
2246	 5.28747139265175E-02 
2247	 4.81802768395528E-02 
2248	 4.58462902212903E-02 
2249	 3.95070005753088E-02 
2250	 3.61442408195315E-02 
2251	 3.52635441347653E-02 
2252	 3.48540492917127E-02 
2253	 3.68298553146678E-02 
2254	 3.98218598802678E-02 
2255	 4.47712352290086E-02 
2256	 4.66650550970856E-02 
2257	 4.03475531861235E-02 
2258	 3.76498725293097E-02 
2259	 0.0386630091174 
2260	 4.05508833313864E-02 
2261	 4.75988017897959E-02 
2262	 5.31775189296938E-02 
2263	 6.04276509722581E-02 
2264	 6.14806102890384E-02 
2265	 6.02277496798512E-02 
2266	 5.76570781439392E-02 
2267	 4.91385750686636E-02 
2268	 4.28235457167503E-02 
2269	 3.38790031021625E-02 
2270	 3.32104148182966E-02 
2271	 3.87181452500783E-02 
2272	 4.15991951529542E-02 
2273	 5.03698190836934E-02 
2274	 5.37905493361772E-02 
2275	 4.87210933479267E-02 
2276	 0.04905319295297 
2277	 5.79733026793325E-02 
2278	 5.68508831062179E-02 
2279	 4.57952671204041E-02 
2280	 4.36625627834278E-02 
2281	 4.28270656026008E-02 
2282	 3.83018052994398E-02 
2283	 3.61262282658789E-02 
2284	 0.042151256821228 
2285	 4.30576631706902E-02 
2286	 3.57522030278188E-02 
2287	 3.83396757360699E-02 
2288	 4.80654096440362E-02 
2289	 4.61011996875361E-02 
2290	 4.52973122767517E-02 
2291	 4.56231947713343E-02 
2292	 4.38421992939306E-02 
2293	 4.78418581583893E-02 
2294	 5.83674487566171E-02 
2295	 7.35411194976933E-02 
2296	 7.75370863119902E-02 
2297	 7.13081483129316E-02 
2298	 6.76114669868668E-02 
2299	 6.26301337901287E-02 
2300	 5.82315708021553E-02 
2301	 5.72093153555599E-02 
2302	 5.92100695423228E-02 
2303	 0.057942343410474 
2304	 4.86845926748609E-02 
2305	 4.65329573032214E-02 
2306	 4.68654569411377E-02 
2307	 4.41441242158844E-02 
2308	 0.046189577622354 
2309	 4.29858127761375E-02 
2310	 3.57019754917063E-02 
2311	 3.42351870488479E-02 
2312	 0.04134323957294 
2313	 4.79817075865549E-02 
2314	 5.12232832407528E-02 
2315	 6.31116194115332E-02 
2316	 6.57944258746903E-02 
2317	 7.06377262934329E-02 
2318	 7.88643469833616E-02 
2319	 6.88725908528164E-02 
2320	 5.65755028770607E-02 
2321	 2.70968720171577E-02 
2322	 9.45829665919778E-03 
2323	 7.95551391461345E-03 
2324	-5.51223125473835E-03 
2325	-1.77930603883936E-04 
2326	 1.09668346389625E-02 
2327	 1.63022766347413E-02 
2328	 3.14262427385522E-02 
2329	 4.06656524132593E-02 
2330	 5.04201576387939E-02 
2331	 5.67982150175383E-02 
2332	 5.29647642943125E-02 
2333	 5.45523415957297E-02 
2334	 5.16932512764634E-02 
2335	 5.12558495692383E-02 
2336	 4.82404984119736E-02 
2337	 4.98885248639553E-02 
2338	 7.07783334035297E-02 
2339	 7.29715988722615E-02 
2340	 6.17732999293413E-02 
2341	 5.00195278290419E-02 
2342	 1.52772707054765E-02 
2343	-5.34012794697916E-03 
2344	 3.25763821343466E-03 
2345	 5.60911338055276E-03 
2346	 1.13816505971155E-02 
2347	 1.43414355095688E-02 
2348	 2.16710464394599E-03 
2349	 1.74434075808977E-02 
2350	 4.51833595194733E-02 
2351	 4.30053102017873E-02 
2352	 3.62159832937765E-02 
2353	 0.019239090272879 
2354	 1.65705937917283E-02 
2355	 0.039295875302358 
2356	 5.24712929084967E-02 
2357	 7.35743749700271E-02 
2358	 6.92843782812115E-02 
2359	 4.06256153427749E-02 
2360	 3.89268837218743E-02 
2361	 4.62814894127572E-02 
2362	 6.37282636510605E-02 
2363	 7.24524718870538E-02 
2364	 0.057550634158262 
2365	 3.65088240968511E-02 
2366	-1.81851532571375E-02 
2367	-6.49748199157545E-02 
2368	-4.88931225208677E-02 
2369	-2.69163318309251E-02 
2370	-2.32871739394007E-02 
2371	 1.14965614581198E-02 
2372	-1.65095648318182E-02 
2373	-4.93210411526439E-02 
2374	 0.013634114289276 
2375	 1.87408972949022E-02 
2376	 1.70403249910767E-02 
2377	 4.56785405316525E-02 
2378	 1.22196315073003E-02 
2379	-7.16170666313198E-02 
2380	-4.18732970144787E-02 
2381	 3.43107816213184E-03 
2382	-7.87538929182354E-02 
2383	-7.68034167791012E-02 
2384	 1.22695106494342E-02 
2385	 0.181641689130292 
2386	 0.332184055952946 
2387	 0.311307023325616 
2388	 0.32705760173348 
2389	 0.239532964627737 
2390	 0.229401891029948 
2391	 0.415847347798283 
2392	 0.447234527350685 
2393	 0.271141813770737 
2394	 1.47746324338966E-02 
2395	-9.00955303042743E-02 
2396	-9.30006755275144E-02 
2397	-5.40845641676787E-02 
2398	 5.27991303374468E-02 
2399	 0.112098761085211 
2400	 0.120342957192887 
2401	 6.00990049344719E-02 
2402	-4.22736143659122E-02 
2403	-3.41328273110286E-02 
2404	-0.144629875993733 
2405	-0.405611164201308 
2406	-0.446293582676388 
2407	-0.355635973754847 
2408	-0.262775318699126 
2409	-6.28514192520858E-02 
2410	 7.42309766459536E-02 
2411	-0.149985939991081 
2412	-0.307958403904249 
2413	 6.58618011389945E-03 
2414	 0.184615764716229 
2415	 0.543419795676603 
2416	 3.66878973148158 
2417	-0.721282202381474 
2418	 2.62813416031652 
2419	 1.96470847027739 
2420	 0.138903421925133 
2421	 3.61538523048468E-03 
2422	 8.1785408340869 
2423	 6.12784360031805 
2424	-136.962273954011 
2425	-3.44178639054959 
2426	-0.760726955083725 
2427	-0.363384538149053 
2428	-0.629772852661675 
2429	-0.721729615163718 
2430	-0.629498160223394 
2431	-0.708986583801735 
2432	-0.661522468853217 
2433	-0.105388774110313 
2434	-0.18172936025432 
2435	-0.559259473756023 
2436	-0.447719751633495 
2437	-0.425060305824851 
2438	-0.358553299601294 
2439	 0.311605553699807 
2440	 0.119277467768346 
2441	-0.321387210380723 
2442	-0.21999188489396 
2443	 0.496585175079308 
2444	 1.17982267222602 
2445	-9.23905208492324E-02 
2446	 0.75149531657118 
2447	 3.03696744109368 
2448	 4.52867694271868 
2449	-1.72916917852814 
2450	-0.695493697505563 
2451	-0.269407334844567 
2452	-0.247728542280539 
2453	-0.315788159622302 
2454	 2.19853644149767 
2455	 11.3310784597469 
2456	 2.28987021515018 
2457	 1.26310322086577 
2458	 0.479342608705468 
2459	 0.202319730915702 
2460	 2.67017357468051E-02 
2461	 0.111820338919763 
2462	 0.319392535237577 
2463	 0.383863007217656 
2464	 0.551291347548507 
2465	 1.06265237554353 
2466	 1.76618664370073 
2467	 2.58769924812082 
2468	 0.540575794242064 
2469	-0.462328526255657 
2470	-0.510855489239856 
2471	-0.277892379360596 
2472	-0.223841217802348 
2473	-4.88616813962653E-02 
2474	 0.462523968951479 
2475	 0.659577016545052 
2476	 0.516519804142291 
2477	 0.280401101929036 
2478	-0.345354056321616 
2479	-0.569155292562903 
2480	-0.765482521453759 
2481	-0.714849744201497 
2482	-0.262537567436491 
2483	-0.457233202516051 
2484	-0.778883323347598 
2485	-0.857830645944544 
2486	-0.908830844921132 
2487	-0.265257857539923 
2488	-2.55514241663351E-03 
2489	 9.84043241037803E-03 
2490	 5.14399994410737E-02 
2491	 0.12362208285695 
2492	 0.106921156616154 
2493	-4.37396846687225 
2494	-0.47690501195665 
2495	 0.80649370294782 
2496	 2.41069924555763 
2497	 3.72713073057477 
2498	 0.538927016083028 
2499	 0.054728617299322 
2500	-0.416613901832899 
