Wavelength	rt0728west00000.asd
350	 7.59247956014299E-02 
351	 7.47447274015067E-02 
352	 7.52484856524896E-02 
353	 7.59656747379672E-02 
354	 7.58616678065572E-02 
355	 7.63012120155601E-02 
356	 7.65055756082081E-02 
357	 7.65070897120365E-02 
358	 0.076494000514739 
359	 7.61208228052012E-02 
360	 7.64796247413941E-02 
361	 7.69943395332332E-02 
362	 0.07625592550858 
363	 7.69144839729374E-02 
364	 7.72147261650959E-02 
365	 7.66180447767889E-02 
366	 7.72106744704319E-02 
367	 7.73177212940829E-02 
368	 7.70910882106804E-02 
369	 7.71216779072079E-02 
370	 7.78254472795244E-02 
371	 0.078146939243474 
372	 7.81385943467821E-02 
373	 7.84215924021425E-02 
374	 7.81757911669757E-02 
375	 7.83812368056022E-02 
376	 7.91188506233015E-02 
377	 7.90477000469045E-02 
378	 7.91235121437199E-02 
379	 7.92001873602771E-02 
380	 7.91659910075078E-02 
381	 7.98739218321866E-02 
382	 8.00287390716429E-02 
383	 8.00481093042184E-02 
384	 8.08907151283039E-02 
385	 8.09788393991503E-02 
386	 8.10600230417469E-02 
387	 8.14786265489582E-02 
388	 8.19066020460641E-02 
389	 0.081905438488042 
390	 8.20988889028812E-02 
391	 8.27765249407138E-02 
392	 8.29222961045674E-02 
393	 8.31402729807847E-02 
394	 0.083522504579162 
395	 0.083876423437038 
396	 8.35763138432542E-02 
397	 8.34664060583335E-02 
398	 8.37485126427047E-02 
399	 8.40210861380205E-02 
400	 0.084671446430585 
401	 8.49747063331435E-02 
402	 8.47036792452616E-02 
403	 0.085062479818093 
404	 8.52509609061618E-02 
405	 8.54743580008633E-02 
406	 8.61194817722863E-02 
407	 8.64646008776303E-02 
408	 8.64861516000798E-02 
409	 0.086460326896383 
410	 8.68640366363351E-02 
411	 8.72880344740618E-02 
412	 8.77165099428644E-02 
413	 8.80665012482248E-02 
414	 8.78438579489106E-02 
415	 8.79250597493372E-02 
416	 8.84076410270583E-02 
417	 8.89993215649988E-02 
418	 8.92969445058594E-02 
419	 8.95431004179044E-02 
420	 8.99034734944835E-02 
421	 9.03948707444975E-02 
422	 9.06594871040175E-02 
423	 9.09129196069046E-02 
424	 9.13563381881917E-02 
425	 9.18076115562205E-02 
426	 9.22324338581021E-02 
427	 9.26518737036798E-02 
428	 9.31211369204447E-02 
429	 9.37116683385321E-02 
430	 0.094203451857884 
431	 9.45735827991758E-02 
432	 9.50555227962012E-02 
433	 9.56561531350631E-02 
434	 9.62044028759674E-02 
435	 9.65999846565024E-02 
436	 9.70593389123984E-02 
437	 9.75827095215742E-02 
438	 9.80828460665583E-02 
439	 9.84642004263432E-02 
440	 9.90294301758296E-02 
441	 9.97097525384488E-02 
442	 0.100342544448831 
443	 0.100691684142277 
444	 0.101077975073728 
445	 0.10154928326229 
446	 0.102043609213971 
447	 0.102397457454918 
448	 0.102822630578886 
449	 0.103311056837418 
450	 0.10369874380671 
451	 0.104104918087091 
452	 0.104420886954347 
453	 0.104664746720687 
454	 0.105187335422498 
455	 0.105610307907715 
456	 0.105917615101747 
457	 0.106203100534925 
458	 0.106354118407147 
459	 0.106692803213916 
460	 0.107172475707526 
461	 0.107375543929875 
462	 0.107635431292516 
463	 0.10796747560192 
464	 0.10830640867516 
465	 0.108525708402099 
466	 0.108889763811197 
467	 0.10928386173847 
468	 0.109474923478692 
469	 0.109882273284112 
470	 0.110240437296764 
471	 0.110459098061057 
472	 0.110761912174949 
473	 0.111073259458774 
474	 0.111433561294984 
475	 0.111862219967987 
476	 0.112220325513061 
477	 0.11250778605822 
478	 0.112794874610993 
479	 0.113186752727274 
480	 0.11358902825125 
481	 0.114006809861069 
482	 0.114413208745457 
483	 0.114664616646922 
484	 0.115136707610517 
485	 0.115691851191441 
486	 0.116077978324239 
487	 0.116577516019531 
488	 0.117027904006297 
489	 0.117447593074512 
490	 0.118039398556612 
491	 0.118634602253297 
492	 0.119081014817964 
493	 0.119410427337051 
494	 0.120159503017438 
495	 0.120842029275163 
496	 0.121429281104446 
497	 0.122096015459863 
498	 0.122588809338362 
499	 0.123187691603361 
500	 0.123973203030427 
501	 0.12463778256685 
502	 0.125388072629805 
503	 0.126074923029765 
504	 0.126578118829104 
505	 0.127271424148327 
506	 0.128063188651759 
507	 0.128818203038601 
508	 0.129390509971349 
509	 0.129830424884227 
510	 0.13039037288981 
511	 0.131159224484951 
512	 0.131786258440881 
513	 0.132475896961687 
514	 0.133256855464441 
515	 0.134079570889939 
516	 0.134920702561573 
517	 0.135788654441027 
518	 0.13664221694454 
519	 0.137382182902352 
520	 0.138286143530776 
521	 0.139163230065575 
522	 0.1398630154569 
523	 0.14073152143072 
524	 0.141687279659117 
525	 0.142613493739006 
526	 0.143401822084393 
527	 0.144293869258641 
528	 0.145232128926352 
529	 0.146155202001968 
530	 0.147097116475909 
531	 0.147953970857706 
532	 0.148810820992651 
533	 0.149786265155517 
534	 0.150746098306786 
535	 0.15171449498185 
536	 0.152710698509184 
537	 0.153728958982721 
538	 0.154765246863629 
539	 0.155770095950505 
540	 0.156728499372479 
541	 0.157790212078489 
542	 0.158686753620285 
543	 0.159586740226469 
544	 0.160849146495166 
545	 0.161701236452048 
546	 0.162515544886909 
547	 0.163536072910751 
548	 0.164478335531082 
549	 0.165404869500228 
550	 0.1663592512527 
551	 0.167365778539322 
552	 0.168340598048736 
553	 0.169228794880573 
554	 0.170078195160937 
555	 0.171040045396722 
556	 0.172057816394449 
557	 0.173061265582855 
558	 0.173992326822929 
559	 0.17489066079112 
560	 0.175780606236445 
561	 0.1766165303703 
562	 0.177334758693097 
563	 0.178123364131693 
564	 0.178924500669462 
565	 0.179706840089926 
566	 0.180582047651869 
567	 0.181187259957115 
568	 0.181750216347978 
569	 0.182586367775062 
570	 0.183140027679234 
571	 0.183576460664538 
572	 0.18404492114257 
573	 0.184617675606823 
574	 0.18506093672527 
575	 0.185471948326303 
576	 0.185906122612673 
577	 0.186026964355567 
578	 0.186106755249708 
579	 0.186294897224048 
580	 0.186611351962941 
581	 0.186667530848979 
582	 0.186647282304978 
583	 0.186690864936823 
584	 0.186718193300326 
585	 0.186805122719409 
586	 0.187045630864167 
587	 0.187460839552901 
588	 0.187640821585429 
589	 0.187347789892511 
590	 0.186778724703448 
591	 0.18649692745771 
592	 0.186152981866554 
593	 0.185575756949002 
594	 0.184766043057085 
595	 0.184131344711842 
596	 0.183172596106566 
597	 0.181912725123627 
598	 0.180681800170807 
599	 0.179561117423448 
600	 0.178565246014916 
601	 0.177721520319746 
602	 0.177101239604568 
603	 0.176709743167169 
604	 0.176555744396004 
605	 0.176576390831128 
606	 0.176354538243624 
607	 0.176242550182031 
608	 0.176335111234326 
609	 0.176419497679061 
610	 0.17643509873648 
611	 0.176433686140892 
612	 0.176467985277767 
613	 0.176501179121124 
614	 0.176547934016958 
615	 0.176530170692606 
616	 0.17637238904967 
617	 0.17649488521473 
618	 0.176565713185241 
619	 0.176464465935625 
620	 0.176540115804769 
621	 0.176672843121505 
622	 0.176652081918096 
623	 0.176407493646071 
624	 0.176711174906045 
625	 0.176944846907631 
626	 0.176951827519437 
627	 0.177054485299543 
628	 0.176945275728507 
629	 0.176795190752246 
630	 0.176761368019986 
631	 0.176733758395086 
632	 0.176685798499041 
633	 0.176603857388313 
634	 0.176506409028738 
635	 0.176587888250893 
636	 0.176506413513038 
637	 0.176246841866088 
638	 0.176328285216867 
639	 0.176228279825774 
640	 0.17605511163525 
641	 0.176025518596504 
642	 0.176004478995618 
643	 0.175973727557923 
644	 0.175955691492202 
645	 0.176008708037768 
646	 0.176210837440319 
647	 0.176230834282511 
648	 0.175864461999711 
649	 0.175342730921396 
650	 0.174922612728217 
651	 0.174566854864796 
652	 0.174127766573866 
653	 0.173541864704473 
654	 0.172872424046755 
655	 0.172053823000731 
656	 0.170959249367883 
657	 0.170126473247389 
658	 0.169361146893741 
659	 0.168447941003348 
660	 0.167628604714656 
661	 0.167043933771111 
662	 0.166672225108728 
663	 0.166373973965348 
664	 0.165921994888583 
665	 0.165470346398564 
666	 0.165117184719527 
667	 0.164768071756633 
668	 0.164621329013701 
669	 0.16455917761976 
670	 0.164392212024086 
671	 0.16412207452479 
672	 0.164082464609977 
673	 0.164268537460302 
674	 0.164351109998176 
675	 0.164285069539919 
676	 0.164310739270985 
677	 0.164573632377803 
678	 0.164852332629689 
679	 0.165051015630224 
680	 0.165213360827192 
681	 0.165453007589662 
682	 0.165777130655833 
683	 0.166193349319683 
684	 0.166678022627527 
685	 0.167218845088621 
686	 0.168055437205233 
687	 0.16856896347858 
688	 0.168327328158423 
689	 0.168367978149141 
690	 0.168540481672179 
691	 0.1687937227483 
692	 0.16906940435946 
693	 0.168750765299494 
694	 0.16802111722433 
695	 0.16719462945489 
696	 0.166340445159346 
697	 0.16586980010523 
698	 0.16549119399911 
699	 0.164777859038086 
700	 0.163756436480909 
701	 0.162483914102992 
702	 0.161120379694771 
703	 0.159801762350291 
704	 0.1584383825542 
705	 0.157122893118987 
706	 0.155800279785592 
707	 0.153875208464422 
708	 0.151971658467223 
709	 0.150011515498739 
710	 0.147784909913078 
711	 0.145827600410885 
712	 0.143707378724476 
713	 0.141377343081274 
714	 0.139209683033771 
715	 0.137838441293819 
716	 0.136488282586897 
717	 0.134259085651539 
718	 0.131741607120214 
719	 0.128211376406528 
720	 0.124876493305489 
721	 0.122229911091388 
722	 0.120299966296286 
723	 0.11807317372814 
724	 0.115406058192262 
725	 0.11264053382346 
726	 0.10967486503467 
727	 0.106597224818154 
728	 0.103454852675069 
729	 0.100045688307258 
730	 9.64290259907105E-02 
731	 0.093025465250995 
732	 9.00271746071303E-02 
733	 0.08758522930369 
734	 8.56561785431952E-02 
735	 8.41782945184434E-02 
736	 8.29697804473775E-02 
737	 8.17666897130574E-02 
738	 8.07751058800052E-02 
739	 8.01795771935616E-02 
740	 7.96977774765056E-02 
741	 7.92526058279313E-02 
742	 7.89155446390483E-02 
743	 7.88005804557444E-02 
744	 7.87236984460834E-02 
745	 7.86775024924979E-02 
746	 0.078616911869878 
747	 0.078422119716649 
748	 7.84972807705025E-02 
749	 7.84824628150237E-02 
750	 7.81314134198785E-02 
751	 7.82404020355713E-02 
752	 7.82375376070353E-02 
753	 7.81773492068872E-02 
754	 7.83793930527915E-02 
755	 7.82708355695378E-02 
756	 7.82159312350208E-02 
757	 7.84100420759773E-02 
758	 7.87756829658867E-02 
759	 7.98137411305558E-02 
760	 8.08925306180093E-02 
761	 8.05442935925238E-02 
762	 8.07181052766079E-02 
763	 8.06526603452191E-02 
764	 8.01789571572726E-02 
765	 7.95034860566081E-02 
766	 7.92757015423309E-02 
767	 7.92852279927129E-02 
768	 7.93524115356262E-02 
769	 7.93340022466517E-02 
770	 7.95145475422825E-02 
771	 7.97535076880901E-02 
772	 7.99205067342826E-02 
773	 8.01614476625473E-02 
774	 8.03553661215928E-02 
775	 0.080522529737079 
776	 8.07675697311777E-02 
777	 8.12986715432202E-02 
778	 8.16213823191358E-02 
779	 8.17679455147978E-02 
780	 8.23083322661705E-02 
781	 8.25940100229435E-02 
782	 8.29096440965992E-02 
783	 8.34528536582686E-02 
784	 8.38188287526158E-02 
785	 8.44497012866991E-02 
786	 0.08520367403116 
787	 8.57976588241621E-02 
788	 0.086504457465009 
789	 8.69658595701111E-02 
790	 8.72727159909894E-02 
791	 0.087840724812131 
792	 8.80518229511111E-02 
793	 8.84120445466407E-02 
794	 8.91822203861481E-02 
795	 8.99733147314273E-02 
796	 9.05716483642674E-02 
797	 9.10192576088395E-02 
798	 9.14579113522994E-02 
799	 9.19064367057776E-02 
800	 9.23787895378398E-02 
801	 9.27460176605644E-02 
802	 9.28966652068866E-02 
803	 9.33953173630012E-02 
804	 9.35802769229004E-02 
805	 9.33410771623383E-02 
806	 9.32444980046277E-02 
807	 0.093374004528099 
808	 9.35302245791085E-02 
809	 9.35789205992278E-02 
810	 9.37741005841014E-02 
811	 9.38192854835881E-02 
812	 9.39674028619573E-02 
813	 9.45183638647472E-02 
814	 9.43696482163468E-02 
815	 9.37449861224953E-02 
816	 9.29147424329466E-02 
817	 9.20204110563975E-02 
818	 9.06157066466916E-02 
819	 0.089440454569977 
820	 8.86473389702336E-02 
821	 8.77603179800843E-02 
822	 8.64870801337456E-02 
823	 8.47649789207222E-02 
824	 8.28081631258971E-02 
825	 0.080779700886347 
826	 7.90770323329935E-02 
827	 7.74672168241237E-02 
828	 7.56343368640691E-02 
829	 0.073703575378306 
830	 7.20581548945877E-02 
831	 7.06229081524901E-02 
832	 0.069120642445505 
833	 6.82162669199126E-02 
834	 6.74914514497611E-02 
835	 6.67349443866369E-02 
836	 6.61776286641552E-02 
837	 0.065665914305531 
838	 6.52188793057785E-02 
839	 6.48415559366833E-02 
840	 6.43807199164678E-02 
841	 6.42889184993534E-02 
842	 6.42052613878914E-02 
843	 6.36737510780788E-02 
844	 6.32376212800989E-02 
845	 0.063119867848273 
846	 6.30623942367685E-02 
847	 6.25695358304501E-02 
848	 6.21076165749777E-02 
849	 6.19007716122045E-02 
850	 6.19216747954416E-02 
851	 6.18597420416783E-02 
852	 6.15681010165868E-02 
853	 6.12264898907449E-02 
854	 6.10298692804129E-02 
855	 6.10030756038207E-02 
856	 6.10911903621691E-02 
857	 6.09453798206054E-02 
858	 0.060395803806934 
859	 6.01280848333956E-02 
860	 5.99424845278539E-02 
861	 0.059690869150233 
862	 0.059362125996754 
863	 0.059660913358557 
864	 5.94978479047011E-02 
865	 5.89095819993277E-02 
866	 5.89775868432297E-02 
867	 5.91513032329346E-02 
868	 5.90138170570644E-02 
869	 5.85349971420792E-02 
870	 5.81507188080052E-02 
871	 5.82152176882536E-02 
872	 5.80347560470105E-02 
873	 5.73661160574073E-02 
874	 5.75001662086549E-02 
875	 0.057488708413708 
876	 5.73512517112224E-02 
877	 5.72334675029387E-02 
878	 5.65532663521096E-02 
879	 5.63961394058585E-02 
880	 5.64336785628728E-02 
881	 5.59346648376854E-02 
882	 5.61677713507435E-02 
883	 5.62902859087396E-02 
884	 5.59721893971503E-02 
885	 5.54508783907383E-02 
886	 5.53921580564394E-02 
887	 5.53963516899305E-02 
888	 5.52383311030226E-02 
889	 5.50554700018081E-02 
890	 5.50093825733589E-02 
891	 5.52539173347283E-02 
892	 5.54638394758145E-02 
893	 5.43974333521169E-02 
894	 5.52264122417632E-02 
895	 5.65270050291646E-02 
896	 5.62784219684168E-02 
897	 5.61349261136019E-02 
898	 5.56149732206203E-02 
899	 5.56745938886955E-02 
900	 5.66830904431762E-02 
901	 5.58437064996999E-02 
902	 5.50940776287435E-02 
903	 5.47777877070489E-02 
904	 5.45572779138185E-02 
905	 5.40497343254189E-02 
906	 5.41520274601122E-02 
907	 5.44746065511674E-02 
908	 5.38617091766256E-02 
909	 5.38314352621711E-02 
910	 5.47963073886299E-02 
911	 5.56119772828843E-02 
912	 5.44289292405282E-02 
913	 5.52244974441243E-02 
914	 5.39618659427678E-02 
915	 5.13364633923008E-02 
916	 5.34686556982306E-02 
917	 5.40249519072448E-02 
918	 5.27945051247653E-02 
919	 5.13022690093169E-02 
920	 5.18076778402579E-02 
921	 5.10222310185174E-02 
922	 5.06567253585211E-02 
923	 5.18303459839194E-02 
924	 5.23345226364167E-02 
925	 5.27620268325637E-02 
926	 5.28797286613308E-02 
927	 5.28186774724267E-02 
928	 5.52734733460565E-02 
929	 5.27671754775555E-02 
930	 4.78817018352681E-02 
931	 5.14947075559451E-02 
932	 6.50643176624309E-02 
933	 6.38886643590219E-02 
934	 4.92453503647696E-02 
935	 4.41570495895523E-02 
936	 5.21912829205462E-02 
937	 5.61463250951533E-02 
938	 5.16005420044063E-02 
939	 4.32364369676307E-02 
940	 0.051875902034344 
941	 5.71262420377225E-02 
942	 5.74493294065247E-02 
943	 5.82236513920688E-02 
944	 4.67552903969907E-02 
945	 4.60971982030573E-02 
946	 5.63444733749598E-02 
947	 6.14948238624355E-02 
948	 5.26239730316171E-02 
949	 4.95209429250581E-02 
950	 5.53924634669493E-02 
951	 6.16637718026419E-02 
952	 6.46414490014121E-02 
953	 5.73561541578501E-02 
954	 5.02378259636529E-02 
955	 5.80338673000205E-02 
956	 5.07126612401909E-02 
957	 4.68203836716589E-02 
958	 0.050413764795032 
959	 5.29514868984043E-02 
960	 4.97130713657123E-02 
961	 4.73815183806792E-02 
962	 4.88959390438078E-02 
963	 5.24673883277908E-02 
964	 0.051471822244659 
965	 5.02136854638306E-02 
966	 5.02996815336888E-02 
967	 5.06648246781802E-02 
968	 4.94015186740443E-02 
969	 4.84575957961149E-02 
970	 0.048695249471161 
971	 4.96845911248977E-02 
972	 5.11000913885817E-02 
973	 0.049012368051506 
974	 4.60066252485182E-02 
975	 4.92668808328217E-02 
976	 4.64867692473208E-02 
977	 4.40900175313293E-02 
978	 4.61005868632362E-02 
979	 5.09171956924048E-02 
980	 4.84363738458149E-02 
981	 4.63260752184955E-02 
982	 4.74354007727116E-02 
983	 4.89101497237892E-02 
984	 0.047456616800307 
985	 4.67406417566514E-02 
986	 4.67823620746288E-02 
987	 4.51321383253468E-02 
988	 4.68356357906185E-02 
989	 4.64048826824773E-02 
990	 4.43421059010331E-02 
991	 4.54324708964687E-02 
992	 4.68341373660245E-02 
993	 4.76531058436445E-02 
994	 4.65162795799154E-02 
995	 4.31411576039628E-02 
996	 4.51550719908911E-02 
997	 4.64887501029181E-02 
998	 4.52230677754964E-02 
999	 4.34322981911019E-02 
1000	 4.49726753680612E-02 
1001	 0.045860331136197 
1002	 4.55430133013185E-02 
1003	 4.54800233714025E-02 
1004	 4.60498347884356E-02 
1005	 4.59461760399399E-02 
1006	 4.54983480251474E-02 
1007	 4.51917803256101E-02 
1008	 4.49205068030021E-02 
1009	 4.49234655977513E-02 
1010	 4.58107346468768E-02 
1011	 4.66689499716938E-02 
1012	 0.046924370618146 
1013	 4.68346928265527E-02 
1014	 4.68909860629486E-02 
1015	 4.66846983392331E-02 
1016	 0.04656980766215 
1017	 4.65980325624554E-02 
1018	 4.65374858939484E-02 
1019	 4.64807770764752E-02 
1020	 4.62369711472362E-02 
1021	 4.58548584268504E-02 
1022	 4.53991463178069E-02 
1023	 0.04551208195442 
1024	 4.51783393650253E-02 
1025	 4.52150263320254E-02 
1026	 4.59382417257224E-02 
1027	 4.62422167000642E-02 
1028	 4.64405828761233E-02 
1029	 4.66582673378954E-02 
1030	 4.69396568069287E-02 
1031	 4.70402900980485E-02 
1032	 4.69381701924079E-02 
1033	 4.70000774356213E-02 
1034	 4.70683629575294E-02 
1035	 4.71137183607258E-02 
1036	 4.75048876917706E-02 
1037	 4.73476851634174E-02 
1038	 4.65615431840603E-02 
1039	 4.63331233712069E-02 
1040	 4.56527521290088E-02 
1041	 4.51716615719988E-02 
1042	 4.52651706216314E-02 
1043	 0.04592258488488 
1044	 4.63000090312802E-02 
1045	 4.72283594495901E-02 
1046	 4.73523931053334E-02 
1047	 4.69875204858865E-02 
1048	 4.68103808294314E-02 
1049	 4.59272705418261E-02 
1050	 4.59889134012959E-02 
1051	 4.73383600033049E-02 
1052	 4.73340279067459E-02 
1053	 4.69631638781347E-02 
1054	 4.66649419863795E-02 
1055	 4.46093740325037E-02 
1056	 4.40872391881317E-02 
1057	 4.43126803173794E-02 
1058	 4.58883658263175E-02 
1059	 4.61842752146382E-02 
1060	 4.68660126327858E-02 
1061	 0.047077396945679 
1062	 4.64488810898604E-02 
1063	 0.046192564326991 
1064	 4.59594780394432E-02 
1065	 4.60764752342407E-02 
1066	 4.61739994059094E-02 
1067	 4.63802973330769E-02 
1068	 4.76567486904097E-02 
1069	 4.78069352310057E-02 
1070	 4.66185226976299E-02 
1071	 4.64415619096771E-02 
1072	 4.65979681550686E-02 
1073	 4.62335700112394E-02 
1074	 4.63686674665071E-02 
1075	 4.74294944836251E-02 
1076	 4.77283549484015E-02 
1077	 4.76083685394158E-02 
1078	 4.76410962969764E-02 
1079	 4.75751435412635E-02 
1080	 4.75835317695521E-02 
1081	 4.77971263487854E-02 
1082	 4.75698855386677E-02 
1083	 4.68029953865876E-02 
1084	 4.68231107202182E-02 
1085	 4.69145755677627E-02 
1086	 4.69493766253887E-02 
1087	 4.81448427222086E-02 
1088	 4.84079943256874E-02 
1089	 0.047706926468363 
1090	 4.70858859366453E-02 
1091	 4.70252042989342E-02 
1092	 4.67862856709254E-02 
1093	 4.68380860976023E-02 
1094	 4.78109247461579E-02 
1095	 4.80720944252975E-02 
1096	 4.81231063953983E-02 
1097	 4.79491315358204E-02 
1098	 4.69635917857195E-02 
1099	 4.70093063045872E-02 
1100	 4.73505841125544E-02 
1101	 4.77202578502328E-02 
1102	 4.97021022698882E-02 
1103	 5.03476224528856E-02 
1104	 5.02472184265939E-02 
1105	 4.92334906855157E-02 
1106	 4.84588137864821E-02 
1107	 0.048012073370301 
1108	 4.88858420023363E-02 
1109	 5.09292723613164E-02 
1110	 5.10338806843216E-02 
1111	 5.00291173041566E-02 
1112	 5.00848789773681E-02 
1113	 4.82661601266603E-02 
1114	 0.048333412156603 
1115	 5.31911534037346E-02 
1116	 0.054890899155816 
1117	 5.43741475864501E-02 
1118	 5.44779798724673E-02 
1119	 5.07162592852105E-02 
1120	 4.94286254838978E-02 
1121	 5.05101764181509E-02 
1122	 0.05146217022147 
1123	 6.01332239641186E-02 
1124	 6.77925460653304E-02 
1125	 7.19247383319016E-02 
1126	 7.72734334774842E-02 
1127	 6.88359336274937E-02 
1128	 7.18010364542267E-02 
1129	 7.75420657042348E-02 
1130	 8.90926711741242E-02 
1131	 8.23917537800785E-02 
1132	 0.070969004917306 
1133	 6.62282771518803E-02 
1134	 5.36824770250951E-02 
1135	 5.03342351285369E-02 
1136	 6.00616809897672E-02 
1137	 6.06254169109165E-02 
1138	 5.53527319268506E-02 
1139	 5.13223859213673E-02 
1140	 5.89147966450564E-02 
1141	 5.91433383892277E-02 
1142	 0.056059399643003 
1143	 6.09482431187588E-02 
1144	 6.38323424064188E-02 
1145	 6.14325105469549E-02 
1146	 6.41511689113179E-02 
1147	 0.06521690948744 
1148	 5.63370046333222E-02 
1149	 5.31135410288287E-02 
1150	 5.43262494208324E-02 
1151	 6.00736749133633E-02 
1152	 5.92269405859463E-02 
1153	 6.07893948203137E-02 
1154	 5.81294805767021E-02 
1155	 5.10830429348646E-02 
1156	 4.81609281006061E-02 
1157	 4.81049481925139E-02 
1158	 4.76814441302875E-02 
1159	 0.048187967381681 
1160	 4.91797991542753E-02 
1161	 4.93312455369365E-02 
1162	 0.048293722546001 
1163	 4.77811519539228E-02 
1164	 4.83571818698251E-02 
1165	 4.87014358594867E-02 
1166	 4.86701312573608E-02 
1167	 4.92325314583488E-02 
1168	 4.85930088304404E-02 
1169	 4.65797785670258E-02 
1170	 4.61605209966091E-02 
1171	 4.61884844572856E-02 
1172	 4.68740769217116E-02 
1173	 0.046504815449342 
1174	 4.64264827886644E-02 
1175	 4.57564278645731E-02 
1176	 4.49141063145235E-02 
1177	 4.48033341437413E-02 
1178	 4.50429085175924E-02 
1179	 4.55911547651951E-02 
1180	 4.60982053479448E-02 
1181	 0.045722403802949 
1182	 4.55242818933424E-02 
1183	 4.59108423115742E-02 
1184	 4.62739207704727E-02 
1185	 4.63474839539812E-02 
1186	 4.59382231575654E-02 
1187	 4.58655317059359E-02 
1188	 4.60573850655436E-02 
1189	 4.59068154542448E-02 
1190	 4.60126347816471E-02 
1191	 4.60443721196915E-02 
1192	 4.59455249629938E-02 
1193	 4.52692087188942E-02 
1194	 4.50362760289877E-02 
1195	 4.54173933976501E-02 
1196	 4.59672805489571E-02 
1197	 4.61387214690719E-02 
1198	 4.58937456313762E-02 
1199	 4.57160368133094E-02 
1200	 4.55026895766957E-02 
1201	 4.52956576950145E-02 
1202	 4.53736485376135E-02 
1203	 4.55409891644079E-02 
1204	 4.53619594479677E-02 
1205	 4.53544618674218E-02 
1206	 0.045303693608099 
1207	 4.49197821434419E-02 
1208	 4.45875663561153E-02 
1209	 4.41588090753772E-02 
1210	 4.44071065216198E-02 
1211	 4.46121643819742E-02 
1212	 4.42860254655409E-02 
1213	 4.47505620547075E-02 
1214	 4.48713618057173E-02 
1215	 4.47175656639018E-02 
1216	 4.41820584728869E-02 
1217	 4.42309948884422E-02 
1218	 4.41344980299498E-02 
1219	 4.43561734829934E-02 
1220	 4.44768393454636E-02 
1221	 0.043989842778178 
1222	 4.38359112822255E-02 
1223	 0.043480693363922 
1224	 4.33891256659221E-02 
1225	 4.41207452756165E-02 
1226	 4.42731152930798E-02 
1227	 4.39594273221309E-02 
1228	 4.36418666351471E-02 
1229	 4.33024440172096E-02 
1230	 4.31724728449901E-02 
1231	 4.30073193759359E-02 
1232	 4.30511925222173E-02 
1233	 4.31547600962877E-02 
1234	 4.32072879815752E-02 
1235	 4.32368820402519E-02 
1236	 4.31487677693196E-02 
1237	 4.31261927462666E-02 
1238	 0.043096971009975 
1239	 4.32931603893316E-02 
1240	 4.32538679864883E-02 
1241	 4.32368702008555E-02 
1242	 4.32486456462819E-02 
1243	 4.30834247815135E-02 
1244	 4.28948827876258E-02 
1245	 4.28033791383345E-02 
1246	 0.042682089421464 
1247	 0.042488775126752 
1248	 4.24940532962262E-02 
1249	 4.28183208654207E-02 
1250	 4.29421031606314E-02 
1251	 4.30274365324712E-02 
1252	 4.36336086300924E-02 
1253	 4.38834441329205E-02 
1254	 4.35657714903161E-02 
1255	 4.36403090670589E-02 
1256	 0.043636220202679 
1257	 4.30637262194548E-02 
1258	 4.27836692050714E-02 
1259	 4.28648053854151E-02 
1260	 4.30148108357884E-02 
1261	 4.32151749548791E-02 
1262	 4.31791462593603E-02 
1263	 4.32984684116172E-02 
1264	 4.34007935793782E-02 
1265	 4.33850698054196E-02 
1266	 4.34243910450721E-02 
1267	 4.33941190531345E-02 
1268	 4.32474658377829E-02 
1269	 4.30328412871318E-02 
1270	 4.31161725137645E-02 
1271	 4.34846720724789E-02 
1272	 4.35895429601757E-02 
1273	 4.35897295515484E-02 
1274	 0.043310762245065 
1275	 4.29968447324991E-02 
1276	 0.04337365805809 
1277	 4.36688445460684E-02 
1278	 4.36149055678959E-02 
1279	 4.37035097296097E-02 
1280	 4.35411058749431E-02 
1281	 4.33874400517597E-02 
1282	 4.29130807038754E-02 
1283	 4.27195582682414E-02 
1284	 4.26564608988719E-02 
1285	 4.26914331272679E-02 
1286	 4.27397490182013E-02 
1287	 4.27500859463862E-02 
1288	 4.28853624704997E-02 
1289	 0.043136683917268 
1290	 4.35317047935368E-02 
1291	 4.36839966376613E-02 
1292	 0.043552940874621 
1293	 4.40412395657039E-02 
1294	 0.044727268212406 
1295	 4.45682813889327E-02 
1296	 4.45662603724176E-02 
1297	 4.44493693558637E-02 
1298	 4.36777354066233E-02 
1299	 4.38459976320858E-02 
1300	 4.42966839997467E-02 
1301	 4.41010709209751E-02 
1302	 4.43586342745542E-02 
1303	 4.49861477557553E-02 
1304	 4.49992949090349E-02 
1305	 4.42131860383873E-02 
1306	 4.42587337929189E-02 
1307	 0.043803633200062 
1308	 4.38873792123415E-02 
1309	 4.55039736068884E-02 
1310	 4.61801011842531E-02 
1311	 4.59981041774356E-02 
1312	 4.61234849901075E-02 
1313	 4.62025178987981E-02 
1314	 0.046484522765722 
1315	 4.70499247494016E-02 
1316	 4.71250869808553E-02 
1317	 4.69512980806835E-02 
1318	 0.047074111751954 
1319	 4.68760198766768E-02 
1320	 4.71330877123607E-02 
1321	 4.82807193942798E-02 
1322	 4.86218055459874E-02 
1323	 4.81457317933473E-02 
1324	 4.74829052774794E-02 
1325	 4.76000577905282E-02 
1326	 4.78382693949934E-02 
1327	 4.82798848052277E-02 
1328	 4.78976298602003E-02 
1329	 4.55566816212403E-02 
1330	 0.045199828578054 
1331	 4.48884430943878E-02 
1332	 4.49329250922194E-02 
1333	 0.048720268192227 
1334	 5.02162100686102E-02 
1335	 5.09004639636732E-02 
1336	 5.20250978172953E-02 
1337	 5.35317883689145E-02 
1338	 5.29464783464359E-02 
1339	 5.29814673785897E-02 
1340	 5.49064146644033E-02 
1341	 5.56174434029948E-02 
1342	 5.33270352156362E-02 
1343	 5.36933569820753E-02 
1344	 0.059558389117208 
1345	 5.93281627824857E-02 
1346	 5.07933464675617E-02 
1347	 4.93028822828722E-02 
1348	 4.68880235629867E-02 
1349	 0.044263331133008 
1350	 5.63783526599278E-02 
1351	 7.08052849300871E-02 
1352	 9.27747208520343E-02 
1353	 0.107655766377558 
1354	 9.76977886925696E-02 
1355	 0.177769633421991 
1356	 0.215252578546004 
1357	 0.135212330391375 
1358	 0.189005283908424 
1359	 0.115813772860196 
1360	 4.48116492490412E-02 
1361	 6.42057283487485E-02 
1362	 7.37107759359124E-02 
1363	 0.209609897207137 
1364	 8.94459779172591E-02 
1365	-0.238726721493214 
1366	-0.500249702647373 
1367	-1.48446018875182 
1368	-2.20769530156788 
1369	 0.545434936389041 
1370	 0.821834890607765 
1371	 1.20431560499009 
1372	 1.6098108923558 
1373	 1.38796642312728 
1374	 1.1603517088237 
1375	 0.833155491991424 
1376	 0.993731067662701 
1377	 1.1080676105706 
1378	 1.03002917734223 
1379	 1.00364089201031 
1380	 1.35018210473575 
1381	 2.13989791397401 
1382	 1.68067922325215 
1383	 0.50942344775212 
1384	 0.718938732534712 
1385	 1.6418640578356 
1386	 1.8028681925045 
1387	 4.00536681520419 
1388	 6.77692817745163 
1389	 1.91197618178907 
1390	 1.16074864803106 
1391	 1.84277754786442 
1392	 1.99068964218369 
1393	 1.66154169120772 
1394	 1.90054566583219 
1395	 2.78882098830675 
1396	 2.16410589168955 
1397	 0.829030092722465 
1398	 0.333144294268099 
1399	-0.202502623230539 
1400	-2.38714956464071E-02 
1401	 0.525887682876785 
1402	 0.307273727306416 
1403	 0.226639606401276 
1404	 0.352072661586996 
1405	 0.460320921378359 
1406	 0.731189982308364 
1407	 0.741934743762534 
1408	 0.738349913364843 
1409	 1.33091485815929 
1410	 2.33889154542746 
1411	 1.23735664390906 
1412	 1.00673580282626 
1413	 1.06511925602789 
1414	 0.368169660180542 
1415	 0.233697639603478 
1416	 0.486498164965291 
1417	 0.442051218162885 
1418	 0.272470131730037 
1419	 0.214243788165114 
1420	 0.116266680399052 
1421	 0.048699169178948 
1422	 1.72431313656143E-02 
1423	 4.81954072371212E-02 
1424	 0.137753924432167 
1425	 0.114733602647955 
1426	 5.77406563078914E-02 
1427	 5.55392648469478E-02 
1428	 0.012752970623135 
1429	-1.40245684517948E-02 
1430	-1.03544549349094E-03 
1431	 3.16475290130655E-02 
1432	 6.91370301677911E-02 
1433	 7.56811383805724E-02 
1434	 0.122093778413711 
1435	 0.161748732643616 
1436	 0.203490131693862 
1437	 0.142275628494565 
1438	 7.75659157131579E-02 
1439	 8.32859123050897E-02 
1440	 9.32330943529085E-02 
1441	 7.42072593477046E-02 
1442	 0.109005575170092 
1443	 0.116454758191638 
1444	 0.112063263632723 
1445	 0.120237368638491 
1446	 9.59493927634039E-02 
1447	 8.88420433323027E-02 
1448	 8.11656933916945E-02 
1449	 6.59628713731728E-02 
1450	 7.42097388814497E-02 
1451	 8.27906609385426E-02 
1452	 7.58829455555372E-02 
1453	 6.31807712454985E-02 
1454	 6.19381396687406E-02 
1455	 5.98606870205063E-02 
1456	 6.07221410296069E-02 
1457	 6.94160854202475E-02 
1458	 0.068603780003133 
1459	 6.07039561089941E-02 
1460	 6.19093214889103E-02 
1461	 0.06841581049463 
1462	 6.41066383806539E-02 
1463	 0.054209275294638 
1464	 5.53820341848588E-02 
1465	 5.51620495967369E-02 
1466	 0.054946790255646 
1467	 6.79017387772567E-02 
1468	 7.39574605585643E-02 
1469	 6.92863376871095E-02 
1470	 6.61924454999078E-02 
1471	 6.68163827036381E-02 
1472	 6.86146365440352E-02 
1473	 6.60825125321954E-02 
1474	 6.54794507853965E-02 
1475	 0.071915660914402 
1476	 7.14561833303997E-02 
1477	 6.57259796228768E-02 
1478	 6.12576584474209E-02 
1479	 5.56761336698328E-02 
1480	 5.31521092233189E-02 
1481	 4.95691548950288E-02 
1482	 4.94122890881731E-02 
1483	 5.46137716382456E-02 
1484	 5.38349006643454E-02 
1485	 5.11357949127497E-02 
1486	 5.06069492234819E-02 
1487	 4.79752500368527E-02 
1488	 4.77639168582493E-02 
1489	 5.09283534276725E-02 
1490	 5.11053269125851E-02 
1491	 4.99892162034804E-02 
1492	 4.96136081418103E-02 
1493	 4.89908135500545E-02 
1494	 4.82932919502692E-02 
1495	 4.67371403338852E-02 
1496	 4.72262772730642E-02 
1497	 4.99094020083108E-02 
1498	 4.97178617710152E-02 
1499	 4.86699097347866E-02 
1500	 4.84576413477592E-02 
1501	 4.68923451183136E-02 
1502	 4.60111849553849E-02 
1503	 0.046578275967141 
1504	 4.66633970424211E-02 
1505	 4.62340002139067E-02 
1506	 4.57905481050149E-02 
1507	 0.046252449311908 
1508	 4.65133392943097E-02 
1509	 0.046422298867757 
1510	 4.64816340707639E-02 
1511	 4.60750659984994E-02 
1512	 4.55278931407225E-02 
1513	 4.53178303489073E-02 
1514	 4.49705396155696E-02 
1515	 4.48512562269757E-02 
1516	 4.52454248799862E-02 
1517	 4.52662278899014E-02 
1518	 4.49609497865643E-02 
1519	 0.044815058587969 
1520	 4.45329998130674E-02 
1521	 4.42906582050694E-02 
1522	 4.43256607767334E-02 
1523	 4.45250783632525E-02 
1524	 4.45337619349784E-02 
1525	 0.044281846873083 
1526	 4.42194349091801E-02 
1527	 4.41652084080072E-02 
1528	 4.39636469082652E-02 
1529	 4.40509207319638E-02 
1530	 4.42454839755522E-02 
1531	 4.45065659976138E-02 
1532	 4.47340390105182E-02 
1533	 4.42910396976899E-02 
1534	 4.39261390512832E-02 
1535	 4.39084496095731E-02 
1536	 4.34119938837032E-02 
1537	 4.33429273303507E-02 
1538	 4.37755692367044E-02 
1539	 4.35062481663015E-02 
1540	 4.30988314302477E-02 
1541	 4.32169732751472E-02 
1542	 4.35015185740715E-02 
1543	 4.30748024362039E-02 
1544	 4.23333988540091E-02 
1545	 4.25690931883129E-02 
1546	 4.26789556748244E-02 
1547	 4.24464003616163E-02 
1548	 4.31069970886264E-02 
1549	 4.37287853253211E-02 
1550	 4.34865791739128E-02 
1551	 0.04364845481557 
1552	 4.41409781634461E-02 
1553	 4.34164109603632E-02 
1554	 0.042637905126957 
1555	 4.25203816351585E-02 
1556	 4.21570129559515E-02 
1557	 4.19858403779384E-02 
1558	 4.20284495265519E-02 
1559	 0.042118544277594 
1560	 4.23948899936166E-02 
1561	 4.25023136083248E-02 
1562	 4.24206415854492E-02 
1563	 4.25101743815177E-02 
1564	 4.23107614737184E-02 
1565	 4.18234646559057E-02 
1566	 0.041988594032879 
1567	 4.22243205130926E-02 
1568	 4.20173020773676E-02 
1569	 4.17669555872859E-02 
1570	 0.041708816279951 
1571	 4.18917234898955E-02 
1572	 4.19196323790172E-02 
1573	 0.042038620937627 
1574	 0.042407699026563 
1575	 4.22632815506615E-02 
1576	 4.18446716970621E-02 
1577	 4.20174778235709E-02 
1578	 4.23256034766238E-02 
1579	 4.25937868565858E-02 
1580	 4.27680547834421E-02 
1581	 4.23902288473355E-02 
1582	 0.042027731187736 
1583	 4.16423134600134E-02 
1584	 4.15067500492704E-02 
1585	 4.23293590395508E-02 
1586	 4.27076025340033E-02 
1587	 0.042421033362918 
1588	 4.25932840138662E-02 
1589	 4.20691293681727E-02 
1590	 4.12535432840807E-02 
1591	 4.13903127471736E-02 
1592	 0.04159609957074 
1593	 4.18586151039126E-02 
1594	 4.19525112774463E-02 
1595	 4.17494440042605E-02 
1596	 0.041808013967996 
1597	 4.21185737367659E-02 
1598	 4.26959234447892E-02 
1599	 4.28073897704581E-02 
1600	 4.25886383689445E-02 
1601	 4.24690157430046E-02 
1602	 4.19828868196348E-02 
1603	 4.20720636309407E-02 
1604	 4.25676053974634E-02 
1605	 4.22205306432982E-02 
1606	 4.17118658394455E-02 
1607	 4.17892001853302E-02 
1608	 4.15342964945862E-02 
1609	 4.10127104615001E-02 
1610	 4.14655003606962E-02 
1611	 4.23013172503359E-02 
1612	 4.26364106329659E-02 
1613	 4.21664914249987E-02 
1614	 4.15804861821251E-02 
1615	 4.13303303985325E-02 
1616	 4.09279574249507E-02 
1617	 4.08377689945115E-02 
1618	 4.09622657562545E-02 
1619	 4.10560787341443E-02 
1620	 4.10966253673676E-02 
1621	 4.10971676079195E-02 
1622	 4.12944872913447E-02 
1623	 4.10798256240253E-02 
1624	 4.03461445172157E-02 
1625	 4.01593764865335E-02 
1626	 0.040876446290957 
1627	 4.11725350764522E-02 
1628	 0.040748027511416 
1629	 0.040881594800065 
1630	 4.12763766265665E-02 
1631	 4.12981060770336E-02 
1632	 0.041073829378976 
1633	 4.05974959121651E-02 
1634	 4.01437429976127E-02 
1635	 4.00065175568549E-02 
1636	 4.06604880446758E-02 
1637	 4.14557950041128E-02 
1638	 4.15590982435125E-02 
1639	 4.18083088127432E-02 
1640	 4.19330724960214E-02 
1641	 0.041534331782468 
1642	 4.13297682407509E-02 
1643	 4.11293815548719E-02 
1644	 4.11570358241044E-02 
1645	 4.19642070846634E-02 
1646	 0.042384811207077 
1647	 4.18061998351697E-02 
1648	 4.11779580460845E-02 
1649	 4.09231109231935E-02 
1650	 4.10714725317188E-02 
1651	 4.15913863453252E-02 
1652	 4.17552316900922E-02 
1653	 4.14176405954847E-02 
1654	 4.12997506655204E-02 
1655	 4.10956999929633E-02 
1656	 4.12069596149334E-02 
1657	 4.17308667097235E-02 
1658	 4.15570945734371E-02 
1659	 4.11626194809492E-02 
1660	 4.11538899285557E-02 
1661	 4.06434778182153E-02 
1662	 4.03379577578503E-02 
1663	 4.09676306381058E-02 
1664	 4.08134894083891E-02 
1665	 3.98773197961134E-02 
1666	 4.00186216854172E-02 
1667	 4.01694795816282E-02 
1668	 4.05021461926484E-02 
1669	 4.11253747870839E-02 
1670	 4.07404361493844E-02 
1671	 4.10639856285524E-02 
1672	 4.16170886847103E-02 
1673	 4.09985782970746E-02 
1674	 4.04645698392111E-02 
1675	 4.06014451376576E-02 
1676	 4.07731230197546E-02 
1677	 4.11061046280631E-02 
1678	 4.15050293203702E-02 
1679	 4.12640978395302E-02 
1680	 4.08980552109169E-02 
1681	 4.08863897470571E-02 
1682	 4.07157008264826E-02 
1683	 0.041104121030323 
1684	 4.15309857549977E-02 
1685	 4.11220815025444E-02 
1686	 4.14235932897143E-02 
1687	 4.20929235976639E-02 
1688	 4.21149499119324E-02 
1689	 4.17778541751935E-02 
1690	 0.041569749342977 
1691	 4.18266260603348E-02 
1692	 0.041087374504495 
1693	 4.00921207432108E-02 
1694	 4.05395223081385E-02 
1695	 4.06002035297288E-02 
1696	 4.00559711953191E-02 
1697	 4.09178334692294E-02 
1698	 4.19262169791552E-02 
1699	 4.17623882266342E-02 
1700	 4.18798175953895E-02 
1701	 4.19755406595723E-02 
1702	 4.12712761972856E-02 
1703	 4.10683887729415E-02 
1704	 4.15120190474552E-02 
1705	 4.17573488346746E-02 
1706	 4.24293258868139E-02 
1707	 0.042124168827951 
1708	 4.07339802022894E-02 
1709	 4.09785759899567E-02 
1710	 0.041767264331902 
1711	 4.14502437120221E-02 
1712	 4.12264283977414E-02 
1713	 4.11876653432916E-02 
1714	 4.06798131861851E-02 
1715	 4.03583649234121E-02 
1716	 4.17745702285249E-02 
1717	 4.13651768364512E-02 
1718	 4.06680289091044E-02 
1719	 4.08495029327796E-02 
1720	 4.16387540592654E-02 
1721	 4.25279574884175E-02 
1722	 4.27351687782854E-02 
1723	 4.22117388108156E-02 
1724	 4.18446683289088E-02 
1725	 4.11242603455072E-02 
1726	 4.10033453866861E-02 
1727	 4.22166756318711E-02 
1728	 4.19651967860863E-02 
1729	 0.041514545789264 
1730	 4.23623964850178E-02 
1731	 4.26904804062893E-02 
1732	 4.19677073952577E-02 
1733	 4.10407695232839E-02 
1734	 4.16734452130143E-02 
1735	 4.30551742439993E-02 
1736	 4.30271653849586E-02 
1737	 4.31831731685892E-02 
1738	 4.40298292361971E-02 
1739	 4.27270229827722E-02 
1740	 4.22857946230866E-02 
1741	 4.38835951879945E-02 
1742	 4.32973626371286E-02 
1743	 4.20612134797759E-02 
1744	 4.26864183138854E-02 
1745	 4.29892460668962E-02 
1746	 4.28524986255168E-02 
1747	 4.32509981795688E-02 
1748	 0.042633002433285 
1749	 4.20213322542503E-02 
1750	 4.21138692645649E-02 
1751	 4.26632246771219E-02 
1752	 4.35399302861779E-02 
1753	 4.38593321097077E-02 
1754	 4.40840093954869E-02 
1755	 4.44530189985303E-02 
1756	 0.044982732584295 
1757	 4.53069134715859E-02 
1758	 4.41792895308817E-02 
1759	 4.25619635855402E-02 
1760	 3.97997991034924E-02 
1761	 3.95429682975434E-02 
1762	 0.043570033962901 
1763	 4.49580659884047E-02 
1764	 4.46087107571184E-02 
1765	 4.60518603697434E-02 
1766	 0.044525684928346 
1767	 0.042626094243952 
1768	 4.37683023499054E-02 
1769	 4.47119991863685E-02 
1770	 4.46355845577505E-02 
1771	 4.39978565289876E-02 
1772	 4.39079648076779E-02 
1773	 4.52547246025145E-02 
1774	 4.54356396560455E-02 
1775	 0.046585720034435 
1776	 4.83611035039148E-02 
1777	 4.55654324557456E-02 
1778	 4.49228704210301E-02 
1779	 4.90775060047052E-02 
1780	 5.04773159439676E-02 
1781	 5.06793155941003E-02 
1782	 5.16619795031448E-02 
1783	 5.19472627891995E-02 
1784	 5.23517576989489E-02 
1785	 5.18443356619265E-02 
1786	 5.11836897148551E-02 
1787	 5.30753139275707E-02 
1788	 5.06510385614502E-02 
1789	 4.30933202631593E-02 
1790	 0.040674220170815 
1791	 3.47178637897896E-02 
1792	 3.74848268198716E-02 
1793	 5.80499498548493E-02 
1794	 7.41860549445255E-02 
1795	 7.76017560181252E-02 
1796	 0.075461813292405 
1797	 6.93420577700556E-02 
1798	 0.053414561742259 
1799	 7.02812034244043E-02 
1800	 0.100817207775615 
1801	 0.118222837290509 
1802	 0.147038372276048 
1803	 0.166408549581394 
1804	 0.164166269480295 
1805	 0.162420292791806 
1806	 7.42581748653761E-02 
1807	 0.106893991858893 
1808	 0.328725395469755 
1809	 0.338595682862485 
1810	 0.31302471889178 
1811	 0.338320317401982 
1812	 0.14567878793492 
1813	 0.154249278087614 
1814	 0.946935382263537 
1815	 1.20799523839869 
1816	 0.263632881747996 
1817	-0.156622301628711 
1818	-4.51655586656546E-02 
1819	 9.16593080614882E-02 
1820	 0.395068441678929 
1821	 2.16532172761312 
1822	 3.6513085074466 
1823	 5.13730540132298E-02 
1824	-0.357920154640445 
1825	-0.375500937112177 
1826	-0.399570419654611 
1827	 0.11311779932297 
1828	 0.354206218778214 
1829	 0.720865015253964 
1830	 0.887380959080881 
1831	-2.22548090498105 
1832	-2.78980563434975 
1833	-12.7184872652002 
1834	-5.47403978833582 
1835	-1.29120434364033 
1836	-0.956487411896026 
1837	-0.566559068967916 
1838	-0.501437866263476 
1839	-0.601453028002188 
1840	 1.05821034235255 
1841	 1.04124208109788 
1842	 1.03077445128464 
1843	 2.43697105180419 
1844	-0.623133614940978 
1845	-0.380098521573875 
1846	 0.434992527468568 
1847	 0.80850676644689 
1848	-13.5580385470742 
1849	-0.244515434564328 
1850	 0.615725433360622 
1851	 1.58010931221223 
1852	 1.517815533275 
1853	 1.7076894845768 
1854	 2.75657684995458 
1855	-2.66886300174288 
1856	-1.50158090343149 
1857	-1.21990636804401 
1858	-0.696572581696574 
1859	-1.45385212910928 
1860	 0.500785025463333 
1861	 0.62575722139579 
1862	-1.08935920039369 
1863	-1.34928966431895 
1864	-1.35999121478032 
1865	-1.43426638365149 
1866	-1.82078949871532 
1867	-4.50249310372541 
1868	 13.8071759033796 
1869	-11.4618332339993 
1870	-2.3453493489854 
1871	-1.22328808997406 
1872	-0.537781977976338 
1873	-7.31360368386741E-02 
1874	-1.76113489027766E-02 
1875	 0.19792920859552 
1876	 0.2942672615543 
1877	 4.38829181415402E-02 
1878	 1.14751993318153E-02 
1879	 6.08685192566279E-02 
1880	-4.18488205548634E-02 
1881	-0.187861076765953 
1882	-0.350450882184912 
1883	-30.3787992929347 
1884	 5.38722174374496 
1885	 2.76396221346378 
1886	 1.19974149404847 
1887	 2.42872347739874 
1888	 0.609336908875321 
1889	 0.909092305449517 
1890	 0.752041275614948 
1891	 0.444228716429663 
1892	 8.43305222427701E-02 
1893	-0.158485227358434 
1894	-0.675069937677262 
1895	-1.57892020788704 
1896	-2.00644990704499 
1897	-0.143141933833779 
1898	 2.32481643088096 
1899	 4.95741743824078 
1900	 4.66588821599108 
1901	 2.6490732474448 
1902	 3.41213019137166 
1903	 8.90145545735199 
1904	 5.70718732877306 
1905	 3.18655541243308 
1906	 5.70932615154659 
1907	 9.62512511737547 
1908	 50.6546234764476 
1909	 863.931721723256 
1910	 7.74511628713274 
1911	-5.54522213199596 
1912	-1.67586310164168 
1913	-0.928751219170217 
1914	 1.0106710800468 
1915	 1.28039643130174 
1916	 3.62894785465747 
1917	-6.65498624468244 
1918	 0.654253914438173 
1919	 0.283743609299057 
1920	 4.60155839170898E-02 
1921	 0.246807084935338 
1922	 0.577604629174978 
1923	 0.958661951338752 
1924	 1.0155949039902 
1925	 0.546653257339231 
1926	-0.411645291666726 
1927	-2.27547774496935 
1928	-0.999875510154868 
1929	-1.21052436166218 
1930	-2.90434956836124 
1931	-1.17232705742697 
1932	-0.783626706638727 
1933	-0.683681777205684 
1934	-0.632417766652951 
1935	-0.746981064234936 
1936	-1.02762403970921 
1937	-1.53562875204162 
1938	-1.11168471106193 
1939	-1.18954535871469 
1940	-1.03739419129296 
1941	 12.6203058800189 
1942	 2.41733254603352 
1943	 2.03911377632838 
1944	 1.12783163646775 
1945	 1.11374858658022 
1946	 0.760836287310984 
1947	 0.388167258876886 
1948	 0.391397688256043 
1949	 0.454281466384534 
1950	 0.375933025508041 
1951	 0.267964788624782 
1952	 0.255141992189113 
1953	 0.242875363374165 
1954	 0.213136182299611 
1955	 5.94800383188707E-02 
1956	 3.04020659842065E-02 
1957	 0.142500530253575 
1958	 0.215000306158365 
1959	 0.242243029711923 
1960	 0.259004377829447 
1961	 0.205230784906109 
1962	 0.130547390557056 
1963	 0.107034546517705 
1964	 9.93049682466504E-02 
1965	 0.103124905092042 
1966	 9.84024698666626E-02 
1967	 9.72795617947332E-02 
1968	 0.079760218782181 
1969	 7.07666214386733E-02 
1970	 6.64836243529812E-02 
1971	 5.58736596739159E-02 
1972	 5.25289466370581E-02 
1973	 5.89096663352134E-02 
1974	 5.68116176794901E-02 
1975	 5.13867140397634E-02 
1976	 5.34357957714423E-02 
1977	 5.25336070736221E-02 
1978	 4.76773982926394E-02 
1979	 4.48650126745344E-02 
1980	 4.38199238254813E-02 
1981	 4.47801749716308E-02 
1982	 4.15097981545623E-02 
1983	 3.88606035320395E-02 
1984	 4.31468036710229E-02 
1985	 4.63514531687209E-02 
1986	 4.84987246148706E-02 
1987	 5.02861832843069E-02 
1988	 4.72319827386512E-02 
1989	 4.60166040844078E-02 
1990	 4.67311112383796E-02 
1991	 4.64065975042497E-02 
1992	 4.80076613676068E-02 
1993	 0.044962620930481 
1994	 4.36532354203417E-02 
1995	 4.02643776552234E-02 
1996	 4.25560834480325E-02 
1997	 4.34926909046702E-02 
1998	 4.43906801547507E-02 
1999	 4.79431530301404E-02 
2000	 4.70680175695554E-02 
2001	 4.55283429289492E-02 
2002	 6.42283317357751E-02 
2003	 7.64868004425909E-02 
2004	 7.04563356992493E-02 
2005	 7.34935120357779E-02 
2006	 6.62971876117193E-02 
2007	 4.78597959217207E-02 
2008	 4.27580954174129E-02 
2009	 4.01863556905068E-02 
2010	 3.51896167614094E-02 
2011	 3.47304045852784E-02 
2012	 4.19998663564615E-02 
2013	 5.16983073512547E-02 
2014	 4.71754617602463E-02 
2015	 4.69675911359827E-02 
2016	 4.72439059738024E-02 
2017	 4.12679127809452E-02 
2018	 4.31619391979815E-02 
2019	 4.62095369444532E-02 
2020	 4.89836992635049E-02 
2021	 5.39007845271466E-02 
2022	 5.19074940062329E-02 
2023	 5.21539485993058E-02 
2024	 5.21047398964162E-02 
2025	 4.96314990817624E-02 
2026	 4.71607468009433E-02 
2027	 4.66229359687587E-02 
2028	 4.36968567345795E-02 
2029	 4.03684441504133E-02 
2030	 4.00672179722471E-02 
2031	 3.93939768471247E-02 
2032	 0.039645186520874 
2033	 4.17933771374315E-02 
2034	 4.30896835347725E-02 
2035	 4.43451208219374E-02 
2036	 4.56905177664465E-02 
2037	 4.49430497109018E-02 
2038	 0.043244006455816 
2039	 4.23304248459964E-02 
2040	 4.19802555308474E-02 
2041	 4.13940788681865E-02 
2042	 0.040020486822303 
2043	 3.95142633997311E-02 
2044	 3.88504180220739E-02 
2045	 0.041125697929313 
2046	 4.07672313819059E-02 
2047	 3.87667463676404E-02 
2048	 0.038302759044828 
2049	 3.67179057396031E-02 
2050	 3.62589656955757E-02 
2051	 0.038237697664089 
2052	 4.20278385676419E-02 
2053	 4.37550127570525E-02 
2054	 4.38220662010883E-02 
2055	 4.63250944342582E-02 
2056	 4.76971417190012E-02 
2057	 4.70870966610759E-02 
2058	 4.75631481176155E-02 
2059	 4.81213654894874E-02 
2060	 4.88993909174137E-02 
2061	 5.07419459605766E-02 
2062	 0.050210289197393 
2063	 4.83350032279206E-02 
2064	 0.048853562324786 
2065	 4.58051904223282E-02 
2066	 4.22724442517092E-02 
2067	 4.14363752766287E-02 
2068	 3.97674819038479E-02 
2069	 3.91034754294909E-02 
2070	 4.02843724303995E-02 
2071	 4.36381623261508E-02 
2072	 4.69123682682902E-02 
2073	 4.73045743222526E-02 
2074	 4.67802959651141E-02 
2075	 4.61067855101362E-02 
2076	 4.27055795477827E-02 
2077	 4.17368030785428E-02 
2078	 0.042384097762036 
2079	 0.042401185516631 
2080	 4.17821757300067E-02 
2081	 4.27899071746162E-02 
2082	 4.34500774729319E-02 
2083	 4.40486726136592E-02 
2084	 4.66272019223832E-02 
2085	 4.59513646773453E-02 
2086	 4.65439873019469E-02 
2087	 0.04955827067057 
2088	 4.68765739467567E-02 
2089	 4.33063927158753E-02 
2090	 0.041715601143247 
2091	 4.04855078312582E-02 
2092	 4.06128185250332E-02 
2093	 4.52503079156807E-02 
2094	 4.67617389349925E-02 
2095	 4.68694500505427E-02 
2096	 4.65885068787059E-02 
2097	 4.62822260714658E-02 
2098	 4.54529886860521E-02 
2099	 4.32241273611163E-02 
2100	 4.16801216250502E-02 
2101	 4.18504818361323E-02 
2102	 4.20252278538264E-02 
2103	 4.21812590412508E-02 
2104	 4.08763913716861E-02 
2105	 3.99342248974656E-02 
2106	 3.83808018795675E-02 
2107	 3.83010691967992E-02 
2108	 4.02725322870158E-02 
2109	 3.95909570374439E-02 
2110	 4.06478558931858E-02 
2111	 0.042150618099838 
2112	 0.041439481651339 
2113	 4.16218363876943E-02 
2114	 4.23568222864108E-02 
2115	 0.042305496461381 
2116	 4.15880105102176E-02 
2117	 4.20744927351927E-02 
2118	 4.34691615915448E-02 
2119	 0.043617361245523 
2120	 4.39313662693262E-02 
2121	 4.29004531843328E-02 
2122	 0.042014455638659 
2123	 4.27743389909309E-02 
2124	 4.21236450600697E-02 
2125	 0.042477577167159 
2126	 0.043515628459434 
2127	 4.15932908030199E-02 
2128	 4.04548007185722E-02 
2129	 4.19967971110998E-02 
2130	 4.34246871283798E-02 
2131	 4.32309796938995E-02 
2132	 4.18240028250553E-02 
2133	 4.25878369009242E-02 
2134	 4.30166687191324E-02 
2135	 4.19081762569355E-02 
2136	 4.25573863978429E-02 
2137	 0.046617153227578 
2138	 4.59673256588628E-02 
2139	 4.23228105829821E-02 
2140	 4.17214194565346E-02 
2141	 4.03965224083644E-02 
2142	 3.95865869924971E-02 
2143	 4.06451729453848E-02 
2144	 4.07267689246405E-02 
2145	 4.19263877981689E-02 
2146	 4.21488230441271E-02 
2147	 0.044418542415506 
2148	 4.70714717214922E-02 
2149	 4.41925900901959E-02 
2150	 4.25225363577739E-02 
2151	 0.041210243077271 
2152	 4.03203663611003E-02 
2153	 4.01550043977003E-02 
2154	 4.02304938383847E-02 
2155	 4.12115213486482E-02 
2156	 4.03731487665272E-02 
2157	 4.07131847932495E-02 
2158	 0.043150602026641 
2159	 4.41975628545087E-02 
2160	 4.42414417883575E-02 
2161	 4.54229110596023E-02 
2162	 4.88645462571152E-02 
2163	 4.83966537577709E-02 
2164	 4.40053400572389E-02 
2165	 4.29094308440602E-02 
2166	 4.19339861615604E-02 
2167	 4.07331909248793E-02 
2168	 4.20442470240646E-02 
2169	 4.26813973000951E-02 
2170	 4.29246777452252E-02 
2171	 4.00406069438819E-02 
2172	 3.85719100087609E-02 
2173	 3.83687443254675E-02 
2174	 3.68348231603464E-02 
2175	 3.69848253475044E-02 
2176	 3.94728069530671E-02 
2177	 4.05563072726037E-02 
2178	 3.92894195715474E-02 
2179	 3.64751142825688E-02 
2180	 3.65933636418898E-02 
2181	 3.77387445166861E-02 
2182	 3.81657426224856E-02 
2183	 4.15463648236701E-02 
2184	 4.40487460976629E-02 
2185	 4.60440154030091E-02 
2186	 4.63828147430775E-02 
2187	 4.58170043816751E-02 
2188	 4.58221146492878E-02 
2189	 4.45942335229014E-02 
2190	 4.28787211985154E-02 
2191	 4.19745458757693E-02 
2192	 0.04249207355602 
2193	 4.17808076645697E-02 
2194	 4.13284660732354E-02 
2195	 4.24510182965649E-02 
2196	 4.39744028942578E-02 
2197	 4.61433419114569E-02 
2198	 4.60714535207749E-02 
2199	 4.62159092628371E-02 
2200	 4.58004096637096E-02 
2201	 4.27878201200636E-02 
2202	 0.042976992608367 
2203	 0.042047043657359 
2204	 4.32225469540705E-02 
2205	 4.87359235062748E-02 
2206	 4.83159117438542E-02 
2207	 5.02891975322648E-02 
2208	 5.42253679268695E-02 
2209	 4.90805998966451E-02 
2210	 4.22964403917661E-02 
2211	 3.97997411008008E-02 
2212	 3.52083990532104E-02 
2213	 3.25950675872672E-02 
2214	 3.35732195416296E-02 
2215	 3.29525621338878E-02 
2216	 3.24494791740467E-02 
2217	 3.31044361292736E-02 
2218	 3.52829568039996E-02 
2219	 3.89198390987077E-02 
2220	 4.61247185020258E-02 
2221	 4.70834028665101E-02 
2222	 4.60606422509758E-02 
2223	 4.37254527718734E-02 
2224	 3.37290909458493E-02 
2225	 3.21890224685443E-02 
2226	 3.75978419352275E-02 
2227	 3.91084997957115E-02 
2228	 4.23630570478411E-02 
2229	 4.20530558261474E-02 
2230	 3.57932549681016E-02 
2231	 3.31608587154825E-02 
2232	 3.32336658439098E-02 
2233	 3.30095375023927E-02 
2234	 3.42075498301777E-02 
2235	 3.19539573069282E-02 
2236	 3.62971910925455E-02 
2237	 3.76914594486422E-02 
2238	 3.27718145545155E-02 
2239	 3.81487137545233E-02 
2240	 4.18021332525378E-02 
2241	 3.49347184919834E-02 
2242	 3.32051114839939E-02 
2243	 3.47211610296633E-02 
2244	 0.02888685335589 
2245	 2.87622360378128E-02 
2246	 3.27117278793136E-02 
2247	 3.08399660308642E-02 
2248	 3.14807948040931E-02 
2249	 3.12719986337687E-02 
2250	 3.26723988849102E-02 
2251	 3.41265793040914E-02 
2252	 3.30884425174129E-02 
2253	 3.52007850999495E-02 
2254	 3.42543689066936E-02 
2255	 3.39856762903802E-02 
2256	 3.83537699449015E-02 
2257	 4.24757939859828E-02 
2258	 4.57157608372618E-02 
2259	 4.80306714883738E-02 
2260	 4.96929505296994E-02 
2261	 4.97349066562475E-02 
2262	 5.01621251530304E-02 
2263	 4.98248889109385E-02 
2264	 0.049915972587191 
2265	 4.91577701803536E-02 
2266	 4.84187985057287E-02 
2267	 4.95802550333589E-02 
2268	 4.79542646484295E-02 
2269	 4.63549757315186E-02 
2270	 4.36009963779969E-02 
2271	 3.56490722426936E-02 
2272	 3.08719127165161E-02 
2273	 2.68778902195645E-02 
2274	 2.44851307629305E-02 
2275	 2.34904263154081E-02 
2276	 2.57271027980722E-02 
2277	 3.27477978345013E-02 
2278	 3.41269901917954E-02 
2279	 3.63439282246456E-02 
2280	 3.46709313233729E-02 
2281	 2.83673025135585E-02 
2282	 1.97409208665443E-02 
2283	 2.00142579188883E-02 
2284	 2.01276066154485E-02 
2285	 2.33613352818228E-02 
2286	 2.94921508161613E-02 
2287	 2.69065329638439E-02 
2288	 2.63049682125969E-02 
2289	 0.028108873345902 
2290	 2.88528027681699E-02 
2291	 3.22668954110231E-02 
2292	 3.26938669069269E-02 
2293	 3.03992320014821E-02 
2294	 3.43413393608029E-02 
2295	 4.26027377450414E-02 
2296	 4.54646314491937E-02 
2297	 4.94510041955118E-02 
2298	 6.18188783476011E-02 
2299	 6.16759255073751E-02 
2300	 5.45813774632958E-02 
2301	 5.39202671435659E-02 
2302	 3.66149709538063E-02 
2303	 2.22821887690095E-02 
2304	 2.18773426450564E-02 
2305	 2.09783457406226E-02 
2306	 3.40689325701682E-02 
2307	 4.52160448010716E-02 
2308	 4.91279978046544E-02 
2309	 4.98104957931228E-02 
2310	 3.45429304895454E-02 
2311	 2.53805601239662E-02 
2312	 2.41266690589087E-02 
2313	 2.14667191500485E-02 
2314	 2.96672392115426E-02 
2315	 3.36969855504065E-02 
2316	 3.83752989489694E-02 
2317	 5.16375456472137E-02 
2318	 4.22016808755914E-02 
2319	 3.05396399716693E-02 
2320	 3.11358282669319E-02 
2321	 0.019867246801296 
2322	 1.81435676381073E-02 
2323	 2.37772170615726E-02 
2324	 1.99365974982451E-02 
2325	 2.49861759519864E-02 
2326	 4.14837889504121E-02 
2327	 4.59864881069224E-02 
2328	 4.49496309611903E-02 
2329	 5.18241914783404E-02 
2330	 4.43101676966028E-02 
2331	 0.036196060754659 
2332	 4.27367610100279E-02 
2333	 3.85626773207848E-02 
2334	 3.30756453354336E-02 
2335	 3.93961763703226E-02 
2336	 3.68929869875209E-02 
2337	 3.32835283063491E-02 
2338	 3.17336381700843E-02 
2339	 2.10141398059781E-02 
2340	 2.46516285554472E-02 
2341	 4.66666473822378E-02 
2342	 6.50770476643573E-02 
2343	 8.35841792105734E-02 
2344	 0.104796676084993 
2345	 0.118503275396086 
2346	 0.119033573259532 
2347	 0.129528592976673 
2348	 0.132443006008395 
2349	 0.106879564361387 
2350	 9.68491044635017E-02 
2351	 0.100624496707617 
2352	 8.88093554508445E-02 
2353	 8.49848106948424E-02 
2354	 8.39364148495972E-02 
2355	 3.90359604914888E-02 
2356	 3.96743439674909E-02 
2357	 9.10170027245781E-02 
2358	 8.80636814585009E-02 
2359	 9.54697628247202E-02 
2360	 0.112187643413714 
2361	 0.101333966461497 
2362	 9.05492774312503E-02 
2363	 6.45964067370908E-02 
2364	 2.43278263343463E-02 
2365	-1.53416705968695E-02 
2366	-0.015246601984493 
2367	 7.6741502157368E-03 
2368	 3.73336066154538E-02 
2369	 0.120126518762539 
2370	 0.135507052442959 
2371	 0.114789123753222 
2372	 0.167920693522335 
2373	 0.108625606424539 
2374	 3.57574956584612E-02 
2375	 6.93411668341296E-02 
2376	 3.16874011657391E-02 
2377	 1.64303413497083E-02 
2378	 7.87165393746001E-02 
2379	 9.69116009901992E-02 
2380	 6.51905715550924E-02 
2381	 9.97096958300024E-02 
2382	 1.29724250154906E-02 
2383	-4.52170082624288E-02 
2384	 3.07242386470905E-02 
2385	-2.43137582383967E-02 
2386	 0.073235895212698 
2387	 0.200367700011919 
2388	 0.087256837621012 
2389	 2.34263924857005E-02 
2390	-8.40570116062906E-03 
2391	 1.08186309035115E-02 
2392	 0.12481772082395 
2393	 0.209777351272355 
2394	 0.206239209756886 
2395	 0.11638975706619 
2396	 0.153874850664956 
2397	 0.2343903262167 
2398	 0.26161027655039 
2399	 0.263740920368111 
2400	 0.167533321034398 
2401	 7.61746222785151E-02 
2402	 3.02935616805524E-02 
2403	 5.05504798657345E-02 
2404	 0.165292327111335 
2405	 0.182676776022815 
2406	 0.208321704829818 
2407	 0.277992956275856 
2408	 0.232250780802238 
2409	 0.270821120045109 
2410	 0.41252519822116 
2411	 0.26045967736495 
2412	 0.118763519787919 
2413	 0.149142481384457 
2414	-4.78906455197878E-02 
2415	-0.381401404659715 
2416	-0.887416226972808 
2417	 2.18533616536813 
2418	 43.4738799473487 
2419	-3.77888705187636 
2420	-0.458419871920227 
2421	-0.359720833162787 
2422	-0.326116326528578 
2423	-0.76640177614223 
2424	 46.962191898646 
2425	 0.660407853604467 
2426	 0.233107347456139 
2427	 0.173862433095919 
2428	 4.33147695398824E-02 
2429	 0.192181734192219 
2430	 0.455089284943421 
2431	 0.548142354338217 
2432	 0.703612590523424 
2433	 0.32919299226714 
2434	-0.15184239145371 
2435	-0.526687031772395 
2436	-0.498944878083525 
2437	-5.44533330625443E-02 
2438	 0.362764053213423 
2439	-0.18466075216487 
2440	-0.882852300658789 
2441	-3.78642594883357 
2442	-2.04092925861979 
2443	-0.733071497245265 
2444	 8.97642343539034E-03 
2445	-0.186771104043768 
2446	-0.296354654450412 
2447	-0.81804821831278 
2448	-0.917943821663484 
2449	 0.494484578951804 
2450	-6.34925513028956E-02 
2451	-1.02840969091129 
2452	-1.52960666474608 
2453	-1.03944037160459 
2454	-2.9923336314764 
2455	-0.39185673383244 
2456	 2.84980669182159E-02 
2457	-0.591301889982813 
2458	-0.519986756616014 
2459	-0.530551298247425 
2460	-0.64441866667848 
2461	-0.627426147104153 
2462	-0.56385219763358 
2463	-0.585002862073672 
2464	-0.658961470500844 
2465	-0.641881848319297 
2466	-0.710457188593978 
2467	-0.114471322648031 
2468	 0.789468400607492 
2469	 0.507588798601398 
2470	 0.269933718597797 
2471	 0.310088787345992 
2472	 0.29310496594162 
2473	 0.34611145377426 
2474	 0.659931416936229 
2475	 0.666207294365274 
2476	 0.452261833583259 
2477	 0.488179516155207 
2478	 0.399122118525802 
2479	 0.201230936763919 
2480	-0.42149262748429 
2481	-0.906553412510676 
2482	-0.297483425676932 
2483	-0.253270276677624 
2484	 7.02565501801602E-02 
2485	 0.312126538652896 
2486	 7.68094971318986E-02 
2487	-0.156490348152233 
2488	-2.88520218116768E-02 
2489	-1.21058366893972E-02 
2490	 8.78048285633665E-02 
2491	 0.327681764123423 
2492	 0.492911324188674 
2493	 0.31451915295985 
2494	-0.929806978637833 
2495	 3.79553972101775 
2496	 6.34636433686657 
2497	 5.21915296789375 
2498	 0.933094296486585 
2499	 0.339600105975059 
2500	-0.414433575288239 
