Wavelength	rt0728far00009.asd
350	 6.69675220209082E-02 
351	 6.69604258155902E-02 
352	 6.76728503289738E-02 
353	 6.80104585668996E-02 
354	 6.77149033862674E-02 
355	 6.87160560089241E-02 
356	 6.86174923694335E-02 
357	 6.80565302786938E-02 
358	 6.81968509092452E-02 
359	 0.068060606801013 
360	 6.78801805897203E-02 
361	 6.78270621058168E-02 
362	 6.79779639244935E-02 
363	 6.82136187372653E-02 
364	 6.82171065048686E-02 
365	 6.79959539900228E-02 
366	 6.80577409482893E-02 
367	 6.81530542453207E-02 
368	 6.84529818016723E-02 
369	 6.89316273146848E-02 
370	 6.84744834018152E-02 
371	 6.84335183056943E-02 
372	 6.88807009068444E-02 
373	 6.91191288446092E-02 
374	 6.91766991527233E-02 
375	 6.93959530248664E-02 
376	 6.96984879019078E-02 
377	 6.94082037019544E-02 
378	 6.93859063465065E-02 
379	 6.95751372153735E-02 
380	 6.97294220950579E-02 
381	 6.97312275202244E-02 
382	 7.00358302620209E-02 
383	 7.04945720194777E-02 
384	 0.070675893920341 
385	 7.05011249134556E-02 
386	 7.03458155752241E-02 
387	 7.04879435895843E-02 
388	 7.10097136627699E-02 
389	 0.071239283801429 
390	 7.13291707788118E-02 
391	 7.14297346518318E-02 
392	 7.11586714300077E-02 
393	 7.14616400510888E-02 
394	 7.19133432019026E-02 
395	 7.18217502456821E-02 
396	 7.20376222304124E-02 
397	 7.21692307852173E-02 
398	 7.23327612157996E-02 
399	 7.30636658960767E-02 
400	 0.073149076850555 
401	 7.29972559275587E-02 
402	 7.29886942292157E-02 
403	 7.27991211770742E-02 
404	 7.29856119785255E-02 
405	 7.33474885404203E-02 
406	 0.073454833023607 
407	 7.33524124086243E-02 
408	 7.34185077139994E-02 
409	 7.37530825860344E-02 
410	 7.41491504262086E-02 
411	 7.41541678924933E-02 
412	 7.41861529907455E-02 
413	 7.45486592957137E-02 
414	 0.074935494437478 
415	 7.48718583992961E-02 
416	 7.48485879366796E-02 
417	 7.54781765162494E-02 
418	 7.54096766439094E-02 
419	 0.075447702209569 
420	 7.59247869411948E-02 
421	 0.076493003659249 
422	 7.66580035744163E-02 
423	 7.66765212414106E-02 
424	 7.68623042860155E-02 
425	 7.72130151365989E-02 
426	 7.73592521742018E-02 
427	 7.76075345338079E-02 
428	 7.83855800326657E-02 
429	 7.84139416073447E-02 
430	 7.86789323872186E-02 
431	 7.93861030182673E-02 
432	 7.95950501332382E-02 
433	 7.97120535375806E-02 
434	 8.00236968911765E-02 
435	 8.05717494040511E-02 
436	 0.080732706313547 
437	 0.081121562754059 
438	 8.16055205000483E-02 
439	 8.17382288553227E-02 
440	 8.22493910267071E-02 
441	 8.27483531232788E-02 
442	 8.30338904541447E-02 
443	 8.33622327403023E-02 
444	 0.083635895767773 
445	 8.39265497464443E-02 
446	 8.42940872846382E-02 
447	 8.45999074766893E-02 
448	 8.48543406980765E-02 
449	 8.50602196229783E-02 
450	 8.52259703676139E-02 
451	 8.54805874144558E-02 
452	 8.58316711120851E-02 
453	 8.61981310090079E-02 
454	 0.086356779331454 
455	 8.65017033183603E-02 
456	 8.66662304755099E-02 
457	 8.68443683398486E-02 
458	 8.71463634226626E-02 
459	 8.73732688265604E-02 
460	 8.75210902467778E-02 
461	 8.77829015004807E-02 
462	 8.78864557308628E-02 
463	 8.79925388196982E-02 
464	 8.82185842740123E-02 
465	 8.83174031704348E-02 
466	 8.84146288584549E-02 
467	 0.088630227671808 
468	 8.90160721671885E-02 
469	 8.91614075166841E-02 
470	 8.92379515890453E-02 
471	 0.089339193907318 
472	 8.93734606710727E-02 
473	 8.96359546290613E-02 
474	 8.99682392532399E-02 
475	 9.01967016300843E-02 
476	 9.05731873073238E-02 
477	 9.08552888608324E-02 
478	 9.09924452014735E-02 
479	 9.10954218891412E-02 
480	 9.14216004729986E-02 
481	 9.17527860581782E-02 
482	 0.091941010046639 
483	 9.21005186627302E-02 
484	 9.23980751366978E-02 
485	 9.27925850580124E-02 
486	 9.31573289602243E-02 
487	 9.34426188900188E-02 
488	 9.36884802832216E-02 
489	 9.39609161695882E-02 
490	 9.43384445694518E-02 
491	 9.47680497050222E-02 
492	 9.51889723660543E-02 
493	 9.55526195117126E-02 
494	 9.58227733380548E-02 
495	 9.62654708443717E-02 
496	 9.68799406306631E-02 
497	 9.75064423450666E-02 
498	 0.097977599763159 
499	 9.84929591185199E-02 
500	 9.90647370784122E-02 
501	 9.93506301474979E-02 
502	 9.97425107940325E-02 
503	 0.10030782275054 
504	 0.10095596495168 
505	 0.101395233065184 
506	 0.101856991176553 
507	 0.102453298408709 
508	 0.103166729472154 
509	 0.103710649571987 
510	 0.104220957354963 
511	 0.104817293058604 
512	 0.10543215180279 
513	 0.105917498486298 
514	 0.106437128239027 
515	 0.107218685178086 
516	 0.107870983248681 
517	 0.10848151840051 
518	 0.109096443791766 
519	 0.109658152897525 
520	 0.110431629782404 
521	 0.111227196993099 
522	 0.111861986342023 
523	 0.112543255981996 
524	 0.113185440984281 
525	 0.113819656656111 
526	 0.114543364334599 
527	 0.115137063116054 
528	 0.115761435950606 
529	 0.116501110843332 
530	 0.117179506174215 
531	 0.118014409781239 
532	 0.118823571624367 
533	 0.119379243505457 
534	 0.120152617041472 
535	 0.120855249396602 
536	 0.121452275797079 
537	 0.122239743685632 
538	 0.123005032207045 
539	 0.123762438718556 
540	 0.124543847498693 
541	 0.125260773596191 
542	 0.125993937310882 
543	 0.126750611191376 
544	 0.127498691233483 
545	 0.128284350542709 
546	 0.129119953802778 
547	 0.129963932985342 
548	 0.130686239643636 
549	 0.131332267388518 
550	 0.132032274774235 
551	 0.132884809577254 
552	 0.133620881414538 
553	 0.134299936516925 
554	 0.135013667691378 
555	 0.135857149131793 
556	 0.136550842378205 
557	 0.137232544436956 
558	 0.138029874489358 
559	 0.138708108618643 
560	 0.139441154701315 
561	 0.140136622035666 
562	 0.140586392403481 
563	 0.141165327134696 
564	 0.141790323848613 
565	 0.142366059699074 
566	 0.142900273191193 
567	 0.143358773030742 
568	 0.143783408124951 
569	 0.144242501817177 
570	 0.144784782251552 
571	 0.145238830540636 
572	 0.145572153985647 
573	 0.145912750310782 
574	 0.146278991807932 
575	 0.146660329649344 
576	 0.147035096214035 
577	 0.147414098111533 
578	 0.147618520048556 
579	 0.147724025911846 
580	 0.147952519414562 
581	 0.148248783339008 
582	 0.148499177873286 
583	 0.148634731105767 
584	 0.148667585291799 
585	 0.148777226423665 
586	 0.148838267904324 
587	 0.148706822573108 
588	 0.148912678209065 
589	 0.149056694372253 
590	 0.149043943027338 
591	 0.149179311913262 
592	 0.149088588097681 
593	 0.149061948362766 
594	 0.149265651003263 
595	 0.149090432127091 
596	 0.148839082178863 
597	 0.148610716801608 
598	 0.148384409150324 
599	 0.148112988846508 
600	 0.147827636792783 
601	 0.147570091762302 
602	 0.147385711242888 
603	 0.147186984875173 
604	 0.147060538101927 
605	 0.147048837692769 
606	 0.146630400122987 
607	 0.146543915213776 
608	 0.146736621257234 
609	 0.146317047699897 
610	 0.146027574738182 
611	 0.145941561955526 
612	 0.145948740830706 
613	 0.145841882722639 
614	 0.145706138630779 
615	 0.145584649602574 
616	 0.14549764787516 
617	 0.145429073694912 
618	 0.145363197255754 
619	 0.145317511647958 
620	 0.145368186241093 
621	 0.145414537191282 
622	 0.145431449432188 
623	 0.145405957961053 
624	 0.145235728285117 
625	 0.145204200636352 
626	 0.145312512734156 
627	 0.145292047373593 
628	 0.14543325040061 
629	 0.145427182518242 
630	 0.145148994683193 
631	 0.145250419920586 
632	 0.145226176114739 
633	 0.145119193156665 
634	 0.145190948347597 
635	 0.145226845422736 
636	 0.145344534028133 
637	 0.145509271208129 
638	 0.145426094259258 
639	 0.145458581187122 
640	 0.145549130130911 
641	 0.145565681904305 
642	 0.145627777572113 
643	 0.145584795231856 
644	 0.145477396977242 
645	 0.145493129388808 
646	 0.14541257794077 
647	 0.145246723015638 
648	 0.145025749184557 
649	 0.144701353637932 
650	 0.144283270367252 
651	 0.14381270401985 
652	 0.143357283490818 
653	 0.142925547356225 
654	 0.142333621004624 
655	 0.14152871002324 
656	 0.140765934856121 
657	 0.140031825383709 
658	 0.139361657680132 
659	 0.138745932519925 
660	 0.1380821263455 
661	 0.137571612866573 
662	 0.137195419307506 
663	 0.136795218463129 
664	 0.136214213731678 
665	 0.135787035643863 
666	 0.135637538078905 
667	 0.135423662228683 
668	 0.135170618936981 
669	 0.134993616803749 
670	 0.134995823779709 
671	 0.135004574873474 
672	 0.135035439300548 
673	 0.135059701802901 
674	 0.135020788691303 
675	 0.135316827273086 
676	 0.135601994181611 
677	 0.135667619172334 
678	 0.136028794089115 
679	 0.136311352809324 
680	 0.136539873138177 
681	 0.136918100791949 
682	 0.13754722517412 
683	 0.138135421615049 
684	 0.138620400322383 
685	 0.139350289066797 
686	 0.140083019554613 
687	 0.140970954420845 
688	 0.142070204481848 
689	 0.142967258579135 
690	 0.144026197380921 
691	 0.145238401785814 
692	 0.146396004731316 
693	 0.147750561819141 
694	 0.149056309822677 
695	 0.150227425752242 
696	 0.1517074689251 
697	 0.152849475243736 
698	 0.153801404408054 
699	 0.15482776812921 
700	 0.156041106508759 
701	 0.157258119488448 
702	 0.158222435089161 
703	 0.158757883060957 
704	 0.15941995237161 
705	 0.159978741180606 
706	 0.160238710165253 
707	 0.160422584705851 
708	 0.16028683298924 
709	 0.159972022544935 
710	 0.159683494945085 
711	 0.159154935007535 
712	 0.158303875407912 
713	 0.157216531621208 
714	 0.156115166229885 
715	 0.155155092143388 
716	 0.154262243884378 
717	 0.153253523760009 
718	 0.15141882025547 
719	 0.149260554011018 
720	 0.14751743155893 
721	 0.146142866604046 
722	 0.144985253595753 
723	 0.14333202244916 
724	 0.141177378858686 
725	 0.139103473568402 
726	 0.137143491133954 
727	 0.134896615236507 
728	 0.13219633450156 
729	 0.129873609378878 
730	 0.126888939757881 
731	 0.123704671563153 
732	 0.12108401146266 
733	 0.119125309343216 
734	 0.117655868106784 
735	 0.116401946788124 
736	 0.114898766914915 
737	 0.113888864753946 
738	 0.113201318401435 
739	 0.112589610594351 
740	 0.112205187873185 
741	 0.112023220242652 
742	 0.11190683119858 
743	 0.111714267473349 
744	 0.111800949452108 
745	 0.111724854791173 
746	 0.111438872885752 
747	 0.111515894138951 
748	 0.111577624727382 
749	 0.111560716504002 
750	 0.111496688340403 
751	 0.111452822885357 
752	 0.11149690123145 
753	 0.11155111795671 
754	 0.111484945392524 
755	 0.111455715904378 
756	 0.111446159238294 
757	 0.111531395023605 
758	 0.112085138350047 
759	 0.112513520902523 
760	 0.11256662493438 
761	 0.112486039618915 
762	 0.112524769410257 
763	 0.112746392798607 
764	 0.112763679242637 
765	 0.112401715475697 
766	 0.11268367378527 
767	 0.112922620265845 
768	 0.112898710250659 
769	 0.112814895693981 
770	 0.113105028610985 
771	 0.113445052773923 
772	 0.113590128275936 
773	 0.113965902614553 
774	 0.114343570678797 
775	 0.114658329051748 
776	 0.114943995642905 
777	 0.115361270250801 
778	 0.115718429550696 
779	 0.116014273284252 
780	 0.116454815182022 
781	 0.116863616465762 
782	 0.117364728374947 
783	 0.117974791475417 
784	 0.118348547053597 
785	 0.118692679576386 
786	 0.119144645260067 
787	 0.119771019928912 
788	 0.120402562247639 
789	 0.12097068695013 
790	 0.121466079007127 
791	 0.121952520405738 
792	 0.12261732730729 
793	 0.122999762566678 
794	 0.123125943848978 
795	 0.123927490577308 
796	 0.124761497938889 
797	 0.125194365314068 
798	 0.125226651567727 
799	 0.1259601026816 
800	 0.12646327533715 
801	 0.126698813462432 
802	 0.127104706407711 
803	 0.127325374319505 
804	 0.127476204846832 
805	 0.127600027731671 
806	 0.127617934747775 
807	 0.127498347245478 
808	 0.127465915119037 
809	 0.127574238391527 
810	 0.127266820581855 
811	 0.126970913565149 
812	 0.126676996617262 
813	 0.126283235170123 
814	 0.126358787239461 
815	 0.125951998699633 
816	 0.124978446235083 
817	 0.124186317831976 
818	 0.123587358643146 
819	 0.122825287271862 
820	 0.121735551802466 
821	 0.12044231151188 
822	 0.118883297920674 
823	 0.117390580863109 
824	 0.116030976909063 
825	 0.11396434502132 
826	 0.111523169549388 
827	 0.109127430044365 
828	 0.10726882171664 
829	 0.105157275380909 
830	 0.103345091413126 
831	 0.10170732770215 
832	 9.98024495586473E-02 
833	 9.88081037141325E-02 
834	 9.79186267906893E-02 
835	 9.69696062591387E-02 
836	 0.096884773319076 
837	 9.61435571942621E-02 
838	 9.52138159804745E-02 
839	 9.46601596395559E-02 
840	 9.41167064531847E-02 
841	 9.40805026358188E-02 
842	 9.40008236025719E-02 
843	 0.093310329286158 
844	 9.32840312883382E-02 
845	 9.26280090338361E-02 
846	 9.17019263467534E-02 
847	 9.18176304391044E-02 
848	 9.15037565413701E-02 
849	 0.091269991899641 
850	 9.12838582189622E-02 
851	 9.10124158292293E-02 
852	 0.090491398957281 
853	 9.02415916637156E-02 
854	 0.090327981087783 
855	 8.96498903914081E-02 
856	 8.92536282501194E-02 
857	 8.89841397576207E-02 
858	 8.85386360279521E-02 
859	 0.08833436613335 
860	 8.83362679383638E-02 
861	 8.82235613952073E-02 
862	 8.77135327052159E-02 
863	 8.77048789005059E-02 
864	 8.73438855196229E-02 
865	 8.67107735289801E-02 
866	 8.66888313215555E-02 
867	 8.60481012009699E-02 
868	 8.55158884451962E-02 
869	 8.53558564520114E-02 
870	 8.49248688258668E-02 
871	 8.50659803373103E-02 
872	 8.49961173578828E-02 
873	 0.084314156033503 
874	 8.42586038803256E-02 
875	 0.083913163596855 
876	 8.33881899088077E-02 
877	 8.29494488763198E-02 
878	 8.21391607618446E-02 
879	 8.20624698854403E-02 
880	 8.21471757331073E-02 
881	 8.13297633617774E-02 
882	 8.07557498102421E-02 
883	 8.04936633410314E-02 
884	 8.02953645551816E-02 
885	 7.97992584579154E-02 
886	 7.95112901091604E-02 
887	 7.91315794687297E-02 
888	 7.87523663913257E-02 
889	 7.89166286220643E-02 
890	 7.83017718134091E-02 
891	 7.82440061830457E-02 
892	 0.078877772613645 
893	 7.70124966025752E-02 
894	 7.61073357233015E-02 
895	 7.65280689997005E-02 
896	 7.71800406898159E-02 
897	 7.57565392024753E-02 
898	 7.59948498478561E-02 
899	 7.64763491711684E-02 
900	 7.52019417051796E-02 
901	 7.52283635452836E-02 
902	 7.46226206778179E-02 
903	 7.36362989380832E-02 
904	 7.32544961046495E-02 
905	 7.38380752563908E-02 
906	 7.34552268658864E-02 
907	 7.24315441649599E-02 
908	 7.27961021305074E-02 
909	 7.44083175403297E-02 
910	 7.33636792069926E-02 
911	 7.08395124660439E-02 
912	 0.072017052288606 
913	 7.12567210519883E-02 
914	 6.86018856597065E-02 
915	 6.63197455463728E-02 
916	 6.74690029209246E-02 
917	 6.71698829079704E-02 
918	 6.65488909161218E-02 
919	 6.65328491647031E-02 
920	 6.66593977005015E-02 
921	 6.61394573551362E-02 
922	 6.62441014224966E-02 
923	 6.66792887772464E-02 
924	 6.28277327914259E-02 
925	 6.28760456276541E-02 
926	 6.38396983422244E-02 
927	 6.12964561262178E-02 
928	 0.061619823234378 
929	 6.29212400621697E-02 
930	 6.54545740129472E-02 
931	 6.95499667242769E-02 
932	 6.98797337838574E-02 
933	 0.062972001957012 
934	 5.21539226293795E-02 
935	 4.51696943891248E-02 
936	 4.51822712380055E-02 
937	 0.051866503415381 
938	 5.87833314097229E-02 
939	 6.01740967300546E-02 
940	 5.56710207008851E-02 
941	 5.56985456397366E-02 
942	 5.58895709811494E-02 
943	 4.80632087150293E-02 
944	 5.22956441455093E-02 
945	 5.14422924985534E-02 
946	 4.88099073797842E-02 
947	 5.58335192215866E-02 
948	 0.04677904931504 
949	 4.33921084149217E-02 
950	 5.18241533950144E-02 
951	 6.26802256344489E-02 
952	 4.77616148955853E-02 
953	 4.43754848619002E-02 
954	 5.49068370240122E-02 
955	 5.71814193584727E-02 
956	 5.30585272598263E-02 
957	 5.45595374191964E-02 
958	 5.74603398245015E-02 
959	 4.98446128186391E-02 
960	 4.55740036868538E-02 
961	 4.58918183260826E-02 
962	 4.81595465357202E-02 
963	 4.83316056557491E-02 
964	 4.26352693603142E-02 
965	 0.04486000074181 
966	 5.09829746475304E-02 
967	 4.75051772128888E-02 
968	 4.52599099463071E-02 
969	 4.61245030346585E-02 
970	 4.85979706828706E-02 
971	 4.92308616826986E-02 
972	 4.55087932256597E-02 
973	 4.64192273077981E-02 
974	 4.96428139669383E-02 
975	 4.35263096073502E-02 
976	 4.50047259221541E-02 
977	 4.63687634463116E-02 
978	 4.49297098320019E-02 
979	 4.47426213893854E-02 
980	 4.65695352004917E-02 
981	 4.72087360382751E-02 
982	 4.48492436923818E-02 
983	 4.07900444006879E-02 
984	 4.67376359910445E-02 
985	 4.94682575320672E-02 
986	 0.046863792488809 
987	 4.64665350151149E-02 
988	 4.53933126076809E-02 
989	 4.50609879912171E-02 
990	 4.55043777936889E-02 
991	 4.55772908501787E-02 
992	 0.045197805904736 
993	 0.046708165362953 
994	 4.76539400002675E-02 
995	 4.40333712713485E-02 
996	 4.32884954939769E-02 
997	 4.41458861407174E-02 
998	 4.66227531853938E-02 
999	 5.01013228541704E-02 
1000	 4.42719715317966E-02 
1001	 4.06018641012754E-02 
1002	 4.00060862355532E-02 
1003	 4.03074787682725E-02 
1004	 4.25818222484887E-02 
1005	 4.28085350518291E-02 
1006	 4.20151601088904E-02 
1007	 4.14699541752679E-02 
1008	 4.08113833771098E-02 
1009	 4.06139933282057E-02 
1010	 0.041174711689252 
1011	 0.041861324816195 
1012	 4.20078258304158E-02 
1013	 4.15272584231856E-02 
1014	 4.16531953602066E-02 
1015	 0.042266891698592 
1016	 4.25173726193532E-02 
1017	 4.29166341417863E-02 
1018	 4.29347621156566E-02 
1019	 0.042486856472483 
1020	 4.22707505142184E-02 
1021	 4.16260686819519E-02 
1022	 4.16909035495713E-02 
1023	 4.27489378586179E-02 
1024	 4.29296977661268E-02 
1025	 4.22426823850118E-02 
1026	 4.21040638640098E-02 
1027	 4.28080978594358E-02 
1028	 4.37648393780026E-02 
1029	 4.41751808635794E-02 
1030	 4.55664342385327E-02 
1031	 4.60592969319463E-02 
1032	 4.50527779356558E-02 
1033	 4.51370689562292E-02 
1034	 4.57825871723891E-02 
1035	 4.65640336388236E-02 
1036	 4.80420168635531E-02 
1037	 4.83730822677893E-02 
1038	 4.84228582662447E-02 
1039	 4.85650540205584E-02 
1040	 4.66207301404915E-02 
1041	 4.59235144648331E-02 
1042	 4.62091444027631E-02 
1043	 4.74425250808307E-02 
1044	 4.80167488164531E-02 
1045	 0.049573698280149 
1046	 5.01194148935276E-02 
1047	 4.96130297294452E-02 
1048	 4.98140763549528E-02 
1049	 5.05547431950602E-02 
1050	 5.05613801894215E-02 
1051	 4.98543555106128E-02 
1052	 4.99248396993097E-02 
1053	 5.01527883551465E-02 
1054	 5.01933323893906E-02 
1055	 5.05946303022874E-02 
1056	 5.10880778921567E-02 
1057	 5.15342623861132E-02 
1058	 5.17612561482317E-02 
1059	 5.17023876524888E-02 
1060	 5.16365612194603E-02 
1061	 5.17636199335588E-02 
1062	 5.14156076313372E-02 
1063	 5.14312681038781E-02 
1064	 5.20653214845204E-02 
1065	 5.23969949313042E-02 
1066	 5.26732026645943E-02 
1067	 5.26314873313995E-02 
1068	 5.26783840658576E-02 
1069	 5.24251925861899E-02 
1070	 5.12302014068844E-02 
1071	 5.07079219856554E-02 
1072	 5.04576116498542E-02 
1073	 4.99495247320002E-02 
1074	 5.06142570153621E-02 
1075	 5.26804220007251E-02 
1076	 5.27602630472723E-02 
1077	 5.27730976289291E-02 
1078	 5.24476889027807E-02 
1079	 5.00955346807078E-02 
1080	 4.96218714727942E-02 
1081	 5.06440440741767E-02 
1082	 0.050709393157201 
1083	 5.08500022646184E-02 
1084	 5.08910838309124E-02 
1085	 0.050474052188255 
1086	 5.01016154160733E-02 
1087	 4.96989597558325E-02 
1088	 4.95537885134118E-02 
1089	 4.95336616278648E-02 
1090	 4.95702226743026E-02 
1091	 4.91548244113968E-02 
1092	 4.83195535262587E-02 
1093	 4.84053701519377E-02 
1094	 0.048454877579268 
1095	 4.87125377723767E-02 
1096	 0.050528623473808 
1097	 5.08118288624141E-02 
1098	 4.99257704822456E-02 
1099	 4.95170281404101E-02 
1100	 4.78630561500567E-02 
1101	 4.76590479875261E-02 
1102	 0.050010838897346 
1103	 5.00099480995952E-02 
1104	 4.86815109580317E-02 
1105	 4.86421170389156E-02 
1106	 0.04753160915852 
1107	 4.36964993094306E-02 
1108	 4.56225393854417E-02 
1109	 4.88896560841809E-02 
1110	 4.95468041662405E-02 
1111	 5.03573001447234E-02 
1112	 5.05874108572274E-02 
1113	 0.047091884080757 
1114	 4.62629514700148E-02 
1115	 0.047127419286695 
1116	 0.048229127269753 
1117	 5.25833549487516E-02 
1118	 5.25667421711763E-02 
1119	 5.00334580822939E-02 
1120	 4.88417235591146E-02 
1121	 4.29837287387834E-02 
1122	 2.90874525056993E-02 
1123	 2.76554084841502E-02 
1124	 0.044206883732003 
1125	 0.041983844767157 
1126	 3.54119726674418E-02 
1127	 3.40592386563509E-02 
1128	 1.42437734710225E-02 
1129	 1.35212930199484E-02 
1130	 2.53071624590471E-02 
1131	 0.031109261604544 
1132	 4.06046973592891E-02 
1133	 4.56049131801279E-02 
1134	 0.043828320775583 
1135	 4.86138713687261E-02 
1136	 6.48486324155474E-02 
1137	 6.26474835368999E-02 
1138	 5.06590979597551E-02 
1139	 4.85403454324296E-02 
1140	 4.59014156201164E-02 
1141	 3.40244456755463E-02 
1142	 3.62092187353346E-02 
1143	 4.81812316758588E-02 
1144	 4.95924832570613E-02 
1145	 5.02383571193706E-02 
1146	 4.85726217736401E-02 
1147	 4.28624669794469E-02 
1148	 3.93797785899961E-02 
1149	 3.55951074889067E-02 
1150	 3.61018696208831E-02 
1151	 4.18824343710326E-02 
1152	 4.19564082873401E-02 
1153	 4.02448897349837E-02 
1154	 4.12766739475744E-02 
1155	 4.19747176288185E-02 
1156	 4.23021912816046E-02 
1157	 4.37919245115221E-02 
1158	 0.046165056654177 
1159	 4.42285392478697E-02 
1160	 4.13936166784203E-02 
1161	 0.041293848102958 
1162	 4.10845128024862E-02 
1163	 3.98879880821135E-02 
1164	 3.97549729393185E-02 
1165	 4.18084216047923E-02 
1166	 4.25159100471889E-02 
1167	 4.18921465215542E-02 
1168	 4.23633443387046E-02 
1169	 4.13216319806101E-02 
1170	 3.90200427231506E-02 
1171	 3.86273991464987E-02 
1172	 0.041081211770676 
1173	 4.13124028366642E-02 
1174	 4.06607802194523E-02 
1175	 4.05533413389528E-02 
1176	 4.20705706402935E-02 
1177	 4.12912492127228E-02 
1178	 0.040686324189199 
1179	 4.17877341607606E-02 
1180	 4.06965073695171E-02 
1181	 3.95400496039921E-02 
1182	 4.09207914164895E-02 
1183	 4.12377846070995E-02 
1184	 4.01381632408986E-02 
1185	 3.99346369432654E-02 
1186	 3.97081100575377E-02 
1187	 3.99840405257647E-02 
1188	 4.12072969183519E-02 
1189	 4.15229886635855E-02 
1190	 4.09040572802968E-02 
1191	 4.05312534903011E-02 
1192	 0.040243963468623 
1193	 3.96674177850798E-02 
1194	 3.95203865601688E-02 
1195	 4.00945967227199E-02 
1196	 4.01677819760884E-02 
1197	 3.96591633249335E-02 
1198	 0.039730010695553 
1199	 3.99278332849352E-02 
1200	 3.97037045619798E-02 
1201	 4.01919263377352E-02 
1202	 4.09513936782041E-02 
1203	 4.12545257543165E-02 
1204	 4.16809969014298E-02 
1205	 4.18744594219117E-02 
1206	 4.20496908606664E-02 
1207	 4.19502894991618E-02 
1208	 4.12746763846286E-02 
1209	 4.10087453493032E-02 
1210	 4.10931523786295E-02 
1211	 4.09067679664107E-02 
1212	 4.12749403416099E-02 
1213	 4.18514564376618E-02 
1214	 4.18096810319919E-02 
1215	 4.10892466481303E-02 
1216	 4.09681945718521E-02 
1217	 4.08790506248236E-02 
1218	 0.040255783325711 
1219	 4.01918412069266E-02 
1220	 4.01180589182906E-02 
1221	 4.02558794143237E-02 
1222	 4.08139768380891E-02 
1223	 4.07669767901631E-02 
1224	 4.06641281719116E-02 
1225	 4.05972104464796E-02 
1226	 0.040033363522732 
1227	 3.97594691783766E-02 
1228	 4.00057691067705E-02 
1229	 4.05456919471525E-02 
1230	 4.05932098201858E-02 
1231	 4.00828180002984E-02 
1232	 4.00182073763937E-02 
1233	 3.99400123102851E-02 
1234	 3.98334792973519E-02 
1235	 3.99311030567975E-02 
1236	 4.10161930650606E-02 
1237	 4.08792034003771E-02 
1238	 3.98509533415574E-02 
1239	 3.95486288542474E-02 
1240	 3.96443561368577E-02 
1241	 3.98796297536031E-02 
1242	 4.05713544490522E-02 
1243	 4.05621458871506E-02 
1244	 4.02923194671397E-02 
1245	 4.01022566666175E-02 
1246	 3.99137144547888E-02 
1247	 0.040004122696862 
1248	 4.00755696885826E-02 
1249	 4.02128832165552E-02 
1250	 4.04818118307274E-02 
1251	 4.03753062097617E-02 
1252	 4.01052169387294E-02 
1253	 4.03516127311715E-02 
1254	 4.07582494371575E-02 
1255	 4.06281555971942E-02 
1256	 4.07135580516223E-02 
1257	 4.08963073169524E-02 
1258	 0.041354267108558 
1259	 4.23655243332567E-02 
1260	 4.24039594973136E-02 
1261	 4.17355053437118E-02 
1262	 4.17303010442262E-02 
1263	 0.041365124107625 
1264	 4.10376748910561E-02 
1265	 4.08623585940953E-02 
1266	 4.09031119381945E-02 
1267	 4.10095783176666E-02 
1268	 4.07936111678368E-02 
1269	 0.039936065361146 
1270	 0.040085175034143 
1271	 4.01819507817718E-02 
1272	 3.92601038000138E-02 
1273	 4.00129705316008E-02 
1274	 4.16410475974695E-02 
1275	 4.17688363016891E-02 
1276	 4.08852743231933E-02 
1277	 4.06107437046465E-02 
1278	 4.06889062801838E-02 
1279	 4.00862141280711E-02 
1280	 3.99310051384255E-02 
1281	 3.98959199550078E-02 
1282	 4.02255991079752E-02 
1283	 4.04170629640422E-02 
1284	 4.06328585077766E-02 
1285	 4.04947012267154E-02 
1286	 0.040284797105468 
1287	 4.01757309237427E-02 
1288	 3.99769402128369E-02 
1289	 3.98179263194447E-02 
1290	 4.00176170181939E-02 
1291	 0.039430777417527 
1292	 0.039602591662647 
1293	 4.02904879887488E-02 
1294	 4.10099163744024E-02 
1295	 4.15821403502814E-02 
1296	 4.20595582306722E-02 
1297	 0.042484646596333 
1298	 0.041671389686793 
1299	 4.12180669144863E-02 
1300	 4.17852213475986E-02 
1301	 4.05702528120879E-02 
1302	 3.99438349362723E-02 
1303	 4.10507782289627E-02 
1304	 4.04625307663216E-02 
1305	 3.98122821893614E-02 
1306	 4.00527104116727E-02 
1307	 4.17695639704507E-02 
1308	 4.20002835217721E-02 
1309	 4.21615789755368E-02 
1310	 4.21439142088888E-02 
1311	 4.06102476731555E-02 
1312	 4.05561943676013E-02 
1313	 4.17405771638986E-02 
1314	 4.22572676954049E-02 
1315	 4.33714139480664E-02 
1316	 4.37027490026833E-02 
1317	 4.30261466273636E-02 
1318	 4.24535040290563E-02 
1319	 4.05378357058051E-02 
1320	 4.07594362457109E-02 
1321	 4.27143353018751E-02 
1322	 4.51902196013768E-02 
1323	 4.42684994443429E-02 
1324	 4.18295358330534E-02 
1325	 4.17777531772783E-02 
1326	 4.11497277568379E-02 
1327	 4.00365997850773E-02 
1328	 0.043118892765421 
1329	 4.53355059577475E-02 
1330	 0.041240371085467 
1331	 3.98168540646077E-02 
1332	 4.34942117269659E-02 
1333	 0.04573394526639 
1334	 0.044455072074891 
1335	 4.31699301298427E-02 
1336	 4.11603543376428E-02 
1337	 4.13546484827072E-02 
1338	 4.20189190080653E-02 
1339	 4.09301541566329E-02 
1340	 4.10279413476313E-02 
1341	 4.03130940250053E-02 
1342	 3.28518461212116E-02 
1343	 3.15065012861168E-02 
1344	 4.16754859910955E-02 
1345	 4.23019649642352E-02 
1346	 3.45704021242044E-02 
1347	 3.41739589056726E-02 
1348	 3.65483694092691E-02 
1349	 2.59166984085696E-02 
1350	 3.13814259363715E-03 
1351	-1.59871823684702E-02 
1352	-8.85714600527569E-02 
1353	-0.160279291891975 
1354	-0.142476184101487 
1355	-9.96966353101386E-04 
1356	 0.151881426255825 
1357	 4.83101597898871E-03 
1358	-0.178513497365367 
1359	-0.241781548173458 
1360	-0.332486947734589 
1361	-0.544801316806575 
1362	-3.27019896060366 
1363	 13.60544640809 
1364	-2.36436058643851 
1365	-0.880552042850543 
1366	-0.949772602871531 
1367	-0.750546281576801 
1368	-0.474196840590585 
1369	-0.48427939313905 
1370	-0.629652285645108 
1371	-0.409366821288466 
1372	-0.245191879012359 
1373	-0.402463867877116 
1374	-0.62308178012845 
1375	-0.424955486371676 
1376	-0.15111862700532 
1377	-1.28449051036064 
1378	-8.28918258765655 
1379	 3.21601841223641 
1380	-3.25691879196719 
1381	 2.5212397719507 
1382	-12.2001589500286 
1383	-0.363624497388476 
1384	-0.371617683078737 
1385	-0.612045173088946 
1386	-0.577924394912313 
1387	-0.548981166022542 
1388	-0.66719427171217 
1389	-0.994621752166101 
1390	-0.990373280167593 
1391	-0.900812031396735 
1392	-1.07128587524864 
1393	-1.14719634959552 
1394	-0.736608049152237 
1395	-3.65784892685043E-02 
1396	 0.686994088023594 
1397	 0.731901129283447 
1398	 1.12773014038331 
1399	 1.05281563653377 
1400	 0.132256174436334 
1401	-0.246706035666124 
1402	-0.163789559252793 
1403	 0.157911484295247 
1404	 0.629555532262299 
1405	 0.614508744114201 
1406	 0.127770587557319 
1407	-0.204805397332534 
1408	-1.01800899063017 
1409	-1.04478681386071 
1410	-0.195241608817632 
1411	-0.25524352779148 
1412	-0.611510731508222 
1413	-0.493027274812974 
1414	-0.451604570261818 
1415	-0.386624605748459 
1416	-3.36257895962577E-02 
1417	 7.13370964639756E-02 
1418	-0.198314121530809 
1419	 1.58664384984282E-02 
1420	 0.811361300070301 
1421	 0.744002686877419 
1422	 0.26207397194982 
1423	 0.211991797933619 
1424	 0.170660637821105 
1425	 8.24055241236907E-02 
1426	-1.82984922125104E-03 
1427	 2.34115298119762E-02 
1428	 5.05134029763886E-02 
1429	 4.75003550196565E-02 
1430	 0.140344687659399 
1431	 0.149622841555708 
1432	 6.01635872115018E-02 
1433	 9.07819721645869E-03 
1434	-6.23380863006563E-02 
1435	-7.25882477940654E-02 
1436	-3.24826683046478E-02 
1437	-2.32549433543482E-02 
1438	-4.90471991227693E-02 
1439	-1.69638316442446E-03 
1440	 1.51502201167782E-02 
1441	-1.11639917291405E-02 
1442	-7.64500099904702E-02 
1443	-0.103046179048354 
1444	-4.77497432656866E-02 
1445	-2.73876004220665E-02 
1446	-1.10856414507806E-02 
1447	 8.66616855503697E-03 
1448	-2.86409025922149E-02 
1449	-4.89369764297711E-02 
1450	-3.43052684222283E-02 
1451	-3.63935713761908E-03 
1452	 3.90517698510478E-02 
1453	 5.70567639869762E-02 
1454	 5.19411510620764E-02 
1455	 0.03863094927291 
1456	 3.20938325220269E-02 
1457	 4.62673067594844E-03 
1458	 0.004464227645303 
1459	 2.04302242829843E-02 
1460	 3.10145010997835E-02 
1461	 5.06943559759962E-02 
1462	 5.41299561257817E-02 
1463	 5.50719814658836E-02 
1464	 5.28671518245347E-02 
1465	 3.26738972890843E-02 
1466	 2.73829706461134E-02 
1467	 3.03744745990508E-02 
1468	 3.12415009559313E-02 
1469	 3.76030748540826E-02 
1470	 3.87517579873269E-02 
1471	 4.14951170915143E-02 
1472	 3.60121171740157E-02 
1473	 1.60076498570458E-02 
1474	 1.50474951771485E-02 
1475	 2.13529487712935E-02 
1476	 2.26168497327223E-02 
1477	 2.86410483449532E-02 
1478	 3.66032537174583E-02 
1479	 4.71378812868825E-02 
1480	 4.61962003500714E-02 
1481	 4.24386070569209E-02 
1482	 4.30563829912785E-02 
1483	 0.03362008480533 
1484	 3.33732249104551E-02 
1485	 4.50204355370879E-02 
1486	 0.04749326799891 
1487	 4.68646543053477E-02 
1488	 4.69474172711948E-02 
1489	 4.60120520366161E-02 
1490	 4.44461786661853E-02 
1491	 0.040312449479824 
1492	 4.08056696645512E-02 
1493	 4.46450026646089E-02 
1494	 4.46066267943295E-02 
1495	 4.45887781732333E-02 
1496	 4.50181520628505E-02 
1497	 4.42097802462211E-02 
1498	 4.24272579822755E-02 
1499	 4.03036713508844E-02 
1500	 4.01283219048529E-02 
1501	 3.89880384684993E-02 
1502	 3.87523082189595E-02 
1503	 4.10876877479438E-02 
1504	 4.22112110067693E-02 
1505	 4.19415176414846E-02 
1506	 4.35349928370181E-02 
1507	 4.43007297536828E-02 
1508	 4.26523636465246E-02 
1509	 4.15067070860786E-02 
1510	 4.18994991019414E-02 
1511	 4.16706980179392E-02 
1512	 4.13632978562802E-02 
1513	 4.13485944773787E-02 
1514	 4.08409715504043E-02 
1515	 4.14012847119774E-02 
1516	 4.26262662972889E-02 
1517	 4.42690217862549E-02 
1518	 4.47781718392748E-02 
1519	 4.34557476227116E-02 
1520	 0.043289645324355 
1521	 4.33385327952351E-02 
1522	 4.22732410604124E-02 
1523	 4.16403039826124E-02 
1524	 4.16896699932238E-02 
1525	 4.17044186259101E-02 
1526	 0.041297481971728 
1527	 0.041128236739968 
1528	 4.16690802108455E-02 
1529	 4.19964398073668E-02 
1530	 0.042135870617398 
1531	 4.27356798761588E-02 
1532	 4.32160692025618E-02 
1533	 4.34119998321411E-02 
1534	 4.34023132195218E-02 
1535	 4.29670521387141E-02 
1536	 4.28626619692231E-02 
1537	 0.043289228711909 
1538	 4.34601642940353E-02 
1539	 4.36942972876708E-02 
1540	 4.42527532952194E-02 
1541	 0.043991538816384 
1542	 4.30562597666516E-02 
1543	 4.26920321410706E-02 
1544	 4.25432949541381E-02 
1545	 4.23471609019804E-02 
1546	 4.29312506902572E-02 
1547	 4.34568668223778E-02 
1548	 4.26849293038546E-02 
1549	 4.20436878267139E-02 
1550	 4.20477687690816E-02 
1551	 4.19399964565756E-02 
1552	 0.042340737718196 
1553	 4.30236111977245E-02 
1554	 4.29773868098084E-02 
1555	 4.20140740410757E-02 
1556	 4.11783320083159E-02 
1557	 4.13182345217712E-02 
1558	 4.16678133266411E-02 
1559	 4.18628428931242E-02 
1560	 4.15660205473532E-02 
1561	 4.03349484824907E-02 
1562	 4.00181281851786E-02 
1563	 4.06411843809622E-02 
1564	 4.08825165639195E-02 
1565	 0.041465279230709 
1566	 4.14239975156067E-02 
1567	 0.04094666037819 
1568	 4.19355790999276E-02 
1569	 4.26030469407175E-02 
1570	 4.15811809050496E-02 
1571	 4.08293971122288E-02 
1572	 4.03856687715945E-02 
1573	 3.96767606219015E-02 
1574	 3.98196013825173E-02 
1575	 4.02573785657527E-02 
1576	 4.08978343341635E-02 
1577	 0.041755137817464 
1578	 4.19094996223525E-02 
1579	 4.20332013186801E-02 
1580	 4.16832218284783E-02 
1581	 4.13167216548039E-02 
1582	 4.19591044492079E-02 
1583	 4.26147193348304E-02 
1584	 0.043081476215095 
1585	 4.31838565921516E-02 
1586	 4.29764254244319E-02 
1587	 4.30078233535817E-02 
1588	 4.26110925578355E-02 
1589	 0.0420545650091 
1590	 4.21166721786897E-02 
1591	 4.23649340800546E-02 
1592	 0.042338102162811 
1593	 4.14864210414357E-02 
1594	 4.08413634241565E-02 
1595	 4.08189670479326E-02 
1596	 0.040436102112464 
1597	 4.04720583439782E-02 
1598	 4.11857107601004E-02 
1599	 4.17734798354247E-02 
1600	 4.19551393852955E-02 
1601	 4.19460608650787E-02 
1602	 4.21994117220855E-02 
1603	 4.19432375675458E-02 
1604	 4.08148883965048E-02 
1605	 4.06787735073899E-02 
1606	 4.14022141879059E-02 
1607	 4.11583433976038E-02 
1608	 4.06825264299994E-02 
1609	 4.10928551587419E-02 
1610	 4.16280725343595E-02 
1611	 4.20227333179132E-02 
1612	 4.29192476654456E-02 
1613	 4.39175738388145E-02 
1614	 4.36983273821493E-02 
1615	 4.22188053278723E-02 
1616	 0.041963654855792 
1617	 4.27410359566534E-02 
1618	 4.25062462848124E-02 
1619	 4.27617319778243E-02 
1620	 4.32737976142652E-02 
1621	 4.27864235247611E-02 
1622	 0.042312361004205 
1623	 4.24258640137283E-02 
1624	 4.24498651971811E-02 
1625	 4.15133090168523E-02 
1626	 4.07501723150338E-02 
1627	 4.07260779687968E-02 
1628	 4.09093754655875E-02 
1629	 4.11820267386862E-02 
1630	 4.14023075921234E-02 
1631	 4.15795811577034E-02 
1632	 4.13756313042314E-02 
1633	 4.12425832163989E-02 
1634	 0.040802461165376 
1635	 0.040383456031096 
1636	 4.09102132262246E-02 
1637	 4.08107546805796E-02 
1638	 4.08371336942168E-02 
1639	 4.15091381457722E-02 
1640	 4.07838925448981E-02 
1641	 3.97819847381654E-02 
1642	 3.99802313349539E-02 
1643	 4.02330111636866E-02 
1644	 4.04146906697655E-02 
1645	 4.13341694183257E-02 
1646	 4.18785982347102E-02 
1647	 4.18298813595597E-02 
1648	 4.13037581877683E-02 
1649	 4.02923409275059E-02 
1650	 4.07096719747769E-02 
1651	 4.12001267937255E-02 
1652	 4.06100766797116E-02 
1653	 4.03277806111603E-02 
1654	 0.040508499173408 
1655	 4.06392727068201E-02 
1656	 0.040640349646324 
1657	 4.10085862401602E-02 
1658	 4.10844381885193E-02 
1659	 0.040607695212034 
1660	 4.08167542549177E-02 
1661	 4.17389721891144E-02 
1662	 0.042097187746182 
1663	 4.19405572299255E-02 
1664	 4.19126509379558E-02 
1665	 4.21964057159801E-02 
1666	 4.25950711366041E-02 
1667	 4.31750332283944E-02 
1668	 4.37256006124577E-02 
1669	 4.29881762642568E-02 
1670	 4.18442957064235E-02 
1671	 4.21700306156546E-02 
1672	 4.27812305664713E-02 
1673	 4.25401295535189E-02 
1674	 4.31399874387589E-02 
1675	 4.30300055630417E-02 
1676	 0.04107113111666 
1677	 4.14029447590535E-02 
1678	 4.30322223022681E-02 
1679	 4.28170101419361E-02 
1680	 4.26108357490116E-02 
1681	 4.24771534435648E-02 
1682	 4.14469771047195E-02 
1683	 4.08048008663755E-02 
1684	 4.19478809800463E-02 
1685	 0.043222400898361 
1686	 4.23028016485349E-02 
1687	 4.17648922169501E-02 
1688	 4.26438835032162E-02 
1689	 4.24931569344444E-02 
1690	 4.25933225927803E-02 
1691	 4.38650164367033E-02 
1692	 4.31543322397951E-02 
1693	 4.21323880507995E-02 
1694	 4.33391270215087E-02 
1695	 0.043067529120918 
1696	 4.21698927613771E-02 
1697	 4.26816085324633E-02 
1698	 4.23206619510417E-02 
1699	 4.23786460474204E-02 
1700	 4.39224649767505E-02 
1701	 4.44011811411829E-02 
1702	 4.34928508066636E-02 
1703	 4.37221967965137E-02 
1704	 4.34725309753256E-02 
1705	 4.18028359760089E-02 
1706	 4.19460576208742E-02 
1707	 0.041261681296943 
1708	 4.03755188686601E-02 
1709	 4.25363689481992E-02 
1710	 4.33652092012111E-02 
1711	 4.38735874243655E-02 
1712	 4.55055785096034E-02 
1713	 4.30889561229068E-02 
1714	 4.28234155225459E-02 
1715	 4.34699132156306E-02 
1716	 4.35029885752204E-02 
1717	 4.34727696889269E-02 
1718	 4.25393283037228E-02 
1719	 4.12915771158415E-02 
1720	 4.14009466446527E-02 
1721	 4.28693582765823E-02 
1722	 4.38884747586803E-02 
1723	 4.37486436560751E-02 
1724	 4.20352984882347E-02 
1725	 4.01246106883611E-02 
1726	 4.12278351550504E-02 
1727	 4.36818511111362E-02 
1728	 4.36583380304614E-02 
1729	 4.45561444562683E-02 
1730	 4.60962492765582E-02 
1731	 4.44821544189968E-02 
1732	 4.50264949393658E-02 
1733	 4.64254613430043E-02 
1734	 4.48782624986954E-02 
1735	 4.42895680414609E-02 
1736	 4.38392159581097E-02 
1737	 4.36353278663515E-02 
1738	 4.32232414842673E-02 
1739	 4.20070083887742E-02 
1740	 4.29868144599054E-02 
1741	 4.24854901508425E-02 
1742	 4.19111101423291E-02 
1743	 4.34746628059074E-02 
1744	 4.39276153913438E-02 
1745	 0.044917772163341 
1746	 4.25055323149354E-02 
1747	 4.23124299521683E-02 
1748	 4.17608519878748E-02 
1749	 0.040911787143432 
1750	 4.32946809576361E-02 
1751	 4.32136295460676E-02 
1752	 4.03732018965671E-02 
1753	 4.05936577788806E-02 
1754	 0.040386244318959 
1755	 4.20404738830287E-02 
1756	 4.76005199333558E-02 
1757	 4.80624583668301E-02 
1758	 4.79404963658742E-02 
1759	 0.045841004591413 
1760	 4.37656219245695E-02 
1761	 4.40202399482082E-02 
1762	 0.045071243424734 
1763	 4.30811260843146E-02 
1764	 4.01128898437092E-02 
1765	 4.20291997659434E-02 
1766	 4.27661970004916E-02 
1767	 4.45652332267449E-02 
1768	 4.90513943794541E-02 
1769	 4.55624125246263E-02 
1770	 4.25456134300486E-02 
1771	 4.63518190675984E-02 
1772	 4.56835113157999E-02 
1773	 4.50469105137001E-02 
1774	 0.047117163004246 
1775	 4.35320295894155E-02 
1776	 4.51093260491623E-02 
1777	 5.76043901275212E-02 
1778	 6.02305258003168E-02 
1779	 0.056246921564027 
1780	 5.55241441807477E-02 
1781	 4.77042677055529E-02 
1782	 0.043125574755935 
1783	 0.044600795316653 
1784	 4.31947347518082E-02 
1785	 4.02917145538574E-02 
1786	 4.03624765760419E-02 
1787	 4.08908591121511E-02 
1788	 4.25645145615879E-02 
1789	 0.047099470550176 
1790	 3.63974100745767E-02 
1791	 4.38190181766931E-02 
1792	 4.65774386208286E-02 
1793	 3.50628720537067E-02 
1794	 3.48611330073145E-02 
1795	 3.14461838778349E-02 
1796	 2.03367464831039E-02 
1797	 1.11402719299075E-02 
1798	 4.79794767154795E-03 
1799	 4.02649677659246E-03 
1800	 4.05580722636392E-02 
1801	 4.08105367812311E-02 
1802	-2.48887804391871E-02 
1803	-5.32200055562141E-02 
1804	-0.164160392240339 
1805	-0.224353437267711 
1806	 0.144455824913793 
1807	 0.388533478514485 
1808	 0.34745650997057 
1809	 0.294696385498629 
1810	-0.237929651639768 
1811	-0.349430074272261 
1812	 4.01886760223934E-03 
1813	-0.713560557071694 
1814	 0.873119008165553 
1815	 1.06607171796464 
1816	 1.95457280228498 
1817	-1.86536475692122 
1818	-0.481501601399808 
1819	 0.18511264244785 
1820	 0.192581983350444 
1821	 0.858234878691613 
1822	 0.331472389294933 
1823	-0.288906853224394 
1824	-0.346203424340771 
1825	-0.22474396264119 
1826	-0.313728216919709 
1827	-0.620868582419843 
1828	-0.87522712018112 
1829	-1.17447226091219 
1830	-2.14523760972572 
1831	-0.301568268272031 
1832	-0.224517529679241 
1833	 0.753815863939184 
1834	 1.04192651325599 
1835	-1.98776985107037 
1836	 2.119070749186 
1837	-0.10086918475882 
1838	-0.255823423195147 
1839	 0.725571797778785 
1840	 0.392631724239658 
1841	-0.379863890976799 
1842	-3.60505989034511 
1843	-3.12061025647708 
1844	 0.158282967711805 
1845	 0.628810608847843 
1846	 1.20504901658053 
1847	 1.44690510627008 
1848	 2.0631106597044 
1849	 1.29491289588229 
1850	 0.496673807864555 
1851	 0.363621656689349 
1852	 1.06919720718972 
1853	 1.24455324451081 
1854	 2.61091389991062 
1855	-11.7634571428899 
1856	-3.5497870162883 
1857	-0.662898983119743 
1858	-0.520499102419735 
1859	-0.71882947278791 
1860	-0.762011798995352 
1861	-0.867652409287254 
1862	-1.45625083832627 
1863	-9.10247656918558 
1864	-7.56853733999208 
1865	-13.7404078313658 
1866	 0.423688628795706 
1867	 0.100922237726778 
1868	-0.572273609350672 
1869	-0.640570027798981 
1870	-0.471508112129634 
1871	 0.36144221744304 
1872	 1.67631712509369 
1873	 2.49428005292069 
1874	 32.4278641670137 
1875	-2.79554545617184 
1876	-1.88745694896165 
1877	 1.58073827577738 
1878	-0.857710116839994 
1879	-1.87762416835353 
1880	-0.923198058656293 
1881	-0.902473103175613 
1882	-355.861696911638 
1883	-0.890586614541668 
1884	-2.31217676402872 
1885	-0.75840262334765 
1886	-0.610279308467417 
1887	 0.838506084487809 
1888	 0.583674238817905 
1889	 0.445687657006955 
1890	 0.231882097353026 
1891	 0.308098851966137 
1892	 1.20929592332809 
1893	-0.982263213504993 
1894	-4.02990180979914E-02 
1895	-3.89170201880163E-02 
1896	 0.225201115645842 
1897	 0.387885123660369 
1898	-8.99912203426448E-02 
1899	-2.65820087928759 
1900	 18.0238534724433 
1901	-0.452529216308375 
1902	-1.47116694069841 
1903	-45.0343422046523 
1904	 0.688393107791985 
1905	 0.298363819519609 
1906	 0.261087050973474 
1907	-0.161109488996659 
1908	-1.18209204721137 
1909	-0.31560752449266 
1910	 0.439273469494503 
1911	 0.76886089446444 
1912	 0.474857388528856 
1913	 0.322978545944275 
1914	 0.671746677744815 
1915	 0.613158168034535 
1916	-0.704974360126902 
1917	-0.921201697171795 
1918	-0.726455378768443 
1919	-3.93385227680918 
1920	 1140.63907222479 
1921	-10.8434985433857 
1922	 5.48573626591842 
1923	 3.71886926090579 
1924	 18.6050667491475 
1925	-4.23851355339386 
1926	-1.9683725280799 
1927	-2.09024291198727 
1928	 5.03172019722248 
1929	 17.4742447871 
1930	-0.340362226926603 
1931	 0.371619700938047 
1932	 0.724449709338138 
1933	 0.642094677107238 
1934	 2.18845334675405 
1935	-5.82895604018175E-02 
1936	 0.289392523179178 
1937	 0.203794497120522 
1938	-1.08888873063394 
1939	-2.74988269759222 
1940	 0.921940851692382 
1941	-0.055491395638363 
1942	 3.57753685031364 
1943	 1.29543800247042 
1944	 0.333475251637845 
1945	-7.89615653548821E-02 
1946	 3.01783766977816E-02 
1947	-0.194288600895839 
1948	 3.60362152872898E-02 
1949	 0.158229437412157 
1950	 0.116655556131148 
1951	 0.103703076321431 
1952	 5.56568888566237E-02 
1953	-2.05944240334233E-02 
1954	-0.156373296751154 
1955	-0.226156738926095 
1956	-0.335459630321517 
1957	-0.303353936169189 
1958	-0.113728310825319 
1959	-0.071580383431955 
1960	 4.57236256410528E-02 
1961	 0.119991206584673 
1962	 8.07275355543548E-02 
1963	 0.086033405667677 
1964	 9.90371926220984E-02 
1965	 7.68390281709543E-02 
1966	 6.80191181539893E-02 
1967	 6.69115011972013E-02 
1968	 6.21941821346112E-02 
1969	 3.76403667709206E-02 
1970	 3.68736495726213E-02 
1971	 4.04456966861773E-02 
1972	 2.51905069842884E-02 
1973	 2.67027293739831E-02 
1974	 3.02413964332061E-02 
1975	 2.23395935864276E-02 
1976	 2.83356794187454E-02 
1977	 0.034660214856796 
1978	 3.86323843196985E-02 
1979	 4.37624090526248E-02 
1980	 5.21275120529571E-02 
1981	 5.48968268033057E-02 
1982	 5.29150723189016E-02 
1983	 4.49255357053165E-02 
1984	 3.71513934808851E-02 
1985	 3.53793278666346E-02 
1986	 3.95939252578481E-02 
1987	 5.01882106676759E-02 
1988	 5.38459151587579E-02 
1989	 6.11635956449092E-02 
1990	 7.17131914852121E-02 
1991	 6.04463923859715E-02 
1992	 5.49994477842189E-02 
1993	 6.05573855747184E-02 
1994	 5.92323365272467E-02 
1995	 5.00199490403075E-02 
1996	 5.25956553618303E-02 
1997	 5.41183029178642E-02 
1998	 4.12697718939857E-02 
1999	 3.20724408875369E-02 
2000	 3.92871135621208E-02 
2001	 5.12109666446807E-02 
2002	 5.86555079299376E-02 
2003	 4.31707571022517E-02 
2004	 0.017697507578673 
2005	 1.74970378255672E-02 
2006	 3.35173828454893E-02 
2007	 6.53752423402574E-02 
2008	 8.81894522723089E-02 
2009	 9.13356608250011E-02 
2010	 5.98523982927068E-02 
2011	 0.049173517500558 
2012	 3.17149595545087E-02 
2013	 3.29189178214851E-02 
2014	 3.83639370966384E-02 
2015	 5.12095456661416E-02 
2016	 5.89055865305891E-02 
2017	 5.51067139898529E-02 
2018	 6.81731697973063E-02 
2019	 6.82795011770406E-02 
2020	 5.01042055185073E-02 
2021	 5.26987263883104E-02 
2022	 5.23296186063723E-02 
2023	 4.33557242535938E-02 
2024	 3.70435801318351E-02 
2025	 3.15503255703927E-02 
2026	 0.030316303137029 
2027	 2.78302539301686E-02 
2028	 2.76325983580904E-02 
2029	 3.42155776728412E-02 
2030	 3.68290423813309E-02 
2031	 3.45063974148985E-02 
2032	 3.60276954171011E-02 
2033	 4.01676205992435E-02 
2034	 4.37796958673691E-02 
2035	 4.75047626302924E-02 
2036	 0.049918132744042 
2037	 4.95788755581359E-02 
2038	 4.96497388730309E-02 
2039	 4.85827466527907E-02 
2040	 4.52057616555172E-02 
2041	 4.55745543156789E-02 
2042	 0.04766438330056 
2043	 4.73666433917839E-02 
2044	 4.84246097648735E-02 
2045	 4.77155965699485E-02 
2046	 0.045414817223876 
2047	 4.30178974963913E-02 
2048	 4.23557101974713E-02 
2049	 4.32278795596311E-02 
2050	 4.54436769121798E-02 
2051	 4.85735879145034E-02 
2052	 4.93258677159572E-02 
2053	 4.65944590397842E-02 
2054	 4.46825395531285E-02 
2055	 4.37072010154991E-02 
2056	 4.07147760644072E-02 
2057	 3.76864995035803E-02 
2058	 3.95374908374725E-02 
2059	 4.04172044613268E-02 
2060	 4.13423575325387E-02 
2061	 4.75437027350112E-02 
2062	 5.04391367626891E-02 
2063	 5.03693699122614E-02 
2064	 5.17814016990382E-02 
2065	 5.03693060720903E-02 
2066	 5.23267538416358E-02 
2067	 4.92318511212145E-02 
2068	 0.043084407679822 
2069	 3.95386508333135E-02 
2070	 3.64898524011915E-02 
2071	 3.75148844807736E-02 
2072	 3.99488164618949E-02 
2073	 4.19783165758809E-02 
2074	 4.58032368411593E-02 
2075	 0.046513007394086 
2076	 4.59788217473298E-02 
2077	 4.64102706214337E-02 
2078	 4.76408451880432E-02 
2079	 4.80941133085589E-02 
2080	 4.93243612265826E-02 
2081	 4.64009012298571E-02 
2082	 4.47842030928228E-02 
2083	 4.05995202487077E-02 
2084	 3.70099000384338E-02 
2085	 3.65633760747309E-02 
2086	 3.71277376063993E-02 
2087	 3.90417429582717E-02 
2088	 4.35193626302034E-02 
2089	 4.66732621079401E-02 
2090	 4.67387505560905E-02 
2091	 4.54697531277963E-02 
2092	 4.49655157303617E-02 
2093	 4.24711319333487E-02 
2094	 4.27782599645157E-02 
2095	 4.45336130038346E-02 
2096	 4.66717397707824E-02 
2097	 5.19015364835799E-02 
2098	 5.28051008486461E-02 
2099	 5.20223927774921E-02 
2100	 5.17677933372125E-02 
2101	 5.02714061115739E-02 
2102	 4.45121428786313E-02 
2103	 4.20489422853413E-02 
2104	 4.28013792677471E-02 
2105	 4.12347457465965E-02 
2106	 0.040823187297984 
2107	 4.37957440261215E-02 
2108	 4.35061987366668E-02 
2109	 4.32198478042617E-02 
2110	 4.71140525631999E-02 
2111	 4.77953642875306E-02 
2112	 4.60326772943624E-02 
2113	 0.045269300368644 
2114	 4.39201437429847E-02 
2115	 4.39288124135093E-02 
2116	 4.43491494731848E-02 
2117	 0.044814548240293 
2118	 4.61027521245987E-02 
2119	 4.64504768627876E-02 
2120	 4.48257155086254E-02 
2121	 4.76576170359794E-02 
2122	 4.79515839263112E-02 
2123	 0.048673960261847 
2124	 5.44581038910996E-02 
2125	 5.52520295476119E-02 
2126	 5.18605225845884E-02 
2127	 4.92185828968855E-02 
2128	 0.045033058120928 
2129	 3.78396233376551E-02 
2130	 3.75525868925307E-02 
2131	 4.35080832944125E-02 
2132	 4.07871325640929E-02 
2133	 3.87091391718464E-02 
2134	 3.99412301825806E-02 
2135	 4.24759545167003E-02 
2136	 4.21825753144248E-02 
2137	 4.30772531792642E-02 
2138	 4.48983822292823E-02 
2139	 4.45207844987898E-02 
2140	 4.57147054551489E-02 
2141	 5.11749512656192E-02 
2142	 5.29542346700956E-02 
2143	 5.32338773107456E-02 
2144	 5.10285269342642E-02 
2145	 4.96185751025962E-02 
2146	 5.13472570109888E-02 
2147	 5.53299266139461E-02 
2148	 5.70703076077782E-02 
2149	 5.26201998949446E-02 
2150	 5.14593774889262E-02 
2151	 5.04192289490414E-02 
2152	 4.43911662383438E-02 
2153	 4.31214185527117E-02 
2154	 4.55270465118326E-02 
2155	 4.67387543620655E-02 
2156	 4.57872591573263E-02 
2157	 4.36922958392258E-02 
2158	 3.99343031472515E-02 
2159	 0.03805127505777 
2160	 3.48958205702371E-02 
2161	 3.43887647860609E-02 
2162	 3.67332607720663E-02 
2163	 3.87341190969203E-02 
2164	 4.21835788383663E-02 
2165	 4.35483135693854E-02 
2166	 4.45275428938511E-02 
2167	 4.60128797332893E-02 
2168	 4.64818000772481E-02 
2169	 0.045728109112826 
2170	 4.73462313024305E-02 
2171	 4.47467090244555E-02 
2172	 3.54660535811198E-02 
2173	 2.70655815821852E-02 
2174	 1.97290670942531E-02 
2175	 1.85491503039315E-02 
2176	 0.025749871907773 
2177	 3.30269335318707E-02 
2178	 3.61431471288751E-02 
2179	 3.86557474492956E-02 
2180	 3.94508906808525E-02 
2181	 0.037776218930072 
2182	 3.72778068332431E-02 
2183	 3.40518863698374E-02 
2184	 2.97495790117908E-02 
2185	 2.90361986498837E-02 
2186	 3.01385242733807E-02 
2187	 0.03660283043173 
2188	 3.94940006893834E-02 
2189	 4.12529147712141E-02 
2190	 4.21799416570303E-02 
2191	 4.18139283395242E-02 
2192	 4.06739041656772E-02 
2193	 0.03837402919503 
2194	 4.04340265195319E-02 
2195	 4.54282268423578E-02 
2196	 4.57885336713693E-02 
2197	 4.82594495331772E-02 
2198	 4.59375841937776E-02 
2199	 3.58147030647616E-02 
2200	 2.77895967917273E-02 
2201	 2.42060981823057E-02 
2202	 2.70291124349201E-02 
2203	 3.02920292859423E-02 
2204	 0.026272855250006 
2205	 2.65338277720481E-02 
2206	 2.91406094363738E-02 
2207	 3.25815341326252E-02 
2208	 4.18875919211628E-02 
2209	 4.35184823253499E-02 
2210	 3.56335516294418E-02 
2211	 3.48801020476444E-02 
2212	 3.40152180479625E-02 
2213	 3.05812379807746E-02 
2214	 3.55849967682049E-02 
2215	 0.032366979261556 
2216	 2.62469431372043E-02 
2217	 2.53044456389344E-02 
2218	 2.69406371726586E-02 
2219	 2.65732213832093E-02 
2220	 2.67371265242234E-02 
2221	 0.029531587057588 
2222	 3.22931798120273E-02 
2223	 3.62529953706236E-02 
2224	 0.047408238314944 
2225	 5.15855319876579E-02 
2226	 5.13508238340101E-02 
2227	 5.22441760260932E-02 
2228	 5.00952322944748E-02 
2229	 4.75563738250323E-02 
2230	 4.28268124925405E-02 
2231	 0.043075282034137 
2232	 4.73155437932663E-02 
2233	 4.84801107917821E-02 
2234	 5.30289329399581E-02 
2235	 5.38683276641842E-02 
2236	 4.27126308919998E-02 
2237	 3.45645579599681E-02 
2238	 3.79447705916489E-02 
2239	 3.69271786636694E-02 
2240	 3.62154728035953E-02 
2241	 4.65522743377161E-02 
2242	 4.79753266053317E-02 
2243	 4.27108865576875E-02 
2244	 5.47435787795073E-02 
2245	 5.73808967262689E-02 
2246	 5.56316315905207E-02 
2247	 6.44328669493094E-02 
2248	 5.72038809481819E-02 
2249	 4.74908227560965E-02 
2250	 4.35718328291602E-02 
2251	 4.05511425603586E-02 
2252	 4.21757821748504E-02 
2253	 4.14042706408092E-02 
2254	 4.21117911181491E-02 
2255	 4.70628291552788E-02 
2256	 0.046202548332096 
2257	 4.29469329419424E-02 
2258	 4.48029064424931E-02 
2259	 4.51565946483945E-02 
2260	 4.65339451907289E-02 
2261	 5.85921833951326E-02 
2262	 6.17696577403983E-02 
2263	 5.40116047041736E-02 
2264	 5.19286281841383E-02 
2265	 5.01142678099921E-02 
2266	 5.32284541503457E-02 
2267	 0.066095022607501 
2268	 6.77161849994936E-02 
2269	 6.66175843803108E-02 
2270	 5.82097968166182E-02 
2271	 3.21078173229784E-02 
2272	 2.10839734591294E-02 
2273	 0.013745463658568 
2274	 1.46842523758539E-02 
2275	 2.93550336707867E-02 
2276	 4.07298948463245E-02 
2277	 5.70220867107213E-02 
2278	 6.35632397427692E-02 
2279	 0.068017483583209 
2280	 6.63586683576046E-02 
2281	 5.05542559072217E-02 
2282	 5.15650889376728E-02 
2283	 5.25283052363027E-02 
2284	 5.17119106321803E-02 
2285	 5.71862529869213E-02 
2286	 5.00522644120596E-02 
2287	 4.53846142923494E-02 
2288	 3.79650653258637E-02 
2289	 2.52163576578908E-02 
2290	 3.44886509393557E-02 
2291	 3.94768060971637E-02 
2292	 3.87648823686406E-02 
2293	 6.19544710881073E-02 
2294	 6.37061187651506E-02 
2295	 5.19275269011832E-02 
2296	 5.44982374725068E-02 
2297	 4.63754102701871E-02 
2298	 3.56345743982774E-02 
2299	 0.035357515073405 
2300	 4.82480824953242E-02 
2301	 5.19187584839812E-02 
2302	 5.96386468517686E-02 
2303	 7.55585678725736E-02 
2304	 6.72695634748835E-02 
2305	 5.90787186979866E-02 
2306	 5.47318528553104E-02 
2307	 4.51661941958423E-02 
2308	 4.15356819803338E-02 
2309	 4.81882670488652E-02 
2310	 5.46982382597263E-02 
2311	 0.040412023160311 
2312	 3.37110209272766E-02 
2313	 2.28452252618602E-02 
2314	-7.87085911311796E-03 
2315	-6.83834956056511E-03 
2316	 1.44182229486822E-02 
2317	 2.85976872874397E-02 
2318	 4.99428977941539E-02 
2319	 6.91114256027064E-02 
2320	 7.09933197201951E-02 
2321	 7.79793163418639E-02 
2322	 0.108310617702273 
2323	 0.128272178363413 
2324	 0.120407186428328 
2325	 9.66815034632519E-02 
2326	 7.00163057530199E-02 
2327	 6.82581680886677E-02 
2328	 7.84547269582073E-02 
2329	 8.00251744841941E-02 
2330	 8.59684466225188E-02 
2331	 8.50662875875423E-02 
2332	 7.15380865580369E-02 
2333	 5.58664350373003E-02 
2334	 3.12070959375174E-02 
2335	-1.72671659758735E-02 
2336	-0.05280648295373 
2337	-5.69028070005486E-02 
2338	-6.67527013743771E-02 
2339	-7.23722348684914E-02 
2340	-9.91310161403153E-02 
2341	-0.132464458598448 
2342	-0.119908723133459 
2343	-8.81299588831443E-02 
2344	-6.47839225332732E-02 
2345	-4.34409910012062E-02 
2346	-4.61910750059797E-03 
2347	 1.85436569551022E-02 
2348	 5.14433122528115E-02 
2349	 7.44132766811985E-02 
2350	 3.16515307827253E-02 
2351	-2.83320656893204E-02 
2352	-9.79055949623407E-02 
2353	-0.136673770073332 
2354	-0.135192989509789 
2355	-0.117645527215378 
2356	-5.48879137765605E-02 
2357	-5.04955883127798E-03 
2358	 5.97476987654471E-03 
2359	 6.40506499664983E-03 
2360	 5.87432421725569E-02 
2361	 7.97961652515832E-02 
2362	 4.91799401647345E-02 
2363	 7.06798735850507E-02 
2364	 0.032176930711294 
2365	-4.04985038417632E-02 
2366	 2.33631089928129E-04 
2367	 4.74086795503126E-02 
2368	 3.05372404035857E-02 
2369	 1.88590487794811E-02 
2370	 2.94893308374193E-02 
2371	-3.48638368849359E-03 
2372	-5.02743735236152E-02 
2373	-2.47062399843308E-02 
2374	 4.30365827604418E-02 
2375	 7.29064061904253E-02 
2376	 0.138243210042385 
2377	 0.168292120144713 
2378	 2.18482570290455E-02 
2379	-7.09316262002312E-02 
2380	-9.93195941737804E-02 
2381	-0.072784143788112 
2382	-4.63964199570259E-02 
2383	-6.14568147882185E-02 
2384	-4.72391513952826E-02 
2385	-0.30980675069979 
2386	-0.427823510496679 
2387	-0.11034641831018 
2388	-4.56284584879141E-02 
2389	 4.80998915416722E-02 
2390	 3.09437864612705E-02 
2391	-0.123941894930561 
2392	-0.195962423117939 
2393	-9.90455367460259E-02 
2394	 3.75946451075586E-03 
2395	-2.57200339291665E-02 
2396	-4.09456094701503E-02 
2397	-4.08237492071287E-02 
2398	-0.276505659132984 
2399	-0.068455121046379 
2400	 0.663886868064736 
2401	 1.02507621950586 
2402	 2.65965436790657 
2403	 0.108633762687255 
2404	-0.269758893418414 
2405	-0.210655146114308 
2406	-0.481865150974598 
2407	-0.517603769795148 
2408	-0.359264244833718 
2409	-0.292725584235058 
2410	 0.238350689549543 
2411	-7.42604387125701E-02 
2412	-0.908314435606829 
2413	-1.1224900666644 
2414	-1.46065288483006 
2415	 0.315336160441636 
2416	-0.448015093430892 
2417	 0.205693295660493 
2418	 0.862435198320384 
2419	 1.38978484202921 
2420	 6.50187070815643 
2421	 0.819422352592884 
2422	 1.50337810031626 
2423	-4.89570994827015 
2424	 6.78217062829132E-02 
2425	 0.404040680754479 
2426	 0.115936664115766 
2427	 0.10308296131844 
2428	-0.605869055617646 
2429	-3.81239488143699 
2430	 4.29947650301304 
2431	 0.631780327624919 
2432	 0.415442820263915 
2433	 0.357089338389008 
2434	 0.732282453206581 
2435	 1.7018030556534 
2436	 2.36854496575369 
2437	 1.78026115501245 
2438	 1.37498272648501 
2439	-0.283309126200337 
2440	-0.708064116472673 
2441	-0.659584373025109 
2442	-0.749095976124166 
2443	-1.2959803906543 
2444	-2.49249370210099 
2445	-2.29567275074714 
2446	-1.73841456872086 
2447	-0.827139704153742 
2448	-0.158816938529439 
2449	-5.12690611292208 
2450	-5.32609216076664 
2451	-7.38524242273296 
2452	 1.87949413583062 
2453	 0.533194982205992 
2454	-1.02427760050304 
2455	-0.965070500942515 
2456	-1.34353438797572 
2457	-2.56530715421749 
2458	 3.02616702617391 
2459	 0.826246777807879 
2460	 0.933937251300242 
2461	-115.233241916657 
2462	-1.35216030365595 
2463	 0.562578149331215 
2464	-2.64462614586419 
2465	-0.676766766674886 
2466	-0.638632705079655 
2467	-0.488996933094078 
2468	 1.23941255781551 
2469	 0.262878215157965 
2470	 0.599657089655564 
2471	 1.52832596227019 
2472	 2.73438925688365 
2473	 2.22572019923078 
2474	 1.25214169256069 
2475	 0.435223942824961 
2476	 0.397563819258962 
2477	 0.666606396426444 
2478	 0.995831458273674 
2479	 10.8012453529121 
2480	-11.3092559754522 
2481	-1.06955877071601 
2482	 0.255723272513593 
2483	 0.301499428757084 
2484	 0.201002675302101 
2485	 1.19553137545227 
2486	 3.92013379679908 
2487	 28.6586384104755 
2488	-20.9697320586009 
2489	-11.7660295890264 
2490	 1.17391063165256 
2491	 0.716150048066373 
2492	 0.848731932264081 
2493	 0.628247141064008 
2494	 0.577468475661957 
2495	 0.283589288994979 
2496	 0.209883894422559 
2497	-8.54343265817244E-02 
2498	-0.362660786876927 
2499	 1.11423918372729 
2500	-4.65413736933277 
