Wavelength	rt0728far00006.asd
350	 0.074558009620231 
351	 7.43833574900395E-02 
352	 7.44529855159095E-02 
353	 7.43569603618411E-02 
354	 7.41270568330657E-02 
355	 7.52447919351012E-02 
356	 7.52209603944937E-02 
357	 7.44797656451939E-02 
358	 7.41935243488508E-02 
359	 7.43229601627595E-02 
360	 7.45682639354569E-02 
361	 7.48557961117636E-02 
362	 7.52178207858635E-02 
363	 7.49137713556982E-02 
364	 7.46228602191111E-02 
365	 7.47490996946596E-02 
366	 7.50185187183054E-02 
367	 7.53980365841649E-02 
368	 7.55430077550941E-02 
369	 7.52794274531937E-02 
370	 7.52374174299218E-02 
371	 7.52286206677826E-02 
372	 7.54091509621938E-02 
373	 7.59978092298302E-02 
374	 7.59439346996364E-02 
375	 7.63087029718909E-02 
376	 7.70536067038733E-02 
377	 7.64060737494222E-02 
378	 7.63114066342037E-02 
379	 7.66160867335681E-02 
380	 7.68489747278608E-02 
381	 7.72652808527489E-02 
382	 7.74514152865668E-02 
383	 7.76713833057085E-02 
384	 7.82905309315414E-02 
385	 7.78970367381046E-02 
386	 7.77566633238273E-02 
387	 7.82685156916871E-02 
388	 7.86301823311953E-02 
389	 7.91174241955928E-02 
390	 7.92972244274013E-02 
391	 7.90752106242881E-02 
392	 7.93947482925632E-02 
393	 0.080058458714651 
394	 8.03238515560974E-02 
395	 7.97425091249384E-02 
396	 0.08034425225314 
397	 8.08105436315692E-02 
398	 8.08429632819732E-02 
399	 8.11680055894867E-02 
400	 0.081718322057295 
401	 8.18061613860786E-02 
402	 8.12970113470998E-02 
403	 8.14287974051519E-02 
404	 8.17169535173179E-02 
405	 8.20351014609622E-02 
406	 8.23661510197934E-02 
407	 8.26625906528083E-02 
408	 8.27761768135982E-02 
409	 8.28000246133741E-02 
410	 8.30460012642705E-02 
411	 8.34046091673762E-02 
412	 8.35588852282569E-02 
413	 8.34951447883735E-02 
414	 8.40454409652475E-02 
415	 8.42657723337847E-02 
416	 8.43888743362727E-02 
417	 8.49521791786164E-02 
418	 8.51786241635192E-02 
419	 8.53740617304132E-02 
420	 8.57355535738443E-02 
421	 0.086250461525776 
422	 8.65944018383647E-02 
423	 8.68149385701612E-02 
424	 8.70556807012446E-02 
425	 0.087481651082035 
426	 8.79262481249993E-02 
427	 8.83606905850065E-02 
428	 8.88194414872134E-02 
429	 8.92699411520036E-02 
430	 8.97429456648365E-02 
431	 9.02270325364447E-02 
432	 9.06594658587275E-02 
433	 9.10687217539392E-02 
434	 9.15314991891157E-02 
435	 9.20567173069004E-02 
436	 0.092407807770378 
437	 9.29197119680798E-02 
438	 9.34928009965493E-02 
439	 9.38453806288009E-02 
440	 9.43891680953499E-02 
441	 9.50223503432384E-02 
442	 9.55637706921027E-02 
443	 0.095794150721605 
444	 9.61586421903564E-02 
445	 9.66900753088597E-02 
446	 9.72437161078651E-02 
447	 9.74930322184092E-02 
448	 9.78178217711376E-02 
449	 9.82640762174282E-02 
450	 9.86235948873467E-02 
451	 9.89087526993444E-02 
452	 9.92784414348935E-02 
453	 9.97247978718781E-02 
454	 9.98344377031453E-02 
455	 0.100088707699944 
456	 0.1004529594214 
457	 0.100735900157757 
458	 0.101016883287511 
459	 0.101187617001289 
460	 0.101346262749052 
461	 0.10177931460736 
462	 0.102055293925088 
463	 0.102252351532765 
464	 0.102488981824205 
465	 0.102687658755643 
466	 0.102935082737435 
467	 0.103175295822644 
468	 0.103330203416858 
469	 0.10371832561415 
470	 0.10408191511524 
471	 0.104264593469747 
472	 0.104315872356149 
473	 0.104484486762361 
474	 0.10484829863256 
475	 0.105342516561572 
476	 0.105632347930507 
477	 0.105854184104268 
478	 0.106097212266704 
479	 0.106416271931975 
480	 0.106891820734684 
481	 0.107329794518579 
482	 0.107614533513011 
483	 0.107844984800334 
484	 0.108167161671109 
485	 0.108584519651403 
486	 0.109051326450538 
487	 0.109649560682369 
488	 0.110137468481662 
489	 0.110452461851166 
490	 0.1107340953797 
491	 0.111351112859003 
492	 0.111962900862686 
493	 0.11231678424438 
494	 0.112794084274883 
495	 0.113379572745466 
496	 0.114017141861074 
497	 0.11462271816648 
498	 0.115171156700503 
499	 0.115698213078825 
500	 0.116272243444742 
501	 0.117002157944994 
502	 0.117615887309341 
503	 0.118184311704435 
504	 0.118818241226006 
505	 0.119312685304988 
506	 0.119992768162643 
507	 0.120807517862678 
508	 0.121419112182012 
509	 0.122035614000573 
510	 0.122643498073682 
511	 0.123254460322157 
512	 0.12404759438381 
513	 0.124729395062281 
514	 0.125402623946857 
515	 0.126267176986902 
516	 0.126897962817481 
517	 0.127586949405739 
518	 0.128439645960445 
519	 0.129257113803981 
520	 0.129966619497089 
521	 0.130692952049785 
522	 0.131551061391035 
523	 0.132451800596237 
524	 0.133231883353206 
525	 0.133911274927747 
526	 0.134647424530859 
527	 0.135453110196083 
528	 0.136301249465891 
529	 0.13717181596212 
530	 0.138096029315879 
531	 0.138938044008286 
532	 0.139717664542654 
533	 0.140518123826832 
534	 0.141409006677644 
535	 0.142217264662211 
536	 0.14297587553957 
537	 0.1439550640296 
538	 0.144812829646767 
539	 0.145631275169046 
540	 0.146519767096169 
541	 0.147321208372167 
542	 0.148138789754877 
543	 0.148987346916442 
544	 0.149833779139992 
545	 0.150755439707522 
546	 0.151591952763756 
547	 0.152316827447748 
548	 0.153225275852992 
549	 0.154065531713688 
550	 0.15486958965546 
551	 0.155735902619992 
552	 0.156554509229013 
553	 0.157257847200979 
554	 0.157915891739178 
555	 0.158739468992116 
556	 0.159526148965564 
557	 0.160357610901054 
558	 0.161260395849596 
559	 0.161887173643626 
560	 0.162556719454841 
561	 0.163287775394531 
562	 0.163921129251733 
563	 0.164516319870075 
564	 0.165103513867653 
565	 0.165691257112347 
566	 0.166260918352878 
567	 0.166699785433653 
568	 0.167091077773208 
569	 0.167582070032461 
570	 0.16822528048634 
571	 0.168696477644629 
572	 0.168953478000555 
573	 0.169276840854595 
574	 0.169742288608979 
575	 0.170161846172212 
576	 0.170395906584346 
577	 0.170692590859409 
578	 0.171015432494295 
579	 0.171215765268458 
580	 0.171142207049114 
581	 0.171326064100818 
582	 0.171581070629245 
583	 0.171689854164863 
584	 0.171529420900527 
585	 0.171398389899316 
586	 0.171333008566489 
587	 0.171262609633522 
588	 0.171114205703281 
589	 0.171043882213417 
590	 0.171042989253378 
591	 0.170909773319581 
592	 0.170593933168655 
593	 0.17034532519664 
594	 0.170264672704781 
595	 0.169809627908237 
596	 0.1691548850506 
597	 0.168485416523115 
598	 0.167963669140132 
599	 0.167387694862242 
600	 0.166774417587303 
601	 0.166225850401156 
602	 0.165944567111251 
603	 0.165759023474104 
604	 0.165657296611843 
605	 0.165629410101695 
606	 0.165393026262609 
607	 0.165310420119452 
608	 0.165396293543163 
609	 0.165285177717959 
610	 0.165140861605634 
611	 0.165133498561463 
612	 0.165282670917264 
613	 0.165149324656469 
614	 0.165128467928046 
615	 0.165167884688029 
616	 0.165008631058977 
617	 0.164967710418438 
618	 0.164951420377936 
619	 0.164933131475182 
620	 0.165079474839954 
621	 0.165098990832492 
622	 0.165069270729798 
623	 0.16512183154512 
624	 0.164990434011875 
625	 0.165008424575496 
626	 0.165169366586408 
627	 0.165134484947732 
628	 0.165124234212797 
629	 0.165098302170223 
630	 0.165037823408999 
631	 0.165127511992402 
632	 0.165066908389399 
633	 0.164896249254671 
634	 0.164831810622847 
635	 0.165056440623169 
636	 0.165111185341238 
637	 0.164900877650102 
638	 0.16492581155975 
639	 0.165044509939205 
640	 0.165070835678709 
641	 0.164874354019015 
642	 0.164599757778626 
643	 0.164618378334376 
644	 0.164795287339342 
645	 0.164601698156183 
646	 0.164482375210478 
647	 0.164424334206759 
648	 0.164306561656388 
649	 0.16393233505156 
650	 0.163687786024048 
651	 0.163422646317352 
652	 0.162879514866713 
653	 0.162493978190086 
654	 0.161870667361747 
655	 0.160950878405979 
656	 0.160327990732099 
657	 0.159679586551384 
658	 0.158969916284933 
659	 0.158267309151429 
660	 0.157854201387597 
661	 0.157453127495522 
662	 0.157007726882385 
663	 0.156606532304792 
664	 0.156223518408293 
665	 0.155789286918812 
666	 0.155368512943736 
667	 0.155298200426109 
668	 0.155160777813192 
669	 0.154889783887999 
670	 0.154603064388567 
671	 0.154686913294535 
672	 0.154683415849597 
673	 0.154537935594587 
674	 0.154596864520336 
675	 0.15467556082306 
676	 0.154825247452128 
677	 0.155061484119457 
678	 0.15521920609743 
679	 0.15524991461667 
680	 0.155316035316728 
681	 0.155647228889034 
682	 0.156186155354204 
683	 0.156516668881751 
684	 0.156570112522078 
685	 0.15679067987551 
686	 0.157192935140706 
687	 0.157524177137499 
688	 0.157607797251598 
689	 0.157918076822553 
690	 0.158334624683097 
691	 0.158641829882051 
692	 0.158591408155798 
693	 0.158593816532767 
694	 0.158675191064106 
695	 0.158757576948406 
696	 0.158737559505407 
697	 0.158399288186782 
698	 0.157941088247795 
699	 0.157633054728172 
700	 0.157102356947764 
701	 0.156760469117849 
702	 0.15646372039144 
703	 0.155663421640995 
704	 0.154933106640767 
705	 0.154267946953446 
706	 0.153514781731008 
707	 0.152318385447111 
708	 0.151062260932329 
709	 0.149717704316206 
710	 0.14816582608841 
711	 0.146634294435654 
712	 0.144915317960906 
713	 0.143062541853019 
714	 0.141372566999929 
715	 0.139636413025013 
716	 0.137772038670434 
717	 0.135877021017684 
718	 0.133632552341259 
719	 0.130862117932111 
720	 0.128427568428835 
721	 0.126509503297222 
722	 0.124918423377749 
723	 0.122812326613787 
724	 0.12020660237742 
725	 0.117722289422051 
726	 0.115315918846266 
727	 0.112775746499175 
728	 0.109990967186442 
729	 0.107267507859043 
730	 0.104058611759963 
731	 0.100889617374596 
732	 9.83416741705576E-02 
733	 9.64034949580545E-02 
734	 9.48390644841361E-02 
735	 9.34557904271096E-02 
736	 9.20557952021453E-02 
737	 9.10469300212774E-02 
738	 9.02641508444544E-02 
739	 8.95663605507681E-02 
740	 8.92563158623762E-02 
741	 8.90993802308501E-02 
742	 8.89270658374763E-02 
743	 0.088651321230976 
744	 8.84989087349931E-02 
745	 8.84274341909784E-02 
746	 8.83549823710259E-02 
747	 8.81850249764906E-02 
748	 8.82231296244892E-02 
749	 0.088322749258305 
750	 8.83147746624856E-02 
751	 8.83950855829676E-02 
752	 8.82343020684782E-02 
753	 8.80187731204641E-02 
754	 8.81356778330732E-02 
755	 8.80856794197754E-02 
756	 0.087994900177684 
757	 0.088028913625391 
758	 8.84377735247686E-02 
759	 8.87861088475084E-02 
760	 8.89885963036581E-02 
761	 8.91358941053934E-02 
762	 8.91470278946532E-02 
763	 8.91706417416852E-02 
764	 8.90415843419091E-02 
765	 8.87130478568721E-02 
766	 8.89819795119537E-02 
767	 8.90850713199688E-02 
768	 8.89480893340554E-02 
769	 8.91133428062193E-02 
770	 8.93145665813957E-02 
771	 0.089496580240998 
772	 8.96817876629961E-02 
773	 9.00065692045916E-02 
774	 0.090306492087706 
775	 0.090545437494894 
776	 9.07634422841852E-02 
777	 9.10367602776107E-02 
778	 9.14301120605468E-02 
779	 0.091809648140725 
780	 9.18983275149683E-02 
781	 9.25027713000734E-02 
782	 9.29973456855293E-02 
783	 9.30262035383531E-02 
784	 9.34387963336963E-02 
785	 9.39852418696726E-02 
786	 9.46011207441878E-02 
787	 9.52325564165476E-02 
788	 9.56682563422765E-02 
789	 9.62384333218677E-02 
790	 9.68121045947023E-02 
791	 9.69720995203026E-02 
792	 9.75534598768141E-02 
793	 9.80352745719778E-02 
794	 0.098280605410121 
795	 9.90577862143054E-02 
796	 9.95207164264426E-02 
797	 9.97487131777422E-02 
798	 0.100111094908469 
799	 0.100979935479734 
800	 0.101324691829323 
801	 0.101406889595518 
802	 0.102042651160466 
803	 0.101955070699182 
804	 0.101890653409511 
805	 0.102102845936503 
806	 0.102142491331125 
807	 0.102266706247421 
808	 0.102272888712199 
809	 0.102031356549877 
810	 0.101828247992426 
811	 0.101708354952886 
812	 0.101650139020668 
813	 0.101560021958842 
814	 0.10125453874242 
815	 0.101020653881879 
816	 0.100550586173743 
817	 9.92810351269821E-02 
818	 9.85894151950529E-02 
819	 9.79502128320856E-02 
820	 9.69591322290783E-02 
821	 0.095605753420925 
822	 9.43319790166329E-02 
823	 9.28895486134009E-02 
824	 9.11573389698097E-02 
825	 8.95409252924566E-02 
826	 0.08749405777828 
827	 8.53205414048799E-02 
828	 8.37181750080015E-02 
829	 8.23710300558904E-02 
830	 8.08874905265923E-02 
831	 7.92721672259692E-02 
832	 7.78905859087161E-02 
833	 7.69954101003482E-02 
834	 7.59401572886656E-02 
835	 7.47763661951104E-02 
836	 7.45324507799462E-02 
837	 7.40365931680925E-02 
838	 7.34909397273327E-02 
839	 7.31834621318784E-02 
840	 7.28210170888035E-02 
841	 7.27777703718496E-02 
842	 7.28108744059176E-02 
843	 7.24902854078571E-02 
844	 7.16016334819054E-02 
845	 7.12883953970971E-02 
846	 7.12993610738605E-02 
847	 7.05857084445905E-02 
848	 7.04540240673574E-02 
849	 7.03683008137103E-02 
850	 0.070137235450827 
851	 7.02343402920346E-02 
852	 6.98806685113011E-02 
853	 6.97101717275692E-02 
854	 6.99169968777796E-02 
855	 6.91598103607673E-02 
856	 6.86430982051414E-02 
857	 6.84745335232584E-02 
858	 0.068404428459177 
859	 6.81180906237029E-02 
860	 6.78872987391427E-02 
861	 0.06773089770207 
862	 6.75738024192291E-02 
863	 6.77036342731882E-02 
864	 6.74561808251634E-02 
865	 6.70160721637065E-02 
866	 6.72003588436291E-02 
867	 6.62943965947318E-02 
868	 6.57132006063966E-02 
869	 6.59590666606913E-02 
870	 6.58490980673051E-02 
871	 6.60102311330986E-02 
872	 6.58700421427726E-02 
873	 6.52030734370964E-02 
874	 6.50816720662979E-02 
875	 6.47895542174907E-02 
876	 6.45579663556213E-02 
877	 6.46019997978804E-02 
878	 6.39930256725738E-02 
879	 6.37616307785839E-02 
880	 6.37196638127582E-02 
881	 6.32158027480032E-02 
882	 6.26732864902745E-02 
883	 0.06224379302951 
884	 6.19965698948866E-02 
885	 0.061943535269975 
886	 6.22790407529695E-02 
887	 6.17543565403161E-02 
888	 6.07570584099669E-02 
889	 6.14837826345674E-02 
890	 6.18780242826048E-02 
891	 6.19088803462153E-02 
892	 6.16236621785633E-02 
893	 6.05415018921338E-02 
894	 6.06655253023566E-02 
895	 6.13740402192058E-02 
896	 6.13516596627432E-02 
897	 0.060272545315663 
898	 6.07140623450325E-02 
899	 0.061276962401081 
900	 6.01407724603191E-02 
901	 5.94739807851141E-02 
902	 5.91817384769143E-02 
903	 5.89687037670685E-02 
904	 5.86170368037851E-02 
905	 5.86863614753679E-02 
906	 5.93210681491539E-02 
907	 5.98640426862995E-02 
908	 5.92175135675564E-02 
909	 5.81772511326396E-02 
910	 5.84600047438239E-02 
911	 5.91608037556959E-02 
912	 5.75417942136251E-02 
913	 5.77959099928035E-02 
914	 5.69179223982126E-02 
915	 5.48148569054823E-02 
916	 5.52659631269807E-02 
917	 5.60556593159124E-02 
918	 5.54797648086542E-02 
919	 5.43076370904798E-02 
920	 5.59183541793397E-02 
921	 5.45841281500172E-02 
922	 5.35770170714134E-02 
923	 0.054695686726355 
924	 5.27546738277778E-02 
925	 0.053458835301675 
926	 5.48851659004032E-02 
927	 5.36235906207016E-02 
928	 0.051104889811647 
929	 5.48853306229056E-02 
930	 5.84233903581193E-02 
931	 4.86460445111777E-02 
932	 0.056276473863337 
933	 5.95228953588708E-02 
934	 5.31584873335956E-02 
935	 4.72776417210943E-02 
936	 4.27754221360105E-02 
937	 5.39773560941901E-02 
938	 6.00593505888614E-02 
939	 4.59188999213767E-02 
940	 5.15165630827691E-02 
941	 5.31494729906527E-02 
942	 4.92279187339654E-02 
943	 4.84841864494634E-02 
944	 4.60519784514783E-02 
945	 4.20308039533826E-02 
946	 0.043640387601709 
947	 5.48472097414165E-02 
948	 4.50592589117966E-02 
949	 4.57683237086903E-02 
950	 5.63394452722413E-02 
951	 5.59734111080051E-02 
952	 0.039188699666466 
953	 3.91855632090785E-02 
954	 5.38466449491074E-02 
955	 5.79822184351708E-02 
956	 5.12910315859143E-02 
957	 4.97665030173918E-02 
958	 5.34155046785473E-02 
959	 5.20776789431524E-02 
960	 4.78217632152228E-02 
961	 4.52550912982702E-02 
962	 4.64730854542469E-02 
963	 4.98452610689715E-02 
964	 4.34270732540461E-02 
965	 4.43581441711988E-02 
966	 4.95290152499766E-02 
967	 4.44028128008708E-02 
968	 4.18928816160939E-02 
969	 4.65578805169094E-02 
970	 5.17746739839202E-02 
971	 4.55209765106227E-02 
972	 4.33798191951473E-02 
973	 0.045213666647144 
974	 4.67562618652375E-02 
975	 4.31156482212053E-02 
976	 4.34869492320055E-02 
977	 4.18224710614554E-02 
978	 4.03237318515594E-02 
979	 4.64910229813539E-02 
980	 0.044758831366362 
981	 0.041690757388052 
982	 4.13954401462508E-02 
983	 4.34499174793992E-02 
984	 4.52433847643443E-02 
985	 4.48155820145448E-02 
986	 4.41240256910671E-02 
987	 4.64853210972863E-02 
988	 4.35782934511667E-02 
989	 4.28404554564714E-02 
990	 4.45887272904175E-02 
991	 4.38014770322499E-02 
992	 4.52964722005965E-02 
993	 4.68747092120822E-02 
994	 4.66396185276895E-02 
995	 4.40039563478162E-02 
996	 4.09201734314055E-02 
997	 4.21821738901911E-02 
998	 4.66272501475509E-02 
999	 4.91807590254386E-02 
1000	 4.66357920414674E-02 
1001	 4.80271087494146E-02 
1002	 4.81526420903079E-02 
1003	 4.78636248226716E-02 
1004	 4.71581821748341E-02 
1005	 4.67200781200756E-02 
1006	 0.045877320481344 
1007	 4.48289667771126E-02 
1008	 4.50015950577585E-02 
1009	 4.55766776302906E-02 
1010	 4.54824288025926E-02 
1011	 4.56380456723329E-02 
1012	 4.57439456466956E-02 
1013	 0.045782119128683 
1014	 4.65351432113793E-02 
1015	 0.048500489232149 
1016	 4.90117241844672E-02 
1017	 4.95027942607476E-02 
1018	 4.95681672013522E-02 
1019	 4.80558407749345E-02 
1020	 0.047664226006853 
1021	 4.76213730639578E-02 
1022	 0.04781947389183 
1023	 4.84185735509306E-02 
1024	 4.87331627487777E-02 
1025	 4.91823445230253E-02 
1026	 4.93233097941424E-02 
1027	 4.89684812424516E-02 
1028	 4.80041949863546E-02 
1029	 4.80513676122342E-02 
1030	 4.77576670236326E-02 
1031	 4.82279158443298E-02 
1032	 0.050473270010415 
1033	 5.07135919397917E-02 
1034	 0.050212988480397 
1035	 4.97121284271265E-02 
1036	 4.81097365736818E-02 
1037	 4.70625139470288E-02 
1038	 4.58120401265853E-02 
1039	 4.52293724085934E-02 
1040	 4.58624358899399E-02 
1041	 4.59754971098985E-02 
1042	 0.046498102070565 
1043	 4.80302207655406E-02 
1044	 4.86412181880555E-02 
1045	 4.88067902692528E-02 
1046	 4.90852193868367E-02 
1047	 4.94166465972988E-02 
1048	 0.049568896561855 
1049	 4.93553855552578E-02 
1050	 4.93314112206707E-02 
1051	 4.93550338880996E-02 
1052	 4.93085922199886E-02 
1053	 4.96062402001608E-02 
1054	 4.93368148522205E-02 
1055	 4.79353062576317E-02 
1056	 4.76718784982415E-02 
1057	 4.77711714706197E-02 
1058	 4.78679662645957E-02 
1059	 4.84517751538024E-02 
1060	 5.05583084369334E-02 
1061	 5.09049804582304E-02 
1062	 5.05066025717671E-02 
1063	 5.02698058561801E-02 
1064	 4.89514677912006E-02 
1065	 4.88286357127853E-02 
1066	 4.97056976245906E-02 
1067	 4.97683590528145E-02 
1068	 4.95391114802212E-02 
1069	 4.98868368249233E-02 
1070	 5.03917957820363E-02 
1071	 5.05051607694645E-02 
1072	 5.11048129839395E-02 
1073	 5.14214523999247E-02 
1074	 5.14893141038787E-02 
1075	 5.07568437930865E-02 
1076	 5.05391209327135E-02 
1077	 5.05586565483313E-02 
1078	 5.05642736135538E-02 
1079	 5.06199504639566E-02 
1080	 5.03274603107285E-02 
1081	 4.97802346416541E-02 
1082	 4.96486086281335E-02 
1083	 4.93755594882916E-02 
1084	 4.93145958905291E-02 
1085	 4.97935843661156E-02 
1086	 5.00924125873613E-02 
1087	 5.07214584498259E-02 
1088	 5.05890269470502E-02 
1089	 4.95722101281166E-02 
1090	 4.93567715068909E-02 
1091	 4.91949851837399E-02 
1092	 0.048446464179584 
1093	 4.85568760056251E-02 
1094	 5.03386752314607E-02 
1095	 5.01301544073667E-02 
1096	 0.04833428448122 
1097	 4.79784240713843E-02 
1098	 4.73905366668057E-02 
1099	 4.73073283676822E-02 
1100	 4.85334013753971E-02 
1101	 4.97514588989565E-02 
1102	 5.20895108411874E-02 
1103	 5.21801346296253E-02 
1104	 5.14288378630198E-02 
1105	 5.01214083426404E-02 
1106	 4.59673493093392E-02 
1107	 0.045722724299435 
1108	 4.81194771804038E-02 
1109	 4.93923578687393E-02 
1110	 5.06280784793259E-02 
1111	 5.24875150068411E-02 
1112	 5.29026546864156E-02 
1113	 5.20274603125965E-02 
1114	 5.22887175911428E-02 
1115	 5.12697157523678E-02 
1116	 5.25259285480837E-02 
1117	 5.68723833772654E-02 
1118	 0.060793054731024 
1119	 7.10646092795191E-02 
1120	 7.57641897521796E-02 
1121	 0.071540637096582 
1122	 6.55023807149359E-02 
1123	 6.29004019345074E-02 
1124	 6.87342161413045E-02 
1125	 7.83636702364628E-02 
1126	 0.080333322511764 
1127	 7.90608852022911E-02 
1128	 7.20957698733791E-02 
1129	 0.070321982213029 
1130	 7.82785062027319E-02 
1131	 7.81718334677915E-02 
1132	 7.35684554638682E-02 
1133	 7.28596046322655E-02 
1134	 7.14123088568375E-02 
1135	 6.74089499960207E-02 
1136	 0.063748297919515 
1137	 6.08424290217689E-02 
1138	 5.37545310635608E-02 
1139	 5.68912197451439E-02 
1140	 6.10405063360083E-02 
1141	 5.56807240329796E-02 
1142	 5.49119549138022E-02 
1143	 5.80161436326155E-02 
1144	 6.01632311856882E-02 
1145	 6.44645327234271E-02 
1146	 6.84064209080532E-02 
1147	 6.42084312198994E-02 
1148	 5.64752949304008E-02 
1149	 5.84402399210187E-02 
1150	 5.63917323303927E-02 
1151	 5.03498037719222E-02 
1152	 5.16981043645042E-02 
1153	 5.85595095268826E-02 
1154	 5.76468064689821E-02 
1155	 5.69024732339088E-02 
1156	 5.49583292109736E-02 
1157	 5.10871243151497E-02 
1158	 4.73905911440259E-02 
1159	 4.54048755962099E-02 
1160	 4.81723155494481E-02 
1161	 4.98953460198366E-02 
1162	 4.71067702706365E-02 
1163	 4.64796145030874E-02 
1164	 4.78447681392541E-02 
1165	 0.046792273864975 
1166	 4.66408824769025E-02 
1167	 4.82490244937374E-02 
1168	 4.80502103349295E-02 
1169	 4.73509544892073E-02 
1170	 4.82501081080849E-02 
1171	 4.81555080206637E-02 
1172	 4.60849251884443E-02 
1173	 4.53814104676446E-02 
1174	 4.50438627729988E-02 
1175	 4.59161655205679E-02 
1176	 4.64344836287368E-02 
1177	 4.67321178100534E-02 
1178	 0.047662122338655 
1179	 4.68136777079302E-02 
1180	 4.54011520972127E-02 
1181	 4.58623801127297E-02 
1182	 4.63080606180863E-02 
1183	 4.60712563320849E-02 
1184	 4.46087286536747E-02 
1185	 4.39548233104375E-02 
1186	 4.52860504867359E-02 
1187	 4.57709440639432E-02 
1188	 0.046360635418455 
1189	 4.73736710896897E-02 
1190	 4.65332079859505E-02 
1191	 4.58004792257526E-02 
1192	 4.57641567723616E-02 
1193	 4.70129056514731E-02 
1194	 4.73146080552118E-02 
1195	 4.64948123672992E-02 
1196	 4.60178174013357E-02 
1197	 4.65620171880775E-02 
1198	 4.68542225234571E-02 
1199	 4.63537734908913E-02 
1200	 4.56189113159535E-02 
1201	 4.46414525361742E-02 
1202	 4.33970635901396E-02 
1203	 4.35022019388248E-02 
1204	 4.51408028210886E-02 
1205	 4.54977029893167E-02 
1206	 4.55580817463175E-02 
1207	 4.66793000932119E-02 
1208	 4.68137767464861E-02 
1209	 4.61310764827107E-02 
1210	 4.60599924698447E-02 
1211	 4.57399044429191E-02 
1212	 4.53290339379196E-02 
1213	 4.63832816799553E-02 
1214	 4.65272684850679E-02 
1215	 4.66283614095346E-02 
1216	 4.52957536580798E-02 
1217	 4.46830002926477E-02 
1218	 4.48598674689794E-02 
1219	 4.50815841962537E-02 
1220	 4.54376442477251E-02 
1221	 4.56937971705311E-02 
1222	 4.47490766020467E-02 
1223	 4.35885224986056E-02 
1224	 4.40987970082668E-02 
1225	 4.47276744405708E-02 
1226	 4.45184974433641E-02 
1227	 4.45659823392739E-02 
1228	 4.48034127796922E-02 
1229	 4.51501510483006E-02 
1230	 4.51967811124238E-02 
1231	 4.47901307826037E-02 
1232	 4.46132156212906E-02 
1233	 4.44592723315725E-02 
1234	 4.41770324630314E-02 
1235	 0.04402979122848 
1236	 4.41345372689269E-02 
1237	 0.04439281840737 
1238	 4.46077540190306E-02 
1239	 4.49672831996878E-02 
1240	 4.53884238344663E-02 
1241	 4.51640301852281E-02 
1242	 4.44921148016443E-02 
1243	 4.40067328123727E-02 
1244	 4.37645961871446E-02 
1245	 4.39073119060597E-02 
1246	 4.39518308601796E-02 
1247	 4.41148233729745E-02 
1248	 4.44764820690387E-02 
1249	 4.41165509820959E-02 
1250	 4.38497327348116E-02 
1251	 4.39309178283648E-02 
1252	 4.38187454694019E-02 
1253	 4.38366187022538E-02 
1254	 4.35611073656395E-02 
1255	 4.33255306168984E-02 
1256	 4.36107989786833E-02 
1257	 4.45269628476169E-02 
1258	 4.47485914992355E-02 
1259	 4.52665299729474E-02 
1260	 0.04549680447129 
1261	 4.45632488894359E-02 
1262	 4.44157334627033E-02 
1263	 4.51754361573083E-02 
1264	 4.48955417871957E-02 
1265	 4.39459331162633E-02 
1266	 4.49347052310917E-02 
1267	 4.50817305153927E-02 
1268	 4.42781233514448E-02 
1269	 4.46629332159439E-02 
1270	 4.49803579857494E-02 
1271	 0.045118026714743 
1272	 4.59935022926877E-02 
1273	 4.63003056998103E-02 
1274	 4.53388816322716E-02 
1275	 4.45932957233746E-02 
1276	 0.044260988780011 
1277	 4.40577283129292E-02 
1278	 4.44734934213943E-02 
1279	 0.044818837911224 
1280	 4.46199454083273E-02 
1281	 4.45835137724781E-02 
1282	 4.46593949136221E-02 
1283	 0.04464303518405 
1284	 4.42623787709248E-02 
1285	 4.42349621350806E-02 
1286	 0.044363381551412 
1287	 4.45342331088051E-02 
1288	 4.50314902095674E-02 
1289	 4.54077546188277E-02 
1290	 4.60585479507324E-02 
1291	 4.61543067742234E-02 
1292	 4.52798723626274E-02 
1293	 4.51191538896609E-02 
1294	 4.58727888045941E-02 
1295	 4.55533699339226E-02 
1296	 4.53956286908654E-02 
1297	 4.62450242792007E-02 
1298	 4.56291610172003E-02 
1299	 4.46466185059573E-02 
1300	 4.51786287693171E-02 
1301	 4.47899090851986E-02 
1302	 4.41297285716057E-02 
1303	 4.49185843063047E-02 
1304	 4.57644761841706E-02 
1305	 4.64086165369524E-02 
1306	 4.63031842686908E-02 
1307	 4.54010449524278E-02 
1308	 4.55032542845195E-02 
1309	 4.52234923419977E-02 
1310	 4.54478047296498E-02 
1311	 4.74941100298327E-02 
1312	 4.80837434743099E-02 
1313	 4.71400401703379E-02 
1314	 0.047549732087895 
1315	 4.86460762856759E-02 
1316	 4.89275208233227E-02 
1317	 4.96306071643685E-02 
1318	 5.00019204034556E-02 
1319	 0.048704097880753 
1320	 4.86023451537662E-02 
1321	 4.92434094121161E-02 
1322	 5.04512534008265E-02 
1323	 5.17243771374704E-02 
1324	 5.26558439127851E-02 
1325	 5.16350098892929E-02 
1326	 5.01197763435687E-02 
1327	 5.15052301090666E-02 
1328	 5.22970881699264E-02 
1329	 5.16301560386618E-02 
1330	 5.43371321262324E-02 
1331	 5.38894184276103E-02 
1332	 5.02508634011821E-02 
1333	 5.06292077863813E-02 
1334	 5.06878112385437E-02 
1335	 5.20805702698905E-02 
1336	 5.33651480921927E-02 
1337	 5.33715990384839E-02 
1338	 5.51809587395077E-02 
1339	 5.70831305214546E-02 
1340	 5.65107333931724E-02 
1341	 5.53796728298286E-02 
1342	 5.50454107648974E-02 
1343	 5.56266987739795E-02 
1344	 5.48614056757723E-02 
1345	 5.27473131438835E-02 
1346	 5.05019718592136E-02 
1347	 5.42140038768468E-02 
1348	 6.26242064868195E-02 
1349	 6.36931245250349E-02 
1350	 6.68125290632482E-02 
1351	 8.75054529739832E-02 
1352	 0.104883021221871 
1353	 0.125118661019856 
1354	 0.220768190611862 
1355	 0.371879232075655 
1356	 0.412752698680647 
1357	 0.282265821561901 
1358	 0.146275771856377 
1359	 0.272125021516157 
1360	 0.471849471028446 
1361	 0.521924679777363 
1362	 2.3194931790162 
1363	-10.1723506549207 
1364	 2.37715850875303 
1365	 1.32817661454832 
1366	 0.956076601739723 
1367	 0.555363946134107 
1368	 0.339272625837598 
1369	 0.145159325700881 
1370	-4.54264954615705E-02 
1371	-0.097122756017538 
1372	-0.106024813995617 
1373	 7.18255074763327E-02 
1374	 0.149405369762061 
1375	 0.20158397789975 
1376	 0.4907978486941 
1377	 0.431686983691852 
1378	 3.33164531588344 
1379	-10.3387205547041 
1380	 16.4147263730949 
1381	-3.80013247791059 
1382	 13.5732451782415 
1383	 0.229043633621384 
1384	 0.129237145443186 
1385	 0.369867723046289 
1386	 0.354850167175309 
1387	 0.16698008949617 
1388	 0.16873669895267 
1389	 0.388961633442926 
1390	 0.23308025491624 
1391	-0.09422329759193 
1392	 0.106473729583099 
1393	 0.674547506523904 
1394	 0.619902180235066 
1395	 0.610790219743619 
1396	 1.47075061178788 
1397	 1.03453452601392 
1398	 0.232682776970833 
1399	-0.108493673762264 
1400	-3.77375917766919E-02 
1401	 0.214309569360488 
1402	 0.250758851732558 
1403	 0.187286902594456 
1404	 0.587890963534207 
1405	 0.814098281129795 
1406	 0.863138151072742 
1407	 0.943680139790971 
1408	 1.28320759645949 
1409	 1.31104171342547 
1410	 0.991508904095161 
1411	 0.872157852368489 
1412	 0.753844715213621 
1413	 0.844316281309218 
1414	 1.12469561883985 
1415	 0.931976153895266 
1416	 0.591157059208456 
1417	 0.671562047855196 
1418	 1.01845669971195 
1419	 0.642194608422344 
1420	 0.588508339579103 
1421	 0.550555164199909 
1422	 0.256173978128456 
1423	 0.117350136262119 
1424	 0.039874952499195 
1425	 6.32696124553932E-02 
1426	 7.01222690186989E-02 
1427	 3.93585167358223E-02 
1428	 0.104034485060496 
1429	 0.112930844089337 
1430	-0.073632670119578 
1431	-5.15603070849674E-02 
1432	 0.250230734930795 
1433	 0.29365171642688 
1434	 0.212569861667677 
1435	 0.231705976112369 
1436	 0.209352511968614 
1437	 0.115305697432148 
1438	 0.138515303692738 
1439	 0.179748764119274 
1440	 0.157368779753369 
1441	 0.194534360111457 
1442	 0.186931796315784 
1443	 0.15879126431372 
1444	 0.148217866290765 
1445	 0.117149800447088 
1446	 0.108334891827058 
1447	 8.09025538668485E-02 
1448	 4.88972907786189E-02 
1449	 6.11610000692654E-02 
1450	 7.02536308053488E-02 
1451	 6.65791155115309E-02 
1452	 7.54745149992889E-02 
1453	 7.98353207493888E-02 
1454	 7.67779212516716E-02 
1455	 7.39351941346257E-02 
1456	 7.19483179280539E-02 
1457	 6.25233045989112E-02 
1458	 5.86394982120684E-02 
1459	 5.68305938892343E-02 
1460	 5.84433116152703E-02 
1461	 6.38777352234678E-02 
1462	 6.65399403907837E-02 
1463	 7.00308571573089E-02 
1464	 7.40132149906513E-02 
1465	 0.077943839057326 
1466	 8.18502922324686E-02 
1467	 8.79339344527655E-02 
1468	 9.25110716195347E-02 
1469	 9.61388469946748E-02 
1470	 9.42558907527142E-02 
1471	 8.97137489680854E-02 
1472	 8.63266522788476E-02 
1473	 8.05512704996076E-02 
1474	 7.46764559174284E-02 
1475	 6.71187646104686E-02 
1476	 6.48897433140267E-02 
1477	 6.40682510073804E-02 
1478	 6.20972529983615E-02 
1479	 0.063203254392493 
1480	 6.38316324804146E-02 
1481	 6.34409218771405E-02 
1482	 6.27709896299453E-02 
1483	 6.25622313864511E-02 
1484	 6.16478574005625E-02 
1485	 5.98983448280463E-02 
1486	 5.88313204145793E-02 
1487	 5.89405305888577E-02 
1488	 5.84408195255734E-02 
1489	 5.74778965248282E-02 
1490	 5.62978611294501E-02 
1491	 5.45883612378499E-02 
1492	 5.36758675421898E-02 
1493	 5.41043013617545E-02 
1494	 0.053067240086548 
1495	 5.02045847727111E-02 
1496	 4.97257719736863E-02 
1497	 0.049944749332842 
1498	 4.96712220442492E-02 
1499	 5.02914464469879E-02 
1500	 5.11622248065863E-02 
1501	 5.17795729050289E-02 
1502	 5.19061229159399E-02 
1503	 5.27922166674503E-02 
1504	 5.30267034658871E-02 
1505	 5.31167281713584E-02 
1506	 0.051437240518066 
1507	 5.03751063427074E-02 
1508	 4.95830389770712E-02 
1509	 4.81873666450955E-02 
1510	 4.86846225466515E-02 
1511	 4.99677210067942E-02 
1512	 4.94767968512436E-02 
1513	 4.90255720639039E-02 
1514	 4.94865059215107E-02 
1515	 5.00502054581111E-02 
1516	 5.03746102379565E-02 
1517	 5.06416860341132E-02 
1518	 5.06485559023983E-02 
1519	 4.96756858863874E-02 
1520	 0.048910040537096 
1521	 4.90494172780075E-02 
1522	 4.91933786661136E-02 
1523	 4.93946719094351E-02 
1524	 4.94818159386666E-02 
1525	 4.89402068294424E-02 
1526	 4.80790136823134E-02 
1527	 4.76074320072762E-02 
1528	 4.79955272501782E-02 
1529	 4.80875767502609E-02 
1530	 4.71974126316952E-02 
1531	 4.68624304678518E-02 
1532	 4.70488776050312E-02 
1533	 4.69954899145208E-02 
1534	 4.76854435530654E-02 
1535	 4.80832160782444E-02 
1536	 4.70149206674383E-02 
1537	 4.60047065550512E-02 
1538	 4.60638713575903E-02 
1539	 4.70862996963528E-02 
1540	 4.72009583075537E-02 
1541	 4.67521155929336E-02 
1542	 4.74200756972354E-02 
1543	 4.75821338799872E-02 
1544	 4.73590119542824E-02 
1545	 4.71270953510502E-02 
1546	 0.046746252805243 
1547	 4.75327316220501E-02 
1548	 4.82652583788541E-02 
1549	 4.79498597928274E-02 
1550	 4.80758432751986E-02 
1551	 4.72574662147738E-02 
1552	 0.045703243985572 
1553	 4.64169229310333E-02 
1554	 4.74919655694947E-02 
1555	 4.71293917610321E-02 
1556	 4.66197007799063E-02 
1557	 4.71544446479834E-02 
1558	 4.71060115152619E-02 
1559	 4.53568062041332E-02 
1560	 4.50911720398593E-02 
1561	 4.57388139269715E-02 
1562	 4.56483168781448E-02 
1563	 4.65210434599888E-02 
1564	 0.04746762359232 
1565	 4.72215979046563E-02 
1566	 4.65905989120089E-02 
1567	 4.59293792456775E-02 
1568	 4.61508413009784E-02 
1569	 4.65193744966075E-02 
1570	 0.045851676698393 
1571	 4.64912812040668E-02 
1572	 4.75897912963773E-02 
1573	 4.74045157701446E-02 
1574	 4.70712124980798E-02 
1575	 4.62092391551306E-02 
1576	 4.55429262482256E-02 
1577	 4.53272613429355E-02 
1578	 4.44661518264542E-02 
1579	 4.46187528648072E-02 
1580	 4.57310902792873E-02 
1581	 0.045568872586919 
1582	 4.55655597713341E-02 
1583	 4.66850945133417E-02 
1584	 4.62974112674815E-02 
1585	 4.43246466439019E-02 
1586	 4.47785819046543E-02 
1587	 4.60679250783995E-02 
1588	 4.45659838156722E-02 
1589	 4.48112811441278E-02 
1590	 4.71212783900881E-02 
1591	 4.71333020528665E-02 
1592	 4.66720594100474E-02 
1593	 4.69510812438229E-02 
1594	 4.63005086484715E-02 
1595	 4.52952340463859E-02 
1596	 4.52689128316657E-02 
1597	 4.61846253071538E-02 
1598	 4.64522058397277E-02 
1599	 4.58504616599038E-02 
1600	 0.045979017704753 
1601	 4.61575363259513E-02 
1602	 4.56727920582996E-02 
1603	 0.045743510543864 
1604	 4.68365868648424E-02 
1605	 4.70652721114547E-02 
1606	 4.64739327459241E-02 
1607	 4.63534900686612E-02 
1608	 4.56322222772662E-02 
1609	 4.45554478673796E-02 
1610	 4.40104098479035E-02 
1611	 4.45222631681226E-02 
1612	 4.51791836728234E-02 
1613	 4.49951386315927E-02 
1614	 4.51117883015944E-02 
1615	 4.52606707964836E-02 
1616	 4.49283426602726E-02 
1617	 4.50067664038565E-02 
1618	 4.57932466354365E-02 
1619	 4.60887063622563E-02 
1620	 4.62618444292361E-02 
1621	 4.70334900334254E-02 
1622	 4.69129404268598E-02 
1623	 4.62449989442965E-02 
1624	 4.58696668511906E-02 
1625	 0.045500024887697 
1626	 4.57214903651884E-02 
1627	 4.61925772212665E-02 
1628	 4.58828220399968E-02 
1629	 4.51104465348066E-02 
1630	 4.44524165115394E-02 
1631	 4.45462133692373E-02 
1632	 4.51516158259587E-02 
1633	 4.54002311087265E-02 
1634	 4.56234102222047E-02 
1635	 4.56399159981698E-02 
1636	 4.49830686203405E-02 
1637	 4.49518884377856E-02 
1638	 4.61528559097847E-02 
1639	 4.70060640482868E-02 
1640	 4.62390094015226E-02 
1641	 4.56167062486944E-02 
1642	 4.63562570842898E-02 
1643	 4.61327854953116E-02 
1644	 4.61965010020049E-02 
1645	 4.76377860832273E-02 
1646	 4.68198993922775E-02 
1647	 0.045058497031885 
1648	 4.57454683759189E-02 
1649	 4.64857128255503E-02 
1650	 4.67218578755861E-02 
1651	 4.73427547158248E-02 
1652	 4.66534789713619E-02 
1653	 0.045843875385082 
1654	 4.52032446573659E-02 
1655	 4.48642808263955E-02 
1656	 4.49647305360337E-02 
1657	 4.46060076835314E-02 
1658	 4.48665948189303E-02 
1659	 4.63855467077087E-02 
1660	 0.046996435479346 
1661	 4.73444284479818E-02 
1662	 4.76669974130692E-02 
1663	 4.76020947111511E-02 
1664	 4.76021029603195E-02 
1665	 4.75832764532694E-02 
1666	 4.75880415220508E-02 
1667	 4.74825703558777E-02 
1668	 4.73807761231187E-02 
1669	 4.75192100277613E-02 
1670	 4.68822825629494E-02 
1671	 4.68249971078062E-02 
1672	 4.76429143344388E-02 
1673	 4.74060265900269E-02 
1674	 4.76762613867741E-02 
1675	 4.82929432706945E-02 
1676	 4.73714148179671E-02 
1677	 4.60257601463395E-02 
1678	 4.52854038823314E-02 
1679	 4.54137486296691E-02 
1680	 4.55262823823392E-02 
1681	 4.53492141068145E-02 
1682	 4.55074530244338E-02 
1683	 4.56517712468876E-02 
1684	 4.58162438411029E-02 
1685	 4.69469402245482E-02 
1686	 4.79385738098133E-02 
1687	 4.75292689715838E-02 
1688	 4.79128121040523E-02 
1689	 4.84587171802851E-02 
1690	 4.75186030013886E-02 
1691	 4.72332842009317E-02 
1692	 4.74620579712884E-02 
1693	 4.72213672719858E-02 
1694	 4.73502334586873E-02 
1695	 4.73871169374463E-02 
1696	 4.70292353654357E-02 
1697	 4.65920767742872E-02 
1698	 0.046214117356002 
1699	 4.59030091890759E-02 
1700	 4.52225774571451E-02 
1701	 4.55545144726815E-02 
1702	 4.67238034840561E-02 
1703	 4.64452748109117E-02 
1704	 4.57573519246122E-02 
1705	 4.53653858377717E-02 
1706	 4.53030464623272E-02 
1707	 4.69299322849591E-02 
1708	 4.87882588512586E-02 
1709	 4.88841118132661E-02 
1710	 4.75445203642824E-02 
1711	 4.69171060966785E-02 
1712	 4.71798433460755E-02 
1713	 4.77004105084577E-02 
1714	 4.74980654751958E-02 
1715	 4.61180618389961E-02 
1716	 4.66210766045489E-02 
1717	 4.70673419959897E-02 
1718	 4.71841580432098E-02 
1719	 4.73806829722908E-02 
1720	 4.68737619548255E-02 
1721	 4.64455021523607E-02 
1722	 4.73674549945949E-02 
1723	 4.80576101057666E-02 
1724	 4.77496945935764E-02 
1725	 4.70642598339867E-02 
1726	 4.60619692694758E-02 
1727	 4.66701263867355E-02 
1728	 4.76833248177526E-02 
1729	 4.69460743980916E-02 
1730	 4.72449763512416E-02 
1731	 4.80388655131922E-02 
1732	 4.82956323041847E-02 
1733	 4.94161165660044E-02 
1734	 4.88372215074856E-02 
1735	 4.81139626635761E-02 
1736	 4.88536860358245E-02 
1737	 4.97226396422053E-02 
1738	 0.050848289965485 
1739	 5.07787589724426E-02 
1740	 4.86917909269865E-02 
1741	 4.60376395581907E-02 
1742	 4.66752324206984E-02 
1743	 4.72754641901083E-02 
1744	 4.70562723918397E-02 
1745	 4.88306755928577E-02 
1746	 0.047316795330617 
1747	 4.71392181667865E-02 
1748	 4.76020877269967E-02 
1749	 0.047630488222259 
1750	 4.77817464896884E-02 
1751	 4.81421846592792E-02 
1752	 4.87791355615908E-02 
1753	 4.93373046052146E-02 
1754	 4.98578177483729E-02 
1755	 5.10931272568417E-02 
1756	 5.30301212805133E-02 
1757	 5.29847301693135E-02 
1758	 5.37943018832844E-02 
1759	 5.42578312672206E-02 
1760	 5.01808714266158E-02 
1761	 4.81031220313047E-02 
1762	 4.98884124613574E-02 
1763	 4.96686331950155E-02 
1764	 5.02298360692858E-02 
1765	 5.00625802857723E-02 
1766	 4.94081018551126E-02 
1767	 4.94762718541142E-02 
1768	 4.97675956748219E-02 
1769	 5.02570196401899E-02 
1770	 4.47267254141055E-02 
1771	 3.98403162399397E-02 
1772	 4.21803671309675E-02 
1773	 4.81771138025734E-02 
1774	 5.35587679701424E-02 
1775	 4.92916568210405E-02 
1776	 5.10302994835382E-02 
1777	 5.40127479296573E-02 
1778	 0.056110025042139 
1779	 6.53367008193984E-02 
1780	 6.65854755300178E-02 
1781	 0.056149518292959 
1782	 0.05559085037117 
1783	 6.08427342894214E-02 
1784	 6.13205461888005E-02 
1785	 6.26712735299708E-02 
1786	 6.31806947748133E-02 
1787	 5.86687660088078E-02 
1788	 5.91898848957985E-02 
1789	 6.46218021335946E-02 
1790	 6.85424102558358E-02 
1791	 7.80645605303873E-02 
1792	 7.88112212053482E-02 
1793	 7.71751282462698E-02 
1794	 8.09688782499993E-02 
1795	 5.83217036552233E-02 
1796	 8.49533107578405E-02 
1797	 0.137738139741383 
1798	 0.138781948783923 
1799	 0.188734805524018 
1800	 0.115256819973381 
1801	 7.78717134044309E-02 
1802	 5.84735578812897E-02 
1803	 4.52941970112496E-02 
1804	 0.163281695372511 
1805	 0.270946155331649 
1806	 0.432185337775174 
1807	 0.614343090950341 
1808	 0.248737424141298 
1809	 0.185738479716296 
1810	 0.265232421009621 
1811	 0.34650928136097 
1812	 0.904498705207757 
1813	 2.66250415124904 
1814	-0.781355394271646 
1815	-0.50057032345526 
1816	-4.90552091053071E-02 
1817	 0.412101233091489 
1818	 0.649784220822009 
1819	 1.06006811106866 
1820	 0.995122224787053 
1821	-4.31477686534195 
1822	-0.974419104299981 
1823	-5.32526524842353 
1824	 17.8937900601166 
1825	 0.924766718730593 
1826	 0.770790617440796 
1827	 0.933545937075946 
1828	 0.869803236816761 
1829	 0.862072089233771 
1830	 0.883621278756025 
1831	-0.417416428918969 
1832	-0.428986171084485 
1833	-0.319598888162254 
1834	-0.337162282342137 
1835	 0.815447772130663 
1836	-1.19568338500749 
1837	-0.331524972366925 
1838	-0.511244968347216 
1839	-1.69720311927145 
1840	-1.22395969011606 
1841	-0.703730191839819 
1842	-0.700185206714942 
1843	-0.605996292202768 
1844	-0.237294520502351 
1845	 2.19905437484317E-02 
1846	 8.77957267857841E-02 
1847	 0.016602762803848 
1848	 0.132139700130803 
1849	 0.213027006996799 
1850	-0.484315080055473 
1851	-1.68742505228635 
1852	 0.218078487552746 
1853	-0.799607183946558 
1854	-1.67761306538658 
1855	 7.0225152820936 
1856	 2.44537581956166 
1857	 0.523667534621905 
1858	 0.297054876052787 
1859	 0.288899699783457 
1860	 0.28835462331998 
1861	-1.10301638805368 
1862	-2.66398585935017 
1863	 22.4644175849175 
1864	 8.46930693606169 
1865	 13.617692507357 
1866	-0.206514312037379 
1867	 0.305856367034776 
1868	 0.85194190124526 
1869	 0.648554545885688 
1870	 0.151421524211929 
1871	-0.627128368651022 
1872	-2.06537167217893 
1873	-2.20771538678981 
1874	-11.4613134501518 
1875	-0.763226037184297 
1876	-0.985408214634995 
1877	 0.377290764817565 
1878	-1.09174753427049 
1879	 2.39037173862107 
1880	 2.44722902415807 
1881	 1.06866789108846 
1882	-32.0790705214175 
1883	-0.274948817194577 
1884	-0.804485888843618 
1885	 0.584546478025011 
1886	 1.3870630744583 
1887	-3.37345641320122 
1888	-1.02859412886413 
1889	-0.795190869839216 
1890	-0.231144377803022 
1891	-0.306747819438451 
1892	-1.58243874663144 
1893	 3.89169007361309 
1894	 0.651308337498269 
1895	 0.257526979342521 
1896	-0.140088541131906 
1897	-0.41020564978274 
1898	 0.449272815100283 
1899	 4.50560130051915 
1900	-33.7058382963157 
1901	 3.29156598820003 
1902	 3.59278295494523 
1903	-6.45069175370501 
1904	 2.11547161657685 
1905	 2.45192612435771 
1906	 2.37392258856443 
1907	 2.05318573874937 
1908	 3.29036166101047 
1909	 2.01701667735914 
1910	 1.0202968458977 
1911	 1.39221967078451 
1912	 1.36501846836375 
1913	 1.00083127987162 
1914	 0.679080330415703 
1915	 1.24798482375453 
1916	 1.76304551313617 
1917	 1.62497440721868 
1918	 0.661968650653693 
1919	 1.35518273492864 
1920	 15.7973898773362 
1921	-3.65888909601751 
1922	 0.884176373034807 
1923	 0.638718050451156 
1924	 6.62098733425865 
1925	-1.52090356074261 
1926	-1.23270494400002 
1927	-3.75388635587675 
1928	-11.6870579343119 
1929	-38.0932740707184 
1930	 4.84284272301229 
1931	 2.17423013184814 
1932	 1.07754615831017 
1933	 0.472131777623133 
1934	-3.95358641223894 
1935	-0.45243071310695 
1936	-0.314965806429886 
1937	-6.67499112374796E-02 
1938	-8.86860904319478E-02 
1939	-0.128196830050384 
1940	-0.400192186180239 
1941	-0.270075742586055 
1942	-8.76130445817778 
1943	-1.74613126499889 
1944	-1.01270796810038 
1945	-0.168606793892894 
1946	-0.757617747028382 
1947	-0.712176119852295 
1948	-0.117060986258762 
1949	-0.365604806839669 
1950	-0.521835070186079 
1951	-0.591651722430801 
1952	-0.486331463037812 
1953	-0.383200849561554 
1954	-0.190979582481525 
1955	 0.131976157126521 
1956	 0.334740052190778 
1957	 0.180554874632848 
1958	 3.89168349490172E-02 
1959	 6.12923652404018E-02 
1960	 4.66874445369326E-02 
1961	 6.67377576792032E-02 
1962	 7.24441332840968E-02 
1963	 7.35397379370784E-02 
1964	 7.87958181852344E-02 
1965	 4.03630549605341E-02 
1966	 2.94595103942409E-02 
1967	 2.91050138028178E-02 
1968	 2.28531436996498E-02 
1969	 1.14813669112246E-02 
1970	 2.38662655867955E-02 
1971	 4.05978574136968E-02 
1972	 5.20813482899195E-02 
1973	 5.53947115564943E-02 
1974	 5.75089816084544E-02 
1975	 5.30894111104424E-02 
1976	 5.44395362327053E-02 
1977	 5.77997611312008E-02 
1978	 5.72351073406739E-02 
1979	 5.89722514463775E-02 
1980	 6.47905139925656E-02 
1981	 5.62557062812697E-02 
1982	 5.73000629171787E-02 
1983	 6.85488819144045E-02 
1984	 6.89399963999406E-02 
1985	 6.89462353034545E-02 
1986	 5.98810677477557E-02 
1987	 4.88414464446457E-02 
1988	 4.26459648760607E-02 
1989	 4.13181850784761E-02 
1990	 4.05007261664283E-02 
1991	 3.75281206013804E-02 
1992	 4.07187215146554E-02 
1993	 3.64810099841712E-02 
1994	 3.31981081192465E-02 
1995	 3.20005851055009E-02 
1996	 3.23466115819487E-02 
1997	 1.67627863887307E-02 
1998	 1.00337192576558E-02 
1999	 2.21589261166934E-02 
2000	 3.55904494446726E-02 
2001	 5.91687400752522E-02 
2002	 8.19815995600695E-02 
2003	 7.05080060533423E-02 
2004	 0.05708574371723 
2005	 5.78531493189241E-02 
2006	 0.064694700295555 
2007	 7.02787998089275E-02 
2008	 4.97542291314177E-02 
2009	 4.61484472556819E-02 
2010	 3.40635115752706E-02 
2011	 3.01324577134308E-02 
2012	 3.62268948206779E-02 
2013	 5.72695285946222E-02 
2014	 5.28278298441004E-02 
2015	 3.77230364634051E-02 
2016	 3.62365341448239E-02 
2017	 4.08448373592036E-02 
2018	 4.15051475339273E-02 
2019	 3.80250531359458E-02 
2020	 3.71228500425822E-02 
2021	 4.46841438063862E-02 
2022	 5.38423895231258E-02 
2023	 6.05141485546066E-02 
2024	 5.83660617509366E-02 
2025	 4.46515360254734E-02 
2026	 4.05251447966115E-02 
2027	 3.45245705106352E-02 
2028	 3.47893294770766E-02 
2029	 3.97316751753385E-02 
2030	 4.58517238827374E-02 
2031	 0.04706621547633 
2032	 4.59107935588515E-02 
2033	 4.80386364231608E-02 
2034	 4.64256103694907E-02 
2035	 4.68541716741244E-02 
2036	 5.00441220820365E-02 
2037	 4.53383592404385E-02 
2038	 4.16621243618458E-02 
2039	 3.89021157525319E-02 
2040	 3.23656301563662E-02 
2041	 0.031330751308997 
2042	 3.33806079964125E-02 
2043	 3.56048885099813E-02 
2044	 4.11709514136114E-02 
2045	 0.047485646218786 
2046	 4.81855195690204E-02 
2047	 5.25512479265788E-02 
2048	 5.60528892776312E-02 
2049	 5.23570954243518E-02 
2050	 5.15103468702916E-02 
2051	 0.05357626702349 
2052	 0.052775687187386 
2053	 5.02082756774177E-02 
2054	 0.046445198070442 
2055	 4.90539923892852E-02 
2056	 4.75965026427327E-02 
2057	 4.13868087877524E-02 
2058	 4.19446543815197E-02 
2059	 4.41884750065073E-02 
2060	 4.48313028437492E-02 
2061	 4.61605566845253E-02 
2062	 5.76377841506401E-02 
2063	 5.87984428913168E-02 
2064	 5.73234880925875E-02 
2065	 5.61859156184009E-02 
2066	 0.049020070682333 
2067	 4.60719692632711E-02 
2068	 4.81134597967624E-02 
2069	 5.04278150561156E-02 
2070	 0.054023287856155 
2071	 6.06046641590761E-02 
2072	 6.34584343986222E-02 
2073	 6.22928100472958E-02 
2074	 5.82900542853945E-02 
2075	 5.71713647202202E-02 
2076	 5.23492824861351E-02 
2077	 5.23521921763275E-02 
2078	 5.80311494867262E-02 
2079	 0.057595491595688 
2080	 5.65241404186652E-02 
2081	 5.23738537308688E-02 
2082	 4.52747558790772E-02 
2083	 4.36061570120916E-02 
2084	 4.40477143068138E-02 
2085	 4.43487240780962E-02 
2086	 4.26343601197736E-02 
2087	 0.041951359022565 
2088	 4.41528934153139E-02 
2089	 4.58681317276935E-02 
2090	 4.94295522361176E-02 
2091	 5.47756602210099E-02 
2092	 5.70323520456209E-02 
2093	 5.67398962728479E-02 
2094	 5.58972797187122E-02 
2095	 5.29473998534804E-02 
2096	 0.051492381751084 
2097	 4.95432630707583E-02 
2098	 4.91710695115807E-02 
2099	 4.93997941891601E-02 
2100	 5.14454377218514E-02 
2101	 5.51607055332339E-02 
2102	 5.38343941636356E-02 
2103	 4.99431295083963E-02 
2104	 4.90511812265406E-02 
2105	 4.99641063114551E-02 
2106	 5.02582771140436E-02 
2107	 5.15441877982631E-02 
2108	 5.04675725904234E-02 
2109	 4.87745791288019E-02 
2110	 4.66710647148368E-02 
2111	 4.41480444243134E-02 
2112	 4.54222492041225E-02 
2113	 4.57710002794397E-02 
2114	 4.34189663516513E-02 
2115	 4.45557840536767E-02 
2116	 4.92764737563949E-02 
2117	 5.26385223554452E-02 
2118	 5.82640323982426E-02 
2119	 6.02360006194742E-02 
2120	 6.11859859885738E-02 
2121	 0.060019597751871 
2122	 5.70259650168311E-02 
2123	 5.52339194874616E-02 
2124	 5.52121153862657E-02 
2125	 5.27864103043821E-02 
2126	 5.11033474977604E-02 
2127	 4.77554831175122E-02 
2128	 4.29949845993075E-02 
2129	 4.22791145066618E-02 
2130	 0.042624530495003 
2131	 4.59753494661577E-02 
2132	 4.84989686587674E-02 
2133	 0.048852880517494 
2134	 5.02058107231038E-02 
2135	 5.05948292196146E-02 
2136	 4.91709632305675E-02 
2137	 4.79693661236657E-02 
2138	 4.72291920359095E-02 
2139	 4.40286699314556E-02 
2140	 4.34008100431177E-02 
2141	 4.47979788733299E-02 
2142	 4.48576192742663E-02 
2143	 4.48365666245276E-02 
2144	 4.45728632776901E-02 
2145	 4.50729275105524E-02 
2146	 0.049189728781848 
2147	 5.29961906004456E-02 
2148	 0.052869449288144 
2149	 5.14005800149948E-02 
2150	 5.17450436986791E-02 
2151	 5.03692176356178E-02 
2152	 4.89883118471286E-02 
2153	 5.01686762340426E-02 
2154	 5.40156758822003E-02 
2155	 0.055111961575118 
2156	 5.10860749106673E-02 
2157	 5.02425591889858E-02 
2158	 4.65426735406927E-02 
2159	 4.56296898735387E-02 
2160	 4.98853252084785E-02 
2161	 5.21193728169001E-02 
2162	 5.31287877635903E-02 
2163	 0.053622101524471 
2164	 5.26600709522658E-02 
2165	 5.38676424727717E-02 
2166	 5.71013097485791E-02 
2167	 5.76676418499564E-02 
2168	 0.057667294063281 
2169	 5.83639656332761E-02 
2170	 5.66761465933542E-02 
2171	 5.84545046612313E-02 
2172	 6.06563867801401E-02 
2173	 5.84379982549091E-02 
2174	 5.33436246726279E-02 
2175	 4.59360363624256E-02 
2176	 3.98195420077472E-02 
2177	 4.14998162252428E-02 
2178	 4.61109123714533E-02 
2179	 4.84801146306693E-02 
2180	 5.02387720580094E-02 
2181	 4.74407021238289E-02 
2182	 0.040782293679553 
2183	 3.78858758878576E-02 
2184	 3.49503885758345E-02 
2185	 3.02048934373945E-02 
2186	 2.87041092210252E-02 
2187	 2.73514459447123E-02 
2188	 2.88572881040831E-02 
2189	 3.63390508069729E-02 
2190	 0.040860260687993 
2191	 4.70689991419709E-02 
2192	 5.08572608431737E-02 
2193	 5.02003892306012E-02 
2194	 5.14112416767296E-02 
2195	 5.69625094791118E-02 
2196	 5.51298329141186E-02 
2197	 4.63566543679021E-02 
2198	 4.49959006406468E-02 
2199	 4.45738676647217E-02 
2200	 3.86563482979277E-02 
2201	 4.00723712869276E-02 
2202	 3.99443087269359E-02 
2203	 3.00224133015786E-02 
2204	 2.66025132699291E-02 
2205	 3.20481712242642E-02 
2206	 3.92690628027487E-02 
2207	 0.04254310259397 
2208	 4.69398494845514E-02 
2209	 4.66382821442381E-02 
2210	 4.27263463275683E-02 
2211	 4.97473636372316E-02 
2212	 5.03308450748887E-02 
2213	 5.34650994790593E-02 
2214	 6.44942395823743E-02 
2215	 6.20409295018058E-02 
2216	 6.29628018267319E-02 
2217	 6.07824518506193E-02 
2218	 4.87550928069594E-02 
2219	 4.27269292174148E-02 
2220	 4.39495555949234E-02 
2221	 4.03216419646068E-02 
2222	 3.06875733282176E-02 
2223	 3.15648911816269E-02 
2224	 3.48469835458453E-02 
2225	 0.037426279939832 
2226	 0.050053643314774 
2227	 0.05488367128414 
2228	 6.04489319900944E-02 
2229	 5.61718896577489E-02 
2230	 3.68843611186468E-02 
2231	 0.033152464471125 
2232	 2.91892199687629E-02 
2233	 2.41023117551561E-02 
2234	 2.76737903572064E-02 
2235	 3.23087247866136E-02 
2236	 2.63187035089619E-02 
2237	 1.89368026651361E-02 
2238	 1.98667476005119E-02 
2239	 2.41061237364803E-02 
2240	 2.49292476385723E-02 
2241	 3.29654783674241E-02 
2242	 4.05273128404438E-02 
2243	 3.97904448851239E-02 
2244	 4.37240760476214E-02 
2245	 4.65358871383089E-02 
2246	 4.10812849434029E-02 
2247	 4.25285784658633E-02 
2248	 4.56033950005335E-02 
2249	 4.12806197707503E-02 
2250	 3.52116495251104E-02 
2251	 3.56885427583576E-02 
2252	 3.35157084280944E-02 
2253	 2.43877603876507E-02 
2254	 3.00835666279675E-02 
2255	 3.30552502722742E-02 
2256	 2.60493342216656E-02 
2257	 2.45032871394434E-02 
2258	 2.35433266280053E-02 
2259	 2.45619441085057E-02 
2260	 2.86222850437576E-02 
2261	 4.55481322426235E-02 
2262	 4.76414507456727E-02 
2263	 4.24817824211324E-02 
2264	 3.93145118611283E-02 
2265	 0.027673012245005 
2266	 2.27081939921927E-02 
2267	 2.20933971747011E-02 
2268	 2.02745913321629E-02 
2269	 1.76915592774589E-02 
2270	 1.75381755446611E-02 
2271	 1.95821121837086E-02 
2272	 2.17125803883614E-02 
2273	 2.43251297967883E-02 
2274	 3.07006020668662E-02 
2275	 4.61346737036415E-02 
2276	 0.049427963709526 
2277	 4.52651540472962E-02 
2278	 4.51696129810733E-02 
2279	 3.82984715020484E-02 
2280	 3.54879318404208E-02 
2281	 3.58653658214271E-02 
2282	 4.46888025289036E-02 
2283	 4.48870753025022E-02 
2284	 3.94738240151084E-02 
2285	 4.65555243922371E-02 
2286	 4.95975027899045E-02 
2287	 4.49661887321269E-02 
2288	 4.85970749324479E-02 
2289	 5.07894572547203E-02 
2290	 3.53926897890752E-02 
2291	 3.50222358872196E-02 
2292	 0.044511158475186 
2293	 5.22338931676996E-02 
2294	 5.91154858605216E-02 
2295	 3.89142894245207E-02 
2296	 2.47004810532202E-02 
2297	 1.74254675004854E-02 
2298	 1.10473331837668E-02 
2299	 3.63084204203036E-02 
2300	 4.99385878985733E-02 
2301	 3.95767844597644E-02 
2302	 4.59258792786235E-02 
2303	 5.16801735052446E-02 
2304	 4.84905666158007E-02 
2305	 5.63245730405589E-02 
2306	 6.44248289931623E-02 
2307	 5.36080347706611E-02 
2308	 4.18076845492182E-02 
2309	 4.10629047163288E-02 
2310	 2.60540024465955E-02 
2311	 3.88119698699993E-03 
2312	-1.24016201759222E-02 
2313	-2.26667338699174E-02 
2314	-1.57863716146688E-02 
2315	 9.96126669206172E-04 
2316	 0.033668345042731 
2317	 6.05751144526243E-02 
2318	 5.47033928504489E-02 
2319	 4.93275244703749E-02 
2320	 5.64812286916205E-02 
2321	 5.40795922994249E-02 
2322	 4.63433239833965E-02 
2323	 4.26051277416998E-02 
2324	 4.04774370729289E-02 
2325	 4.47789817673606E-02 
2326	 5.85308929807136E-02 
2327	 0.082125777947679 
2328	 7.51688646536668E-02 
2329	 5.82549409502471E-02 
2330	 0.0684687159553 
2331	 0.054223757135787 
2332	 4.58912513953674E-02 
2333	 4.58580140767091E-02 
2334	 3.22927202435943E-02 
2335	 3.60954239877499E-03 
2336	-0.029436395645824 
2337	-7.00893124484158E-03 
2338	 1.79918707381006E-03 
2339	-3.69846412845033E-03 
2340	 0.011434591072607 
2341	 1.28645191839787E-03 
2342	 1.67482484547444E-03 
2343	 2.61450602116683E-02 
2344	 4.69036389972619E-02 
2345	 3.69079159367969E-02 
2346	 2.53413320471962E-02 
2347	 1.22271157295595E-02 
2348	 1.79029168216354E-02 
2349	 0.108584770956018 
2350	 0.150992474273706 
2351	 9.95204553756944E-02 
2352	 0.132575042725005 
2353	 0.138299622956937 
2354	 9.62847603569299E-02 
2355	 0.113606358964028 
2356	 6.27574299493793E-02 
2357	-6.86786932355901E-02 
2358	-0.159281823852803 
2359	-0.158731428159791 
2360	-0.114185054460353 
2361	-1.65128216999633E-02 
2362	 6.96953244978539E-02 
2363	 4.96423674978724E-02 
2364	-5.05375170123181E-03 
2365	-0.058500992900264 
2366	-8.57520401895596E-02 
2367	-9.90796195161395E-02 
2368	-0.126018218577362 
2369	-9.49220262380814E-02 
2370	-0.12769183948558 
2371	-0.2020641459802 
2372	-0.22709115742051 
2373	-0.250607922789592 
2374	-0.187275482093355 
2375	-3.30840804622022E-02 
2376	 0.179782934101297 
2377	 0.281151453359508 
2378	 0.235437687973038 
2379	 0.23884204291193 
2380	 0.148398796357898 
2381	 0.105940470879434 
2382	 0.176869042011199 
2383	 0.127775950121389 
2384	 0.121879481969919 
2385	 0.199812066125244 
2386	 0.34686251308172 
2387	 0.577411829543574 
2388	 0.569245343432149 
2389	 0.575033885025601 
2390	 0.381783719218822 
2391	 0.23101391772515 
2392	 0.277277512307323 
2393	 0.296254193770745 
2394	 0.409474690582656 
2395	 0.487245981611162 
2396	 0.439944776275555 
2397	 0.324389020474398 
2398	-9.82589076995472E-02 
2399	-0.619969865454435 
2400	-1.3476625589725 
2401	-3.21856215712767 
2402	-3.3660637405998 
2403	-1.18035175526068E-02 
2404	 0.361973071995842 
2405	 0.30622445423189 
2406	 0.300172144702228 
2407	 0.352886784045175 
2408	-0.214354003315305 
2409	-0.982163054546827 
2410	-0.456400996523959 
2411	-0.547014027427442 
2412	-1.05559601119678 
2413	-1.48873479644952 
2414	-2.41498930174665 
2415	 1.86568754226774 
2416	 0.330894966006048 
2417	 0.322184069608199 
2418	 0.874265424830379 
2419	 2.07056188812162 
2420	 7.11601032395045 
2421	 0.862890028830644 
2422	 1.2812621944325 
2423	-9.13090153050143 
2424	-2.57067427417313 
2425	-0.103391514492926 
2426	 0.175505185477576 
2427	 0.242268557440721 
2428	 2.17683661344791 
2429	 10.4553596723587 
2430	-16.8858329343878 
2431	-1.86071475934894 
2432	-0.878398440062028 
2433	-0.213395430854726 
2434	 5.79227731364179E-02 
2435	 0.29922253152359 
2436	 0.282680994324643 
2437	-9.58780270249762E-02 
2438	-0.281359581405948 
2439	-0.229775944511172 
2440	 6.46216706176915E-02 
2441	 0.207900385496802 
2442	 8.86789737673541E-02 
2443	-0.100470980898906 
2444	-1.05780964775869 
2445	-0.746559524499143 
2446	 2.01955298811146E-02 
2447	 8.48871368173471E-02 
2448	 0.782684619942515 
2449	-3.67119758505804 
2450	-3.46993264697989 
2451	-5.7322410823172 
2452	 2.75015636728929 
2453	 1.6025279804957 
2454	-1.12339668539879 
2455	-0.592269292719039 
2456	-0.186147677693102 
2457	 1.23232466162305 
2458	-1.07904650198343 
2459	-0.31268805327785 
2460	-0.747232082307974 
2461	 145.418558357007 
2462	 5.85995859140742 
2463	 7.83017693235121 
2464	-10.4798581075054 
2465	-1.78879895935906 
2466	-0.903828075019623 
2467	-1.15039874770109 
2468	 10.298682232196 
2469	 0.946607463003682 
2470	 1.12969645509897 
2471	 1.10493327735513 
2472	 1.64493949723297 
2473	 2.31659628218053 
2474	 2.80426273197286 
2475	 3.61827878504284 
2476	 3.77207365862944 
2477	 6.86315362170269 
2478	 12.543254239933 
2479	 27.8099872899487 
2480	-35.8139028878327 
2481	-1.3091363410251 
2482	-0.541894444820406 
2483	-1.17555909961872 
2484	-0.132594988324308 
2485	 0.5559556084965 
2486	 1.01107499201131 
2487	 13.5684377212462 
2488	-2.34356282451837 
2489	 5.0261626310427 
2490	-0.940116748413025 
2491	-0.16533933524199 
2492	-7.82164895881859E-02 
2493	 0.169533401813166 
2494	 0.154119407902257 
2495	 0.324176914408993 
2496	 0.33800288551968 
2497	 0.305740903493478 
2498	 0.337706607784059 
2499	-0.117585804282357 
2500	 27.9328822674726 
