Wavelength	rt0722east_far00005.asd
350	 1.65742914780729E-02 
351	 1.60457296770983E-02 
352	 1.61124926604099E-02 
353	 1.64558254621803E-02 
354	 0.016684564315592 
355	 1.69254427766289E-02 
356	 1.67447235170375E-02 
357	 1.66833756825639E-02 
358	 1.72292573940591E-02 
359	 1.74047989820745E-02 
360	 0.017115363313654 
361	 1.67246295953604E-02 
362	 1.67809057710798E-02 
363	 1.65745154989307E-02 
364	 1.66858406566566E-02 
365	 1.71300612767896E-02 
366	 1.68469539960274E-02 
367	 1.72523028117022E-02 
368	 1.77070245935431E-02 
369	 1.74713985145378E-02 
370	 0.01736694729638 
371	 1.76874179925587E-02 
372	 1.80267663100127E-02 
373	 1.77358529280089E-02 
374	 1.79668654367702E-02 
375	 1.80395704052463E-02 
376	 1.79066055059371E-02 
377	 1.85963268028496E-02 
378	 1.88727173945866E-02 
379	 1.87989315787823E-02 
380	 1.87327218229829E-02 
381	 0.018862467675766 
382	 1.92919468189399E-02 
383	 1.95136178449117E-02 
384	 1.90481125033873E-02 
385	 1.96917945789604E-02 
386	 2.02528568233625E-02 
387	 2.03580663234034E-02 
388	 2.07800871826368E-02 
389	 2.06798786270461E-02 
390	 2.05535997331958E-02 
391	 2.08843698822386E-02 
392	 2.15663520900406E-02 
393	 2.19504267342641E-02 
394	 2.20027298535616E-02 
395	 2.19918225642782E-02 
396	 2.22549497528946E-02 
397	 2.24332527761098E-02 
398	 2.24601221811473E-02 
399	 2.25434531443279E-02 
400	 2.25055853395065E-02 
401	 2.26855170558584E-02 
402	 2.31456737610387E-02 
403	 2.31817753347241E-02 
404	 2.32429130376914E-02 
405	 2.33961193235561E-02 
406	 2.35863911704565E-02 
407	 2.39365505269078E-02 
408	 2.40098931934528E-02 
409	 2.39244520144204E-02 
410	 2.43149543224808E-02 
411	 2.45135086631703E-02 
412	 0.024680639520608 
413	 2.49807073972518E-02 
414	 2.52392268034448E-02 
415	 2.53593123791656E-02 
416	 2.55057438139778E-02 
417	 2.58645592184449E-02 
418	 0.026026809485696 
419	 2.61875979993764E-02 
420	 2.64404555967672E-02 
421	 2.67239601337385E-02 
422	 2.70159302359512E-02 
423	 2.72853818038558E-02 
424	 2.75109585770394E-02 
425	 0.027678343730556 
426	 2.79321597946827E-02 
427	 2.83012149042303E-02 
428	 0.028741476108972 
429	 2.92053464489958E-02 
430	 2.95934180772729E-02 
431	 2.98860932081374E-02 
432	 3.01600341845224E-02 
433	 3.04728148535043E-02 
434	 3.07521292753583E-02 
435	 3.09710216511144E-02 
436	 3.13168214704992E-02 
437	 3.17799802892263E-02 
438	 0.032242385368513 
439	 3.25446344830204E-02 
440	 3.27352522363936E-02 
441	 3.30062223417793E-02 
442	 3.34076881951826E-02 
443	 3.37667099302083E-02 
444	 3.41053114348826E-02 
445	 3.44423362455071E-02 
446	 0.03478275872896 
447	 3.50621715192524E-02 
448	 3.53596344221726E-02 
449	 3.56853332902453E-02 
450	 3.59887993485873E-02 
451	 3.61364469905019E-02 
452	 3.63476578307377E-02 
453	 3.67014494301425E-02 
454	 3.68811964369255E-02 
455	 3.71749613675534E-02 
456	 3.74329168032878E-02 
457	 3.74682196594906E-02 
458	 3.77517547082576E-02 
459	 3.80911522074245E-02 
460	 0.038322444220721 
461	 3.83612446487368E-02 
462	 3.85116991460933E-02 
463	 0.038737935652338 
464	 3.89403236610677E-02 
465	 3.90362760281373E-02 
466	 3.92545842861719E-02 
467	 0.039523943425017 
468	 3.96683663410064E-02 
469	 3.99613021130774E-02 
470	 4.01831560103912E-02 
471	 4.02834553116105E-02 
472	 4.04901661507337E-02 
473	 4.07466393677938E-02 
474	 4.09517540630778E-02 
475	 4.10737744768645E-02 
476	 4.13719582967069E-02 
477	 4.17059086054598E-02 
478	 4.19792737921476E-02 
479	 4.21522985627645E-02 
480	 4.24048668060952E-02 
481	 4.26619748587013E-02 
482	 4.28860447866558E-02 
483	 4.31850069538497E-02 
484	 4.35211938113327E-02 
485	 4.38832697401635E-02 
486	 4.42614070836498E-02 
487	 4.46312716947071E-02 
488	 4.49324758676132E-02 
489	 4.52037570170114E-02 
490	 4.55721160912305E-02 
491	 4.59412022487046E-02 
492	 4.63339298302695E-02 
493	 4.67599965944085E-02 
494	 4.71337399320119E-02 
495	 4.75543772567215E-02 
496	 4.79904988244641E-02 
497	 4.83673405502264E-02 
498	 4.88403664748888E-02 
499	 4.93246771417888E-02 
500	 0.049762658115335 
501	 5.01752342065947E-02 
502	 5.06418857497783E-02 
503	 0.051165029889578 
504	 5.17143793364352E-02 
505	 5.22560254923533E-02 
506	 5.26645187407817E-02 
507	 5.30418281961821E-02 
508	 5.36356676414698E-02 
509	 5.40342932540625E-02 
510	 5.43738224320388E-02 
511	 5.48283482136679E-02 
512	 5.54697157965393E-02 
513	 5.60799052946943E-02 
514	 5.65995079906899E-02 
515	 5.70673539113681E-02 
516	 5.76677053957794E-02 
517	 5.83083702503215E-02 
518	 5.89222737140502E-02 
519	 5.95117590465699E-02 
520	 6.02097573277203E-02 
521	 6.08434266410203E-02 
522	 0.061303680395916 
523	 6.19167176728097E-02 
524	 6.26106962683622E-02 
525	 6.32989048894972E-02 
526	 6.39029440372459E-02 
527	 6.45380502577995E-02 
528	 6.52297595828206E-02 
529	 6.59332714650054E-02 
530	 6.64891711126294E-02 
531	 6.70640465747835E-02 
532	 6.77361070753035E-02 
533	 6.85100456468524E-02 
534	 6.91974432660824E-02 
535	 6.98361998455092E-02 
536	 0.070489398576098 
537	 7.12225242035476E-02 
538	 7.19325608165651E-02 
539	 7.26340226224935E-02 
540	 0.073355813035557 
541	 7.40796019203196E-02 
542	 7.47946365061682E-02 
543	 7.54682718938056E-02 
544	 7.60765647361397E-02 
545	 7.67950476968363E-02 
546	 0.077541874600722 
547	 7.82434115709763E-02 
548	 7.89065741230285E-02 
549	 7.95990262103933E-02 
550	 8.02784187130935E-02 
551	 8.08948029519983E-02 
552	 0.081586538645456 
553	 8.23019510738766E-02 
554	 8.30019332210667E-02 
555	 8.36718843016888E-02 
556	 8.43740275515444E-02 
557	 8.50698634091641E-02 
558	 8.57273376884846E-02 
559	 8.64593616276856E-02 
560	 0.087064625945644 
561	 8.75740162445825E-02 
562	 8.81570729492967E-02 
563	 8.87442842818549E-02 
564	 8.93005180763888E-02 
565	 8.98156272383734E-02 
566	 9.03267820170311E-02 
567	 9.07641241275218E-02 
568	 9.11614649062042E-02 
569	 9.15727835446015E-02 
570	 9.19338721850777E-02 
571	 0.092269269936175 
572	 9.25895595194676E-02 
573	 0.092884256855 
574	 9.31771234575248E-02 
575	 9.34492847797171E-02 
576	 9.36694042677924E-02 
577	 0.093807459428224 
578	 0.093896444572288 
579	 9.39504653261044E-02 
580	 9.39719168208249E-02 
581	 9.39818691368752E-02 
582	 9.38862487961381E-02 
583	 0.093679539459549 
584	 9.35460736036238E-02 
585	 9.33272681066624E-02 
586	 9.30537412542771E-02 
587	 9.27951557112142E-02 
588	 9.24473473297394E-02 
589	 9.21106313426277E-02 
590	 9.18009568422843E-02 
591	 9.14080375488069E-02 
592	 9.09701013808995E-02 
593	 9.04717864733721E-02 
594	 0.089863058049342 
595	 8.89686001970754E-02 
596	 8.80813762909654E-02 
597	 8.71604561633224E-02 
598	 8.60181670446403E-02 
599	 8.49559664931984E-02 
600	 8.40739550959345E-02 
601	 8.33955998066765E-02 
602	 8.28556036311102E-02 
603	 8.25441082338363E-02 
604	 8.23870330152447E-02 
605	 8.22820662819156E-02 
606	 8.22795432220554E-02 
607	 8.22365357466442E-02 
608	 8.21677669227066E-02 
609	 0.082247268373519 
610	 8.22136182319569E-02 
611	 8.21797848757446E-02 
612	 8.22528772390029E-02 
613	 8.22914491438022E-02 
614	 8.22790096850288E-02 
615	 8.22494536281263E-02 
616	 8.22684833102342E-02 
617	 8.23744016359641E-02 
618	 8.23719535429456E-02 
619	 8.22227169772838E-02 
620	 0.082169070204431 
621	 8.21833670244392E-02 
622	 8.21736555865081E-02 
623	 8.20727259298795E-02 
624	 8.20880294420288E-02 
625	 8.19985044058843E-02 
626	 8.18750913163104E-02 
627	 8.20462778500361E-02 
628	 8.19409076368603E-02 
629	 8.17781028346871E-02 
630	 8.17784271132906E-02 
631	 8.17636045636011E-02 
632	 8.16574491672107E-02 
633	 0.081542590074087 
634	 8.15481912168251E-02 
635	 8.14781230137925E-02 
636	 0.081353745101431 
637	 8.12418546089065E-02 
638	 8.12449514809405E-02 
639	 0.081096447877029 
640	 8.09571148123336E-02 
641	 8.09865410816743E-02 
642	 8.08028702646329E-02 
643	 8.05509285407272E-02 
644	 8.03198788645025E-02 
645	 8.01457859603569E-02 
646	 8.00227838360143E-02 
647	 7.99153455630983E-02 
648	 7.97701153618314E-02 
649	 7.95021430843254E-02 
650	 7.92151121919532E-02 
651	 7.88887630195925E-02 
652	 7.84851343899271E-02 
653	 7.81142782904986E-02 
654	 0.077607155616847 
655	 0.076896780441965 
656	 7.61865745149575E-02 
657	 7.56515973716384E-02 
658	 7.52468682283759E-02 
659	 7.48751637833865E-02 
660	 0.074472902781632 
661	 7.41197129162913E-02 
662	 0.07387563853335 
663	 7.37665718891028E-02 
664	 7.35591996699917E-02 
665	 0.073366429400566 
666	 7.32537062350341E-02 
667	 7.31185065391518E-02 
668	 7.30989133469623E-02 
669	 7.31270596007203E-02 
670	 0.073085029546584 
671	 7.29704601318933E-02 
672	 7.29073197308711E-02 
673	 7.28763214907079E-02 
674	 7.27338813076047E-02 
675	 7.27311196304889E-02 
676	 7.27111254530851E-02 
677	 7.25543941638981E-02 
678	 0.072418832460088 
679	 7.23546787772315E-02 
680	 7.23570152346445E-02 
681	 7.23853378632413E-02 
682	 7.24188778754513E-02 
683	 7.24197861042341E-02 
684	 7.23476370666894E-02 
685	 7.21429596198522E-02 
686	 7.20675850686723E-02 
687	 7.19443163713995E-02 
688	 7.16003708238261E-02 
689	 7.13548119273143E-02 
690	 7.09897431127453E-02 
691	 7.05217991100496E-02 
692	 7.00863679677775E-02 
693	 6.95650150946652E-02 
694	 6.89267477539466E-02 
695	 6.82176193192054E-02 
696	 6.74876519037239E-02 
697	 6.67637361763371E-02 
698	 6.59377377732561E-02 
699	 6.49673425670659E-02 
700	 6.40650287812683E-02 
701	 6.30016403523826E-02 
702	 6.18485673437845E-02 
703	 6.08605393532848E-02 
704	 5.97747156262767E-02 
705	 5.85734450339294E-02 
706	 5.73141194011875E-02 
707	 0.056047936370011 
708	 5.46236424624275E-02 
709	 0.053119246585047 
710	 5.16315717418202E-02 
711	 4.98444187577437E-02 
712	 4.80035891097065E-02 
713	 4.62477866214086E-02 
714	 4.45209837153046E-02 
715	 4.28929222005081E-02 
716	 4.10993918348617E-02 
717	 0.039057012168497 
718	 3.71013260355164E-02 
719	 0.035207608263205 
720	 3.35525282834079E-02 
721	 3.19469644045365E-02 
722	 3.03756070558356E-02 
723	 2.86296822603384E-02 
724	 2.69189364601876E-02 
725	 2.53987866179175E-02 
726	 2.38631969619299E-02 
727	 2.22497286012651E-02 
728	 2.05616378308724E-02 
729	 1.87825826540617E-02 
730	 1.70558960916163E-02 
731	 1.55458623601593E-02 
732	 1.42815568950302E-02 
733	 1.32957626943065E-02 
734	 0.012541352413971 
735	 1.19594910833895E-02 
736	 1.14436438392003E-02 
737	 1.10044244092934E-02 
738	 1.06857261484767E-02 
739	 0.010509342457723 
740	 1.03856821619618E-02 
741	 1.02991587791262E-02 
742	 1.01962529025887E-02 
743	 1.00358503436986E-02 
744	 1.00175412078391E-02 
745	 1.00359944562877E-02 
746	 1.00209100630136E-02 
747	 9.99202829723533E-03 
748	 1.00327804738242E-02 
749	 1.00268856693568E-02 
750	 9.91240689494483E-03 
751	 9.97765984956051E-03 
752	 1.00218193906384E-02 
753	 9.99779319644179E-03 
754	 9.9495963008391E-03 
755	 9.90173763353101E-03 
756	 9.79919897783503E-03 
757	 0.009703165073349 
758	 9.9191132956124E-03 
759	 9.9783745515631E-03 
760	 9.83182351377277E-03 
761	 9.83937203405712E-03 
762	 9.89581264237486E-03 
763	 9.99593261877854E-03 
764	 1.00531989568152E-02 
765	 1.00254515905259E-02 
766	 1.00631392178788E-02 
767	 0.010126256869314 
768	 1.01924607115361E-02 
769	 1.02557756996784E-02 
770	 0.010269274041035 
771	 1.03219785010844E-02 
772	 1.04587703875724E-02 
773	 0.010526437712853 
774	 0.010658567839928 
775	 1.08443429162383E-02 
776	 1.10043502565397E-02 
777	 1.10568959976682E-02 
778	 1.10994035514576E-02 
779	 0.011216606758486 
780	 0.011454567045019 
781	 1.17076767290173E-02 
782	 1.18814047996172E-02 
783	 1.19736258392922E-02 
784	 1.21791030227001E-02 
785	 1.23309767752005E-02 
786	 1.25042265469575E-02 
787	 1.27903829029324E-02 
788	 1.28957636379344E-02 
789	 1.31041111783293E-02 
790	 1.34296259555356E-02 
791	 0.013659273950139 
792	 1.38484113934526E-02 
793	 1.40388165547145E-02 
794	 1.42724928421436E-02 
795	 1.45885832212177E-02 
796	 1.47447454344049E-02 
797	 1.48635437868915E-02 
798	 1.51118804743542E-02 
799	 1.54143023563823E-02 
800	 1.56576033689704E-02 
801	 1.58524341995868E-02 
802	 1.60660618205122E-02 
803	 1.61520430312869E-02 
804	 0.016257961428081 
805	 1.63848966341158E-02 
806	 1.63600505241624E-02 
807	 1.63857154960007E-02 
808	 1.64042402815925E-02 
809	 1.63447262650091E-02 
810	 1.62375074267155E-02 
811	 0.016093121023667 
812	 1.59638669683235E-02 
813	 1.58751758727717E-02 
814	 1.55685687987312E-02 
815	 1.53107543343626E-02 
816	 1.50963281835102E-02 
817	 0.014697593434326 
818	 0.014304663389537 
819	 1.39618887373936E-02 
820	 1.36205952301565E-02 
821	 1.31710361026164E-02 
822	 1.25965695776449E-02 
823	 0.011917300175065 
824	 1.12024481201624E-02 
825	 1.04802198484519E-02 
826	 9.88755800160971E-03 
827	 9.2546323651814E-03 
828	 8.44585735258121E-03 
829	 8.02036303637144E-03 
830	 7.55230931769358E-03 
831	 6.96746809180951E-03 
832	 6.52159558402668E-03 
833	 6.46385333891578E-03 
834	 6.43681767764469E-03 
835	 6.27792136045255E-03 
836	 6.17274889027743E-03 
837	 6.01159066865487E-03 
838	 5.7997306561477E-03 
839	 5.61106815067539E-03 
840	 5.65056651300443E-03 
841	 5.53731553525222E-03 
842	 5.44061643203184E-03 
843	 5.58310250532088E-03 
844	 5.40860032446296E-03 
845	 5.37032779874231E-03 
846	 5.41597102497989E-03 
847	 5.19242557982457E-03 
848	 5.18712161093518E-03 
849	 5.18570379246669E-03 
850	 5.12298278420007E-03 
851	 5.20458282869773E-03 
852	 5.01863336571606E-03 
853	 4.87775037891856E-03 
854	 5.00966977402276E-03 
855	 5.14130790469403E-03 
856	 5.07502636654678E-03 
857	 4.93135076472721E-03 
858	 4.85688914386006E-03 
859	 4.69983652532199E-03 
860	 4.77552701254451E-03 
861	 4.81727230215786E-03 
862	 4.44383488502124E-03 
863	 4.51210182966649E-03 
864	 4.55611729372885E-03 
865	 4.47037843504766E-03 
866	 4.52346446326214E-03 
867	 4.41158021317241E-03 
868	 4.36833217562607E-03 
869	 4.42961237968379E-03 
870	 4.3028428391854E-03 
871	 4.43008316820246E-03 
872	 4.49191073239511E-03 
873	 4.28733172700306E-03 
874	 4.23935754313846E-03 
875	 4.26795330325389E-03 
876	 4.23815963046718E-03 
877	 4.06478936976998E-03 
878	 3.90501917055552E-03 
879	 3.9132068292672E-03 
880	 4.08573339985664E-03 
881	 4.27265280287845E-03 
882	 4.10214337606841E-03 
883	 3.83474884163232E-03 
884	 3.59082243177438E-03 
885	 3.39595027202177E-03 
886	 3.69627946368119E-03 
887	 3.85139161382908E-03 
888	 3.63946211957284E-03 
889	 3.46096008326809E-03 
890	 3.53119509601203E-03 
891	 3.67491137910155E-03 
892	 3.70983097307622E-03 
893	 3.60123308206682E-03 
894	 3.62038658482448E-03 
895	 3.60883965579124E-03 
896	 3.44668295689104E-03 
897	 3.56974438821176E-03 
898	 3.82450810767894E-03 
899	 3.73723367949765E-03 
900	 3.18822200951791E-03 
901	 3.45956163828328E-03 
902	 3.38483724428489E-03 
903	 3.20811118612115E-03 
904	 3.48422775684157E-03 
905	 3.39685955091185E-03 
906	 3.60531084359793E-03 
907	 3.95279475524815E-03 
908	 3.70884281108768E-03 
909	 2.97755514819283E-03 
910	 3.07056699699767E-03 
911	 3.68374760920707E-03 
912	 3.2214788222624E-03 
913	 3.21839684405677E-03 
914	 3.33314266350457E-03 
915	 3.33572611885956E-03 
916	 3.37785462944463E-03 
917	 3.25862829489042E-03 
918	 3.37277182761261E-03 
919	 3.66581902129652E-03 
920	 3.44992839667994E-03 
921	 3.0250668769619E-03 
922	 2.48282091864409E-03 
923	 2.10699731412752E-03 
924	 2.65604487367453E-03 
925	 3.81448557902664E-03 
926	 3.85530260014499E-03 
927	 1.91780645965374E-03 
928	 2.52942264041238E-03 
929	 2.19709978836048E-03 
930	 7.26083230057649E-04 
931	 2.76391419568136E-04 
932	 3.77511711537983E-03 
933	 1.18134644540552E-03 
934	-3.04188786669327E-03 
935	 1.38392802843309E-03 
936	 7.19703025317488E-03 
937	 4.5042665846709E-03 
938	 5.11891863233926E-04 
939	 2.61925109267444E-03 
940	-6.66834110950829E-04 
941	-5.82480363371651E-04 
942	 1.40307042393294E-03 
943	 4.70453144031502E-05 
944	 1.53150392198402E-03 
945	 5.26317615821254E-03 
946	 6.16275547691643E-03 
947	 5.50205278361952E-04 
948	 3.22483868219827E-03 
949	 4.75040825124838E-03 
950	 3.31754253258421E-03 
951	 2.36825315207915E-03 
952	-3.69187199576842E-04 
953	 9.06444285977378E-04 
954	 3.85436170917436E-03 
955	 2.15373215251093E-03 
956	 3.05837206697575E-03 
957	 3.18374172108247E-03 
958	 2.99000693209684E-03 
959	 4.99366575680513E-03 
960	 3.43387298408555E-03 
961	 1.49056531379965E-03 
962	 1.31676157986507E-03 
963	 2.92060884318381E-03 
964	 2.79860055132923E-03 
965	 2.79934368623438E-03 
966	 3.11436079301124E-03 
967	 2.70369497121943E-03 
968	 3.16306859447958E-03 
969	 2.87551910465146E-03 
970	 2.12974060446686E-03 
971	 2.65863406832339E-03 
972	 2.22793045396015E-03 
973	 1.48463705792387E-03 
974	 1.44678134343285E-03 
975	 2.63007983754983E-03 
976	 1.35957474298163E-03 
977	 1.09753752022754E-03 
978	 1.95932020753228E-03 
979	 1.2153403493467E-03 
980	 3.50115900051277E-03 
981	 4.1347428347124E-03 
982	 2.4927756854854E-03 
983	 1.78068974263985E-03 
984	 2.22113431788549E-03 
985	 2.95369248162159E-03 
986	 3.26176972313703E-03 
987	 3.00816290816052E-03 
988	 4.19443254730624E-03 
989	 4.36735306796979E-03 
990	 3.16660602073237E-03 
991	 2.26715679698837E-03 
992	 3.39309026009144E-03 
993	 2.99868403914399E-03 
994	 1.49877913394237E-03 
995	 1.93042012036892E-03 
996	 3.2744725690823E-03 
997	 2.92365390604322E-03 
998	 1.79257190236721E-03 
999	 2.44209695916114E-03 
1000	 3.12339539232508E-03 
1001	 3.10784800022309E-03 
1002	 3.11333730284164E-03 
1003	 3.18891195876569E-03 
1004	 3.23757001363524E-03 
1005	 3.18228617481736E-03 
1006	 2.95287744123099E-03 
1007	 3.33054545285001E-03 
1008	 3.19410415221608E-03 
1009	 2.79042498689756E-03 
1010	 2.50250397157452E-03 
1011	 1.7161715206823E-03 
1012	 9.78184274352405E-04 
1013	 7.04889464315828E-04 
1014	 7.70612982588724E-04 
1015	 1.21620129100804E-03 
1016	 0.001607012104533 
1017	 2.61023401983244E-03 
1018	 3.03039566257054E-03 
1019	 3.40733001054497E-03 
1020	 3.46117542954896E-03 
1021	 3.13336430011115E-03 
1022	 2.65442397114996E-03 
1023	 2.30198941687479E-03 
1024	 0.002002975327325 
1025	 2.34085819914232E-03 
1026	 2.48338671617402E-03 
1027	 2.59347123386799E-03 
1028	 2.90030035772447E-03 
1029	 2.79640291843262E-03 
1030	 2.25651638598583E-03 
1031	 2.20914934047314E-03 
1032	 2.16429756848558E-03 
1033	 2.23167475897013E-03 
1034	 2.70265697051823E-03 
1035	 2.88933658093985E-03 
1036	 3.00157776622886E-03 
1037	 2.99033246445922E-03 
1038	 2.93051978870729E-03 
1039	 2.71414226846556E-03 
1040	 2.2823446556704E-03 
1041	 2.09756259844512E-03 
1042	 1.90842635309603E-03 
1043	 1.67030546174402E-03 
1044	 1.65641209186253E-03 
1045	 1.75847708964844E-03 
1046	 1.92563048189552E-03 
1047	 2.41787998287416E-03 
1048	 2.52755398697708E-03 
1049	 2.5377366223889E-03 
1050	 2.54603607806346E-03 
1051	 2.1330209038433E-03 
1052	 2.14486616717041E-03 
1053	 2.48906353816484E-03 
1054	 2.70612781833105E-03 
1055	 3.39955910285817E-03 
1056	 3.52153861245336E-03 
1057	 3.36300743459807E-03 
1058	 2.81040250777729E-03 
1059	 2.53813065175305E-03 
1060	 1.79694177323693E-03 
1061	 1.74984187061941E-03 
1062	 2.28667197808489E-03 
1063	 2.43813058709321E-03 
1064	 2.77523367170266E-03 
1065	 2.85225029238993E-03 
1066	 2.59942449312836E-03 
1067	 2.53466480327978E-03 
1068	 2.50588317915238E-03 
1069	 2.43915953097707E-03 
1070	 2.39365557446354E-03 
1071	 2.34552633819706E-03 
1072	 2.17537541116644E-03 
1073	 2.06906850065837E-03 
1074	 2.24855486882531E-03 
1075	 2.74577152836117E-03 
1076	 2.80680797696557E-03 
1077	 2.94858024335716E-03 
1078	 2.89436747326931E-03 
1079	 2.30558986796811E-03 
1080	 2.19126174410537E-03 
1081	 2.44586552069452E-03 
1082	 2.4025067286954E-03 
1083	 2.21271801635056E-03 
1084	 2.22495553037369E-03 
1085	 2.32211689732235E-03 
1086	 2.22720287519515E-03 
1087	 2.07757635744764E-03 
1088	 2.12164567245637E-03 
1089	 2.13000928603852E-03 
1090	 2.05738229788989E-03 
1091	 2.12152559278554E-03 
1092	 2.55151859124642E-03 
1093	 2.57118027974773E-03 
1094	 2.29434256821343E-03 
1095	 2.19377806312672E-03 
1096	 2.03394748237439E-03 
1097	 2.05374502999379E-03 
1098	 2.23716698445446E-03 
1099	 2.32357448037955E-03 
1100	 2.56761984321293E-03 
1101	 2.56687041986718E-03 
1102	 2.20452383269311E-03 
1103	 2.14683663581384E-03 
1104	 2.30187811573626E-03 
1105	 2.1845362058189E-03 
1106	 1.80462732589147E-03 
1107	 1.8189119281977E-03 
1108	 1.85713382738656E-03 
1109	 1.83152831229474E-03 
1110	 1.71989306780178E-03 
1111	 1.93819901119313E-03 
1112	 1.98319247898324E-03 
1113	 1.6047119555585E-03 
1114	 1.24348474533715E-03 
1115	 1.11967592339084E-03 
1116	 7.18860651738721E-04 
1117	-6.9259823684015E-04 
1118	-1.45856152867418E-03 
1119	-1.83689637262179E-03 
1120	-2.12844805869986E-03 
1121	-1.60857032958509E-03 
1122	-2.10920253245348E-04 
1123	-2.70322419014882E-03 
1124	-9.35760621856054E-04 
1125	 6.42360259025421E-03 
1126	 4.86251949381524E-03 
1127	 1.27655639685244E-03 
1128	 2.7068582416995E-03 
1129	 3.19306515259093E-03 
1130	 8.98429048152584E-04 
1131	 6.97035486066859E-04 
1132	 2.9282535880862E-03 
1133	 3.37855451995547E-03 
1134	 3.2049183374569E-03 
1135	 2.26041761507906E-03 
1136	 1.01175080850119E-03 
1137	 1.05595177725321E-03 
1138	 1.41892807202307E-03 
1139	-6.97750796482714E-04 
1140	-4.60407154480178E-04 
1141	 1.38719932030661E-03 
1142	-5.5376614189882E-05 
1143	-4.80883204605783E-04 
1144	 1.31554216166943E-03 
1145	-1.63732132323293E-04 
1146	-2.15358759599707E-03 
1147	-1.7973885893235E-03 
1148	-2.54530535762623E-03 
1149	-2.44098699310364E-03 
1150	-7.89534609824093E-04 
1151	 3.97169261542832E-03 
1152	 3.77851727668694E-03 
1153	 2.01593042143666E-03 
1154	 1.88663709253886E-03 
1155	 7.1624992149242E-04 
1156	 5.82180227312193E-05 
1157	 1.80673556613264E-03 
1158	 2.31834605506272E-03 
1159	 1.81736187688122E-03 
1160	 2.15818868629437E-03 
1161	 1.72912016967684E-03 
1162	 9.91289321648511E-04 
1163	 1.35013561526437E-03 
1164	 1.80095974559268E-03 
1165	 1.66873294873283E-03 
1166	 1.74091568611843E-03 
1167	 2.01579883092574E-03 
1168	 1.87462274859479E-03 
1169	 1.76735985145122E-03 
1170	 1.87585681593565E-03 
1171	 1.96492403931194E-03 
1172	 1.85654296036188E-03 
1173	 1.79526628730877E-03 
1174	 1.78290007532003E-03 
1175	 1.98820385839385E-03 
1176	 2.12165936673987E-03 
1177	 1.9834376866547E-03 
1178	 1.8275855510749E-03 
1179	 1.74715827556774E-03 
1180	 1.66424338253547E-03 
1181	 1.56246832407259E-03 
1182	 1.7704081211941E-03 
1183	 2.00550361067754E-03 
1184	 1.8588042956249E-03 
1185	 1.60031066152281E-03 
1186	 1.55698328903956E-03 
1187	 1.74708825959005E-03 
1188	 1.80409912680648E-03 
1189	 1.71386449909066E-03 
1190	 1.58588908886851E-03 
1191	 1.56348135243546E-03 
1192	 1.61386299409156E-03 
1193	 1.86212088822614E-03 
1194	 2.02978892394162E-03 
1195	 2.0923581283665E-03 
1196	 2.06526717745063E-03 
1197	 1.77780171727023E-03 
1198	 1.77040266017748E-03 
1199	 2.08073659064066E-03 
1200	 2.02869430329969E-03 
1201	 1.61195251915933E-03 
1202	 1.50179639094631E-03 
1203	 1.70611269725735E-03 
1204	 1.92491362745687E-03 
1205	 2.27380288974214E-03 
1206	 2.39164145016163E-03 
1207	 2.14688955069914E-03 
1208	 1.91120283760354E-03 
1209	 1.94955066562637E-03 
1210	 2.08622235310903E-03 
1211	 2.15251804800009E-03 
1212	 2.0905619379845E-03 
1213	 1.97102356815633E-03 
1214	 1.97196175459552E-03 
1215	 2.15383048070079E-03 
1216	 2.17582804417746E-03 
1217	 1.91692282960876E-03 
1218	 1.86503564922636E-03 
1219	 1.94893005287688E-03 
1220	 1.90578540250704E-03 
1221	 2.00711185833102E-03 
1222	 2.04091764033146E-03 
1223	 1.6196773534077E-03 
1224	 1.40522792631537E-03 
1225	 1.63696341441683E-03 
1226	 1.76355296688388E-03 
1227	 1.85174500170055E-03 
1228	 2.03318236397496E-03 
1229	 2.00555151404509E-03 
1230	 1.96022602638669E-03 
1231	 1.99498178528673E-03 
1232	 1.99616777817481E-03 
1233	 2.06695608513468E-03 
1234	 2.03646432255138E-03 
1235	 2.02282892043108E-03 
1236	 2.04801261233432E-03 
1237	 2.03574637469849E-03 
1238	 1.92763382841417E-03 
1239	 2.00232925447665E-03 
1240	 2.10779830329221E-03 
1241	 2.02105678747675E-03 
1242	 1.76673777238664E-03 
1243	 1.64583202355399E-03 
1244	 1.74999046943588E-03 
1245	 1.85856604685477E-03 
1246	 1.97317897815328E-03 
1247	 0.001925092865432 
1248	 1.79609137038836E-03 
1249	 1.82025207066734E-03 
1250	 1.82549955100672E-03 
1251	 1.95608387085312E-03 
1252	 2.16087287081722E-03 
1253	 1.93618528942158E-03 
1254	 1.87946422450055E-03 
1255	 2.2749060793207E-03 
1256	 2.32115755810717E-03 
1257	 2.0464654122674E-03 
1258	 2.01132910571634E-03 
1259	 1.98695957965227E-03 
1260	 1.92564320104053E-03 
1261	 1.92731277620933E-03 
1262	 2.06290071367909E-03 
1263	 2.36329203345007E-03 
1264	 2.35733854610843E-03 
1265	 2.26452252682863E-03 
1266	 2.22718992650304E-03 
1267	 2.08520068389835E-03 
1268	 1.67806810906243E-03 
1269	 1.60472003397822E-03 
1270	 1.91222263553023E-03 
1271	 1.81691992578866E-03 
1272	 1.72222027051176E-03 
1273	 2.02583079635924E-03 
1274	 1.94464003276104E-03 
1275	 1.69805899699055E-03 
1276	 1.83373728285854E-03 
1277	 1.89793145648392E-03 
1278	 1.95161034778145E-03 
1279	 1.94293514796146E-03 
1280	 1.76755202958874E-03 
1281	 1.75616491058296E-03 
1282	 1.62271063275808E-03 
1283	 1.54871832647256E-03 
1284	 1.73962612872164E-03 
1285	 1.77657300361886E-03 
1286	 0.001516526359242 
1287	 1.5172966485136E-03 
1288	 1.76328676541342E-03 
1289	 1.78311105783686E-03 
1290	 1.74022929616798E-03 
1291	 1.87916879258449E-03 
1292	 1.76754209811163E-03 
1293	 1.68910390952803E-03 
1294	 1.86632554542394E-03 
1295	 1.82143639325307E-03 
1296	 1.67844887868659E-03 
1297	 1.7083768416779E-03 
1298	 1.72509666778234E-03 
1299	 1.66497527607766E-03 
1300	 1.59690735099871E-03 
1301	 1.55544388559524E-03 
1302	 1.68628948302192E-03 
1303	 1.84998393002398E-03 
1304	 1.88703825348513E-03 
1305	 2.04509876605188E-03 
1306	 2.06962541504281E-03 
1307	 1.80853666244563E-03 
1308	 1.67401315222035E-03 
1309	 1.63894180926635E-03 
1310	 1.60697560571744E-03 
1311	 1.44904124715256E-03 
1312	 1.51279705964751E-03 
1313	 1.95260395009443E-03 
1314	 1.88184644172664E-03 
1315	 1.46427034468622E-03 
1316	 1.44522636611445E-03 
1317	 1.31593405906842E-03 
1318	 1.30938604815693E-03 
1319	 1.91663191071809E-03 
1320	 2.07495203778193E-03 
1321	 1.94127285292494E-03 
1322	 1.67024051283894E-03 
1323	 1.67795076830192E-03 
1324	 1.54711102375773E-03 
1325	 1.14847061191398E-03 
1326	 1.09285459951306E-03 
1327	 1.23396187455384E-03 
1328	 1.20155017499886E-03 
1329	 1.19197904656734E-03 
1330	 6.98847047276142E-04 
1331	 4.49753362289383E-04 
1332	 8.04646942731292E-04 
1333	 9.79091771810643E-04 
1334	 1.27070173899494E-03 
1335	 1.51387835933091E-03 
1336	 1.02358013736872E-03 
1337	 9.46965203039422E-04 
1338	 1.43253200694296E-03 
1339	 1.88491035265644E-03 
1340	 2.39925938732184E-03 
1341	 2.16491774296038E-03 
1342	 1.63786345872177E-03 
1343	 1.78155183667159E-03 
1344	 1.28476354510265E-03 
1345	 7.16229793506758E-04 
1346	 8.07473342278833E-04 
1347	 1.0025208130466E-03 
1348	 1.49995097571484E-03 
1349	 1.72472550272124E-03 
1350	 4.00511552515577E-03 
1351	 5.20913410890372E-03 
1352	-3.69191709797186E-03 
1353	-1.17644706613258E-02 
1354	-2.90533543591193E-02 
1355	-6.14368159652525E-03 
1356	 1.22282945964379E-03 
1357	-5.77090069838941E-02 
1358	-0.100442066365633 
1359	-0.183312443875552 
1360	-0.173854102883877 
1361	-2.77061268260212E-03 
1362	 4.11130687739403E-02 
1363	-8.62107410226226E-02 
1364	-0.156756345876693 
1365	-0.13140428291948 
1366	-6.84201879149794E-02 
1367	 1.12425022219426E-02 
1368	-1.39859030879309E-02 
1369	-0.301585357845126 
1370	-0.419314353697576 
1371	-0.448973819659061 
1372	-0.38318707625041 
1373	-0.286308864218315 
1374	-0.229154729870382 
1375	-7.11638642441322E-02 
1376	-8.57360515596048E-02 
1377	-0.197502817882966 
1378	-0.246046064775317 
1379	-0.385574994818057 
1380	-0.376622553194047 
1381	-0.27307656695596 
1382	-0.221825172021673 
1383	-4.66333647156882E-02 
1384	-5.83150405547449E-02 
1385	-0.345977325167697 
1386	-0.39596400048332 
1387	-0.365274832325526 
1388	-0.40501570754466 
1389	-0.261070258353242 
1390	-0.18159847705526 
1391	-0.18078412826116 
1392	-0.233500114804044 
1393	-0.253441195128325 
1394	-0.286716031620854 
1395	-0.233238484815449 
1396	-0.183486925258024 
1397	-0.121702069473071 
1398	-7.35066812664229E-02 
1399	-0.145230640128395 
1400	-0.303447492694136 
1401	-0.611937582822279 
1402	-0.520191530655324 
1403	-0.11616280129071 
1404	-5.95449713312827E-02 
1405	-0.113492428950887 
1406	-0.495788188761979 
1407	-0.209580854031185 
1408	 0.209047394219927 
1409	 0.045142739083868 
1410	-0.128674707691996 
1411	-0.075006414905678 
1412	-0.164333774956347 
1413	-0.226722353562828 
1414	-0.072416950331383 
1415	 2.33321523835912E-02 
1416	-6.15126578908659E-03 
1417	-5.30007709204556E-02 
1418	-4.58418027273038E-02 
1419	 1.01996349942505E-02 
1420	 1.64382866788399E-02 
1421	-1.43418684175073E-02 
1422	 1.72818069672642E-03 
1423	 1.35370714736636E-02 
1424	-3.17224542564218E-02 
1425	-3.69336782952943E-02 
1426	 1.33732584473163E-02 
1427	 1.66436709326129E-02 
1428	-0.014647806594505 
1429	-1.84107105309769E-02 
1430	-5.76372976611398E-03 
1431	-1.37944712856272E-02 
1432	-4.20503489196343E-02 
1433	-4.22669244453741E-02 
1434	-3.00327184732611E-02 
1435	-2.99483161659059E-02 
1436	-2.03443582579388E-02 
1437	-7.76261378810179E-03 
1438	-6.67961647132071E-03 
1439	-1.13668042277989E-02 
1440	-1.19019676268101E-03 
1441	 1.46064583535336E-02 
1442	 1.45940299235727E-02 
1443	 5.01193544052078E-03 
1444	-2.15272481796812E-03 
1445	-4.69228973748864E-04 
1446	 2.07424147668991E-03 
1447	-1.83512605945671E-03 
1448	-4.45412846119627E-03 
1449	-4.51550897911572E-03 
1450	-3.5225806839863E-03 
1451	-1.10792905954122E-03 
1452	 1.90277269126977E-03 
1453	 3.46380351904501E-03 
1454	 2.86948239322483E-03 
1455	 8.82796284314364E-04 
1456	 1.11353901602272E-03 
1457	 1.05898218130499E-03 
1458	 5.58809021241437E-04 
1459	 1.24244763117214E-03 
1460	 1.01173070265382E-03 
1461	-9.54268284304547E-04 
1462	-1.79327341743508E-03 
1463	-1.63541901138504E-03 
1464	-1.5853639982186E-03 
1465	-2.1309884577964E-03 
1466	-2.2595913086691E-03 
1467	-9.95707705983645E-04 
1468	-1.40692838213164E-03 
1469	-3.68360347279993E-03 
1470	-3.10886736267895E-03 
1471	-1.04213686617197E-03 
1472	-1.48553127740524E-03 
1473	-2.16415596114347E-03 
1474	-1.13225988693406E-03 
1475	-8.84152714134529E-04 
1476	-8.67613444641315E-04 
1477	 1.19842781149543E-03 
1478	 1.51577716528753E-03 
1479	-9.28646287956743E-05 
1480	-7.75657362249778E-04 
1481	-1.59847254387088E-03 
1482	-1.36605226365787E-03 
1483	-3.54336506425932E-04 
1484	-1.86582555005981E-04 
1485	 3.62466896606755E-04 
1486	 3.6906349199112E-04 
1487	-8.15717848164409E-04 
1488	-8.08688413696422E-04 
1489	-1.83876803941689E-04 
1490	 1.41000814153903E-04 
1491	 6.66996131328858E-04 
1492	 1.02579435277245E-03 
1493	 1.23016457702951E-03 
1494	 1.39966620639497E-03 
1495	 0.001868659120718 
1496	 1.78083875312244E-03 
1497	 9.80722062976837E-04 
1498	 8.92422748565627E-04 
1499	 1.16106560348349E-03 
1500	 1.05675246824278E-03 
1501	 1.01379780087584E-03 
1502	 1.0646118695292E-03 
1503	 9.3079182804923E-04 
1504	 7.65983404754749E-04 
1505	 5.79098345352907E-04 
1506	 6.98037634233957E-04 
1507	 9.66723842376106E-04 
1508	 7.46133520188601E-04 
1509	 5.05355922606622E-04 
1510	 9.02031528474734E-04 
1511	 1.21221267933402E-03 
1512	 9.87619720406149E-04 
1513	 8.29227096138658E-04 
1514	 9.3448174149201E-04 
1515	 1.03928017165258E-03 
1516	 1.05979658001464E-03 
1517	 1.1115431462051E-03 
1518	 1.19068051947239E-03 
1519	 9.76734404683356E-04 
1520	 7.43528384614549E-04 
1521	 8.39980639007576E-04 
1522	 8.95531733362118E-04 
1523	 8.54640560659907E-04 
1524	 9.82885425999483E-04 
1525	 1.07266694763482E-03 
1526	 9.84584050945631E-04 
1527	 1.03439340697628E-03 
1528	 1.15749564893622E-03 
1529	 1.02921236541654E-03 
1530	 8.87480229400342E-04 
1531	 8.9592887823765E-04 
1532	 9.83458587063609E-04 
1533	 1.23690620834594E-03 
1534	 1.35187600855189E-03 
1535	 1.26942273664099E-03 
1536	 1.14880790004321E-03 
1537	 9.22430378467148E-04 
1538	 9.09075063600212E-04 
1539	 1.04334972351344E-03 
1540	 1.05936787353271E-03 
1541	 1.19802651653053E-03 
1542	 1.35006581323942E-03 
1543	 1.31371948474754E-03 
1544	 1.27623163495683E-03 
1545	 1.28544927242802E-03 
1546	 1.20517059678896E-03 
1547	 1.03350124090763E-03 
1548	 1.11109770511697E-03 
1549	 1.32554284160209E-03 
1550	 1.21204286036996E-03 
1551	 1.14135205900401E-03 
1552	 1.23959360574107E-03 
1553	 1.14927109448483E-03 
1554	 1.19625347692822E-03 
1555	 1.40827000094982E-03 
1556	 1.28798372906096E-03 
1557	 1.19101228858882E-03 
1558	 1.34843206405009E-03 
1559	 1.22202902736988E-03 
1560	 1.06111984487493E-03 
1561	 1.2366830627387E-03 
1562	 1.33857732327765E-03 
1563	 1.20585698848186E-03 
1564	 1.08358924907301E-03 
1565	 1.06304030369218E-03 
1566	 1.07343426285909E-03 
1567	 1.12336189964409E-03 
1568	 1.26451495595978E-03 
1569	 0.001227372095993 
1570	 9.01790112574228E-04 
1571	 7.8804966220901E-04 
1572	 9.81435111303343E-04 
1573	 1.05818515965306E-03 
1574	 8.08773007965308E-04 
1575	 5.69179285967803E-04 
1576	 6.47688927441614E-04 
1577	 8.79960598501135E-04 
1578	 1.07478646205899E-03 
1579	 1.17919916542605E-03 
1580	 1.22981871376791E-03 
1581	 1.25807305369938E-03 
1582	 1.33814563642979E-03 
1583	 1.35754966559541E-03 
1584	 1.39289350672789E-03 
1585	 1.44893382818442E-03 
1586	 1.37879143226641E-03 
1587	 1.30340414601436E-03 
1588	 1.27597066536695E-03 
1589	 1.28655625994839E-03 
1590	 1.18352467839337E-03 
1591	 1.30262010242916E-03 
1592	 1.62265339791317E-03 
1593	 1.47442577049017E-03 
1594	 1.25380299016836E-03 
1595	 1.39188883830959E-03 
1596	 1.4044885806208E-03 
1597	 1.29792633614123E-03 
1598	 1.36518330284703E-03 
1599	 1.32222570682555E-03 
1600	 1.06320517944658E-03 
1601	 9.3229202167929E-04 
1602	 1.11020626955688E-03 
1603	 1.18643009284296E-03 
1604	 1.06186203786994E-03 
1605	 1.04380142178993E-03 
1606	 9.9925820656083E-04 
1607	 9.32378003994015E-04 
1608	 1.02742409337135E-03 
1609	 1.07585767361029E-03 
1610	 8.05385537845969E-04 
1611	 6.66366559460049E-04 
1612	 8.94741525075885E-04 
1613	 1.02927846060217E-03 
1614	 1.03394785133804E-03 
1615	 1.04042691951412E-03 
1616	 1.0396931601588E-03 
1617	 1.13351109408151E-03 
1618	 1.24889041984689E-03 
1619	 1.03548200192225E-03 
1620	 8.54591006182273E-04 
1621	 9.31115252611259E-04 
1622	 9.20751811694836E-04 
1623	 1.17338997869079E-03 
1624	 1.21339454915729E-03 
1625	 7.69561425420233E-04 
1626	 6.74578228352243E-04 
1627	 8.57614784141504E-04 
1628	 9.56884116669501E-04 
1629	 9.66561484750984E-04 
1630	 1.14661525911896E-03 
1631	 1.3200050887772E-03 
1632	 1.17887327205054E-03 
1633	 1.12661037657505E-03 
1634	 1.17906075872085E-03 
1635	 1.15547859316253E-03 
1636	 1.11406506158718E-03 
1637	 9.78780141401482E-04 
1638	 9.12459837832462E-04 
1639	 8.40607183513849E-04 
1640	 4.890109682491E-04 
1641	 4.21408507914233E-04 
1642	 5.47751321542716E-04 
1643	 3.57881116264933E-04 
1644	 5.04827770332127E-04 
1645	 8.8039973902591E-04 
1646	 9.53045690024736E-04 
1647	 1.08677335329233E-03 
1648	 1.24097432378598E-03 
1649	 1.07050567410264E-03 
1650	 9.05019478887923E-04 
1651	 9.62185155997139E-04 
1652	 1.05287455759174E-03 
1653	 1.35074259677478E-03 
1654	 1.20499814264165E-03 
1655	 4.92519184527637E-04 
1656	 4.6378060692212E-04 
1657	 6.66077032119882E-04 
1658	 7.34385631505395E-04 
1659	 1.12056240464222E-03 
1660	 1.24432140532346E-03 
1661	 1.06664443224796E-03 
1662	 1.06985771357447E-03 
1663	 1.34611420829254E-03 
1664	 1.45237598770303E-03 
1665	 1.29756310596828E-03 
1666	 1.02574865044086E-03 
1667	 6.83705964808716E-04 
1668	 1.00444480418131E-03 
1669	 8.74775430765568E-04 
1670	 8.55495002081152E-04 
1671	 1.05131475317571E-03 
1672	 7.52035321847427E-04 
1673	 6.14122471875164E-04 
1674	 1.24760400731037E-03 
1675	 1.28682964144376E-03 
1676	 8.02979343469264E-04 
1677	 7.8504888997431E-04 
1678	 7.52326040242988E-04 
1679	 7.3066172914707E-04 
1680	 1.00796177506503E-03 
1681	 1.26007584271615E-03 
1682	 1.20296935249655E-03 
1683	 8.94419983713887E-04 
1684	 7.18870716099052E-04 
1685	 8.26202011431825E-04 
1686	 8.95527655002432E-04 
1687	 8.94634089378957E-04 
1688	 1.07948520854195E-03 
1689	 9.95967175744177E-04 
1690	 5.5098726448615E-04 
1691	 5.90214310022484E-04 
1692	 6.70256257831537E-04 
1693	 5.5143266061667E-04 
1694	 8.62553544074982E-04 
1695	 8.3938380123011E-04 
1696	 4.70623025781161E-04 
1697	 4.40383262930007E-04 
1698	 3.0682370215413E-04 
1699	 5.59026850693337E-04 
1700	 1.23457182472344E-03 
1701	 9.68860104460108E-04 
1702	 5.17568024928508E-04 
1703	 6.51348381654212E-04 
1704	 3.44499284436462E-04 
1705	 1.35766059078045E-04 
1706	 6.20867095297809E-04 
1707	 8.13989714515038E-04 
1708	 7.07742016227187E-04 
1709	 8.00562414821186E-04 
1710	 7.92949964675033E-04 
1711	 4.57958911176099E-04 
1712	 4.76765703112457E-05 
1713	 0.000454622829188 
1714	 6.93580381059543E-04 
1715	 7.97546848013999E-04 
1716	 3.33979840120585E-04 
1717	 3.2584597518605E-04 
1718	 4.04456318433511E-04 
1719	 3.99024273698249E-04 
1720	 5.16520672484981E-04 
1721	 2.0383765275812E-04 
1722	-1.58478488935035E-05 
1723	 4.35145047430622E-04 
1724	 9.64778155771463E-04 
1725	 8.80035228439566E-04 
1726	 2.14383848164245E-04 
1727	 9.4859443578309E-05 
1728	 4.52371158910244E-04 
1729	 9.31805327943022E-04 
1730	 1.11622098634918E-03 
1731	 3.17309217106655E-04 
1732	-1.76267639237111E-04 
1733	-1.60797066862146E-05 
1734	 6.68720089415312E-05 
1735	 7.10008748128562E-04 
1736	 8.86942049852841E-04 
1737	-3.66823881501455E-05 
1738	-1.80035510942052E-04 
1739	-1.33168315714468E-04 
1740	-1.15159657927691E-04 
1741	 7.5239451687802E-04 
1742	 1.1640232682107E-03 
1743	 1.22437660983739E-03 
1744	 1.05119889792592E-03 
1745	 4.41455243779556E-04 
1746	 9.10150609588538E-04 
1747	 8.28980472292628E-04 
1748	 5.3766930220057E-04 
1749	 5.57423441913307E-04 
1750	 1.53084057319093E-04 
1751	-2.33622999830175E-05 
1752	 2.96962692377815E-04 
1753	 4.12975326258489E-04 
1754	 6.60815415430312E-04 
1755	 6.58117756171887E-04 
1756	 4.46856464991543E-04 
1757	 1.30624325884302E-04 
1758	-5.53224793813073E-04 
1759	-6.55549738195118E-04 
1760	 1.31132746396229E-04 
1761	 5.84668700609546E-04 
1762	 7.97821179857021E-04 
1763	 1.00373972430397E-03 
1764	 4.2825854378249E-04 
1765	-1.83360832664469E-04 
1766	-2.72178606096881E-04 
1767	-3.0930588111926E-04 
1768	-5.6105565745323E-04 
1769	-9.83079268704248E-04 
1770	-7.18838478930549E-04 
1771	-6.45798520375086E-04 
1772	-1.0810607051834E-03 
1773	-3.50368263717658E-04 
1774	-1.99864899298215E-04 
1775	-5.81295407238632E-04 
1776	-4.27199155247503E-04 
1777	-8.68772213548006E-04 
1778	-1.24547990378584E-03 
1779	-8.49935934625358E-04 
1780	-1.25359303353004E-03 
1781	-3.08992721271542E-03 
1782	-2.9443497510819E-03 
1783	-1.38322003981904E-03 
1784	-5.93543430665581E-04 
1785	 1.84453465560081E-03 
1786	 1.47974422754336E-03 
1787	-1.99885030864206E-03 
1788	-2.64035059279709E-03 
1789	-3.48422755184814E-03 
1790	-2.00447782176144E-03 
1791	-1.60694169048124E-03 
1792	-5.5972020196929E-03 
1793	-6.5899067885897E-03 
1794	-5.57616560747755E-03 
1795	-8.81799406324158E-03 
1796	-9.56165539562889E-03 
1797	-9.54620269292963E-03 
1798	-1.30237423075919E-02 
1799	-7.46805028122387E-03 
1800	-7.65392811530504E-03 
1801	-1.02519041677953E-02 
1802	-2.54555765905094E-02 
1803	-3.15944982393853E-02 
1804	-2.28118205556495E-02 
1805	-1.86780891410424E-02 
1806	 1.04639702652863E-03 
1807	-3.25263268398063E-03 
1808	-5.80705321104406E-02 
1809	-8.98590544450308E-02 
1810	-0.146194191775508 
1811	-0.176274104789469 
1812	-4.72463810101657E-02 
1813	-8.55772691714574E-02 
1814	-0.294068337335415 
1815	-0.37970106919081 
1816	-0.622509628230235 
1817	-0.379880452811073 
1818	-0.065421068506153 
1819	 9.34412778192532E-02 
1820	 0.483865387396728 
1821	 0.111950943125836 
1822	-0.161890244594119 
1823	-0.493559086781843 
1824	-0.69738057295904 
1825	-0.916303355011945 
1826	-1.05324439433994 
1827	-2.76226348906664 
1828	-3.09065366104367 
1829	-0.490808819273821 
1830	-0.222013438230296 
1831	 2.97038289214814 
1832	 2.35477024281389 
1833	-1.26384518943582 
1834	 30.2303792227569 
1835	 2.16038947356128 
1836	 2.37488407675625 
1837	 1.82617265568767 
1838	 1.81792596777531 
1839	 4.35877806814844 
1840	-10.589838573607 
1841	-2.91794883038508 
1842	-0.735242075120261 
1843	-0.526793992559894 
1844	-0.97229930563827 
1845	-0.541341420323725 
1846	-645.917431231182 
1847	 0.118151217701643 
1848	 1.67769653874839 
1849	 1.88877208045065 
1850	 1.91118504416016 
1851	 1.322976623283 
1852	 0.905420917346445 
1853	-0.247765574243829 
1854	-0.558841061341627 
1855	-1.40920984061474 
1856	-2.40177765662316 
1857	 4.69475507631771 
1858	 0.494266578225511 
1859	-0.42423923849449 
1860	-0.496646919147004 
1861	-0.718157915702504 
1862	 1.31271543032131 
1863	 1.02897423288705 
1864	 1.36041719509969 
1865	 1.20228117562105 
1866	 0.445276967424288 
1867	 0.560227244102449 
1868	 0.963957624332038 
1869	 1.13636417824036 
1870	 1.84783192477416 
1871	-9.71208848674044 
1872	-2.7821698200626 
1873	-0.830334805484944 
1874	-2.84456770651649 
1875	 0.881412774879817 
1876	 1.14018361795449 
1877	-2.66594568117533 
1878	-3.18296363274621 
1879	-1.20751532336914 
1880	-0.870852186586016 
1881	 2.43011241194053 
1882	 1.52946632001183E-02 
1883	-1.56709403579369 
1884	 1.7947848796518 
1885	-0.831736361949636 
1886	-2.62433759512268 
1887	 1.8347551423809 
1888	 1.01515033334864 
1889	 0.718747549963618 
1890	-0.188562145154694 
1891	-0.151100249200577 
1892	-1.47704386377116 
1893	-0.242776724223734 
1894	-1.47570935905055 
1895	 0.295781835695662 
1896	-3.20599299142902 
1897	-0.981705470291153 
1898	-8.38206327581058E-02 
1899	-6.29862712253228 
1900	-4.68022784732412 
1901	-6.26791753703417 
1902	-16.0556382094098 
1903	 0.831295291832356 
1904	 0.692962605154273 
1905	-0.451569411299937 
1906	-2.50503421376287 
1907	-18.0683418120183 
1908	 0.432333820240774 
1909	-1.55005225246825 
1910	-29.4564307145528 
1911	 0.90351515218491 
1912	 1.05409974795234 
1913	 1.23182146823286 
1914	 1.64426395481905 
1915	 1.57800525452763 
1916	 2.26351311661283 
1917	 1.47374398326188 
1918	 9.49222887982852E-02 
1919	-2.5323640741159 
1920	-3.27333803131833 
1921	-0.619457428127711 
1922	-0.260310023579075 
1923	-0.171880975944112 
1924	-0.167749379834889 
1925	 0.172112996473478 
1926	 0.546479328486969 
1927	 1.46312255903691 
1928	 3.98948597813194 
1929	-2.30235636932293 
1930	-0.68117854578716 
1931	 4.96628395664628E-02 
1932	 0.335968803284322 
1933	 0.529908504641295 
1934	 0.255561265227479 
1935	 9.04167435892874E-02 
1936	 0.174125586587318 
1937	 0.342461251044481 
1938	 0.360173660985924 
1939	 0.286211603242356 
1940	 0.225646577344613 
1941	 0.100598262478644 
1942	-6.10803374145026E-04 
1943	-1.26130466707332E-02 
1944	-3.76823213438867E-02 
1945	-1.19843570813009E-02 
1946	 6.25071118257137E-03 
1947	 1.18374877997554E-02 
1948	 5.12622874794719E-02 
1949	 0.069423297756835 
1950	 7.47324939079544E-02 
1951	 2.66698870250503E-02 
1952	-8.70552494241313E-03 
1953	-6.22771747202091E-02 
1954	-7.62326940062968E-02 
1955	-0.07133909255017 
1956	-2.90190999339809E-02 
1957	 1.41048511315353E-03 
1958	 3.80849626705617E-03 
1959	 1.56539791201154E-03 
1960	-9.42397263173866E-03 
1961	-1.05071655151935E-02 
1962	-7.68477941185857E-03 
1963	-4.78831502418616E-03 
1964	 7.69943801229339E-04 
1965	-2.16760812002765E-03 
1966	-2.06135335280295E-03 
1967	-1.15599770058384E-03 
1968	-6.23000092512107E-05 
1969	-3.1993026676331E-03 
1970	-1.96764616119365E-03 
1971	-5.77496138973098E-04 
1972	-3.08343085699952E-03 
1973	-3.53688595018723E-03 
1974	-2.77971993800919E-03 
1975	-2.81235064836379E-03 
1976	-1.80715612838368E-03 
1977	-8.83771340327184E-04 
1978	-2.33593050705581E-04 
1979	 4.65620683473837E-04 
1980	 1.0591090990532E-03 
1981	 1.09081237661427E-03 
1982	 4.80899901705696E-04 
1983	 1.00757174114088E-03 
1984	 2.0411187755674E-03 
1985	 1.6695855120958E-03 
1986	 2.22808719767107E-03 
1987	 2.42692771486146E-03 
1988	 7.22165682952182E-04 
1989	 8.08485508545369E-04 
1990	 6.23615466274091E-04 
1991	-8.03627516105694E-04 
1992	 6.73490802089992E-04 
1993	 1.67419167510581E-03 
1994	 1.51034045861186E-03 
1995	 1.09367783353092E-03 
1996	 2.39323011673208E-03 
1997	 2.09458172694521E-06 
1998	-3.79201968951285E-03 
1999	-3.60248809960935E-03 
2000	-1.64857540760214E-03 
2001	-1.17256915915146E-04 
2002	 1.32751984403834E-03 
2003	 2.38736205347747E-03 
2004	 6.67505803173131E-05 
2005	-3.05518953961566E-03 
2006	-3.07793009802514E-03 
2007	 3.26273850320419E-04 
2008	 2.00388222854064E-03 
2009	 1.80538980631566E-03 
2010	 9.51503295888798E-04 
2011	 1.4732350742285E-03 
2012	 9.98319245815123E-05 
2013	-8.70775196633387E-05 
2014	 1.85252619056512E-03 
2015	 2.08830965739429E-03 
2016	 5.75827768003602E-04 
2017	-4.50426052199693E-04 
2018	 6.81013773475752E-04 
2019	 1.72278082399742E-03 
2020	 3.38745906795018E-03 
2021	 4.58753061729412E-03 
2022	 4.65235164704654E-03 
2023	 3.76250332462058E-03 
2024	 2.99435825286171E-03 
2025	 2.05986161113905E-03 
2026	 1.21078515376415E-03 
2027	-2.62275131679894E-05 
2028	-7.59811905364551E-04 
2029	-5.96934325476565E-04 
2030	-6.52678605012728E-04 
2031	-4.86321657749758E-04 
2032	 1.98728229607268E-04 
2033	 6.23640294198177E-04 
2034	 7.08233736500746E-04 
2035	 1.39373486837792E-03 
2036	 1.52437933216448E-03 
2037	 1.47629341322993E-03 
2038	 1.09061950953656E-03 
2039	 7.55269972224431E-04 
2040	 7.88403247486875E-05 
2041	-3.10647486613699E-05 
2042	 4.93669629463524E-04 
2043	 4.31187448723149E-04 
2044	 1.73316166361053E-04 
2045	-2.0164018908766E-04 
2046	-5.66628322339207E-04 
2047	-1.27312281688318E-03 
2048	-7.73582110777928E-04 
2049	-2.58337133412575E-04 
2050	 4.74567044289769E-04 
2051	 8.28283016880317E-04 
2052	 1.14093922919177E-03 
2053	 1.94980513833165E-03 
2054	 1.97056577326083E-03 
2055	 2.64587170771443E-03 
2056	 2.06535531466433E-03 
2057	-6.43275111666416E-04 
2058	-1.36034805104266E-03 
2059	-1.85841263296687E-03 
2060	-1.91715590464052E-03 
2061	-7.58306641125566E-04 
2062	 5.52655690130709E-04 
2063	 2.9891887583494E-04 
2064	-1.26963908999467E-04 
2065	 4.54298788427175E-04 
2066	 7.54025101936629E-04 
2067	 1.42435455613324E-03 
2068	 2.83679931772747E-03 
2069	 2.5031756806528E-03 
2070	 1.85349260215225E-03 
2071	 1.54239658921808E-03 
2072	 7.01076835945155E-04 
2073	 4.84326942957111E-04 
2074	 4.21443393922647E-04 
2075	 6.05618184817203E-04 
2076	 1.60785766326502E-03 
2077	 1.66244240688488E-03 
2078	 1.30782072102182E-03 
2079	 1.33924442620895E-03 
2080	 1.4278194354382E-03 
2081	 6.72439447928586E-04 
2082	 4.54330917321238E-04 
2083	 9.44798980358382E-04 
2084	 9.83807663875834E-04 
2085	 9.72643696284048E-04 
2086	 1.42303738697581E-03 
2087	 1.90941226473329E-03 
2088	 2.49268079867964E-03 
2089	 3.30434222575981E-03 
2090	 3.08737654960799E-03 
2091	 2.11560338846397E-03 
2092	 1.78026092051064E-03 
2093	 9.18644211723167E-04 
2094	 4.13368515525348E-04 
2095	 9.63217915326652E-04 
2096	 8.39202214898051E-04 
2097	-4.29898202062887E-04 
2098	-5.83980020169836E-04 
2099	-6.78989280839429E-05 
2100	 3.13158434535932E-04 
2101	 3.89040925528597E-04 
2102	 1.07892130418581E-03 
2103	 9.759303473371E-04 
2104	 7.21988302515545E-04 
2105	 3.31441676054712E-04 
2106	-1.23032688432112E-04 
2107	 2.97643179417924E-04 
2108	-1.41281263671641E-04 
2109	-2.40019266593879E-04 
2110	 5.21803149408392E-04 
2111	 9.89058253662851E-04 
2112	 1.89760215156072E-03 
2113	 1.85684647692876E-03 
2114	 9.48278385173537E-04 
2115	 6.09316961103558E-04 
2116	 1.92832839911595E-04 
2117	-4.25666704070748E-04 
2118	-1.0469294335559E-03 
2119	-1.02899634379081E-03 
2120	-8.07165704938567E-04 
2121	-1.41813048177695E-03 
2122	-6.67867509659562E-04 
2123	 5.65894520541616E-04 
2124	 6.23677937825085E-04 
2125	 5.62275198671694E-04 
2126	 2.50433453193125E-05 
2127	-6.73588167617289E-04 
2128	-5.30998156495289E-04 
2129	-8.66436990709133E-04 
2130	-1.51197223417356E-03 
2131	-1.77744785429943E-03 
2132	-1.73557597660203E-03 
2133	-1.12702901312816E-03 
2134	-8.96267367998918E-04 
2135	-2.27277425591564E-04 
2136	 2.99564623501312E-04 
2137	 3.22643530399295E-04 
2138	 1.50340526793386E-04 
2139	 2.8852321701146E-04 
2140	 3.6629987896532E-04 
2141	-5.48058845692526E-04 
2142	-1.84530099597308E-04 
2143	 1.57035048773403E-03 
2144	 2.16436338405799E-03 
2145	 1.49483774090256E-03 
2146	 2.09606960825442E-03 
2147	 1.95199660662308E-03 
2148	 2.1902228207876E-04 
2149	-4.85667641051607E-04 
2150	-6.82960944841126E-04 
2151	-1.62010585983401E-03 
2152	-2.29485092721753E-03 
2153	-2.27135532060375E-03 
2154	-1.62566159328379E-03 
2155	-7.22543859358136E-04 
2156	 9.0802861610859E-05 
2157	 1.80271037112956E-04 
2158	-6.06532300520161E-04 
2159	-5.48684386144798E-04 
2160	-2.44684251523316E-04 
2161	-5.01028651716519E-04 
2162	-9.09628183660928E-05 
2163	-2.19737977150153E-04 
2164	-2.26678512620753E-03 
2165	-2.52900962124209E-03 
2166	-1.26470829966514E-03 
2167	-8.96917603639358E-04 
2168	 2.04318812524053E-05 
2169	-7.56611625763544E-05 
2170	-1.51446571195006E-03 
2171	-1.94785620541242E-03 
2172	-1.96906819035157E-03 
2173	-1.82260387495748E-03 
2174	-5.29796658726346E-04 
2175	 5.08977432768125E-04 
2176	 8.60176966244726E-04 
2177	 1.24160974408015E-03 
2178	 1.35588591064027E-03 
2179	 3.90459463570606E-04 
2180	 4.26969991668289E-04 
2181	 4.874177998655E-04 
2182	-8.62463784264214E-04 
2183	-9.02148198897787E-04 
2184	-4.62023437432845E-04 
2185	-1.71547757197563E-04 
2186	-4.25475303053752E-04 
2187	-4.37776576783569E-04 
2188	-4.77668247370971E-04 
2189	-1.9748327163201E-03 
2190	-1.6579675295964E-03 
2191	 1.6750460297234E-03 
2192	 2.55515014016086E-03 
2193	 1.76553842618027E-03 
2194	 2.10616841067311E-03 
2195	 2.00851283997498E-03 
2196	 1.67316214886048E-03 
2197	 2.18589429215232E-03 
2198	 2.66231829723725E-03 
2199	 2.75267366051579E-03 
2200	 2.32956624509154E-03 
2201	 2.15107085942598E-03 
2202	 1.80735041643018E-03 
2203	 1.89136257891112E-04 
2204	-9.10698774783611E-04 
2205	 8.32976378082007E-05 
2206	 1.54158449363683E-03 
2207	 2.62987521101131E-03 
2208	 2.39079417086661E-03 
2209	 1.7156609185409E-03 
2210	 1.1678894608962E-03 
2211	 1.90594871087851E-03 
2212	 3.60537076845122E-03 
2213	 4.0241006591473E-03 
2214	 3.85858154465301E-03 
2215	 2.90145351865986E-03 
2216	 2.49556690103008E-03 
2217	 2.09899638842151E-03 
2218	 2.2994659867777E-03 
2219	 1.84901126720429E-03 
2220	 9.71854602991954E-05 
2221	 1.0489774734724E-04 
2222	 1.85192932154167E-03 
2223	 1.99112396665677E-03 
2224	 1.48055045433359E-03 
2225	 2.02999650912504E-03 
2226	 3.31086603384243E-03 
2227	 2.53710153801655E-03 
2228	 1.31913137400348E-03 
2229	 1.3667056224396E-03 
2230	-1.06024165141098E-03 
2231	-1.62115259703937E-03 
2232	 1.43045846078218E-03 
2233	 1.98338808434888E-03 
2234	 1.26437632935731E-03 
2235	 1.81098185505814E-03 
2236	 6.9876296729762E-04 
2237	-3.81909820036052E-04 
2238	-1.05204225248535E-03 
2239	-2.31056596195988E-03 
2240	-2.79575674538463E-03 
2241	-7.15157490414519E-04 
2242	 5.78363791622606E-04 
2243	 1.06047910219051E-03 
2244	 2.88082119268905E-03 
2245	 3.10473345214978E-03 
2246	 4.24583841054297E-03 
2247	 4.63100144181759E-03 
2248	 3.05467173252463E-03 
2249	 1.26789019710596E-03 
2250	-1.73344694627969E-03 
2251	-2.83717170796764E-03 
2252	-2.42280111319354E-03 
2253	-1.81618529426992E-03 
2254	-9.9883720421311E-04 
2255	-1.64409391181018E-03 
2256	-1.95317547227313E-03 
2257	-2.11500609691433E-03 
2258	-8.69669428265887E-04 
2259	 2.69910036484025E-03 
2260	 2.62383492282977E-03 
2261	-6.26723661119735E-04 
2262	-8.76553448680077E-04 
2263	-2.2116361218852E-03 
2264	-2.68684408832745E-03 
2265	 8.12830188756052E-05 
2266	 3.22984350027962E-04 
2267	-9.66388818231861E-04 
2268	-1.52668778187033E-03 
2269	-2.87089801171097E-03 
2270	-3.62887929300203E-03 
2271	-3.75658619142253E-03 
2272	-4.43237796020642E-03 
2273	-4.48241551864902E-03 
2274	-4.82571309653848E-03 
2275	-7.22301154150659E-03 
2276	-7.53146324884708E-03 
2277	-6.18004017812411E-03 
2278	-5.93728551853028E-03 
2279	-5.0969054377778E-03 
2280	-4.3563515804726E-03 
2281	-4.44072950831348E-03 
2282	-3.61408436777083E-03 
2283	-4.18708815673165E-03 
2284	-5.86340731104231E-03 
2285	-7.71761195118854E-03 
2286	-9.66988869410532E-03 
2287	-1.05524274258653E-02 
2288	-6.94770746873537E-03 
2289	-3.59193684328247E-03 
2290	-4.94013573795362E-03 
2291	-4.32625507168425E-03 
2292	-7.31073639028388E-04 
2293	 6.48122505437926E-04 
2294	-9.35689874078121E-04 
2295	-9.45297094298054E-04 
2296	-1.5106899346632E-03 
2297	-2.98093998340248E-03 
2298	 4.80019217648882E-04 
2299	 4.42462651645926E-03 
2300	 4.19577477236899E-03 
2301	 0.003644138992854 
2302	 3.86740299765986E-03 
2303	 1.9591267122848E-03 
2304	-6.8356551453978E-05 
2305	-4.00322363524781E-03 
2306	-5.95091971127996E-03 
2307	-3.16373537401217E-03 
2308	-3.18321434297721E-03 
2309	-1.62045685013243E-03 
2310	 1.63027288230138E-03 
2311	 3.71663946135951E-03 
2312	 3.99657780193404E-03 
2313	 4.08767367656937E-03 
2314	 7.16860763586614E-03 
2315	 6.17343933367571E-03 
2316	 5.66709224840054E-03 
2317	 9.23009827128518E-03 
2318	 9.46664468269451E-03 
2319	 8.98683132099269E-03 
2320	 9.52266654624749E-03 
2321	 6.37483422943638E-03 
2322	 2.52935809360375E-03 
2323	-1.78881525050101E-04 
2324	-2.06414839692128E-03 
2325	-2.85072018406509E-04 
2326	-3.38464345277535E-03 
2327	-1.01995087590324E-02 
2328	-1.10168501397882E-02 
2329	-6.70004355153896E-03 
2330	-3.85867722297195E-03 
2331	-4.2756377811346E-03 
2332	-4.17192502055388E-03 
2333	-7.89536162108669E-03 
2334	-8.63391124016984E-03 
2335	-1.60146152929478E-03 
2336	 1.80382666048893E-03 
2337	 1.25972183829891E-03 
2338	 1.76731641606313E-03 
2339	-1.67644725795156E-03 
2340	-7.22032955012166E-03 
2341	-2.56459318802925E-03 
2342	-4.80869768914176E-04 
2343	-9.4316587373689E-03 
2344	-1.60937416555394E-02 
2345	-1.80012259437595E-02 
2346	-1.61764118113545E-02 
2347	-1.00475055932921E-02 
2348	 5.17837797556926E-04 
2349	 3.05096536091355E-03 
2350	-3.69684491938703E-03 
2351	 3.0015885585955E-03 
2352	 1.35236043205105E-02 
2353	 9.89868905430606E-03 
2354	 8.54322516626723E-03 
2355	 3.54915604442502E-03 
2356	-9.2405904051517E-03 
2357	-1.43910171537201E-02 
2358	-0.019995743214894 
2359	-2.31759269459217E-02 
2360	-1.45105086610567E-02 
2361	-1.00912716680141E-02 
2362	-6.43376996810538E-03 
2363	-2.91845268853349E-03 
2364	-1.94645226100683E-02 
2365	-2.64126128991877E-02 
2366	-2.37348477366878E-02 
2367	-2.82713652269398E-02 
2368	-1.67468517901086E-02 
2369	-1.91499173220955E-02 
2370	-2.09585345927302E-02 
2371	-2.89152442528127E-03 
2372	 2.78282237922792E-03 
2373	 1.28577254399364E-02 
2374	 1.24569946395179E-02 
2375	-1.76059515290601E-02 
2376	-5.32789693614517E-02 
2377	-8.02242983237341E-02 
2378	-7.82569396928082E-02 
2379	-4.49881947886972E-02 
2380	-1.49751813185192E-02 
2381	-3.06117877854952E-03 
2382	 1.02894538525583E-02 
2383	 3.47297462676787E-03 
2384	-3.04671802888096E-02 
2385	-2.84613416633179E-02 
2386	-9.04628291385996E-03 
2387	-2.14807070234366E-02 
2388	-1.86027161179968E-02 
2389	-6.21463033089103E-03 
2390	-1.41489814561581E-02 
2391	-5.4783457819064E-03 
2392	 1.23216498936314E-02 
2393	 7.14063287052514E-03 
2394	 8.64507165646396E-03 
2395	-1.81716077472031E-03 
2396	 4.99512265055247E-03 
2397	 2.30176384757469E-02 
2398	-7.94104797846847E-04 
2399	-5.67976877713856E-03 
2400	-0.016711231410259 
2401	-4.12656698086699E-02 
2402	-0.035048473532294 
2403	-0.039694100068266 
2404	-2.84668294919242E-02 
2405	-1.75163819425184E-02 
2406	-4.04302659909921E-02 
2407	-8.89142518732987E-03 
2408	 1.38761322599895E-02 
2409	-3.82025087557471E-02 
2410	-1.49509131340109E-02 
2411	-1.44145685052674E-02 
2412	-0.100182751393179 
2413	-0.118228731764887 
2414	-0.111758384786324 
2415	-0.172705332498278 
2416	-0.159536533329455 
2417	-0.114658010417685 
2418	-3.21863672012088E-02 
2419	 0.011304110790582 
2420	-1.07896589631963E-02 
2421	 3.48412061980376E-03 
2422	-7.56351849040223E-02 
2423	-0.181570237403297 
2424	-0.198476504835755 
2425	-0.19085260612362 
2426	-0.143504895044127 
2427	-8.19198602360847E-02 
2428	-5.74401517805943E-02 
2429	-2.47330432977154E-02 
2430	 1.07937392690806E-02 
2431	 7.73539133832222E-02 
2432	 0.135254383177457 
2433	 6.75355776409364E-02 
2434	-7.60826546987513E-02 
2435	-0.169052957109406 
2436	-0.175813346784895 
2437	-8.00581047966951E-02 
2438	 8.58879526709405E-02 
2439	 9.27280397623674E-02 
2440	 7.23731845159284E-03 
2441	-7.67801409509922E-02 
2442	-0.242895369037255 
2443	-0.349289225628288 
2444	-0.312434493696451 
2445	-0.295420538265952 
2446	-0.35580552703237 
2447	-2.72680590367755 
2448	 6.911778925163 
2449	 1.21181014115391 
2450	 0.646563120006783 
2451	 0.432220420559851 
2452	 0.185239196302227 
2453	 1.38295430868086 
2454	-112.948332237341 
2455	-1.34447960847417 
2456	-5.57515038401145E-02 
2457	 0.154170148421076 
2458	 0.261515731980365 
2459	 3.71593365355929E-02 
2460	-0.875967889484122 
2461	-1.27502908594085 
2462	-1.14816025552255 
2463	-1.19160514050627 
2464	-1.39337318923669 
2465	-1.65029778625099 
2466	-5.43254316535919 
2467	 4.54915774198007 
2468	-2.29061612234853 
2469	-42.1511421233803 
2470	 4.25157778455955 
2471	 1.48515179543333 
2472	 0.321881898508913 
2473	 0.297456025624625 
2474	 0.273880238863525 
2475	 0.831906477341471 
2476	 1.64134403360804 
2477	 1.96770868426678 
2478	 1.94264356484947 
2479	 1.957014996667 
2480	 2.74639468408894 
2481	 3.79586814438064 
2482	 1.87546905999364 
2483	 0.51884232956299 
2484	 0.377399015674581 
2485	 0.546305849002429 
2486	 0.733734078487956 
2487	 0.692496040456625 
2488	 0.328232942155068 
2489	 0.358399774426009 
2490	 0.386122994574648 
2491	 0.280980316563483 
2492	 0.859128216787953 
2493	 0.826402618417259 
2494	 1.15679230381704 
2495	 1.10522069825261 
2496	 0.86802956537802 
2497	 0.725278989402757 
2498	 0.431605113196905 
2499	 2.35449852353955 
2500	-0.746835160255148 
