Wavelength	rt0722close00005.asd
350	 1.83099280780868E-02 
351	 0.018264571622092 
352	 1.84364234596601E-02 
353	 1.82158130883056E-02 
354	 1.76840923339195E-02 
355	 1.87202141062516E-02 
356	 1.91101639567533E-02 
357	 1.89212761779591E-02 
358	 1.88342586797219E-02 
359	 1.87586643436449E-02 
360	 1.89564954732778E-02 
361	 0.019316414535501 
362	 1.94744596703265E-02 
363	 1.91699226002514E-02 
364	 1.93109162599099E-02 
365	 2.00239597727293E-02 
366	 0.020092331515093 
367	 0.019967729562481 
368	 2.00042568647533E-02 
369	 2.03433711213542E-02 
370	 2.04724104209109E-02 
371	 2.03569959961568E-02 
372	 2.03905950146547E-02 
373	 2.10467963949004E-02 
374	 2.12734194295485E-02 
375	 2.11200345467444E-02 
376	 2.09772015083228E-02 
377	 2.14896675115594E-02 
378	 2.20882158143958E-02 
379	 2.23311418399962E-02 
380	 2.21271511898441E-02 
381	 2.22847771071433E-02 
382	 2.24323798374754E-02 
383	 2.27180363551556E-02 
384	 2.33732915493723E-02 
385	 2.35435296535682E-02 
386	 2.33920762752957E-02 
387	 2.33870643505723E-02 
388	 0.024151543217316 
389	 2.45177131140708E-02 
390	 2.45945236755637E-02 
391	 2.47318255097506E-02 
392	 0.025231968117107 
393	 2.52753928554468E-02 
394	 2.53187006866332E-02 
395	 2.59507784435604E-02 
396	 2.57771802396912E-02 
397	 2.59275333401091E-02 
398	 2.64977384434491E-02 
399	 2.66327192349359E-02 
400	 2.66790508364913E-02 
401	 2.68276091517193E-02 
402	 2.71275276501504E-02 
403	 2.74087286632942E-02 
404	 2.74886341143738E-02 
405	 2.75420877679958E-02 
406	 2.78174919397075E-02 
407	 2.81399093532511E-02 
408	 2.82912545616302E-02 
409	 2.84032956673084E-02 
410	 0.028899964712048 
411	 2.89863526617748E-02 
412	 2.90572912577726E-02 
413	 2.94095814649601E-02 
414	 2.95867990806095E-02 
415	 2.97803441457754E-02 
416	 2.99929689973913E-02 
417	 3.01957343051831E-02 
418	 0.030628093637105 
419	 3.09893618630147E-02 
420	 3.12075514342673E-02 
421	 3.14885625546677E-02 
422	 3.16788101870061E-02 
423	 3.18424591216295E-02 
424	 3.21135943367063E-02 
425	 3.27326516256681E-02 
426	 3.31840237054482E-02 
427	 3.34951103978872E-02 
428	 0.033919433907643 
429	 3.42027631474109E-02 
430	 3.46547659996303E-02 
431	 3.52050060752402E-02 
432	 3.53048402156582E-02 
433	 3.56151363208117E-02 
434	 0.03604607363471 
435	 3.64232997717976E-02 
436	 3.68587640791231E-02 
437	 3.72311463248623E-02 
438	 3.75983447189091E-02 
439	 3.80836020150879E-02 
440	 3.84735854474883E-02 
441	 3.88887525971003E-02 
442	 3.93450119541033E-02 
443	 3.96507307815694E-02 
444	 0.040001899773217 
445	 4.03588371520623E-02 
446	 4.06597553338118E-02 
447	 4.10271549189326E-02 
448	 4.13436829774635E-02 
449	 4.16176894362018E-02 
450	 4.19465327474771E-02 
451	 0.042271022721609 
452	 4.25092173671397E-02 
453	 4.26603497568689E-02 
454	 4.28871944650297E-02 
455	 4.31277795299032E-02 
456	 4.33630279019316E-02 
457	 4.35950454748738E-02 
458	 0.043886107508921 
459	 4.40986203067696E-02 
460	 4.42304974556014E-02 
461	 4.44208846603829E-02 
462	 4.46636574631576E-02 
463	 4.48621759615595E-02 
464	 4.49858438031697E-02 
465	 4.52453915788957E-02 
466	 4.54326646498579E-02 
467	 0.045558240681982 
468	 4.57368251772248E-02 
469	 4.59719282330924E-02 
470	 4.62170847052935E-02 
471	 4.64463873100325E-02 
472	 4.66686070044345E-02 
473	 4.68953847422842E-02 
474	 4.71219310740272E-02 
475	 4.73500205984495E-02 
476	 4.76338196697374E-02 
477	 4.77985325665696E-02 
478	 4.79485935365431E-02 
479	 4.83433357672173E-02 
480	 4.86814446152245E-02 
481	 4.89346738685185E-02 
482	 4.91539111973695E-02 
483	 4.94631792589676E-02 
484	 4.98559153503846E-02 
485	 5.02675872109385E-02 
486	 5.06167175630493E-02 
487	 5.08802843877771E-02 
488	 5.12183395099148E-02 
489	 0.051625006801543 
490	 0.051939435134308 
491	 5.23826119878136E-02 
492	 5.28142422646881E-02 
493	 5.31519456685093E-02 
494	 5.36877141448571E-02 
495	 0.054074799383102 
496	 5.44486206306427E-02 
497	 5.51174968678227E-02 
498	 5.56193104631809E-02 
499	 5.60350460872422E-02 
500	 5.64809376746975E-02 
501	 5.70364933627562E-02 
502	 5.76006246564561E-02 
503	 5.80966056234593E-02 
504	 5.85156459022695E-02 
505	 5.90615295295053E-02 
506	 5.96562525704038E-02 
507	 6.01867660135404E-02 
508	 6.05444167535279E-02 
509	 0.061029166373151 
510	 6.16003734896225E-02 
511	 6.21671873959709E-02 
512	 6.26581934774748E-02 
513	 6.32223769482095E-02 
514	 6.38857139789137E-02 
515	 6.45916388420109E-02 
516	 6.51711207491771E-02 
517	 6.58450443756523E-02 
518	 6.66406873210015E-02 
519	 6.73133697534266E-02 
520	 6.79837852266993E-02 
521	 6.86612425323762E-02 
522	 6.93319495149526E-02 
523	 0.069958717482383 
524	 0.070666429079541 
525	 7.14631961886211E-02 
526	 7.22667829603863E-02 
527	 7.29763605830279E-02 
528	 7.37078845857111E-02 
529	 7.45165469077245E-02 
530	 7.52795596003806E-02 
531	 7.60747997472608E-02 
532	 7.68539166623604E-02 
533	 7.75640020373728E-02 
534	 7.84167514450978E-02 
535	 7.92454471768497E-02 
536	 8.00087743354954E-02 
537	 8.08261660216372E-02 
538	 8.17186077410201E-02 
539	 8.26014228931886E-02 
540	 8.34262724042936E-02 
541	 0.084370523524119 
542	 8.52125990054277E-02 
543	 8.59650488854608E-02 
544	 8.67869283938565E-02 
545	 8.76812503048176E-02 
546	 8.85566605370143E-02 
547	 8.93707861175476E-02 
548	 9.01989168521755E-02 
549	 9.10395360785566E-02 
550	 9.19017495336299E-02 
551	 9.27769314930975E-02 
552	 9.35374077758082E-02 
553	 9.43823383933935E-02 
554	 9.53174144904048E-02 
555	 9.61115470380211E-02 
556	 9.69099000153104E-02 
557	 9.77533149460864E-02 
558	 9.86258160969288E-02 
559	 0.09944480811147 
560	 0.100210422144049 
561	 0.100934624200989 
562	 0.101643938181087 
563	 0.102372799580376 
564	 0.10306136790192 
565	 0.103684032476689 
566	 0.104308430150601 
567	 0.10490100512529 
568	 0.105449781622636 
569	 0.105961658520929 
570	 0.106518620903411 
571	 0.107023274856823 
572	 0.107463716852115 
573	 0.107927220515294 
574	 0.10830973892817 
575	 0.108631587087654 
576	 0.108934284726252 
577	 0.109242063226468 
578	 0.109490763754185 
579	 0.109651003101811 
580	 0.109734638022525 
581	 0.109895966229442 
582	 0.110021458283101 
583	 0.110042514371496 
584	 0.110034589574649 
585	 0.109946480314636 
586	 0.109798256997027 
587	 0.109627690077935 
588	 0.109434754993747 
589	 0.109183099618225 
590	 0.10889627891741 
591	 0.108635087300786 
592	 0.108235938162128 
593	 0.107783626524024 
594	 0.107336733710123 
595	 0.106696678434402 
596	 0.105871215989968 
597	 0.104957565381159 
598	 0.104099168783359 
599	 0.103245043339792 
600	 0.102494758093604 
601	 0.101903049011991 
602	 0.101418858383978 
603	 0.1010715177622 
604	 0.100916163856248 
605	 0.100961129638579 
606	 0.100938009078537 
607	 0.100938140928212 
608	 0.100985521495071 
609	 0.101018231327574 
610	 0.101058986986345 
611	 0.101142162809006 
612	 0.101253908831014 
613	 0.101221690492088 
614	 0.101257494724763 
615	 0.101324332781394 
616	 0.101266829993355 
617	 0.101234990704948 
618	 0.101258053825941 
619	 0.101315367199286 
620	 0.101334771478123 
621	 0.101260259496057 
622	 0.10118189550161 
623	 0.101213839605129 
624	 0.101334037407529 
625	 0.101311102957902 
626	 0.10117367674953 
627	 0.101190561560155 
628	 0.101159368650542 
629	 0.101123495427658 
630	 0.101135307446782 
631	 0.101157371796293 
632	 0.101140204714519 
633	 0.101091014683681 
634	 0.101049080197933 
635	 0.101045950413693 
636	 0.101031739688347 
637	 0.101002537599951 
638	 0.101034972969455 
639	 0.10091778923479 
640	 0.100763533393206 
641	 0.100721375016901 
642	 0.100667270890626 
643	 0.100558870305499 
644	 0.100410657121702 
645	 0.10028140184123 
646	 0.100127423918497 
647	 0.100050402681762 
648	 0.100056096461444 
649	 9.98860971265578E-02 
650	 9.95574653188312E-02 
651	 0.099219873345437 
652	 9.90184622130685E-02 
653	 9.85943943787671E-02 
654	 9.80611641121191E-02 
655	 9.74426805466947E-02 
656	 9.66931456149572E-02 
657	 9.60888899253346E-02 
658	 9.56298112775628E-02 
659	 9.52435970566922E-02 
660	 9.48889923954611E-02 
661	 9.46145909308901E-02 
662	 9.44080206144737E-02 
663	 9.42141672237786E-02 
664	 0.093895359650963 
665	 9.37670445503366E-02 
666	 9.38612311899307E-02 
667	 9.36042447358693E-02 
668	 9.34485726877079E-02 
669	 9.33881856920515E-02 
670	 0.093305264735264 
671	 9.33008684922931E-02 
672	 9.33070072733881E-02 
673	 9.32844921396401E-02 
674	 9.32316438940353E-02 
675	 9.31942728338165E-02 
676	 9.31510520612652E-02 
677	 9.30920118708349E-02 
678	 9.30669589709692E-02 
679	 9.30838710932514E-02 
680	 9.31095271032775E-02 
681	 9.30977146399722E-02 
682	 9.30728032434775E-02 
683	 9.30392194341866E-02 
684	 9.29976293139931E-02 
685	 9.29407819134667E-02 
686	 9.28966689514502E-02 
687	 9.27399476309723E-02 
688	 0.092431692014956 
689	 9.23040734652789E-02 
690	 9.19490296478084E-02 
691	 9.14149768890725E-02 
692	 9.09927083069588E-02 
693	 9.04675854955612E-02 
694	 8.98343789136353E-02 
695	 8.91679526855749E-02 
696	 8.85394498527622E-02 
697	 8.77914926575233E-02 
698	 8.68667055322145E-02 
699	 8.58327334446065E-02 
700	 8.48577062061857E-02 
701	 8.38747335356053E-02 
702	 8.28643844243572E-02 
703	 8.18215076853815E-02 
704	 8.07339727563657E-02 
705	 7.94885151131434E-02 
706	 7.80666424902331E-02 
707	 7.65692321109437E-02 
708	 7.50760027473837E-02 
709	 7.35468607996807E-02 
710	 7.18953223162459E-02 
711	 7.01048955382089E-02 
712	 6.82241357960231E-02 
713	 6.62792419178156E-02 
714	 6.42177802573977E-02 
715	 0.062280156689114 
716	 0.06019224359388 
717	 0.057840154737375 
718	 5.55643027340837E-02 
719	 5.31481046996249E-02 
720	 5.10640275648634E-02 
721	 4.93301215183267E-02 
722	 4.75128311185003E-02 
723	 4.53790903993204E-02 
724	 4.31823930646897E-02 
725	 4.11131100680403E-02 
726	 3.87650677394885E-02 
727	 3.64273822662212E-02 
728	 3.42869886270823E-02 
729	 3.16289813134259E-02 
730	 2.90652112822928E-02 
731	 2.68634237780144E-02 
732	 2.49304121293827E-02 
733	 2.33005784256844E-02 
734	 0.021943918740834 
735	 2.08439076505362E-02 
736	 1.99617689234185E-02 
737	 1.93134085460732E-02 
738	 1.88289225299082E-02 
739	 0.018425205813523 
740	 1.79754509720928E-02 
741	 1.77597997145119E-02 
742	 1.77299342464777E-02 
743	 1.76727461100272E-02 
744	 1.76538068556962E-02 
745	 1.75630824980111E-02 
746	 1.74064467715445E-02 
747	 1.73581942062168E-02 
748	 1.74499750683186E-02 
749	 1.75006366584946E-02 
750	 1.73899926743146E-02 
751	 1.73816067147029E-02 
752	 1.74333737524864E-02 
753	 1.74463814057811E-02 
754	 1.73306599264755E-02 
755	 1.73429897330999E-02 
756	 1.73801952837793E-02 
757	 1.73738609316348E-02 
758	 1.73455205522174E-02 
759	 1.74141778971617E-02 
760	 1.74870048386623E-02 
761	 1.74198260685129E-02 
762	 1.76660851937214E-02 
763	 1.77266558836716E-02 
764	 1.77261257388787E-02 
765	 1.78937912378943E-02 
766	 1.79468588635674E-02 
767	 1.80408361358128E-02 
768	 1.81988830258717E-02 
769	 1.83097161965303E-02 
770	 1.83682534095297E-02 
771	 0.01840924361455 
772	 1.85063032048689E-02 
773	 1.88294200754591E-02 
774	 1.90431373189385E-02 
775	 1.91460225591369E-02 
776	 0.019287778924389 
777	 0.019486805402868 
778	 1.98134928204163E-02 
779	 2.01542257111555E-02 
780	 2.02501449118627E-02 
781	 2.06438154709583E-02 
782	 2.10651769049839E-02 
783	 2.12976536815584E-02 
784	 2.15869382217755E-02 
785	 2.18608377147218E-02 
786	 2.21477312124102E-02 
787	 2.25068043639888E-02 
788	 2.29989563766729E-02 
789	 2.34106596114369E-02 
790	 2.37475440362308E-02 
791	 2.41904823193258E-02 
792	 2.45648821742095E-02 
793	 2.48786709881847E-02 
794	 2.51800206711596E-02 
795	 2.55231496491286E-02 
796	 0.02606295615831 
797	 2.65204451154281E-02 
798	 2.67043710162858E-02 
799	 2.70760954999543E-02 
800	 2.74380629389497E-02 
801	 2.77548888330664E-02 
802	 2.80577246777659E-02 
803	 2.81102045775351E-02 
804	 2.82461295797909E-02 
805	 2.85105367568431E-02 
806	 2.85927937878168E-02 
807	 2.85531628197698E-02 
808	 2.84736647251623E-02 
809	 2.84308815101049E-02 
810	 2.84719822939157E-02 
811	 2.84405665784331E-02 
812	 0.028156207450522 
813	 2.75839760496898E-02 
814	 2.76423415052895E-02 
815	 2.72242771398382E-02 
816	 2.64243251830988E-02 
817	 2.62535249038888E-02 
818	 2.56306105444464E-02 
819	 2.50073662513384E-02 
820	 2.44686807051144E-02 
821	 2.35065606150969E-02 
822	 2.24550724013385E-02 
823	 0.021360873088634 
824	 2.02245291862679E-02 
825	 1.89808783074438E-02 
826	 1.77872835759371E-02 
827	 1.65139740300357E-02 
828	 1.50932330787099E-02 
829	 1.39162101281886E-02 
830	 1.29562544265514E-02 
831	 1.21137557115094E-02 
832	 1.13121748285705E-02 
833	 1.07896247114588E-02 
834	 1.04208358998749E-02 
835	 1.00526716295726E-02 
836	 9.57472100192087E-03 
837	 9.37830945023357E-03 
838	 9.25859886604418E-03 
839	 9.01897029385524E-03 
840	 8.80546826083085E-03 
841	 8.85946108628884E-03 
842	 8.9132209563946E-03 
843	 8.64006179599402E-03 
844	 8.40390814845141E-03 
845	 8.31064704694001E-03 
846	 8.23693910815578E-03 
847	 7.95180748942001E-03 
848	 7.7231516863193E-03 
849	 7.6702136981105E-03 
850	 7.66506488233598E-03 
851	 7.32778094938378E-03 
852	 7.13483917997669E-03 
853	 7.19110433982609E-03 
854	 7.32873593226804E-03 
855	 7.00697022600271E-03 
856	 6.93876819865589E-03 
857	 6.98943491801957E-03 
858	 6.88702349213144E-03 
859	 6.76253676841495E-03 
860	 0.006797416117175 
861	 6.76297924264725E-03 
862	 6.3858547850397E-03 
863	 6.50606835144995E-03 
864	 6.40109610317455E-03 
865	 6.02335906359602E-03 
866	 5.98626075512945E-03 
867	 5.96792457139206E-03 
868	 6.00270109537585E-03 
869	 6.05127780750792E-03 
870	 5.93421250460304E-03 
871	 5.64460613895063E-03 
872	 5.45887196332279E-03 
873	 5.52118293638296E-03 
874	 5.56241800822441E-03 
875	 5.35813241161251E-03 
876	 5.00158689079747E-03 
877	 4.7310509699935E-03 
878	 4.85062067105544E-03 
879	 4.86357619743885E-03 
880	 4.82764019675468E-03 
881	 4.94950436849323E-03 
882	 4.61711400008735E-03 
883	 4.37108487639231E-03 
884	 4.33836604365598E-03 
885	 4.29253074703149E-03 
886	 4.2876024374715E-03 
887	 4.31116442443142E-03 
888	 4.26824653010132E-03 
889	 4.02642566118017E-03 
890	 4.31450484841971E-03 
891	 4.38622675371394E-03 
892	 3.90219436980924E-03 
893	 3.80760141860063E-03 
894	 3.65327299709242E-03 
895	 3.53535190062927E-03 
896	 3.61251108602915E-03 
897	 3.77162838761029E-03 
898	 3.67889204148677E-03 
899	 3.4698044139752E-03 
900	 3.3741532032414E-03 
901	 3.21403216443866E-03 
902	 3.20389931654851E-03 
903	 3.43036547365752E-03 
904	 3.70440379485403E-03 
905	 2.71000462512602E-03 
906	 2.46770099933064E-03 
907	 3.10294254723736E-03 
908	 3.27975477342475E-03 
909	 3.08251921279343E-03 
910	 2.81723917495923E-03 
911	 2.61764470704681E-03 
912	 2.42632513679637E-03 
913	 2.41181105725645E-03 
914	 2.73577778624612E-03 
915	 3.23892874444674E-03 
916	 3.43135391589876E-03 
917	 2.82705936343046E-03 
918	 2.58892032284105E-03 
919	 2.89419605094795E-03 
920	 2.4323463035992E-03 
921	 2.07101488566288E-03 
922	 2.20688563303216E-03 
923	 2.59977892380104E-03 
924	 1.85841400050618E-03 
925	 2.08005123993185E-03 
926	 2.57858092806565E-03 
927	 2.16784930201982E-03 
928	 1.33889693658937E-03 
929	 1.54753840279158E-03 
930	 2.4875325250248E-03 
931	 2.68045872326673E-03 
932	 2.61334692945205E-03 
933	 2.36731877038697E-03 
934	 1.55117405305269E-03 
935	 4.82017229607129E-04 
936	 2.42644583989651E-03 
937	 2.78154123617329E-03 
938	 1.45243251137472E-03 
939	 1.04350405902372E-04 
940	 6.53654900290665E-04 
941	 2.80298901930063E-03 
942	 3.84205837395432E-03 
943	 1.31074433952899E-03 
944	 1.95636005734244E-03 
945	 2.62115722746709E-03 
946	 3.14337545483199E-03 
947	 4.69745861303886E-03 
948	 2.79955657880176E-03 
949	 1.51651239240733E-03 
950	 2.38214211697638E-03 
951	 4.43889844966806E-03 
952	 5.15351847097487E-03 
953	 4.65887268940848E-03 
954	 3.88853839390628E-03 
955	 3.82089064155532E-03 
956	 3.77816341760367E-03 
957	 8.43932995898423E-04 
958	-1.55646444188465E-03 
959	 2.08197138405045E-03 
960	 1.09655960603538E-03 
961	 2.85655645172425E-03 
962	 5.73945522488404E-03 
963	 2.82471337036136E-03 
964	 1.19001724764664E-03 
965	 1.2997264769873E-03 
966	 2.02832165375856E-03 
967	 1.83381650722137E-03 
968	 8.85048611442182E-04 
969	 1.63244791040158E-03 
970	 2.90251003759297E-03 
971	 1.1760689038542E-03 
972	 1.29243872680017E-03 
973	 1.73925768493175E-03 
974	 1.67861927399923E-03 
975	 1.63981941018319E-03 
976	 1.69878694734642E-03 
977	 2.36053520090923E-03 
978	 2.3576384341543E-03 
979	 7.05254841621403E-06 
980	 2.01539610616387E-03 
981	 1.97815049254738E-03 
982	 3.01351883640626E-04 
983	 2.40088810558161E-03 
984	 1.15653114777024E-04 
985	 2.09456272472682E-06 
986	 2.51637657307254E-03 
987	 2.74059903931722E-03 
988	 2.17036295914767E-03 
989	 1.62160426838561E-03 
990	 1.7146802276667E-03 
991	 2.45894846842871E-03 
992	 1.26522016425432E-03 
993	 1.08823083537121E-03 
994	 1.68353797735985E-03 
995	 8.04104794987271E-04 
996	 5.24458545556177E-04 
997	 5.66420037440825E-04 
998	 1.0797341627111E-03 
999	 2.21204131891022E-03 
1000	 2.39684122257559E-03 
1001	 3.25821132399464E-03 
1002	 2.96657158803755E-03 
1003	 2.89667001968591E-03 
1004	 2.79978222450825E-03 
1005	 2.73541631162996E-03 
1006	 2.84107672726262E-03 
1007	 2.81712177597543E-03 
1008	 2.77205656611651E-03 
1009	 2.54758595665925E-03 
1010	 2.52479476332911E-03 
1011	 2.56776458171728E-03 
1012	 2.50417285241813E-03 
1013	 2.33430174925939E-03 
1014	 2.28482859121455E-03 
1015	 2.25330023060582E-03 
1016	 2.21631552959742E-03 
1017	 2.18745727505808E-03 
1018	 2.30522410106673E-03 
1019	 2.44450760650121E-03 
1020	 2.56868384108004E-03 
1021	 2.86485607225787E-03 
1022	 3.13390476062827E-03 
1023	 3.02715238962025E-03 
1024	 2.93095344496117E-03 
1025	 2.7465566553673E-03 
1026	 2.15340838295301E-03 
1027	 1.89438015483853E-03 
1028	 1.61656402447488E-03 
1029	 1.55318147264191E-03 
1030	 1.60004670070956E-03 
1031	 1.8529269880061E-03 
1032	 2.43206753205365E-03 
1033	 2.70574781687611E-03 
1034	 3.16841285570382E-03 
1035	 3.35038725683259E-03 
1036	 3.20482354788854E-03 
1037	 3.10084712668479E-03 
1038	 2.85963184797431E-03 
1039	 2.64248465574057E-03 
1040	 2.53268241980317E-03 
1041	 2.54212232881845E-03 
1042	 2.57650301342191E-03 
1043	 2.88030414288017E-03 
1044	 2.81827786967578E-03 
1045	 2.53907479832444E-03 
1046	 2.4316752540342E-03 
1047	 2.16210885123072E-03 
1048	 2.11693563397992E-03 
1049	 2.38586754500373E-03 
1050	 2.41378272353622E-03 
1051	 2.35282457038747E-03 
1052	 2.37664378359404E-03 
1053	 2.31478752978741E-03 
1054	 2.31886602954177E-03 
1055	 2.57662218967159E-03 
1056	 2.59497890156277E-03 
1057	 2.51270936859177E-03 
1058	 2.18596671438354E-03 
1059	 2.28249232517998E-03 
1060	 2.41054689602004E-03 
1061	 2.62549614966669E-03 
1062	 3.44017891769671E-03 
1063	 3.45564123425738E-03 
1064	 3.00080514785914E-03 
1065	 2.73153421163516E-03 
1066	 1.91790648035129E-03 
1067	 1.68534530119483E-03 
1068	 1.92621807417297E-03 
1069	 1.96720490626051E-03 
1070	 2.15822122767901E-03 
1071	 2.30676298796504E-03 
1072	 2.31538834474283E-03 
1073	 2.41869164114102E-03 
1074	 2.53109198091211E-03 
1075	 2.77370886000403E-03 
1076	 2.80573821695425E-03 
1077	 2.67269062184916E-03 
1078	 2.70180143918422E-03 
1079	 2.84941648189284E-03 
1080	 2.81168463060166E-03 
1081	 2.6762464536434E-03 
1082	 0.00266437702731 
1083	 2.49891528781549E-03 
1084	 2.39514120371583E-03 
1085	 2.71853293469989E-03 
1086	 2.6715151323569E-03 
1087	 2.13460551715491E-03 
1088	 1.94021861458345E-03 
1089	 1.72926251005922E-03 
1090	 1.50350831173564E-03 
1091	 1.62246375046233E-03 
1092	 2.26027475556621E-03 
1093	 2.42469289030488E-03 
1094	 2.53457765036704E-03 
1095	 2.6459955575625E-03 
1096	 2.6887730662736E-03 
1097	 2.55321824160219E-03 
1098	 2.2038001369964E-03 
1099	 2.11765405072918E-03 
1100	 1.96491662877557E-03 
1101	 1.83888587454774E-03 
1102	 1.83654221536561E-03 
1103	 2.09496795479971E-03 
1104	 2.65578402665027E-03 
1105	 2.73658892371004E-03 
1106	 3.30544239096954E-03 
1107	 3.7309598896263E-03 
1108	 2.85184968261418E-03 
1109	 2.22811888734054E-03 
1110	 1.87895601701006E-03 
1111	 0.00114851739022 
1112	 1.20936161010184E-03 
1113	 2.62245001440485E-03 
1114	 3.00394722520786E-03 
1115	 3.38062367263224E-03 
1116	 3.79213431270711E-03 
1117	 4.01656727863329E-03 
1118	 3.79156208203752E-03 
1119	 1.7699989417898E-03 
1120	 0.001652903273855 
1121	 3.89913175306164E-03 
1122	 2.44662658012332E-03 
1123	 5.46191107181255E-04 
1124	 4.51673576115621E-03 
1125	 1.17850160034903E-03 
1126	-1.85412021386077E-03 
1127	 3.68308955600674E-03 
1128	 4.92784286079825E-03 
1129	 6.34794539361677E-03 
1130	 1.02582009767921E-02 
1131	 9.20717615517841E-03 
1132	 3.13393929404426E-03 
1133	 2.99164189937962E-03 
1134	 5.8020068531772E-03 
1135	 4.2372717575795E-03 
1136	 1.3614751091286E-03 
1137	 1.38455761698512E-03 
1138	 3.77126003742234E-04 
1139	-1.1195660719925E-03 
1140	 3.19645104517335E-03 
1141	 6.43478037071958E-03 
1142	 5.48171110191384E-03 
1143	 3.85828529760596E-03 
1144	 1.0191094074683E-03 
1145	 7.07510767459513E-04 
1146	 1.62252483714806E-03 
1147	 2.93287993655442E-03 
1148	 4.35136373020295E-03 
1149	 2.0727177759163E-03 
1150	 1.69428145846745E-03 
1151	 2.25982084734038E-03 
1152	 1.69972712574139E-03 
1153	 4.38290479811617E-05 
1154	 9.78317560632768E-04 
1155	 2.98935210027931E-03 
1156	 3.00235227042914E-03 
1157	 2.7633249622199E-03 
1158	 2.79109536731929E-03 
1159	 1.87425559296193E-03 
1160	 9.24894759894178E-04 
1161	 1.52112046410409E-03 
1162	 2.68466078812187E-03 
1163	 2.7062260616489E-03 
1164	 2.20845439230127E-03 
1165	 2.16775461784771E-03 
1166	 2.03565888456801E-03 
1167	 1.60207616598992E-03 
1168	 1.61969697356313E-03 
1169	 1.80642561657426E-03 
1170	 1.69667430166667E-03 
1171	 1.72118480276145E-03 
1172	 2.15957710047792E-03 
1173	 2.28810051543745E-03 
1174	 2.23693980925798E-03 
1175	 2.12327431040175E-03 
1176	 2.06977329672939E-03 
1177	 2.12314571214432E-03 
1178	 2.1824794852097E-03 
1179	 2.15465306515769E-03 
1180	 2.04359885734256E-03 
1181	 1.82206737411614E-03 
1182	 1.56942311059692E-03 
1183	 1.50308763147344E-03 
1184	 1.8357300393121E-03 
1185	 2.11886141096545E-03 
1186	 1.98140085130539E-03 
1187	 1.72745776896898E-03 
1188	 1.56923322327717E-03 
1189	 1.68975290470226E-03 
1190	 1.98425076450219E-03 
1191	 2.02335594440175E-03 
1192	 2.02729484874171E-03 
1193	 1.78927396502036E-03 
1194	 1.6673011647194E-03 
1195	 1.80269089470071E-03 
1196	 2.01081448076482E-03 
1197	 2.17770890391169E-03 
1198	 2.03294111611049E-03 
1199	 1.75633731012104E-03 
1200	 1.85092474268405E-03 
1201	 1.94533503680221E-03 
1202	 1.80869508905666E-03 
1203	 1.74925575517387E-03 
1204	 1.77593374024597E-03 
1205	 1.82210920100117E-03 
1206	 1.82349393517057E-03 
1207	 1.73761675696573E-03 
1208	 1.6815374211139E-03 
1209	 1.67798939413028E-03 
1210	 1.67943269097682E-03 
1211	 1.71204740800659E-03 
1212	 1.78238055394516E-03 
1213	 1.83833615734825E-03 
1214	 1.82692566659741E-03 
1215	 1.89557182704382E-03 
1216	 1.94353630973306E-03 
1217	 1.64719963842037E-03 
1218	 1.3193074647822E-03 
1219	 1.29621882936603E-03 
1220	 1.37402126110554E-03 
1221	 1.70144735928307E-03 
1222	 2.07502546654312E-03 
1223	 1.85794779676101E-03 
1224	 1.46081299230176E-03 
1225	 1.60178964882104E-03 
1226	 1.72565918572575E-03 
1227	 1.65624264700081E-03 
1228	 1.8649103475007E-03 
1229	 1.88601883079621E-03 
1230	 1.62192036275927E-03 
1231	 1.62192238606261E-03 
1232	 1.82675428272487E-03 
1233	 1.90677281644375E-03 
1234	 1.66490160309708E-03 
1235	 1.59052302469106E-03 
1236	 1.75051249154347E-03 
1237	 1.83558140366981E-03 
1238	 1.89398636241532E-03 
1239	 1.74849782658599E-03 
1240	 1.77464583294739E-03 
1241	 1.76033108276222E-03 
1242	 1.59587046715624E-03 
1243	 1.71730165050149E-03 
1244	 1.94811420945035E-03 
1245	 1.77803426717718E-03 
1246	 1.64632164249206E-03 
1247	 1.89317554443346E-03 
1248	 2.09275302175289E-03 
1249	 2.05055173833546E-03 
1250	 1.8896652412873E-03 
1251	 1.86243784729876E-03 
1252	 2.08288098658825E-03 
1253	 2.16650699603748E-03 
1254	 2.11466837948161E-03 
1255	 2.09614349233752E-03 
1256	 2.00802651709112E-03 
1257	 1.52677487443516E-03 
1258	 1.42968795531552E-03 
1259	 1.6930154995766E-03 
1260	 1.79219063557856E-03 
1261	 1.92656936767053E-03 
1262	 1.98598020126542E-03 
1263	 2.15038318284751E-03 
1264	 1.83152371043219E-03 
1265	 1.5301680854336E-03 
1266	 1.67854878501649E-03 
1267	 1.7348876043382E-03 
1268	 1.70086496390292E-03 
1269	 1.7381327771048E-03 
1270	 1.69254001601751E-03 
1271	 1.71851772985915E-03 
1272	 1.85595861920725E-03 
1273	 1.90874965869115E-03 
1274	 1.82597951015259E-03 
1275	 1.76129624003155E-03 
1276	 1.75928407100971E-03 
1277	 1.64016635922733E-03 
1278	 1.57715537438129E-03 
1279	 1.79102879891599E-03 
1280	 1.83678054603778E-03 
1281	 1.81388789785001E-03 
1282	 1.9023250131619E-03 
1283	 1.93693504087071E-03 
1284	 1.6775980995078E-03 
1285	 1.61724691388721E-03 
1286	 1.82457880418915E-03 
1287	 1.81713254196364E-03 
1288	 1.57465597193029E-03 
1289	 1.5549414191397E-03 
1290	 1.63519649682909E-03 
1291	 1.70170287354629E-03 
1292	 1.61323738292234E-03 
1293	 1.66441057253497E-03 
1294	 1.84527956708662E-03 
1295	 1.69005787874361E-03 
1296	 1.4587285740211E-03 
1297	 1.73236532761461E-03 
1298	 1.74812130729302E-03 
1299	 1.24663738902185E-03 
1300	 1.22190174676765E-03 
1301	 1.53491039382278E-03 
1302	 1.66632098100576E-03 
1303	 1.59504043732414E-03 
1304	 1.36495141858204E-03 
1305	 1.3088725011523E-03 
1306	 1.34817991029526E-03 
1307	 1.56750348589806E-03 
1308	 1.52616953564376E-03 
1309	 0.001431200238487 
1310	 1.54986576475681E-03 
1311	 1.60330074564206E-03 
1312	 1.61404796129146E-03 
1313	 1.98838825480623E-03 
1314	 1.97892422043463E-03 
1315	 1.37668627529739E-03 
1316	 1.27250604216619E-03 
1317	 1.56042314008601E-03 
1318	 1.51678007618961E-03 
1319	 1.30933615242597E-03 
1320	 1.17842520953157E-03 
1321	 9.725657631835E-04 
1322	 7.75683116180798E-04 
1323	 7.08632498565107E-04 
1324	 8.68608421118852E-04 
1325	 1.17486143857646E-03 
1326	 1.54821979423271E-03 
1327	 1.68336126295315E-03 
1328	 1.50994033396632E-03 
1329	 1.27669046690711E-03 
1330	 1.23545499146366E-03 
1331	 1.19627149513906E-03 
1332	 1.50100009915333E-03 
1333	 1.91018028449405E-03 
1334	 1.52301401735332E-03 
1335	 1.45217337490676E-03 
1336	 1.51211678081425E-03 
1337	 1.13804181853554E-03 
1338	 1.95692948835637E-04 
1339	 2.76801890029204E-04 
1340	 7.89894061458274E-04 
1341	 5.51733909990555E-04 
1342	 4.99984875807231E-04 
1343	 1.32272570762912E-03 
1344	 2.29792792994248E-03 
1345	 2.17904160689578E-03 
1346	 3.14212969436263E-03 
1347	 3.6934160237994E-03 
1348	-5.35273071705541E-05 
1349	-2.19382777310866E-03 
1350	 6.30457243553358E-04 
1351	 1.64236249620515E-05 
1352	-1.31386447109854E-02 
1353	-1.87334302167878E-02 
1354	-1.45304776104609E-02 
1355	 1.98692570751258E-02 
1356	 2.35622435970766E-02 
1357	 2.20219703062543E-02 
1358	 8.37677821668633E-02 
1359	 1.01839538702482E-02 
1360	-8.22237760816637E-02 
1361	-7.08704529029163E-03 
1362	 2.53590941552314E-02 
1363	-1.21670288740793E-02 
1364	 1.06041651520615E-02 
1365	-1.36356998358937E-02 
1366	-9.01789880667973E-02 
1367	-7.59404750280578E-02 
1368	-9.11828485739044E-02 
1369	-2.73354730823633E-03 
1370	 0.159570359896829 
1371	 0.475070912110273 
1372	 0.386667521488842 
1373	 5.29995039561294E-02 
1374	 0.156142475692385 
1375	 0.356276511604817 
1376	 0.275755129596165 
1377	 0.250370186749523 
1378	 0.457421448187484 
1379	 0.370064970223491 
1380	 0.085910294181462 
1381	 1.34131138785549E-02 
1382	 0.176274039687623 
1383	 0.145333336872988 
1384	-0.23167253488109 
1385	-0.310114416878604 
1386	 3.46637869745523E-02 
1387	 0.311901021039058 
1388	 0.110678212343393 
1389	 0.113055978137574 
1390	 0.269270146298122 
1391	 0.226078043173231 
1392	 2.62938935677459E-02 
1393	 4.20036103880296E-02 
1394	 0.288015101597219 
1395	 0.147080900138272 
1396	 5.61671316001044E-03 
1397	-8.50082186534146E-02 
1398	 4.96598945719042E-02 
1399	 9.26874216700967E-02 
1400	-4.21728547451722E-02 
1401	 0.221217522747162 
1402	 0.254900811393642 
1403	 0.125096094213283 
1404	 5.42975394532073E-05 
1405	-6.02532572473412E-02 
1406	-4.14681730674985E-03 
1407	 3.08473277966047E-02 
1408	 7.29236145147724E-02 
1409	 8.79398233467055E-02 
1410	 0.142304892624722 
1411	 0.176133141422177 
1412	 0.176936758130188 
1413	 0.129739266531743 
1414	 7.60042698282168E-02 
1415	 7.76349113898115E-02 
1416	 4.35579613947333E-02 
1417	 3.32847985768234E-02 
1418	 9.87819580063212E-02 
1419	 8.37644171718893E-02 
1420	 3.16114461672856E-02 
1421	 1.46400648322454E-02 
1422	 3.92104262259497E-03 
1423	-7.85932026998983E-03 
1424	-2.99329330125597E-02 
1425	-2.39266163592381E-02 
1426	 6.45672460708522E-03 
1427	 9.01102824907722E-04 
1428	-1.99706385514179E-02 
1429	-1.53872520948077E-02 
1430	-9.94793424378776E-03 
1431	-1.14679930868496E-02 
1432	 3.52869534715247E-04 
1433	 5.57835635171687E-03 
1434	-9.13799214890052E-03 
1435	-9.91495170782222E-03 
1436	 1.84192210792582E-03 
1437	 1.50378994022886E-02 
1438	 1.18696886352563E-02 
1439	 8.95491336790514E-03 
1440	 6.37086935754862E-03 
1441	 7.46599317830103E-03 
1442	 1.87823767320377E-02 
1443	 0.01944606633487 
1444	 8.80083102303238E-03 
1445	 5.17675060569167E-03 
1446	 1.83205905853573E-03 
1447	-3.22299454232313E-03 
1448	-2.80044312811276E-04 
1449	 2.75062358337452E-03 
1450	 2.79585693255298E-03 
1451	 5.36949303114225E-03 
1452	 6.92800099258592E-03 
1453	 5.1836484005457E-03 
1454	 3.53100810380336E-03 
1455	 1.88045174748464E-04 
1456	 7.44952352512147E-04 
1457	 2.62904198756394E-03 
1458	 1.93519320321134E-03 
1459	 1.61214739751396E-03 
1460	 2.47498178156292E-03 
1461	 2.54111608472304E-03 
1462	 1.52394902403176E-03 
1463	 1.53310136921925E-03 
1464	 1.65700755924781E-03 
1465	-1.05923398661411E-03 
1466	-1.32134949697935E-03 
1467	 2.14177637691031E-03 
1468	 3.41455512576941E-03 
1469	 3.90698127528205E-03 
1470	 3.20206571454267E-03 
1471	 1.28807754055783E-03 
1472	 1.6659126216792E-03 
1473	 1.84903935657041E-03 
1474	 1.38523120131504E-03 
1475	 2.20582202868011E-03 
1476	 2.79066620486417E-03 
1477	 2.23408981828019E-03 
1478	 1.97605356769369E-03 
1479	 2.3647316043042E-03 
1480	 2.86990823720326E-03 
1481	 3.36665894649804E-03 
1482	 3.37264091161194E-03 
1483	 3.88365560702714E-03 
1484	 3.60575456306377E-03 
1485	 2.08876318452973E-03 
1486	 1.45810739996023E-03 
1487	 1.25284717958728E-03 
1488	 1.08507370017244E-03 
1489	 9.14305340343372E-04 
1490	 1.10122450235974E-03 
1491	 1.57413241368708E-03 
1492	 1.67674792160675E-03 
1493	 2.07198243192812E-03 
1494	 1.98506155954232E-03 
1495	 1.03131345145482E-03 
1496	 9.83265087775932E-04 
1497	 1.58933533171176E-03 
1498	 1.4856680733306E-03 
1499	 1.24998514111285E-03 
1500	 1.36729698330297E-03 
1501	 1.22811456946599E-03 
1502	 1.02920376250558E-03 
1503	 1.22846563276686E-03 
1504	 1.3486914939842E-03 
1505	 1.2073120895394E-03 
1506	 1.03471365560063E-03 
1507	 1.43087193691352E-03 
1508	 1.37194914636043E-03 
1509	 9.66536298845708E-04 
1510	 9.96088292229382E-04 
1511	 9.42331530636488E-04 
1512	 7.87372248918572E-04 
1513	 9.07047881407059E-04 
1514	 1.20998904366636E-03 
1515	 1.45982976549237E-03 
1516	 1.34359903060901E-03 
1517	 1.13152870961312E-03 
1518	 1.1352067228104E-03 
1519	 1.23878974235408E-03 
1520	 1.22936963658903E-03 
1521	 1.28756219495834E-03 
1522	 1.56763200629448E-03 
1523	 1.61634677325782E-03 
1524	 1.51833602040497E-03 
1525	 1.57621512231663E-03 
1526	 1.39087117021782E-03 
1527	 9.46575790240668E-04 
1528	 1.02739814639801E-03 
1529	 1.49171751120268E-03 
1530	 1.47399651864039E-03 
1531	 1.31098767780561E-03 
1532	 1.37179325329534E-03 
1533	 1.30707672070288E-03 
1534	 1.11458239913585E-03 
1535	 1.03095034221037E-03 
1536	 1.11063606534328E-03 
1537	 9.9576674690577E-04 
1538	 8.27956368003159E-04 
1539	 9.75079927663115E-04 
1540	 1.14526759371552E-03 
1541	 1.29423598781536E-03 
1542	 1.31517061647269E-03 
1543	 1.25294035667277E-03 
1544	 1.34533628906144E-03 
1545	 1.3276114879745E-03 
1546	 1.15748331786399E-03 
1547	 9.12729778557469E-04 
1548	 9.07211338964406E-04 
1549	 1.15723488400157E-03 
1550	 1.10539883219818E-03 
1551	 1.08318633884015E-03 
1552	 1.2867130732455E-03 
1553	 1.18642338100361E-03 
1554	 9.73863929160242E-04 
1555	 1.20120093045744E-03 
1556	 1.39116181925418E-03 
1557	 1.13658855730635E-03 
1558	 1.13710144380396E-03 
1559	 1.16333935489807E-03 
1560	 9.27653383409112E-04 
1561	 1.21408491580083E-03 
1562	 1.58301122184286E-03 
1563	 1.38638547006413E-03 
1564	 0.00125423498287 
1565	 1.33699678413572E-03 
1566	 1.33329447191291E-03 
1567	 1.2717806890072E-03 
1568	 1.14563085661943E-03 
1569	 1.03681233628378E-03 
1570	 1.11982184404291E-03 
1571	 1.3668248718226E-03 
1572	 1.45078104984463E-03 
1573	 1.25828943341786E-03 
1574	 1.13250117312384E-03 
1575	 1.13902173546626E-03 
1576	 1.07568540782981E-03 
1577	 1.15372072946299E-03 
1578	 1.32278198087252E-03 
1579	 1.31883862290375E-03 
1580	 1.31471757965096E-03 
1581	 1.37278215256717E-03 
1582	 1.36532922260597E-03 
1583	 1.19891639492238E-03 
1584	 1.18557321416297E-03 
1585	 1.42057699581488E-03 
1586	 1.34139398300985E-03 
1587	 1.11174228284012E-03 
1588	 1.23311913909158E-03 
1589	 1.40929670988345E-03 
1590	 1.24135500931338E-03 
1591	 1.19343050501894E-03 
1592	 1.47751014696337E-03 
1593	 1.34309990717209E-03 
1594	 1.10693484989784E-03 
1595	 1.22615178763013E-03 
1596	 1.2412657344054E-03 
1597	 1.22928161965726E-03 
1598	 1.32132126547068E-03 
1599	 1.30345532254208E-03 
1600	 1.26831785886728E-03 
1601	 1.45102626989087E-03 
1602	 1.55111662334807E-03 
1603	 1.27730028360936E-03 
1604	 1.10504914638088E-03 
1605	 1.22340440792914E-03 
1606	 0.001119700951316 
1607	 9.15435436426913E-04 
1608	 1.09460449324006E-03 
1609	 0.001180105163287 
1610	 8.12879635800914E-04 
1611	 9.27221615481466E-04 
1612	 1.49696864735013E-03 
1613	 1.46467264889362E-03 
1614	 1.36152455721277E-03 
1615	 1.65105986828661E-03 
1616	 1.62560728310041E-03 
1617	 1.36700275425132E-03 
1618	 1.34959873944998E-03 
1619	 0.00131861657704 
1620	 1.02199373811968E-03 
1621	 9.00636206275267E-04 
1622	 1.1574641072496E-03 
1623	 1.31292586551737E-03 
1624	 1.27631773914153E-03 
1625	 1.20585969136748E-03 
1626	 1.15491814678495E-03 
1627	 1.21948418695088E-03 
1628	 1.21493888726542E-03 
1629	 1.06236392894276E-03 
1630	 9.72723696130281E-04 
1631	 1.02223563682763E-03 
1632	 1.01116985937129E-03 
1633	 9.84992256100162E-04 
1634	 1.13630671704047E-03 
1635	 1.23772067099957E-03 
1636	 1.29796382421304E-03 
1637	 1.27724680972141E-03 
1638	 1.10495822427569E-03 
1639	 1.09166334839391E-03 
1640	 1.07430758789114E-03 
1641	 1.10657109297762E-03 
1642	 1.32935062623623E-03 
1643	 1.37137652766212E-03 
1644	 1.23066802184863E-03 
1645	 1.18284690740568E-03 
1646	 1.4123299994437E-03 
1647	 1.46201485355265E-03 
1648	 1.18505350001773E-03 
1649	 1.14665685011376E-03 
1650	 1.14160790096143E-03 
1651	 1.0459537776925E-03 
1652	 1.25839572070651E-03 
1653	 1.58007691405764E-03 
1654	 1.57094736935577E-03 
1655	 1.38365235722748E-03 
1656	 1.35188133363553E-03 
1657	 1.26607403719321E-03 
1658	 1.26743245062114E-03 
1659	 1.47953378221191E-03 
1660	 1.39182686960378E-03 
1661	 1.01002876440199E-03 
1662	 8.80562041326044E-04 
1663	 7.6715364341657E-04 
1664	 8.48485855569581E-04 
1665	 0.001183744709343 
1666	 1.18894100211435E-03 
1667	 1.05266554481051E-03 
1668	 1.7452156563997E-03 
1669	 1.78274768920015E-03 
1670	 1.49674511587874E-03 
1671	 1.82497223133398E-03 
1672	 1.67794495185932E-03 
1673	 1.30409867351476E-03 
1674	 1.64561118918654E-03 
1675	 1.55536749077138E-03 
1676	 6.99999166754071E-04 
1677	 6.59007759736776E-04 
1678	 1.23383799579733E-03 
1679	 1.32504233474538E-03 
1680	 1.65638124177143E-03 
1681	 1.70622277100403E-03 
1682	 0.001049118512606 
1683	 1.04203864427461E-03 
1684	 1.33879789980004E-03 
1685	 1.37911696041693E-03 
1686	 1.6165380314911E-03 
1687	 1.7022255472864E-03 
1688	 1.2022875009622E-03 
1689	 7.51420704563198E-04 
1690	 9.43924171323013E-04 
1691	 1.22202091142176E-03 
1692	 1.47452149838503E-03 
1693	 1.81205996647269E-03 
1694	 1.67612946430518E-03 
1695	 1.34317427356602E-03 
1696	 1.27715314387379E-03 
1697	 1.27101843606508E-03 
1698	 1.3559073815356E-03 
1699	 1.31111189879633E-03 
1700	 9.41717356796311E-04 
1701	 9.55847741525871E-04 
1702	 1.03501015913191E-03 
1703	 7.0513169728846E-04 
1704	 9.33554036742436E-04 
1705	 1.2625859308006E-03 
1706	 1.19510389797997E-03 
1707	 1.40465290236317E-03 
1708	 1.36681430743783E-03 
1709	 1.10020821404581E-03 
1710	 1.03658061389223E-03 
1711	 9.38164970023764E-04 
1712	 1.01610476008911E-03 
1713	 1.57930232327101E-03 
1714	 1.64209541543604E-03 
1715	 1.47615330927835E-03 
1716	 1.63480794766721E-03 
1717	 1.56737131714212E-03 
1718	 1.41030290719952E-03 
1719	 1.78416208013153E-03 
1720	 1.75215848496331E-03 
1721	 9.67845220314745E-04 
1722	 9.07985808396802E-04 
1723	 1.09445205737913E-03 
1724	 9.2716789533779E-04 
1725	 1.16200396406072E-03 
1726	 1.21990550492196E-03 
1727	 5.95670710239721E-04 
1728	 5.49473740866776E-04 
1729	 1.1460188193819E-03 
1730	 1.22694155767719E-03 
1731	 1.71546213064877E-03 
1732	 1.71188408030449E-03 
1733	 3.25844980923443E-04 
1734	 5.08130796573285E-04 
1735	 1.39124571207635E-03 
1736	 9.89084974130829E-04 
1737	 1.6869734172888E-03 
1738	 2.09360813963848E-03 
1739	 3.90664064971921E-04 
1740	 1.31197837819212E-04 
1741	 1.07774042415256E-03 
1742	 8.73933701073576E-04 
1743	 9.96632725419579E-04 
1744	 1.36650314235122E-03 
1745	 6.91642341183866E-04 
1746	 3.2663297187893E-04 
1747	 7.34479771793284E-04 
1748	 2.10884693814018E-03 
1749	 1.77999883329537E-03 
1750	 2.3685479622102E-04 
1751	 4.02727317262049E-04 
1752	 7.40025428744317E-04 
1753	 7.12458745478287E-04 
1754	 2.48872431451266E-03 
1755	 2.44876174173109E-03 
1756	-6.23067792670136E-04 
1757	-1.0211580560929E-03 
1758	-4.25951606318686E-04 
1759	 8.79809183141527E-05 
1760	 2.25497907614613E-03 
1761	 2.71435970757732E-03 
1762	 1.0710123355424E-03 
1763	-1.23254385739172E-04 
1764	-4.19514466248387E-04 
1765	 9.51525180571728E-04 
1766	 2.29579492577382E-03 
1767	 2.12572610211621E-03 
1768	 1.82026469258835E-03 
1769	 1.06338413273136E-03 
1770	-1.75902268698117E-05 
1771	 7.28943830551712E-04 
1772	 1.74967753942394E-03 
1773	 1.60648079391413E-03 
1774	 2.36342384283155E-03 
1775	 1.77242306296379E-03 
1776	 8.61617919458827E-04 
1777	-1.51838680555386E-03 
1778	-1.58680454957079E-03 
1779	 3.88840569142899E-04 
1780	 7.6462632573047E-04 
1781	 2.41677139914105E-03 
1782	 2.78604902939944E-03 
1783	 6.74162940481948E-04 
1784	 6.39299516497371E-04 
1785	 1.47838424170398E-03 
1786	 8.7409087794031E-04 
1787	-6.92202332082825E-04 
1788	-7.24877452436011E-04 
1789	 4.15715258840726E-04 
1790	 3.81430536687934E-03 
1791	 3.55652731092934E-03 
1792	 2.01236834596123E-03 
1793	-7.99916889915968E-04 
1794	-3.36274333189224E-04 
1795	 5.13382921422927E-03 
1796	 4.93422634772372E-03 
1797	 9.25679645060619E-04 
1798	-4.71724260603123E-03 
1799	-1.36426384986637E-02 
1800	 3.09401747458279E-03 
1801	 9.39495708037973E-03 
1802	 1.05031450706181E-02 
1803	 1.10852395121758E-02 
1804	-9.28569970198728E-03 
1805	-1.98345034364051E-02 
1806	-1.11550834464326E-02 
1807	-1.48649843032187E-02 
1808	-4.30241927600084E-02 
1809	-3.16163303935735E-02 
1810	 3.57595547686436E-02 
1811	 8.40969814039525E-02 
1812	 0.23610360197367 
1813	 0.272311811323548 
1814	 4.36624594301731E-02 
1815	-0.061210427467349 
1816	-0.277277461621842 
1817	-0.358286350475605 
1818	-0.19784204389212 
1819	 8.41554158817729E-02 
1820	 1.20672003568219 
1821	 3.21597727472967 
1822	 6.21387372395335 
1823	-8.25933780514735E-02 
1824	-0.28303095936666 
1825	-0.116878834665174 
1826	-0.124179810313827 
1827	-9.9537968159996E-03 
1828	-2.71093845293656E-02 
1829	-0.251631419555827 
1830	-0.46330776779587 
1831	 2.25841995073285 
1832	 2.24041933802158 
1833	 4.84328901685814 
1834	 9.29652029561287 
1835	 0.379874188454982 
1836	 1.02605606807231 
1837	 1.70532362021204 
1838	-15.2958231568604 
1839	 0.29823585529562 
1840	 0.482143269775237 
1841	 0.406551551140233 
1842	 0.389541769457321 
1843	 0.140253756143498 
1844	-1.6436905573375 
1845	-2.67606986353158 
1846	-3.02448754445738 
1847	-6.18986824428541 
1848	 2.42938131515623 
1849	-0.156724821951166 
1850	-61.8028888075949 
1851	 1.08045875489119 
1852	 0.404953280102694 
1853	 0.326226621754831 
1854	 0.246657420271607 
1855	 0.126382596686784 
1856	 0.309977094438872 
1857	-0.333161599795674 
1858	-0.425149096394371 
1859	-0.265591520314577 
1860	-0.247036520403923 
1861	-0.24127267172988 
1862	-0.317206600000332 
1863	-0.464540451750996 
1864	-0.365963658585695 
1865	-0.368284315728366 
1866	-0.461611699648783 
1867	-0.604951000362775 
1868	-3.0438856766362 
1869	 13.9571029324001 
1870	-1.11899077341212 
1871	 0.24796207716966 
1872	 0.379746872041308 
1873	 0.476984761759112 
1874	 7.47837836041048E-02 
1875	-0.326430678930838 
1876	-0.426532890932623 
1877	-0.157748144975645 
1878	-0.156638758136017 
1879	-0.266758301888094 
1880	-0.463433367129718 
1881	-1.19178514023697 
1882	-1.16311142635605 
1883	-0.773311213563435 
1884	-0.670856548111156 
1885	-0.43823301141852 
1886	-0.14267982856976 
1887	-3.54850759451611E-02 
1888	-0.199297326644365 
1889	-1.17860903721206 
1890	 1.1573838642954 
1891	 0.46500721537239 
1892	 9.97496442989915E-02 
1893	-7.65714234645699E-03 
1894	-0.30648255375316 
1895	-0.90464016811783 
1896	-2.50844945935072 
1897	-0.420927666372071 
1898	-0.330837977827673 
1899	-0.585964753305047 
1900	-0.558048935923541 
1901	-0.157370039433815 
1902	-9.99167329042102E-02 
1903	 1.15459263760793E-03 
1904	-0.623951158847928 
1905	 8.29839237868856 
1906	 2.72862229374261 
1907	 7.97465292767387 
1908	-135.822822443839 
1909	-0.731096596428264 
1910	-0.468868902007591 
1911	-0.894738796306635 
1912	 0.793905230024577 
1913	 1.46903902529308 
1914	 1.71533042199966 
1915	 1.23469772575457 
1916	-0.104488541390615 
1917	-0.981827108818526 
1918	-15.1024370179455 
1919	 1.4531929808319 
1920	 0.252032617212063 
1921	 0.754437771591496 
1922	-1.99432156886896 
1923	-1.62164981636188 
1924	-0.614799678930134 
1925	-0.719907362586935 
1926	-1.46659481512538 
1927	 1.87814210497827 
1928	 0.198215065173125 
1929	-0.113634498081075 
1930	-0.829208459735074 
1931	 1.58258625954987 
1932	 1.28254222283227 
1933	 0.770515828241282 
1934	 0.511744451491519 
1935	 0.514637233904468 
1936	 0.255433990145281 
1937	 0.114972423274596 
1938	 0.103459349682094 
1939	 6.36157420662191E-02 
1940	-2.88646498528308E-02 
1941	-4.66331072339706E-02 
1942	-7.74040490158675E-03 
1943	-1.50579585070958E-02 
1944	-4.89267319625998E-02 
1945	-4.15273748542336E-02 
1946	-3.08809319966935E-02 
1947	-4.72292921660928E-02 
1948	-1.30450592986729E-02 
1949	-1.73760366452896E-02 
1950	-3.58516185668701E-02 
1951	 0.015237033668156 
1952	 2.47419253971141E-02 
1953	 0.01821518329208 
1954	 1.34190939766101E-02 
1955	 1.69334732523817E-02 
1956	-1.67537310792435E-02 
1957	-0.031181056288511 
1958	-2.62205006815495E-02 
1959	-1.47887125822519E-02 
1960	-2.12110382413927E-03 
1961	 4.2164456470215E-03 
1962	 6.44059150179115E-03 
1963	 4.2769533900236E-03 
1964	 3.66779616297274E-03 
1965	 5.11882956806321E-03 
1966	 5.53930032609412E-03 
1967	 6.89916731768829E-03 
1968	 6.7163486435418E-03 
1969	 5.26024647937021E-03 
1970	 4.20552161839484E-03 
1971	 2.85993031454866E-03 
1972	 2.76331566866577E-03 
1973	 2.10845042438369E-03 
1974	 1.33948029302728E-03 
1975	 1.19926229453326E-03 
1976	 3.31617166665897E-04 
1977	 1.19952232345801E-03 
1978	 1.13779308619349E-03 
1979	 5.51449714627844E-04 
1980	-7.33583534376631E-04 
1981	-2.96016325419567E-04 
1982	-2.36648809763761E-04 
1983	-3.32036843427742E-05 
1984	 1.12696962760501E-03 
1985	 1.64957747027551E-03 
1986	 2.17681813783785E-03 
1987	 2.99379095034653E-03 
1988	 0.002770019874277 
1989	 2.26206518942329E-03 
1990	 2.0951163986231E-03 
1991	 2.30732802327998E-03 
1992	 2.45155464986028E-03 
1993	 2.15753452184688E-03 
1994	 2.11018380302874E-03 
1995	 1.54324482285635E-03 
1996	-1.78574977514352E-04 
1997	-4.52330249565531E-04 
1998	 8.32983157294171E-04 
1999	 7.10320482424859E-04 
2000	 8.58697441607734E-05 
2001	-2.01573674395276E-03 
2002	-3.8126377356704E-03 
2003	-1.77395072572735E-03 
2004	-1.94773635249304E-04 
2005	 1.42721671557314E-03 
2006	 5.8580545193982E-03 
2007	 7.15272758085647E-03 
2008	 6.28236272202406E-03 
2009	 5.00984170366347E-03 
2010	 1.99545508320709E-03 
2011	 1.39603066934863E-03 
2012	 7.56984860110658E-04 
2013	 5.79670110067452E-04 
2014	 2.55927263584056E-03 
2015	 4.12564314457714E-03 
2016	 1.35046125540802E-03 
2017	-4.68774725962108E-04 
2018	-2.05478334767766E-03 
2019	-4.58342029140134E-03 
2020	-3.14767976255464E-03 
2021	-9.16369368509372E-04 
2022	-1.53712078944465E-03 
2023	-1.02300445865179E-03 
2024	-2.62476588824022E-04 
2025	-3.62717514626074E-04 
2026	-4.12611427354956E-04 
2027	 1.47096388813676E-04 
2028	 8.59858984333483E-04 
2029	 1.18212620098752E-03 
2030	 1.89780874420608E-03 
2031	 2.66095498619326E-03 
2032	 2.65480873104461E-03 
2033	 1.92775664325138E-03 
2034	 9.95148872668576E-04 
2035	 5.75010275665825E-04 
2036	 5.89819767498369E-04 
2037	 1.12263363472323E-03 
2038	 1.95535092683569E-03 
2039	 2.16405016913202E-03 
2040	 2.29727523999214E-03 
2041	 2.32991227784518E-03 
2042	 1.60904186488767E-03 
2043	 1.12323817517299E-03 
2044	 4.52274608644575E-04 
2045	 6.13772730972109E-04 
2046	 6.78271293232055E-04 
2047	 6.68675955967785E-04 
2048	 1.04055548576343E-03 
2049	 9.52855261647063E-04 
2050	 1.53593330881253E-03 
2051	 1.69438982849532E-03 
2052	 7.86739778580035E-04 
2053	 1.68200931494669E-03 
2054	 2.50988631151442E-03 
2055	 2.81003204525355E-03 
2056	 3.02511058199895E-03 
2057	 3.97422284063878E-03 
2058	 3.88279334016927E-03 
2059	 2.72675149516757E-03 
2060	 1.88301105730014E-03 
2061	 1.24495905874887E-03 
2062	-2.61611389109122E-04 
2063	-3.22082598872971E-04 
2064	-7.06612418719234E-04 
2065	-9.71130268696886E-04 
2066	 4.76926586474321E-04 
2067	 3.01249402158027E-04 
2068	-5.05999490640644E-04 
2069	-3.44278120041209E-05 
2070	 4.15830863437645E-04 
2071	 1.66705533244434E-04 
2072	 2.52605462284754E-04 
2073	 2.52089653413771E-04 
2074	-4.69483808460282E-04 
2075	-2.0551507655723E-04 
2076	 1.14393366551927E-03 
2077	 1.6174179410559E-03 
2078	 2.39533160729266E-03 
2079	 2.49325736661485E-03 
2080	 2.18109276448809E-03 
2081	 7.17174683093469E-04 
2082	-2.03319965023487E-04 
2083	-3.04011876268706E-04 
2084	-1.9909380471196E-04 
2085	 4.38401111696126E-04 
2086	 9.51323687108426E-04 
2087	 8.96543126149707E-04 
2088	 6.0048224168158E-04 
2089	 1.59251705347872E-04 
2090	-4.53945836758546E-04 
2091	-1.78656341046545E-04 
2092	 1.94797567798608E-04 
2093	 9.9710189873675E-04 
2094	 1.2058774432977E-03 
2095	 1.65298877015272E-03 
2096	 1.52603930171933E-03 
2097	 3.38458315247126E-04 
2098	 2.56542629365882E-04 
2099	 6.2849379099043E-04 
2100	 9.07848554963387E-04 
2101	 1.1692596691199E-03 
2102	 1.64316705013376E-03 
2103	 2.05826860759143E-03 
2104	 1.33306611247116E-03 
2105	 8.02130270581725E-04 
2106	 8.24468311226922E-04 
2107	 2.29905300053214E-04 
2108	-2.8276190356315E-05 
2109	 4.91711157201624E-04 
2110	 5.60095666926909E-04 
2111	-6.3055707637818E-05 
2112	-4.22698393089909E-04 
2113	-4.10466260447562E-04 
2114	-3.50790461665596E-04 
2115	-2.50112919101826E-04 
2116	 4.56887338951599E-04 
2117	 7.96798882950017E-04 
2118	 7.37967191714136E-04 
2119	 9.89472866174539E-04 
2120	 1.60810440562157E-03 
2121	 1.82916152630928E-03 
2122	 1.19328587464803E-03 
2123	 2.38455589404259E-05 
2124	-7.13121409854496E-04 
2125	-7.94568832667521E-04 
2126	-4.0179294740899E-04 
2127	 7.95621969504893E-04 
2128	 1.92849706388411E-03 
2129	 1.38147270559623E-03 
2130	 8.57668792250007E-04 
2131	 1.27179357886914E-03 
2132	 5.47982927219727E-04 
2133	 3.16338023557083E-05 
2134	-3.28451474227932E-04 
2135	-6.97281502583699E-04 
2136	-8.18486020010614E-04 
2137	-5.67768795296756E-04 
2138	-8.54275986849306E-04 
2139	-1.35497452338189E-03 
2140	-1.27581448475893E-03 
2141	-1.23550290749102E-03 
2142	-1.01477280295619E-03 
2143	 1.87207688048908E-06 
2144	 4.71717312049132E-04 
2145	 6.53025189304948E-04 
2146	 5.58244614268007E-04 
2147	 6.68307334801177E-04 
2148	 9.18232533365262E-04 
2149	 1.12711375803798E-03 
2150	 1.83507003001258E-03 
2151	 2.39963477407925E-03 
2152	 2.17730851691932E-03 
2153	 1.95455958451072E-03 
2154	 1.30345023737934E-03 
2155	 7.34635375948004E-04 
2156	 2.01934154820689E-03 
2157	 1.79063703326668E-03 
2158	 8.92931855361814E-04 
2159	 2.89738087270237E-04 
2160	-1.30212280853604E-03 
2161	-2.08180254248605E-03 
2162	-1.69168386756642E-03 
2163	-1.97247542322781E-03 
2164	-2.80840135754953E-03 
2165	-2.61280775911944E-03 
2166	-2.12666420338477E-03 
2167	-1.81552877401687E-03 
2168	-7.09664438601681E-04 
2169	-5.98494199292892E-05 
2170	 3.95736563942435E-05 
2171	 7.56057833818814E-04 
2172	 9.13551090954653E-04 
2173	 2.47317688942132E-04 
2174	 3.60458729375558E-04 
2175	 3.41147220023221E-05 
2176	-5.32919687495465E-04 
2177	-2.60907678641438E-04 
2178	 2.92039517072798E-04 
2179	 8.64799225338195E-04 
2180	 1.18071957074582E-03 
2181	 1.84105437815743E-03 
2182	 2.90265040273654E-03 
2183	 3.51449789394735E-03 
2184	 2.91185668935525E-03 
2185	 2.70435447579006E-03 
2186	 2.83030731854649E-03 
2187	 2.13062501941027E-03 
2188	 1.69147192466459E-03 
2189	 2.2289750436698E-03 
2190	 2.18033236667697E-03 
2191	 1.64504741757509E-03 
2192	 6.21596828061614E-04 
2193	-9.34328262985042E-04 
2194	-1.32663094410139E-03 
2195	-2.47474054683456E-03 
2196	-2.5282207098818E-03 
2197	 5.99675128988403E-04 
2198	 1.50651039727386E-03 
2199	 1.35612042583123E-03 
2200	 7.57881891533369E-04 
2201	 2.13952556457448E-03 
2202	 1.11154332685701E-03 
2203	-2.92359715157759E-05 
2204	 1.18071257017843E-03 
2205	 9.65899163915938E-04 
2206	 6.77167255152627E-06 
2207	 1.00749241751375E-03 
2208	 2.91761766128507E-03 
2209	 3.91186268208783E-03 
2210	 3.31535581651204E-03 
2211	 2.38758692339579E-03 
2212	 1.51558656260943E-03 
2213	 7.77566688315259E-04 
2214	 4.32520135156827E-04 
2215	 2.36179285079455E-04 
2216	 1.70109513306101E-04 
2217	-1.01493636614443E-03 
2218	-4.41237461270829E-03 
2219	-5.17041386386076E-03 
2220	-5.74806597615142E-03 
2221	-4.78483401559129E-03 
2222	-7.43783589731307E-04 
2223	 2.58807903464166E-04 
2224	 4.93354958034412E-04 
2225	 1.44335431142317E-03 
2226	 1.7473292384454E-03 
2227	 1.56061683619646E-03 
2228	 1.24605116982014E-03 
2229	 1.06031701303644E-03 
2230	 1.51838179550006E-04 
2231	-2.20343748843647E-04 
2232	 8.42858894044417E-04 
2233	 1.01658003585225E-03 
2234	 1.2755754840509E-03 
2235	-1.57206704040783E-03 
2236	-4.08168717234654E-03 
2237	-2.16352286816679E-03 
2238	-6.740773972965E-04 
2239	-1.25199990924732E-03 
2240	-9.24443990925505E-04 
2241	-2.60620977283531E-03 
2242	-3.57837877067469E-03 
2243	-1.61391253709399E-03 
2244	 2.70186468991205E-04 
2245	 2.68262134594851E-03 
2246	 3.29090057597564E-03 
2247	 1.99796870938194E-03 
2248	 5.12429708934429E-04 
2249	-1.41137178474328E-03 
2250	-1.9156560039928E-03 
2251	-1.11026576382699E-03 
2252	-1.68593310301964E-03 
2253	-1.61480785066762E-03 
2254	 1.05060678767273E-04 
2255	 3.77406583367935E-04 
2256	 5.51780630565171E-04 
2257	 1.98741523403676E-04 
2258	-2.61992050963839E-03 
2259	-3.38743006100191E-03 
2260	-2.15970232023188E-03 
2261	 3.05898486585086E-03 
2262	 4.15125760243334E-03 
2263	 5.49192772618326E-03 
2264	 4.39933412485732E-03 
2265	-7.33039976583076E-04 
2266	-1.9560071442611E-03 
2267	-2.38326829284048E-03 
2268	-2.66462881132475E-03 
2269	-1.28613245858317E-03 
2270	-1.33618321113992E-03 
2271	-2.06756001447661E-03 
2272	-2.03221179698388E-03 
2273	-1.68870594572733E-03 
2274	-1.8431679635827E-03 
2275	-2.86718080875519E-03 
2276	-2.20470431284238E-03 
2277	-1.06782113916022E-03 
2278	 2.23978996022778E-06 
2279	 3.93898454511477E-03 
2280	 4.77666604936175E-03 
2281	 2.0382761496205E-03 
2282	 3.35190992067259E-03 
2283	 6.62764354019528E-03 
2284	 7.54825042525049E-03 
2285	 9.95606947465372E-03 
2286	 8.34901034932469E-03 
2287	 1.19630971401189E-03 
2288	-2.86728420592816E-03 
2289	-5.25238268949662E-03 
2290	-7.45970218870777E-03 
2291	-6.68622926536361E-03 
2292	-5.69583687803895E-03 
2293	-5.54896548616494E-03 
2294	-4.55448370088437E-03 
2295	-3.14856891345284E-03 
2296	-2.06821349566527E-03 
2297	-7.79729215961501E-04 
2298	 2.17499519677233E-03 
2299	 3.55267682428667E-03 
2300	 1.24957980638349E-03 
2301	 5.00089644823406E-04 
2302	-2.27265031248645E-03 
2303	-7.32840179580167E-03 
2304	-6.1982130269217E-03 
2305	-5.54160848278279E-03 
2306	-5.48537075208343E-03 
2307	-1.05866373990323E-03 
2308	 2.05185647726087E-03 
2309	 5.85400562580064E-03 
2310	 8.47845707864612E-03 
2311	 7.31529056082805E-03 
2312	 6.35926421421196E-03 
2313	 5.44327061971848E-03 
2314	 3.26815501422176E-03 
2315	 1.90208194229456E-03 
2316	 4.03678486749599E-03 
2317	 5.73309295646609E-03 
2318	 5.89226733689611E-03 
2319	 3.02647733679852E-03 
2320	-1.17433280553434E-03 
2321	 9.00536758336681E-04 
2322	 3.10704710189942E-03 
2323	 6.31516985082234E-03 
2324	 7.95181933435596E-03 
2325	-2.73368897947774E-03 
2326	-7.49853749793289E-03 
2327	-3.36668881529296E-04 
2328	 4.92059021992116E-03 
2329	 7.87261778468205E-03 
2330	 6.09578883852337E-03 
2331	-3.0834392324544E-03 
2332	-1.08661972456815E-02 
2333	-9.15290243277037E-03 
2334	-3.20092183905642E-03 
2335	-7.32869593117088E-04 
2336	 5.12010142965342E-05 
2337	-1.32030589555997E-03 
2338	-5.22127457996311E-03 
2339	-1.96509685467385E-03 
2340	 6.19405452522868E-03 
2341	 8.00561240446216E-03 
2342	 6.60690198753341E-03 
2343	 7.34832318507935E-04 
2344	-8.76038441214436E-03 
2345	-1.01310966395804E-02 
2346	-8.39711088829362E-03 
2347	-9.32650292567895E-03 
2348	-1.05802056172458E-02 
2349	-9.19049900019294E-03 
2350	-4.50154577270561E-03 
2351	 2.4137851740395E-03 
2352	 7.53076089411953E-03 
2353	 4.5034922992773E-03 
2354	-5.46864036257635E-03 
2355	-8.64249007046446E-03 
2356	 2.86060998318602E-03 
2357	 8.60808145735483E-03 
2358	 6.95839922953835E-03 
2359	-2.01945129391406E-03 
2360	-2.33637166812397E-02 
2361	-3.49934251920384E-02 
2362	-2.85288359701232E-02 
2363	-1.98698286858166E-02 
2364	-8.71575565802416E-03 
2365	 3.62584585688036E-03 
2366	 2.69164610695772E-03 
2367	 4.28964033988307E-03 
2368	 1.31915159440107E-02 
2369	 6.24053102385223E-03 
2370	-5.19470794434096E-04 
2371	-2.8804261722115E-03 
2372	-1.60128039079226E-02 
2373	-1.26488509417124E-02 
2374	 3.08964635889605E-03 
2375	 1.31973756347051E-02 
2376	 2.67068814440351E-02 
2377	 3.60849299261792E-02 
2378	 3.06768778505613E-02 
2379	 9.50863558009454E-03 
2380	-1.14748359255254E-02 
2381	-3.37847216442596E-02 
2382	-6.06355062697435E-02 
2383	-5.47773958920522E-02 
2384	-4.14839963458282E-02 
2385	-4.31136557789856E-02 
2386	-3.38471127812141E-03 
2387	 2.53746138486894E-02 
2388	 1.01689138126017E-02 
2389	 6.0149951745356E-03 
2390	 7.84246964139946E-03 
2391	 6.93649950845593E-03 
2392	-1.34141068785979E-02 
2393	-2.60306398092283E-02 
2394	-4.54804448211394E-02 
2395	-9.65919975314907E-02 
2396	-9.18212711648221E-02 
2397	-0.043726775255411 
2398	-3.49499330463238E-02 
2399	-5.21389983653303E-02 
2400	-5.34503434534062E-02 
2401	-8.33820253847262E-02 
2402	-9.24630853077193E-02 
2403	-4.15421527678827E-02 
2404	-2.47524610174553E-02 
2405	-1.53769793186688E-02 
2406	-3.73097051049249E-02 
2407	-0.106884326602075 
2408	-8.71205687032883E-02 
2409	-9.86008491330895E-02 
2410	-0.10802759419044 
2411	-1.66245389432876E-02 
2412	-1.49177547580149E-02 
2413	 1.97237499415096E-02 
2414	 9.51656766520865E-02 
2415	-4.71122986070131E-02 
2416	-7.80633914921061E-02 
2417	-9.2617122171211E-03 
2418	-9.89022798008113E-03 
2419	 5.93442482136735E-02 
2420	 6.73930447474594E-02 
2421	 3.74497792786995E-03 
2422	-6.75077526309071E-02 
2423	-6.85960484622303E-02 
2424	 0.024985820191075 
2425	 3.24986028296631E-02 
2426	 0.001619344199957 
2427	 7.53195591006247E-03 
2428	-4.95231497727407E-02 
2429	-0.149406282582426 
2430	-0.184212817876426 
2431	-0.138119914837514 
2432	-0.150982014020405 
2433	-0.23309519631246 
2434	-0.252043120712786 
2435	-0.19360149727497 
2436	-0.142299489210455 
2437	-7.43931391943519E-02 
2438	 0.10029124732037 
2439	 0.159757936911035 
2440	 2.28239522076409E-02 
2441	-9.34556294232144E-03 
2442	-1.15310172824698E-02 
2443	-0.135367309225078 
2444	-0.256236884536943 
2445	-0.369282899698952 
2446	-0.635710605065486 
2447	-0.53137436808725 
2448	-0.661347004611645 
2449	-0.173784533850824 
2450	-4.21992901060857E-02 
2451	-0.415536117594976 
2452	-0.252827190740763 
2453	-0.258739373729507 
2454	-0.115685416006091 
2455	 0.04944727319589 
2456	 6.38844620581718E-02 
2457	 5.39296303086836E-02 
2458	 7.00403456564367E-02 
2459	 4.38946626162743E-02 
2460	-2.66486940292286E-02 
2461	-4.65880564818454E-02 
2462	-0.164705982675625 
2463	-0.363746889671695 
2464	-0.414512726667691 
2465	-0.415040002374743 
2466	-0.186121161027918 
2467	-4.39079936937678E-02 
2468	-0.158017070994851 
2469	-0.404579031265032 
2470	-2.79651694610203 
2471	-1.79457649273958 
2472	-0.920394976674055 
2473	-0.314169258505967 
2474	-0.22222557667025 
2475	-0.361540532755869 
2476	-0.786481799594382 
2477	-0.965608345175917 
2478	-1.15077264704534 
2479	-0.882354065536979 
2480	-1.42259001258899 
2481	 1.13813090700793 
2482	 0.132349205175812 
2483	 0.231414193405272 
2484	 0.905094324599641 
2485	 0.715475653428078 
2486	 2.24501567636569 
2487	-23.03316321379 
2488	 2.40234461473558 
2489	 1.30346874447934 
2490	 2.29156288133219 
2491	 3.51485116980625 
2492	 11.8901008159462 
2493	-7.5844556994303 
2494	 3.31589960599344 
2495	 0.231372373349194 
2496	-0.221843923045135 
2497	-0.328834302876778 
2498	 2.87166400444731E-02 
2499	 0.30328183166795 
2500	 1.24752693249474 
