Wavelength	rt0722east_close00008.asd
350	 2.48428238771191E-02 
351	 2.42253271842107E-02 
352	 2.44877015079047E-02 
353	 2.48664783653469E-02 
354	 2.48823460743426E-02 
355	 2.53300106848505E-02 
356	 2.53171465857432E-02 
357	 2.52396530798595E-02 
358	 2.56146719560527E-02 
359	 2.57515515315956E-02 
360	 2.55156769011186E-02 
361	 2.51463316221195E-02 
362	 2.50886727342164E-02 
363	 2.53132352432508E-02 
364	 2.55671570022056E-02 
365	 2.56181069139419E-02 
366	 2.52896716019344E-02 
367	 2.55793757610707E-02 
368	 2.58966554042554E-02 
369	 2.56526982981002E-02 
370	 2.58098124626769E-02 
371	 2.61746063192139E-02 
372	 2.64149032111872E-02 
373	 2.62437947905524E-02 
374	 2.65113717775173E-02 
375	 2.65009472497286E-02 
376	 2.62487200882819E-02 
377	 2.69819391538414E-02 
378	 2.73708779954442E-02 
379	 0.027222671195155 
380	 2.68966244583568E-02 
381	 2.75552561111149E-02 
382	 2.76360295666731E-02 
383	 2.75044970320081E-02 
384	 2.82152368971273E-02 
385	 2.85569311049446E-02 
386	 2.86275878605312E-02 
387	 2.86792485731511E-02 
388	 2.89865223854553E-02 
389	 2.93547279580182E-02 
390	 2.93793708740984E-02 
391	 0.029124177087925 
392	 2.98712809076656E-02 
393	 3.02662148864418E-02 
394	 3.02909439456862E-02 
395	 3.04101867671307E-02 
396	 3.06787243285382E-02 
397	 3.08478714654287E-02 
398	 3.09080746495533E-02 
399	 3.10498027841646E-02 
400	 3.09008685598466E-02 
401	 0.030915927691453 
402	 3.12744784382353E-02 
403	 3.12834788750718E-02 
404	 3.13818537817598E-02 
405	 3.16112262190627E-02 
406	 3.18637770604908E-02 
407	 3.20856625888984E-02 
408	 3.21400708394085E-02 
409	 3.21750455588644E-02 
410	 3.25718233868845E-02 
411	 3.26052061674711E-02 
412	 3.26972646320866E-02 
413	 3.31226817103124E-02 
414	 0.033318646607925 
415	 3.34714619712574E-02 
416	 3.36623193456391E-02 
417	 3.39122780841197E-02 
418	 3.40911871636725E-02 
419	 3.43111827719391E-02 
420	 3.45822088642496E-02 
421	 0.034793845363537 
422	 3.51029214165011E-02 
423	 3.54323923126329E-02 
424	 3.56897859302201E-02 
425	 3.58644171312804E-02 
426	 3.60888479179602E-02 
427	 0.03645659910008 
428	 3.69794093342053E-02 
429	 3.73249782122358E-02 
430	 3.76557835564329E-02 
431	 3.79999492656656E-02 
432	 3.81780381841181E-02 
433	 3.84446633434308E-02 
434	 3.87768724936736E-02 
435	 3.91140060464029E-02 
436	 0.039485690447315 
437	 3.98815730425641E-02 
438	 4.02741717466226E-02 
439	 4.06302905098125E-02 
440	 4.09711860521142E-02 
441	 0.04125022119042 
442	 4.14918124545366E-02 
443	 4.18310910307789E-02 
444	 4.22085187828134E-02 
445	 4.25764784041057E-02 
446	 4.28927067569825E-02 
447	 4.31218093893643E-02 
448	 0.043386762710407 
449	 4.37129222623124E-02 
450	 4.40362615461498E-02 
451	 4.41477706279622E-02 
452	 4.43470533851585E-02 
453	 4.47348114796816E-02 
454	 4.48505711361609E-02 
455	 4.50488902279504E-02 
456	 0.045265780243259 
457	 4.53645410226164E-02 
458	 4.56487042555682E-02 
459	 4.58862380962872E-02 
460	 4.60050053943431E-02 
461	 4.61197477163417E-02 
462	 4.62622229182608E-02 
463	 4.64123545788943E-02 
464	 4.65547948024496E-02 
465	 4.67231723809652E-02 
466	 4.69195627627896E-02 
467	 4.71357479669855E-02 
468	 4.73603668640345E-02 
469	 4.76216801671899E-02 
470	 4.77835675704277E-02 
471	 4.78508965026984E-02 
472	 4.80284149754909E-02 
473	 4.82373593187348E-02 
474	 4.84343929524161E-02 
475	 4.86119877616096E-02 
476	 4.88645451234487E-02 
477	 4.91282609577384E-02 
478	 4.93614495301462E-02 
479	 0.049553047292076 
480	 4.98235544514399E-02 
481	 5.00926257708767E-02 
482	 5.03271532042457E-02 
483	 5.06441178074037E-02 
484	 5.09815404997779E-02 
485	 5.13129023001105E-02 
486	 5.16381599460405E-02 
487	 5.20363292002283E-02 
488	 5.23902763694568E-02 
489	 5.26904324982289E-02 
490	 5.30370166135808E-02 
491	 5.33583996931076E-02 
492	 5.37154045628814E-02 
493	 5.41486014342795E-02 
494	 5.45975687923374E-02 
495	 5.49708519641365E-02 
496	 0.055314542142681 
497	 5.57461321268641E-02 
498	 0.056297194834842 
499	 5.67968539086669E-02 
500	 5.72052886125693E-02 
501	 5.77140835648239E-02 
502	 5.81966556356991E-02 
503	 0.058660443611094 
504	 5.91450757511153E-02 
505	 5.96647165068636E-02 
506	 6.01243260941959E-02 
507	 0.060565247163541 
508	 6.11236720515198E-02 
509	 6.16478732687098E-02 
510	 6.21019846968996E-02 
511	 0.062537998815137 
512	 6.31815748451749E-02 
513	 6.37690125131224E-02 
514	 6.43147554349402E-02 
515	 6.49327611211818E-02 
516	 6.55480835653121E-02 
517	 6.61417317885286E-02 
518	 6.67371127624559E-02 
519	 6.74036163043408E-02 
520	 6.81240719452114E-02 
521	 6.87653769262418E-02 
522	 6.92785126462831E-02 
523	 6.99653168655147E-02 
524	 7.06634110476096E-02 
525	 7.13422858922376E-02 
526	 7.20587894109249E-02 
527	 7.26691050687089E-02 
528	 7.33437628989332E-02 
529	 7.41334845607515E-02 
530	 7.47720096975518E-02 
531	 7.54038899836094E-02 
532	 7.61101144604108E-02 
533	 7.69094863223077E-02 
534	 7.75928625358403E-02 
535	 7.82936283765635E-02 
536	 7.90403744084074E-02 
537	 0.079715703152629 
538	 8.05227423968453E-02 
539	 8.13585496219752E-02 
540	 8.21018342109115E-02 
541	 8.28240117924179E-02 
542	 8.35700862615989E-02 
543	 0.084338631213715 
544	 8.51022504892953E-02 
545	 8.58732013597941E-02 
546	 8.66489165035598E-02 
547	 8.74101473902069E-02 
548	 8.81024423255791E-02 
549	 8.88615802460668E-02 
550	 8.96372154710244E-02 
551	 9.03428089733275E-02 
552	 9.10927974181803E-02 
553	 9.18397750654424E-02 
554	 9.25726844257998E-02 
555	 9.33263754427219E-02 
556	 9.40587209127385E-02 
557	 9.48023648874555E-02 
558	 0.09557942797639 
559	 9.63597610843756E-02 
560	 9.70346367650901E-02 
561	 9.76352207245108E-02 
562	 9.82783159110983E-02 
563	 9.89272245907542E-02 
564	 9.95570454553487E-02 
565	 0.100133207103145 
566	 0.100597438476008 
567	 0.101058126256814 
568	 0.101567192850025 
569	 0.102115238904702 
570	 0.102510254190653 
571	 0.102869693219834 
572	 0.103260911567743 
573	 0.103672988766412 
574	 0.104061057609254 
575	 0.10438638862462 
576	 0.104647732599023 
577	 0.104965439325297 
578	 0.105199222581197 
579	 0.105355106295897 
580	 0.105529251638538 
581	 0.1057370274015 
582	 0.105836962106459 
583	 0.10579729337947 
584	 0.105822508262377 
585	 0.105743195883017 
586	 0.105641873639582 
587	 0.105631758581207 
588	 0.105461211005621 
589	 0.105220587760938 
590	 0.104996873718623 
591	 0.104818519417477 
592	 0.104625034100581 
593	 0.104310326023157 
594	 0.103818228195104 
595	 0.103235105426664 
596	 0.102624693439056 
597	 0.101967565523921 
598	 0.101216512913986 
599	 0.100516763981814 
600	 9.99292317429311E-02 
601	 0.099475739123904 
602	 9.91285326341848E-02 
603	 0.098952258421803 
604	 0.09887366799901 
605	 9.88010576915002E-02 
606	 9.87938928182953E-02 
607	 9.87947612821057E-02 
608	 9.87991617630936E-02 
609	 9.88612822659858E-02 
610	 9.89999761704868E-02 
611	 9.91173675665651E-02 
612	 9.91341030595445E-02 
613	 0.099083248742354 
614	 9.90875326436468E-02 
615	 0.099125491368303 
616	 9.91108539520132E-02 
617	 9.92211580579745E-02 
618	 0.09925791230137 
619	 9.91651648171376E-02 
620	 9.91729180338069E-02 
621	 9.92024807984441E-02 
622	 9.92213125666209E-02 
623	 9.92097659110643E-02 
624	 9.91714580708128E-02 
625	 9.90732802326375E-02 
626	 9.90149811957814E-02 
627	 9.91958512025548E-02 
628	 9.91764621815582E-02 
629	 0.099106551436507 
630	 9.91340125980425E-02 
631	 9.90882685378139E-02 
632	 9.89911539409898E-02 
633	 9.89227439436456E-02 
634	 9.89643794544357E-02 
635	 0.098953978880904 
636	 9.89132207844373E-02 
637	 0.098861621401777 
638	 9.87889458191438E-02 
639	 0.098638446833047 
640	 9.85137153671804E-02 
641	 9.84985805863506E-02 
642	 9.84026846493912E-02 
643	 9.82439934873254E-02 
644	 9.80714483118969E-02 
645	 9.79536066872218E-02 
646	 9.78412462970633E-02 
647	 9.77338850232952E-02 
648	 9.76190964621685E-02 
649	 9.74379053316142E-02 
650	 9.71916857062857E-02 
651	 9.69254419777429E-02 
652	 9.66893708051584E-02 
653	 9.63893183855331E-02 
654	 9.59511847831216E-02 
655	 9.53835925975225E-02 
656	 9.48849718806468E-02 
657	 9.44679743891522E-02 
658	 0.094146737558742 
659	 9.38851885167374E-02 
660	 9.35227111725765E-02 
661	 9.32618167863548E-02 
662	 9.31081919939284E-02 
663	 9.29538532204851E-02 
664	 9.28607400086632E-02 
665	 9.27722633865006E-02 
666	 9.26497829962065E-02 
667	 9.25051094039945E-02 
668	 9.24602618062963E-02 
669	 9.24723539829519E-02 
670	 9.24545697221195E-02 
671	 9.24236727163876E-02 
672	 9.23653308931679E-02 
673	 9.22685329136793E-02 
674	 9.21365810125383E-02 
675	 9.22059550143691E-02 
676	 9.22610747221449E-02 
677	 9.21421327344073E-02 
678	 9.20357084670725E-02 
679	 9.20099073430173E-02 
680	 0.092053393537717 
681	 9.21042001580487E-02 
682	 9.20993308457198E-02 
683	 9.21392571606972E-02 
684	 0.092192259020662 
685	 9.20234436424565E-02 
686	 9.20023430965436E-02 
687	 0.091974601133279 
688	 9.17490230400735E-02 
689	 9.16139013712708E-02 
690	 9.14121632144054E-02 
691	 9.10940086439325E-02 
692	 9.06783527418261E-02 
693	 9.03068099899342E-02 
694	 8.98849854606834E-02 
695	 8.93616588268643E-02 
696	 8.87496248163045E-02 
697	 8.81172067709805E-02 
698	 8.73952850743792E-02 
699	 8.65628074571269E-02 
700	 8.57976752268776E-02 
701	 8.49027237078465E-02 
702	 0.083922413456518 
703	 8.30493451783566E-02 
704	 8.20581640342505E-02 
705	 8.09971784459412E-02 
706	 0.079915102074403 
707	 7.86880242406934E-02 
708	 7.73747154561935E-02 
709	 7.59622296575043E-02 
710	 7.44250626881029E-02 
711	 7.28045372072558E-02 
712	 7.11145651690745E-02 
713	 0.069394077898489 
714	 6.76611597253297E-02 
715	 6.59589200256706E-02 
716	 6.40643270377896E-02 
717	 6.19303984426027E-02 
718	 5.98032540017931E-02 
719	 5.76306841584493E-02 
720	 5.57452176416417E-02 
721	 5.40387961067893E-02 
722	 5.23550522975831E-02 
723	 5.03791077349853E-02 
724	 4.82958820868752E-02 
725	 4.63226789186126E-02 
726	 4.43771708778608E-02 
727	 4.22941036625753E-02 
728	 3.99632312883096E-02 
729	 3.73471212264033E-02 
730	 3.48437589749993E-02 
731	 3.26735330233196E-02 
732	 0.030772244812375 
733	 2.91851917372702E-02 
734	 2.78583942402743E-02 
735	 2.67384155161447E-02 
736	 2.57356470822918E-02 
737	 2.50410529650038E-02 
738	 2.45505871756128E-02 
739	 0.024151439090858 
740	 0.023901413463759 
741	 2.36623525662378E-02 
742	 2.34346186833127E-02 
743	 2.32927769491135E-02 
744	 2.32899114789735E-02 
745	 2.32127200426419E-02 
746	 2.30568962731923E-02 
747	 2.31265980794433E-02 
748	 2.31570602991264E-02 
749	 2.31117091598019E-02 
750	 2.30279876145166E-02 
751	 2.29709323902658E-02 
752	 2.29934781570229E-02 
753	 2.30381098725046E-02 
754	 2.30000612813609E-02 
755	 0.022944587873209 
756	 2.28744626207973E-02 
757	 2.28413637981706E-02 
758	 2.30304439533201E-02 
759	 2.31112563568719E-02 
760	 2.30148971567786E-02 
761	 2.30181872914925E-02 
762	 2.32836458101909E-02 
763	 2.32657575210687E-02 
764	 2.32196336411724E-02 
765	 2.34606225810989E-02 
766	 2.34399011794804E-02 
767	 2.34250487269515E-02 
768	 2.35518925204671E-02 
769	 2.38220462581165E-02 
770	 0.023918022827526 
771	 2.39693866300983E-02 
772	 2.41320556592197E-02 
773	 2.43767172556029E-02 
774	 2.45579374990575E-02 
775	 2.47380446188668E-02 
776	 0.025034172190656 
777	 2.52649058907965E-02 
778	 2.54528837322535E-02 
779	 2.56663028797479E-02 
780	 0.025999557722458 
781	 2.64508939032622E-02 
782	 2.67970367912228E-02 
783	 2.69828592727873E-02 
784	 2.74281363064602E-02 
785	 2.77527895579194E-02 
786	 2.80016711473224E-02 
787	 2.83221583319492E-02 
788	 2.85332830613536E-02 
789	 0.028902887990214 
790	 2.94263518563192E-02 
791	 2.98667697432538E-02 
792	 3.01484814883591E-02 
793	 3.04810297052619E-02 
794	 3.09512233731033E-02 
795	 3.13696162943759E-02 
796	 3.17329919649994E-02 
797	 3.20079014108067E-02 
798	 0.032249290723974 
799	 0.032786269399982 
800	 3.31373431043464E-02 
801	 3.33349731071251E-02 
802	 3.36732455917483E-02 
803	 3.39192968679921E-02 
804	 3.40634071880671E-02 
805	 3.41049670510076E-02 
806	 3.40382756370302E-02 
807	 0.034085140268987 
808	 3.41367542933912E-02 
809	 3.40730682464936E-02 
810	 3.39235069577797E-02 
811	 3.38108413231352E-02 
812	 0.033623907554079 
813	 3.32069336579327E-02 
814	 3.28484606196391E-02 
815	 3.26128487253644E-02 
816	 3.22878214959148E-02 
817	 3.15641688443469E-02 
818	 3.10446190217515E-02 
819	 3.05516519075698E-02 
820	 2.98949396277214E-02 
821	 2.89981873442272E-02 
822	 2.80119118760961E-02 
823	 2.67810040087471E-02 
824	 2.53572173463828E-02 
825	 2.42534700035244E-02 
826	 2.29918357159421E-02 
827	 2.14873968212259E-02 
828	 1.99640992784751E-02 
829	 1.88204847051123E-02 
830	 1.77104899583759E-02 
831	 1.66220062163722E-02 
832	 0.015823178100884 
833	 1.51469892538873E-02 
834	 1.46063610822935E-02 
835	 1.42294950474234E-02 
836	 1.40439789140255E-02 
837	 1.36214840348155E-02 
838	 1.32638312831378E-02 
839	 1.31627545172273E-02 
840	 1.27968403125806E-02 
841	 1.25278778055401E-02 
842	 0.012448514051035 
843	 0.012462559297495 
844	 1.20905736579449E-02 
845	 1.19984516647661E-02 
846	 1.20229458079604E-02 
847	 1.15469837921044E-02 
848	 1.16122403191211E-02 
849	 1.15500982554507E-02 
850	 1.11586147214636E-02 
851	 1.10508269391783E-02 
852	 1.09662717972738E-02 
853	 1.09118510724067E-02 
854	 1.08879982754084E-02 
855	 1.07928993751764E-02 
856	 1.05375891835975E-02 
857	 1.03569065413787E-02 
858	 1.03852836361499E-02 
859	 1.00795213011865E-02 
860	 9.85514854606598E-03 
861	 9.80816538852736E-03 
862	 9.82474686850823E-03 
863	 9.69191455038649E-03 
864	 9.48608246075415E-03 
865	 9.33132790160892E-03 
866	 9.34135848455531E-03 
867	 9.33772983857928E-03 
868	 9.14959250776751E-03 
869	 8.87896109824228E-03 
870	 8.94040104792495E-03 
871	 8.84275435343964E-03 
872	 8.72184901336867E-03 
873	 8.66357357267086E-03 
874	 8.33176893390388E-03 
875	 8.06172819767049E-03 
876	 7.95643988346286E-03 
877	 7.95026156423756E-03 
878	 7.6935621292977E-03 
879	 7.40381605048051E-03 
880	 7.33804309444128E-03 
881	 7.59002510135349E-03 
882	 7.3872456834545E-03 
883	 7.11266790523375E-03 
884	 6.97553953031436E-03 
885	 6.96441045633822E-03 
886	 6.84416246042511E-03 
887	 6.72376742353978E-03 
888	 6.66101420618048E-03 
889	 6.6025509324031E-03 
890	 6.38659695500009E-03 
891	 6.37410014390281E-03 
892	 6.62857422796224E-03 
893	 6.47206776818416E-03 
894	 6.19281711354734E-03 
895	 5.86274260954629E-03 
896	 5.57873047477379E-03 
897	 5.6155437744628E-03 
898	 6.02412370525683E-03 
899	 5.84917123366714E-03 
900	 4.76827935516358E-03 
901	 5.48923166537944E-03 
902	 5.5978869590306E-03 
903	 5.32878597791248E-03 
904	 5.62983725144483E-03 
905	 5.50182229127101E-03 
906	 5.2624385036066E-03 
907	 5.03450784089719E-03 
908	 4.80141659315734E-03 
909	 4.62605759534032E-03 
910	 5.1844162236795E-03 
911	 5.91493059392374E-03 
912	 5.36948401439528E-03 
913	 4.67260500543367E-03 
914	 4.58245170170784E-03 
915	 4.98644445034093E-03 
916	 4.91347637682551E-03 
917	 4.49223642708741E-03 
918	 4.11191287580081E-03 
919	 4.04305350445586E-03 
920	 4.32365439082555E-03 
921	 4.38954474072956E-03 
922	 4.31344774373072E-03 
923	 4.18224743162116E-03 
924	 3.81612395694433E-03 
925	 4.24515444482933E-03 
926	 4.40990870928323E-03 
927	 3.44399614848192E-03 
928	 4.12311751752627E-03 
929	 4.02586904821205E-03 
930	 2.70757019223355E-03 
931	 1.58771336724723E-03 
932	 5.15494337334118E-03 
933	 4.15435716798388E-03 
934	 4.30092255049034E-04 
935	 1.92767565704601E-03 
936	 6.22240234418293E-03 
937	 5.18293011372213E-03 
938	 2.86093033689722E-03 
939	 4.25541181883493E-03 
940	 3.62850217982371E-03 
941	 3.17202102592418E-03 
942	 2.31917307210308E-03 
943	 2.08284295640856E-04 
944	 2.71614875025197E-03 
945	 5.79223898418819E-03 
946	 5.43366988981817E-03 
947	 1.0123570041355E-03 
948	 4.51958678253791E-03 
949	 2.7719980693439E-03 
950	-7.39007669185687E-04 
951	 4.82496836063155E-03 
952	 3.70033305189834E-03 
953	 2.01658223931592E-03 
954	 2.23220247323781E-03 
955	 3.08110013595925E-03 
956	 4.90598319299188E-03 
957	 4.8752228358095E-03 
958	 3.2030077442434E-03 
959	 2.2147982779094E-03 
960	 2.54768020241027E-03 
961	 1.85104828926132E-03 
962	 8.99935990308992E-04 
963	 2.16692865623113E-03 
964	 3.72505996991043E-03 
965	 4.51611262113976E-03 
966	 4.45055453894622E-03 
967	 4.04345094210782E-03 
968	 3.28799123779775E-03 
969	 3.39892194188233E-03 
970	 3.73176520930682E-03 
971	 2.47967856958181E-03 
972	 2.34055099753979E-03 
973	 2.96069971113114E-03 
974	 3.47515795129988E-03 
975	 3.03886138733065E-03 
976	 1.97600631268778E-03 
977	 1.93459194462706E-03 
978	 2.79494828837359E-03 
979	 3.03094433405233E-03 
980	 3.68055901207311E-03 
981	 3.55468710021695E-03 
982	 3.09794014833349E-03 
983	 3.81228510477869E-03 
984	 3.96859477504712E-03 
985	 3.12170713905941E-03 
986	 2.08451559251769E-03 
987	 2.3444266350241E-03 
988	 3.93250799359433E-03 
989	 4.47419146329376E-03 
990	 3.5186842936368E-03 
991	 2.45180205992942E-03 
992	 2.92414104696653E-03 
993	 2.81034754353184E-03 
994	 2.53457731423805E-03 
995	 3.86142480790098E-03 
996	 4.0072568905152E-03 
997	 3.23532131383597E-03 
998	 2.51775885902211E-03 
999	 2.87694956548396E-03 
1000	 4.07283130947833E-03 
1001	 2.75241315377272E-03 
1002	 2.28549627330545E-03 
1003	 2.20487975230455E-03 
1004	 2.42676255950902E-03 
1005	 2.55379192135987E-03 
1006	 2.65680175756864E-03 
1007	 2.90841601638755E-03 
1008	 3.25348705585393E-03 
1009	 3.08345886439717E-03 
1010	 3.20940169375622E-03 
1011	 3.52755758893905E-03 
1012	 3.45347796004979E-03 
1013	 3.51655746849573E-03 
1014	 3.50509452160076E-03 
1015	 3.14290039766402E-03 
1016	 3.17699377990325E-03 
1017	 3.69262328524834E-03 
1018	 3.67534723284795E-03 
1019	 3.39463603220865E-03 
1020	 3.34183764200409E-03 
1021	 3.05208060605174E-03 
1022	 2.9310155850683E-03 
1023	 3.47847723653808E-03 
1024	 3.69483980744317E-03 
1025	 3.76710226385134E-03 
1026	 3.88228662763983E-03 
1027	 3.84064204909754E-03 
1028	 3.48196199124937E-03 
1029	 3.51046201787851E-03 
1030	 3.80310829119393E-03 
1031	 3.76075600999028E-03 
1032	 3.72928015325855E-03 
1033	 3.63171877607228E-03 
1034	 3.06431262870138E-03 
1035	 2.94168069278367E-03 
1036	 3.1361965720319E-03 
1037	 3.20182809135728E-03 
1038	 3.37678998188249E-03 
1039	 3.60044242287775E-03 
1040	 3.50300655939401E-03 
1041	 3.79916486317775E-03 
1042	 3.79229191129643E-03 
1043	 3.71115487035727E-03 
1044	 3.66679619959376E-03 
1045	 3.48670396757683E-03 
1046	 3.42205348461567E-03 
1047	 3.5100912658224E-03 
1048	 3.42005673031273E-03 
1049	 3.22385474033193E-03 
1050	 3.12559604065214E-03 
1051	 2.85394611625903E-03 
1052	 2.86491540092456E-03 
1053	 3.25268299847022E-03 
1054	 3.3449489048887E-03 
1055	 3.49080910794345E-03 
1056	 0.00352961234871 
1057	 3.44789147537933E-03 
1058	 3.06924657481002E-03 
1059	 2.94183681547511E-03 
1060	 2.81199311651309E-03 
1061	 2.80398091236248E-03 
1062	 2.79335509665652E-03 
1063	 3.01836377267666E-03 
1064	 3.78501608047734E-03 
1065	 3.8286041616978E-03 
1066	 3.52115677710334E-03 
1067	 3.47948677874649E-03 
1068	 2.86007845413859E-03 
1069	 2.79073511362558E-03 
1070	 3.78324323956668E-03 
1071	 3.94170681290209E-03 
1072	 3.64748019480561E-03 
1073	 3.44154203546122E-03 
1074	 3.39195646430015E-03 
1075	 2.87780099205269E-03 
1076	 2.9843289085883E-03 
1077	 3.92373709920281E-03 
1078	 4.02434443161346E-03 
1079	 3.8397486303276E-03 
1080	 3.70654980981606E-03 
1081	 3.04424638762783E-03 
1082	 2.94816724033432E-03 
1083	 3.40535904527618E-03 
1084	 3.43375111098021E-03 
1085	 3.32549003566066E-03 
1086	 3.40977409244188E-03 
1087	 3.32599472322142E-03 
1088	 3.29008519958705E-03 
1089	 3.49766355187195E-03 
1090	 3.92880127593012E-03 
1091	 3.79553096846232E-03 
1092	 3.24264265100865E-03 
1093	 3.05669149303821E-03 
1094	 2.4998311401434E-03 
1095	 2.63066979986748E-03 
1096	 3.63410770374118E-03 
1097	 3.71463347394112E-03 
1098	 0.003592317747714 
1099	 3.6482491490578E-03 
1100	 3.03050671720642E-03 
1101	 2.94039225135938E-03 
1102	 3.86088587227434E-03 
1103	 3.99868686544709E-03 
1104	 3.68504059183054E-03 
1105	 3.38628826230854E-03 
1106	 3.03134460365827E-03 
1107	 2.39292043017306E-03 
1108	 2.65793196404805E-03 
1109	 3.16142668973628E-03 
1110	 3.25523946394394E-03 
1111	 3.41993460278548E-03 
1112	 3.62715218609447E-03 
1113	 3.42446648938877E-03 
1114	 3.51799511087359E-03 
1115	 3.95758851119094E-03 
1116	 4.04260015306526E-03 
1117	 4.10626408159603E-03 
1118	 4.20967006027034E-03 
1119	 0.003798244642343 
1120	 4.25008988545592E-03 
1121	 5.90080037857319E-03 
1122	 6.18541180387773E-03 
1123	 6.3993851356014E-03 
1124	 8.05508183185013E-03 
1125	 0.011892938328664 
1126	 1.12637870018352E-02 
1127	 8.79537421788618E-03 
1128	 7.98766551670289E-03 
1129	 4.80500037350066E-03 
1130	-3.49360240930293E-03 
1131	-2.91552053020206E-03 
1132	 1.69020219843641E-03 
1133	 3.12379345882937E-03 
1134	 7.82559204458779E-03 
1135	 8.10238943883994E-03 
1136	 3.06872962154326E-03 
1137	 0.002804988430757 
1138	 4.18232067917588E-03 
1139	 5.27958045573051E-03 
1140	 4.56077968873527E-03 
1141	 4.87656019959671E-03 
1142	 4.77391488938559E-03 
1143	 2.37483729400102E-03 
1144	 3.20625169070115E-03 
1145	 5.6740684140446E-03 
1146	 4.70389757917647E-03 
1147	 4.58243803751419E-03 
1148	 4.26178409648586E-03 
1149	 2.26396114265732E-03 
1150	 2.16475769828094E-03 
1151	 3.36002041823499E-03 
1152	 3.21838149497067E-03 
1153	 3.43160739621697E-03 
1154	 3.25738243155613E-03 
1155	 2.43322081734008E-03 
1156	 1.73173752919833E-03 
1157	 2.1544668506355E-03 
1158	 2.51000080966879E-03 
1159	 0.002719530637397 
1160	 3.11367349747088E-03 
1161	 2.97057490378401E-03 
1162	 2.67191482639154E-03 
1163	 2.58535367931611E-03 
1164	 2.52981578500116E-03 
1165	 3.06827877805144E-03 
1166	 3.41385319266114E-03 
1167	 3.0681686485035E-03 
1168	 0.002792713420191 
1169	 2.39306262505364E-03 
1170	 2.21704311955825E-03 
1171	 2.29951768177722E-03 
1172	 3.18107641532762E-03 
1173	 3.20594534361218E-03 
1174	 2.91447898665643E-03 
1175	 2.65636064706087E-03 
1176	 2.55992604976883E-03 
1177	 2.51894786922202E-03 
1178	 2.4550203622231E-03 
1179	 2.53057269912899E-03 
1180	 2.65919176811659E-03 
1181	 2.65784023944329E-03 
1182	 2.95923026826424E-03 
1183	 3.42060297485675E-03 
1184	 3.19450656614015E-03 
1185	 2.57348311038862E-03 
1186	 2.54478941156823E-03 
1187	 2.62334462189864E-03 
1188	 2.50104317816095E-03 
1189	 2.83399906461393E-03 
1190	 3.10639365567239E-03 
1191	 2.83270591069023E-03 
1192	 2.71749316516435E-03 
1193	 2.61431463740116E-03 
1194	 2.70661547380182E-03 
1195	 0.002709217229805 
1196	 2.88120627898446E-03 
1197	 3.07717274462649E-03 
1198	 2.85573299004469E-03 
1199	 2.50222892193924E-03 
1200	 2.60569728697979E-03 
1201	 2.72192913059093E-03 
1202	 2.56032520980665E-03 
1203	 2.67745855416913E-03 
1204	 2.73309189552702E-03 
1205	 2.67013607588051E-03 
1206	 2.98632146574821E-03 
1207	 3.25549210198757E-03 
1208	 2.96910032772164E-03 
1209	 2.52783818464437E-03 
1210	 2.51112670695756E-03 
1211	 2.69052014576207E-03 
1212	 2.76382810732087E-03 
1213	 2.95359896216435E-03 
1214	 3.02419678484485E-03 
1215	 2.94480306617536E-03 
1216	 2.53847462312659E-03 
1217	 2.56224776921502E-03 
1218	 2.85083388274276E-03 
1219	 2.7072785367258E-03 
1220	 2.58270624763909E-03 
1221	 2.73329897671101E-03 
1222	 2.64692562639338E-03 
1223	 2.53836339424655E-03 
1224	 2.69483222637777E-03 
1225	 2.72185441142282E-03 
1226	 2.50959899699529E-03 
1227	 2.48881692181507E-03 
1228	 2.76458286528645E-03 
1229	 2.82652603958417E-03 
1230	 2.72434872968356E-03 
1231	 2.68313517450423E-03 
1232	 2.53263170203897E-03 
1233	 2.52070556196744E-03 
1234	 2.59805014305315E-03 
1235	 2.59744728152482E-03 
1236	 2.59608819129492E-03 
1237	 2.69842209817754E-03 
1238	 2.82686419477339E-03 
1239	 2.86396022476135E-03 
1240	 2.76841996130291E-03 
1241	 2.61277655839001E-03 
1242	 2.54173530401826E-03 
1243	 2.60013327753269E-03 
1244	 2.84756978984578E-03 
1245	 3.03546811479441E-03 
1246	 2.8901565869699E-03 
1247	 2.69233563394179E-03 
1248	 2.66983636927858E-03 
1249	 2.68228535223123E-03 
1250	 2.59820141933983E-03 
1251	 2.5271749271754E-03 
1252	 2.49932776511667E-03 
1253	 2.54226764707044E-03 
1254	 2.73098450007737E-03 
1255	 2.80153550034502E-03 
1256	 2.79557303680076E-03 
1257	 2.63751854695899E-03 
1258	 2.62334313647657E-03 
1259	 2.57266175155419E-03 
1260	 2.50645998539515E-03 
1261	 2.45825131768915E-03 
1262	 2.55020946731496E-03 
1263	 2.72592159396012E-03 
1264	 2.85422621741572E-03 
1265	 2.72144196715522E-03 
1266	 2.67454383300063E-03 
1267	 2.82381540473536E-03 
1268	 2.84293320877463E-03 
1269	 2.97645172646842E-03 
1270	 3.0624143628546E-03 
1271	 2.73572378022216E-03 
1272	 2.47162468947781E-03 
1273	 2.57264642912852E-03 
1274	 2.85925717568788E-03 
1275	 2.8842865749944E-03 
1276	 2.52918018816148E-03 
1277	 2.49655954810764E-03 
1278	 2.72978891306026E-03 
1279	 2.69822118425063E-03 
1280	 2.63524147180775E-03 
1281	 2.67312307879276E-03 
1282	 2.63760863105921E-03 
1283	 2.64103344550228E-03 
1284	 2.82136439621261E-03 
1285	 2.85866430223561E-03 
1286	 2.82733613547695E-03 
1287	 2.77756493590228E-03 
1288	 2.58167905477336E-03 
1289	 2.50641988493733E-03 
1290	 2.50985164861337E-03 
1291	 2.45395955581344E-03 
1292	 2.63308401684648E-03 
1293	 2.93640907548803E-03 
1294	 2.99847841151851E-03 
1295	 2.88010520808296E-03 
1296	 2.79369534771745E-03 
1297	 2.78002617873254E-03 
1298	 2.58584309221789E-03 
1299	 2.52842233546275E-03 
1300	 2.66172747627386E-03 
1301	 2.66159198353216E-03 
1302	 2.81598382235554E-03 
1303	 3.07140374436834E-03 
1304	 2.88152596991173E-03 
1305	 2.59452261036396E-03 
1306	 2.58190927786088E-03 
1307	 3.00228012522437E-03 
1308	 3.02680329733015E-03 
1309	 2.88594991060258E-03 
1310	 3.02427285014967E-03 
1311	 3.25623584958417E-03 
1312	 3.22906494003437E-03 
1313	 3.26058856969697E-03 
1314	 3.22926822112178E-03 
1315	 2.77324567211426E-03 
1316	 2.64398682922195E-03 
1317	 3.02655256051757E-03 
1318	 2.9627967251451E-03 
1319	 2.29577475871746E-03 
1320	 2.26383951487994E-03 
1321	 2.62873917416284E-03 
1322	 2.74803577323239E-03 
1323	 2.5634611732297E-03 
1324	 2.81649963805182E-03 
1325	 3.46858659060726E-03 
1326	 3.48512378880288E-03 
1327	 3.07559676784494E-03 
1328	 3.36949287474486E-03 
1329	 3.71021314891363E-03 
1330	 2.89957997409477E-03 
1331	 2.37187337795229E-03 
1332	 3.65676254749525E-03 
1333	 4.35109633079808E-03 
1334	 3.11470903882747E-03 
1335	 3.00229099527621E-03 
1336	 3.84791187386815E-03 
1337	 4.13638403333899E-03 
1338	 4.34084198903723E-03 
1339	 4.44352962721188E-03 
1340	 3.95475001543999E-03 
1341	 3.84342127753496E-03 
1342	 3.96570216331391E-03 
1343	 3.96697119325038E-03 
1344	 4.53143921155837E-03 
1345	 4.79368605878989E-03 
1346	 3.52577593347906E-03 
1347	 3.74579743636343E-03 
1348	 6.84153336103522E-03 
1349	 8.1784447230424E-03 
1350	 9.71588623860021E-03 
1351	 1.08849871788636E-02 
1352	 3.06701007741534E-04 
1353	 1.56844867695108E-03 
1354	 2.83579464022873E-02 
1355	 6.62238919821718E-02 
1356	 0.10516468468745 
1357	 0.113943889633567 
1358	 0.111636982617588 
1359	 7.88754415340991E-02 
1360	 2.46209067040399E-02 
1361	-9.40650667204644E-03 
1362	-0.022617790922036 
1363	 3.14133775461234E-02 
1364	 3.05609211603161E-02 
1365	 6.54558260794971E-04 
1366	 9.72582848692211E-02 
1367	 0.138060424624661 
1368	 7.88410608013105E-02 
1369	 0.04399661175216 
1370	 9.13867696441675E-02 
1371	-0.07986220436233 
1372	-9.17519248834646E-02 
1373	 0.231806350926504 
1374	 0.444064580398564 
1375	 0.435916759752549 
1376	 0.359856834006416 
1377	 0.260331399865315 
1378	 0.272369547768286 
1379	 0.217655853679124 
1380	 0.189471636572122 
1381	 0.303309763431414 
1382	 0.301640288482576 
1383	 0.105725461095749 
1384	 0.102120734450088 
1385	 0.328922610429912 
1386	 0.389800994694171 
1387	 0.387932322335032 
1388	 0.387657191992299 
1389	 0.255145523504577 
1390	 0.172023625562371 
1391	 0.076096035914554 
1392	 9.03356997770016E-02 
1393	 0.409115084373578 
1394	 0.559262237408046 
1395	 0.599452801979374 
1396	 0.708907488005189 
1397	 0.589735128844272 
1398	 0.383525239287751 
1399	 0.418035346573415 
1400	 0.380948499639412 
1401	 0.242713623474912 
1402	 0.301867478646097 
1403	 0.124926426546226 
1404	 0.143497270227501 
1405	 0.175247986340552 
1406	 4.80192528191243E-02 
1407	 9.86819991570161E-02 
1408	 0.461591937633694 
1409	 0.387994683122671 
1410	 0.12645710340763 
1411	 0.13814503350157 
1412	 0.252375455838201 
1413	 0.155228591170883 
1414	 3.21026482610368E-03 
1415	 1.26064656035234E-02 
1416	-0.005628743784508 
1417	-4.26707911254774E-02 
1418	 3.61554642978004E-03 
1419	 0.042564777890265 
1420	 2.87339744769709E-02 
1421	 1.73622736420185E-02 
1422	 4.09312902627191E-02 
1423	 4.63119788069084E-02 
1424	 1.44210478255266E-02 
1425	 9.95439081540692E-03 
1426	 3.69229604954815E-02 
1427	 3.59855655168876E-02 
1428	 1.81285712362289E-02 
1429	 1.75149987059303E-02 
1430	 1.97969770657252E-02 
1431	 0.014821390811729 
1432	 1.21094321562021E-02 
1433	 1.11732112411576E-02 
1434	 6.9914423596368E-04 
1435	-9.94101261126335E-04 
1436	 7.90406793572331E-03 
1437	 1.67657432402568E-02 
1438	 0.013538255161787 
1439	 1.66908785716057E-02 
1440	 2.38549314936989E-02 
1441	 1.51427446290888E-02 
1442	 6.1891746928483E-03 
1443	 5.15444895131189E-03 
1444	 1.95817236873793E-03 
1445	 4.0045832135355E-03 
1446	 1.04895753380943E-02 
1447	 7.38910845550662E-03 
1448	 3.52916591874958E-04 
1449	 4.5515757695599E-04 
1450	 3.30467761724301E-03 
1451	 2.04752965739147E-03 
1452	 2.19935684912719E-04 
1453	 8.44236112204318E-04 
1454	 1.33680595939544E-03 
1455	 6.547686132427E-04 
1456	 1.00030618468825E-03 
1457	 3.54075944277361E-03 
1458	 3.40056015877226E-03 
1459	 1.20851826650029E-03 
1460	 9.81611857926899E-04 
1461	 1.21735183556794E-03 
1462	 0.001467184884885 
1463	 2.2721602952852E-03 
1464	 2.8246407985675E-03 
1465	 3.70047791215273E-03 
1466	 3.62710525440531E-03 
1467	 2.32604361864907E-03 
1468	 2.95478816949349E-03 
1469	 4.52220588423349E-03 
1470	 4.96437989430325E-03 
1471	 6.43785827532923E-03 
1472	 6.64546661426137E-03 
1473	 5.04961933657097E-03 
1474	 4.14919774958224E-03 
1475	 3.44276058994188E-03 
1476	 2.97817132302691E-03 
1477	 1.95330986116607E-03 
1478	 2.36458512245611E-03 
1479	 4.16727791165497E-03 
1480	 4.1220873109566E-03 
1481	 3.64248183436678E-03 
1482	 3.64385272291865E-03 
1483	 3.81558718987298E-03 
1484	 2.96264016189918E-03 
1485	 1.05433991303689E-03 
1486	 1.37017025033516E-03 
1487	 2.42100165994794E-03 
1488	 2.12651959769242E-03 
1489	 2.30956467145254E-03 
1490	 2.72420534037504E-03 
1491	 2.31901390265532E-03 
1492	 2.01839102115684E-03 
1493	 2.3063143287457E-03 
1494	 2.51581967421315E-03 
1495	 2.32544469880592E-03 
1496	 2.30997807267688E-03 
1497	 2.7213506113712E-03 
1498	 2.84863448175652E-03 
1499	 2.69869684959092E-03 
1500	 2.59094930842348E-03 
1501	 2.43203957475358E-03 
1502	 2.4232207790284E-03 
1503	 2.58231389740503E-03 
1504	 2.49542946229411E-03 
1505	 2.15916900732721E-03 
1506	 2.27515443448161E-03 
1507	 2.52190300085398E-03 
1508	 2.23807893044635E-03 
1509	 2.13459279393693E-03 
1510	 2.23742783081912E-03 
1511	 1.85512731248901E-03 
1512	 1.6426095454658E-03 
1513	 2.08903800649931E-03 
1514	 2.22581011582617E-03 
1515	 1.93004471501411E-03 
1516	 2.06596149437803E-03 
1517	 2.2522778415499E-03 
1518	 2.06694234569833E-03 
1519	 2.22876269549196E-03 
1520	 2.50257449264695E-03 
1521	 2.28403136306253E-03 
1522	 2.08905303250935E-03 
1523	 2.19767594549274E-03 
1524	 2.37943765572887E-03 
1525	 2.39105062406837E-03 
1526	 2.24397752789802E-03 
1527	 2.23639349171555E-03 
1528	 2.21289633694097E-03 
1529	 2.1147846245344E-03 
1530	 2.10625911251687E-03 
1531	 2.12542342198511E-03 
1532	 2.17566159352372E-03 
1533	 2.18463855601716E-03 
1534	 2.2477389048839E-03 
1535	 2.28840172222109E-03 
1536	 2.16295323252704E-03 
1537	 2.24531154228282E-03 
1538	 2.37449785169819E-03 
1539	 2.29187491428205E-03 
1540	 2.26308569898218E-03 
1541	 2.15389538146476E-03 
1542	 2.08228747168416E-03 
1543	 2.21351180360408E-03 
1544	 2.10599637710241E-03 
1545	 2.02870887363691E-03 
1546	 2.2663384804053E-03 
1547	 2.42754606778837E-03 
1548	 2.36077129178178E-03 
1549	 2.07334521432164E-03 
1550	 1.92860898689383E-03 
1551	 2.00952103503519E-03 
1552	 1.97670234293628E-03 
1553	 2.03989611940683E-03 
1554	 2.11579517067671E-03 
1555	 1.97196089251523E-03 
1556	 2.00313392232942E-03 
1557	 2.11480043866761E-03 
1558	 2.07415742305007E-03 
1559	 2.21616710207751E-03 
1560	 2.28977164861968E-03 
1561	 2.23160556286071E-03 
1562	 2.38193268216597E-03 
1563	 2.3334999952584E-03 
1564	 2.10982372402368E-03 
1565	 2.06606212226275E-03 
1566	 2.07906295883432E-03 
1567	 2.21441281184079E-03 
1568	 2.3914320829384E-03 
1569	 2.32674325537135E-03 
1570	 2.10203762157775E-03 
1571	 1.84964093062695E-03 
1572	 1.91290268233077E-03 
1573	 2.37524148695357E-03 
1574	 2.61164438749756E-03 
1575	 2.47761886051404E-03 
1576	 2.28667279039386E-03 
1577	 2.12267138948115E-03 
1578	 2.11653150714508E-03 
1579	 2.26816805224896E-03 
1580	 2.20973906994767E-03 
1581	 1.99018220586062E-03 
1582	 1.96795522147866E-03 
1583	 2.09116815059931E-03 
1584	 2.06064962394869E-03 
1585	 1.95249082738206E-03 
1586	 2.10206278511661E-03 
1587	 2.18500250914365E-03 
1588	 2.09671779091875E-03 
1589	 2.22514482179714E-03 
1590	 2.13868041308543E-03 
1591	 1.76212228379715E-03 
1592	 1.78451711011399E-03 
1593	 1.95344112082886E-03 
1594	 1.89141520402068E-03 
1595	 1.90827178294313E-03 
1596	 2.08809690643805E-03 
1597	 2.30935231473506E-03 
1598	 2.28134215732056E-03 
1599	 2.18500293018965E-03 
1600	 2.30618341389229E-03 
1601	 2.18563680738256E-03 
1602	 2.01855675771828E-03 
1603	 2.02773380886119E-03 
1604	 2.03350776843045E-03 
1605	 2.14058348960311E-03 
1606	 2.33830859536065E-03 
1607	 2.54357043840092E-03 
1608	 2.52860788023855E-03 
1609	 2.41620701578715E-03 
1610	 2.35458522148353E-03 
1611	 2.22662102294204E-03 
1612	 2.18917031906113E-03 
1613	 2.22888043641406E-03 
1614	 2.27548772355732E-03 
1615	 2.33846354815034E-03 
1616	 2.20710864824773E-03 
1617	 2.05185182289495E-03 
1618	 2.15510398617095E-03 
1619	 2.39107811860752E-03 
1620	 2.46468283116292E-03 
1621	 2.26917679350818E-03 
1622	 2.01806407403525E-03 
1623	 1.87088307480152E-03 
1624	 1.90525223331835E-03 
1625	 2.01801535032915E-03 
1626	 1.97195966270333E-03 
1627	 1.88236118848149E-03 
1628	 2.1294581433903E-03 
1629	 2.40603404238155E-03 
1630	 2.45881988061758E-03 
1631	 2.42064656972446E-03 
1632	 2.25025006370534E-03 
1633	 2.25060603433924E-03 
1634	 2.31215578478973E-03 
1635	 2.35538556395955E-03 
1636	 2.43265872322241E-03 
1637	 2.23412336556922E-03 
1638	 2.22496390138711E-03 
1639	 2.52098078384376E-03 
1640	 2.42615042016649E-03 
1641	 2.07225134445423E-03 
1642	 2.1776817039773E-03 
1643	 2.67118272583123E-03 
1644	 2.58448988741223E-03 
1645	 2.20150100854678E-03 
1646	 2.39463062206611E-03 
1647	 2.2378708307233E-03 
1648	 1.76322691510844E-03 
1649	 2.1893871293502E-03 
1650	 2.54927123783039E-03 
1651	 2.2313430770503E-03 
1652	 2.37710994416008E-03 
1653	 2.64953977263895E-03 
1654	 2.57868178061469E-03 
1655	 2.12915090971419E-03 
1656	 2.09626400335578E-03 
1657	 2.19227610121348E-03 
1658	 2.21958021897939E-03 
1659	 2.58460573483724E-03 
1660	 2.61854391233381E-03 
1661	 2.37021013567861E-03 
1662	 2.31522982237556E-03 
1663	 2.03051707214859E-03 
1664	 1.99322143333593E-03 
1665	 2.36326461309334E-03 
1666	 2.52381948834011E-03 
1667	 2.65093006376466E-03 
1668	 2.55906300003347E-03 
1669	 2.51260971936338E-03 
1670	 2.35829854958197E-03 
1671	 2.13817810874825E-03 
1672	 2.12185783773002E-03 
1673	 2.23155332487134E-03 
1674	 2.09555947125439E-03 
1675	 2.19072090467565E-03 
1676	 2.52317415141807E-03 
1677	 2.29274254493072E-03 
1678	 1.86707030811274E-03 
1679	 1.97261279824432E-03 
1680	 2.14346107097133E-03 
1681	 1.90952213268559E-03 
1682	 1.9230194495165E-03 
1683	 2.13926971637645E-03 
1684	 1.86921566180012E-03 
1685	 1.74054035934001E-03 
1686	 1.9990506142319E-03 
1687	 1.94567996836935E-03 
1688	 1.88126028088046E-03 
1689	 2.10879733342079E-03 
1690	 2.33593312634578E-03 
1691	 2.54883205516654E-03 
1692	 2.67932448958184E-03 
1693	 2.59002620661084E-03 
1694	 2.40032656392831E-03 
1695	 2.27249182307805E-03 
1696	 2.04419001691116E-03 
1697	 1.84186900580004E-03 
1698	 1.98999121862465E-03 
1699	 2.20593541076089E-03 
1700	 2.31337825889495E-03 
1701	 2.47814527071017E-03 
1702	 2.47258743624227E-03 
1703	 2.14211456914814E-03 
1704	 2.02842484922135E-03 
1705	 2.30708633762194E-03 
1706	 2.24888938539877E-03 
1707	 2.03258434409515E-03 
1708	 2.24009831011229E-03 
1709	 2.51972166056552E-03 
1710	 2.55238696591574E-03 
1711	 2.28280518841561E-03 
1712	 2.20154126266415E-03 
1713	 2.31481839769304E-03 
1714	 2.27979007514029E-03 
1715	 2.77175640374534E-03 
1716	 2.56935166477969E-03 
1717	 2.19296288706128E-03 
1718	 2.30161190846547E-03 
1719	 2.41686185504955E-03 
1720	 2.15589203100895E-03 
1721	 1.93309136918259E-03 
1722	 1.86658014117933E-03 
1723	 1.95879952318313E-03 
1724	 2.07470901816494E-03 
1725	 2.09258062598409E-03 
1726	 2.25175214325366E-03 
1727	 2.3603350004702E-03 
1728	 2.40191794470706E-03 
1729	 2.55743904097621E-03 
1730	 2.22654043654016E-03 
1731	 2.09118473553198E-03 
1732	 2.57550011868823E-03 
1733	 2.43159448374762E-03 
1734	 2.08292694201906E-03 
1735	 2.03716611327748E-03 
1736	 1.6935761251091E-03 
1737	 1.49960829072868E-03 
1738	 2.07564765014171E-03 
1739	 2.60813534873307E-03 
1740	 2.19326327066793E-03 
1741	 1.82726881530279E-03 
1742	 2.1814960965143E-03 
1743	 1.95397976525036E-03 
1744	 1.51965935623696E-03 
1745	 1.93100149321965E-03 
1746	 2.13654421876814E-03 
1747	 2.0934249372209E-03 
1748	 2.35732740971275E-03 
1749	 2.64958608281324E-03 
1750	 2.49808831035916E-03 
1751	 2.41464589454709E-03 
1752	 2.82013908731704E-03 
1753	 2.64918594972633E-03 
1754	 1.73445543592014E-03 
1755	 1.78408924306282E-03 
1756	 2.3781638129606E-03 
1757	 2.18788651449495E-03 
1758	 2.40876093443975E-03 
1759	 1.94568233402875E-03 
1760	 9.46432598130747E-04 
1761	 1.36076007387561E-03 
1762	 2.17240108517541E-03 
1763	 2.62996749497955E-03 
1764	 2.81290585360673E-03 
1765	 1.83814226630846E-03 
1766	 1.18269496894986E-03 
1767	 1.5349682645387E-03 
1768	 1.69232592073618E-03 
1769	 2.45107416600787E-03 
1770	 2.95116943944936E-03 
1771	 2.26177546076443E-03 
1772	 2.0932158056901E-03 
1773	 2.76778860077607E-03 
1774	 2.53324985444173E-03 
1775	 1.14310401792924E-03 
1776	 1.34513851006919E-03 
1777	 1.63372102221452E-03 
1778	 1.79423568150782E-03 
1779	 4.47405152107109E-03 
1780	 4.54252002596843E-03 
1781	 1.19299229770361E-03 
1782	 1.08588221999111E-03 
1783	 2.28260536862988E-03 
1784	 2.18345225420082E-03 
1785	 3.43178672886268E-03 
1786	 3.7379647862103E-03 
1787	 1.19639878719537E-03 
1788	 1.48991750905414E-03 
1789	 4.54717162741553E-03 
1790	 5.33105292360315E-03 
1791	 7.43695420081677E-03 
1792	 9.20307304378745E-03 
1793	 6.65803205885655E-03 
1794	 5.73021804362979E-03 
1795	 8.47730221023413E-03 
1796	 4.66483970712227E-03 
1797	 4.62663029340268E-03 
1798	 8.7863188693467E-03 
1799	-1.72664277222252E-03 
1800	 9.19280110058789E-03 
1801	 0.015157254563157 
1802	 1.88684901068593E-02 
1803	 2.46410365951203E-02 
1804	 2.42630389309461E-02 
1805	 2.03522483842307E-02 
1806	 9.00107878491244E-03 
1807	 7.52679581036066E-03 
1808	 8.30676233460233E-03 
1809	 2.94242645693227E-03 
1810	 2.13619303247375E-02 
1811	 2.48777010197944E-02 
1812	-1.48194640058109E-02 
1813	-3.18456762384454E-02 
1814	-4.01790997918203E-02 
1815	-6.43840923034499E-03 
1816	 9.86351180758758E-02 
1817	-6.65316370015591E-02 
1818	-0.103475548151671 
1819	-6.72906492333427E-02 
1820	 0.16442848281728 
1821	 0.963087032829218 
1822	 1.16834170773025 
1823	 0.460583893567717 
1824	 0.265723383320266 
1825	-0.23762731603933 
1826	-0.546530922195827 
1827	-1.84039421142696 
1828	-2.56186734999465 
1829	-0.360407406384499 
1830	-5.09582063618504E-02 
1831	 4.33411044499452 
1832	 2.87427124819656 
1833	-0.623790897082046 
1834	-27.3729592311028 
1835	-2.01111624291122 
1836	-1.75683184555971 
1837	-0.503396880313274 
1838	 1.19565565009371E-02 
1839	 3.40554172271005 
1840	-15.0392419985675 
1841	-5.13345089538932 
1842	-2.1460451114077 
1843	-2.36143910206995 
1844	-6.42966443621792 
1845	-7.03464701567319 
1846	-8104.66024175513 
1847	 10.5681725040595 
1848	-10.4316940219822 
1849	-1.85770978731591 
1850	-2.78919287533533 
1851	-1.82459122154848 
1852	-0.634071627432449 
1853	 2.44372387867561E-02 
1854	 0.250189773861202 
1855	 0.729014921234672 
1856	 1.60150231968561 
1857	-5.15098559649914 
1858	-2.03579887024956 
1859	-15.0265332307095 
1860	-8.12535837077878 
1861	-5.89050414091376 
1862	-1.64009494028642 
1863	-0.71130994891386 
1864	-4.46828119143519E-03 
1865	 0.154376014598512 
1866	-0.082702833620185 
1867	-0.266574930506308 
1868	-0.645704096586566 
1869	-0.664890179067922 
1870	-0.394764300537928 
1871	 0.717801448405328 
1872	-8.56805950626873E-02 
1873	-0.180196799208602 
1874	 1.51198936751885 
1875	-1.56067178494212 
1876	-2.06969006545208 
1877	 1.76003209089445 
1878	 1.88564517479139 
1879	 0.359558405333505 
1880	-0.192889892711834 
1881	 3.31155336245212 
1882	 0.190457103787203 
1883	 1.81676637285218 
1884	-9.37469244392828 
1885	 0.457487355057574 
1886	 3.94888545429786 
1887	-0.253768379830614 
1888	-0.497522028282403 
1889	-0.644491674852679 
1890	-0.41685953549863 
1891	-0.472676085877099 
1892	 6.63357873423918 
1893	 0.856314673339686 
1894	 0.234377422016159 
1895	-1.86594269332735 
1896	-0.30127917930426 
1897	-0.64164645360423 
1898	-1.32352824283691 
1899	 5.33384057078292 
1900	 2.45704365816936 
1901	 0.919342646371324 
1902	 0.526484558099493 
1903	-0.834593680012267 
1904	-0.849169343140824 
1905	-0.127407484546652 
1906	 2.01380280802865 
1907	 10.5521252362124 
1908	 3.57978712059939 
1909	 2.30931091380576 
1910	 19.7204797002523 
1911	-2.12035466406888 
1912	-1.02807959002311 
1913	-0.347793376544392 
1914	 0.259019746325758 
1915	 0.467864231933884 
1916	 1.58501341156622 
1917	 2.22882596403827 
1918	 1.59653900335844 
1919	 11.6628888754943 
1920	 15.0297651707887 
1921	 1.10526885235065 
1922	 0.735138076909798 
1923	 0.417553069488444 
1924	 0.105952636274083 
1925	-0.147346895000446 
1926	-0.205013763268237 
1927	 0.254827326547714 
1928	-0.98254244939066 
1929	 1.84362712139232 
1930	 0.734854592073839 
1931	 0.548601803980212 
1932	 0.291864430849128 
1933	-0.413705991530464 
1934	-0.230996417041812 
1935	 0.246663383802575 
1936	 0.377505140709495 
1937	 0.347442681272796 
1938	 0.243262119186948 
1939	 0.168744595183116 
1940	 0.058222281981829 
1941	-3.38784192605844E-03 
1942	 2.01873035233115E-03 
1943	 0.010128934394057 
1944	-5.62944916931358E-04 
1945	-1.05611618275636E-02 
1946	-2.54805870862383E-02 
1947	-4.23882969679894E-02 
1948	-0.043660335712178 
1949	-3.52698331930804E-02 
1950	-3.12154521211155E-02 
1951	-0.031220899367719 
1952	-2.05705862273859E-02 
1953	-1.02408155605983E-02 
1954	-2.59377098105602E-03 
1955	-4.95580344697089E-03 
1956	 1.34331350782212E-02 
1957	 3.64023670376454E-02 
1958	 3.39883601679182E-02 
1959	 2.65487900009855E-02 
1960	 0.023018402331527 
1961	 1.47578658016945E-02 
1962	 6.2676572154592E-03 
1963	 4.59695251042992E-03 
1964	 3.74061521735673E-03 
1965	 1.90455916646509E-03 
1966	 5.93959500249132E-04 
1967	-1.1515990940908E-03 
1968	-1.09478615829123E-04 
1969	 3.93118751336922E-03 
1970	 5.49152371580785E-03 
1971	 6.84663626228243E-03 
1972	 6.30954947260007E-03 
1973	 1.60686632716669E-03 
1974	-3.05810533887142E-04 
1975	-1.14915347004988E-04 
1976	 7.33251414721501E-04 
1977	 2.43407180458311E-03 
1978	 2.65867495326093E-03 
1979	 2.87939904574066E-03 
1980	 2.66167647835278E-03 
1981	 1.73418777947338E-03 
1982	 5.62366615480676E-04 
1983	 2.50754926039973E-04 
1984	-6.94506569989482E-04 
1985	-6.65335134356886E-04 
1986	-1.08111042361988E-04 
1987	 5.30629657908852E-04 
1988	 2.19473475518624E-03 
1989	 3.2943984282026E-03 
1990	 3.30457263893029E-03 
1991	 3.64651383923467E-03 
1992	 3.22320966076601E-03 
1993	 1.06511535947185E-03 
1994	-3.88377580741043E-05 
1995	-2.81390357211145E-04 
1996	-5.20644777418074E-04 
1997	-1.25717039731096E-03 
1998	 3.48203026133915E-04 
1999	 3.20397677636601E-03 
2000	 5.60849896757484E-03 
2001	 6.85795607446748E-03 
2002	 8.63896167239464E-03 
2003	 9.58983028997743E-03 
2004	 7.38472340865331E-03 
2005	 3.5069224894893E-03 
2006	 2.0804809195635E-03 
2007	 4.30769560640094E-03 
2008	 6.03385437609843E-03 
2009	 6.07381204908442E-03 
2010	 6.43489390078455E-03 
2011	 6.82612361495984E-03 
2012	 5.14768230197312E-03 
2013	 4.13715837581532E-03 
2014	 4.23322278248351E-03 
2015	 7.01422517123992E-03 
2016	 6.21105602809868E-03 
2017	 4.07936715598129E-03 
2018	 4.48614532972576E-03 
2019	 1.99129907107684E-03 
2020	-2.41685067692832E-04 
2021	 4.06219339947801E-06 
2022	 2.26926453475952E-04 
2023	 1.89418663286493E-03 
2024	 2.17553097174317E-03 
2025	 1.75036487558695E-03 
2026	 1.32330800397993E-03 
2027	 5.12767382134006E-04 
2028	-1.35525934726289E-05 
2029	 6.59662276309825E-05 
2030	 1.47070376146525E-03 
2031	 2.64722005963741E-03 
2032	 2.53450931407757E-03 
2033	 1.61941406277565E-03 
2034	 6.21845224082482E-04 
2035	-1.27183805565679E-04 
2036	 3.16796983902326E-06 
2037	 4.73639226187906E-04 
2038	 1.17197019367516E-03 
2039	 1.48083741023633E-03 
2040	 1.60531014727464E-03 
2041	 1.52265536061045E-03 
2042	 8.66598272193832E-04 
2043	 7.14388107817337E-04 
2044	 8.30968003344563E-04 
2045	 6.73277685476186E-04 
2046	 4.46050735995954E-04 
2047	 4.83497479838007E-04 
2048	 5.57909911512085E-04 
2049	 8.32753690469122E-04 
2050	 7.26970990998199E-04 
2051	 8.19187105729122E-04 
2052	 1.58437353878332E-03 
2053	 2.2986767315777E-03 
2054	 2.18906973754868E-03 
2055	 1.8844657328288E-03 
2056	 1.87837686258851E-03 
2057	 1.03011394220828E-03 
2058	 4.10335644157122E-04 
2059	 4.18463302061993E-04 
2060	 4.2392947585126E-04 
2061	 2.251689322576E-04 
2062	-6.527039124497E-04 
2063	 8.60732642925544E-05 
2064	 8.3770045189793E-04 
2065	 5.26364677809029E-05 
2066	 1.66028040406477E-04 
2067	 3.81018983635391E-04 
2068	 2.59826313879924E-04 
2069	 8.34078665637385E-04 
2070	 1.9290837553667E-03 
2071	 2.80881168100335E-03 
2072	 2.82995280630923E-03 
2073	 2.3116104816758E-03 
2074	 1.15024774820757E-03 
2075	 7.0086777480768E-04 
2076	-1.9254029692205E-04 
2077	-7.05817105134445E-04 
2078	-7.01550086267802E-04 
2079	-5.10347759052132E-04 
2080	-4.60064827372637E-04 
2081	-3.86795176473632E-04 
2082	 7.68671478656223E-04 
2083	 2.17297475796861E-03 
2084	 1.86292943435439E-03 
2085	 2.04707465528328E-03 
2086	 2.51704345418235E-03 
2087	 1.40130324672482E-03 
2088	 1.30770314358823E-03 
2089	 1.72853042072663E-03 
2090	 1.03562103104246E-03 
2091	 1.29627988773933E-03 
2092	 1.63198160388424E-03 
2093	 1.99044953108215E-03 
2094	 2.16359170508169E-03 
2095	 3.19350849682933E-03 
2096	 3.10051098044057E-03 
2097	 1.78410010172366E-03 
2098	 1.5516313818097E-03 
2099	 1.47660502032543E-03 
2100	 1.17477886695113E-03 
2101	 1.50196095721961E-03 
2102	 1.97873548603246E-03 
2103	 1.66247176191736E-03 
2104	 8.78613959980132E-04 
2105	 9.62655109135507E-04 
2106	 1.53810487145424E-03 
2107	 1.46108102085064E-03 
2108	 1.32824259169778E-03 
2109	 1.06344899808031E-03 
2110	 9.20806720921602E-04 
2111	 0.002018553654057 
2112	 3.30542584333203E-03 
2113	 3.04959718132181E-03 
2114	 9.49475429083216E-04 
2115	 4.28278574423056E-04 
2116	-1.18204725681548E-04 
2117	-6.19509130644702E-04 
2118	 1.53337410709827E-04 
2119	 2.94274007913263E-04 
2120	-1.20827888929317E-04 
2121	-1.40423128118194E-03 
2122	-1.29145038696968E-03 
2123	-2.52186404403178E-04 
2124	 6.58259429043501E-07 
2125	-4.53147691479808E-04 
2126	-8.54512355277796E-04 
2127	-7.87099424719379E-04 
2128	-6.85315159592925E-04 
2129	 5.96577755831356E-05 
2130	 1.46315235192459E-03 
2131	 1.48273428268177E-03 
2132	 8.37953946068822E-04 
2133	 8.97397545932725E-04 
2134	 1.06256093557005E-03 
2135	 9.16132373992109E-04 
2136	 9.27904390775095E-04 
2137	 1.74732102668132E-03 
2138	 1.85571148228749E-03 
2139	 1.06853078041917E-03 
2140	 9.2350656397874E-04 
2141	 1.42931157887094E-03 
2142	 1.30212870457739E-03 
2143	 6.86407442740675E-04 
2144	 4.50043630384112E-04 
2145	 1.08379526318149E-03 
2146	 1.38940077820235E-03 
2147	 2.40183314331575E-03 
2148	 3.64670285875497E-03 
2149	 3.4090142967141E-03 
2150	 2.3214467211213E-03 
2151	 1.75551811353015E-03 
2152	 1.72023481606305E-03 
2153	 1.78643262712057E-03 
2154	 2.32582817757261E-03 
2155	 2.5164036146711E-03 
2156	 2.80538144655102E-03 
2157	 2.96346648785488E-03 
2158	 3.44139825357826E-03 
2159	 2.84444250151368E-03 
2160	 8.63429435134362E-04 
2161	 7.13643387728642E-04 
2162	 9.79808611478072E-04 
2163	 9.03376805810438E-04 
2164	 2.37932673869065E-03 
2165	 2.79094546180653E-03 
2166	 1.62963674167526E-03 
2167	 1.60848545779814E-03 
2168	 2.3527614485082E-03 
2169	 2.39924449687718E-03 
2170	 2.25447724125574E-03 
2171	 2.14764189389028E-03 
2172	 1.88613803196993E-03 
2173	 1.85564315755858E-03 
2174	 2.37909163652065E-03 
2175	 2.83818245930185E-03 
2176	 2.84810159635596E-03 
2177	 2.88216526840704E-03 
2178	 2.26494979356919E-03 
2179	 1.25216110157419E-03 
2180	 1.5019449780453E-03 
2181	 1.65712296184242E-03 
2182	 1.0212106179727E-03 
2183	 1.29321766715184E-03 
2184	 8.27009042636521E-04 
2185	-9.1537706832132E-04 
2186	-1.00991159508911E-03 
2187	 1.54327119721059E-04 
2188	 6.86773667676294E-04 
2189	 2.27814407914122E-03 
2190	 2.11131685544143E-03 
2191	 1.14977921088512E-04 
2192	-5.41130351982537E-04 
2193	-1.25438167425539E-03 
2194	-1.39457767534403E-03 
2195	-7.12534116752286E-04 
2196	-1.93744144264707E-04 
2197	 1.49222879653598E-05 
2198	 7.56715984004769E-04 
2199	 2.48798318475419E-03 
2200	 4.02807736655336E-03 
2201	 4.36983776592245E-03 
2202	 2.66299212279727E-03 
2203	 5.93756396257398E-04 
2204	-6.1669030309591E-04 
2205	-2.32766693448599E-03 
2206	-2.12787309571536E-03 
2207	-8.65794697514537E-04 
2208	-1.01555131565564E-03 
2209	-4.83025734497799E-04 
2210	 6.98966222655214E-05 
2211	 1.94547587391794E-04 
2212	 3.68105168871326E-04 
2213	 1.29321528501838E-04 
2214	 5.01918235692684E-04 
2215	 7.81733762728062E-04 
2216	-2.72567890651853E-04 
2217	-1.06504754048963E-03 
2218	-2.08158561775274E-03 
2219	-1.74440124227624E-03 
2220	-1.68823429499753E-03 
2221	-6.42943113056161E-04 
2222	 3.0833351544868E-03 
2223	 3.55378309449579E-03 
2224	 3.01187451328408E-03 
2225	 2.30869637975414E-03 
2226	-1.10079373082681E-03 
2227	-1.73699996783974E-03 
2228	-8.40653368856257E-04 
2229	-7.93889580196704E-04 
2230	 1.04290646989009E-03 
2231	 1.12080878999411E-03 
2232	-2.02080436651659E-03 
2233	-2.22467659659138E-03 
2234	-7.64384672255699E-04 
2235	-3.89983570379475E-04 
2236	 1.10263689274447E-04 
2237	 1.34842091026256E-03 
2238	 1.74215078411318E-03 
2239	 1.40377715655789E-03 
2240	 1.68628469769739E-03 
2241	 2.70708724403165E-03 
2242	 1.00115698337679E-03 
2243	-1.07474866346146E-03 
2244	-1.40255784124244E-03 
2245	-8.59708506574112E-04 
2246	 6.38907624832427E-06 
2247	 3.04807435039363E-04 
2248	 1.88830109681041E-03 
2249	 2.69679954522332E-03 
2250	 9.4797131911897E-04 
2251	 9.94141143005786E-05 
2252	-5.98256863738879E-04 
2253	-1.53991970816098E-03 
2254	-2.44037273104855E-04 
2255	 1.41223927337887E-03 
2256	 1.07935461381821E-03 
2257	-8.47279666843341E-04 
2258	-1.69161823289463E-03 
2259	-1.12912602260588E-03 
2260	-1.36091125027231E-03 
2261	-1.32433001468343E-03 
2262	-1.10168503571767E-03 
2263	-1.91502490087197E-03 
2264	-2.17375229451348E-03 
2265	-9.6109304364185E-04 
2266	-1.1889395459195E-03 
2267	-2.25428305535885E-03 
2268	-2.13510727829768E-03 
2269	-0.002288714001078 
2270	-1.63108263358161E-03 
2271	 5.46237020052934E-04 
2272	 7.60589356920649E-04 
2273	 7.88357988827399E-04 
2274	-5.0037370651314E-04 
2275	-5.60808250421354E-03 
2276	-5.64754425239299E-03 
2277	-2.96672932433574E-03 
2278	-1.22340536311894E-03 
2279	 3.46081014088738E-03 
2280	 5.66555527050867E-03 
2281	 6.35965322336305E-03 
2282	 6.53323679174518E-03 
2283	 5.46905136374846E-03 
2284	 7.42665104709624E-03 
2285	 6.92611440073811E-03 
2286	 5.6737836614184E-03 
2287	 7.1775879546199E-03 
2288	 6.75686748686059E-03 
2289	 6.7733597538037E-03 
2290	 5.21025767464826E-03 
2291	 4.22518891297692E-04 
2292	-4.05148745094813E-03 
2293	-6.70792738112082E-03 
2294	-7.67766654585615E-03 
2295	-6.97147853819814E-03 
2296	-4.42499493848382E-03 
2297	-2.60237575285205E-03 
2298	-2.40257033971144E-03 
2299	-2.44876141049525E-03 
2300	-2.86454784686009E-03 
2301	-5.54448049212452E-03 
2302	-6.42765907438153E-03 
2303	-5.19686424974579E-03 
2304	-6.34168852817977E-03 
2305	-6.69549569479005E-03 
2306	-8.85198956672484E-03 
2307	-1.21540703405444E-02 
2308	-1.22115067822892E-02 
2309	-1.19227878035545E-02 
2310	-9.62028619767811E-03 
2311	-5.58263151140554E-03 
2312	-4.39505587134176E-03 
2313	-2.23760498789662E-03 
2314	 2.16750493616796E-03 
2315	 1.53185252180025E-04 
2316	-4.70629575447893E-03 
2317	-4.88184443064917E-03 
2318	-3.55833891894397E-03 
2319	-1.63864061303229E-03 
2320	 1.23993581807882E-03 
2321	 9.57471417443473E-04 
2322	-8.63470699181903E-03 
2323	-1.84368350136353E-02 
2324	-1.73772712224632E-02 
2325	-1.56225101410128E-02 
2326	-1.53090438260657E-02 
2327	-7.30518627967961E-03 
2328	-4.10259476723453E-03 
2329	-6.75182412467553E-03 
2330	-4.26552987228269E-03 
2331	-7.47442885336593E-03 
2332	-8.41668972387228E-03 
2333	-4.17991415145621E-03 
2334	-4.48040824287059E-03 
2335	-5.87229603551778E-03 
2336	-8.14797451710766E-03 
2337	-2.86638268008149E-03 
2338	 1.44817044923608E-03 
2339	 3.67558337692685E-03 
2340	 9.49486400577297E-03 
2341	 4.13014181312957E-03 
2342	-4.41225181518114E-05 
2343	 4.69970722260783E-03 
2344	 4.13058001073886E-03 
2345	 4.8588262018936E-03 
2346	 5.50714989855515E-03 
2347	-5.91995081531435E-03 
2348	-9.5057052535615E-03 
2349	-4.47867451759425E-03 
2350	-2.36110241291088E-03 
2351	 6.08815845877922E-03 
2352	 1.09366196242373E-02 
2353	 7.72478082138262E-03 
2354	 3.96193692798745E-03 
2355	 1.80784171439462E-03 
2356	-3.12034237477313E-03 
2357	-1.65194426647668E-02 
2358	-0.022676077885016 
2359	-2.12569546793651E-02 
2360	-1.56678986982362E-02 
2361	-1.54588870498234E-04 
2362	 1.10965194748347E-03 
2363	-9.30279007472281E-03 
2364	-0.014972382552231 
2365	-2.51628226456284E-02 
2366	-2.83289812876241E-02 
2367	-2.14872712811728E-02 
2368	-1.97043281395498E-02 
2369	-1.66898220279148E-02 
2370	-1.65814852527932E-02 
2371	-2.52528426367606E-02 
2372	-3.24605729376859E-02 
2373	-4.05102201834528E-02 
2374	-3.58592335340121E-02 
2375	-2.70123338755722E-02 
2376	-2.62175361931053E-02 
2377	-9.05115005075204E-03 
2378	 4.07951603224974E-03 
2379	 1.64202256810669E-02 
2380	 3.43473768585227E-02 
2381	 1.64171741849387E-02 
2382	-8.42179609307112E-03 
2383	-2.23245016796943E-02 
2384	-4.22109704047353E-02 
2385	-4.61666836173105E-02 
2386	-4.78680550651637E-02 
2387	-5.88869911473745E-02 
2388	-4.48241017437384E-02 
2389	-4.14390171393706E-02 
2390	-3.32787574132041E-02 
2391	-5.34649294633152E-03 
2392	-1.47922118097227E-02 
2393	-2.13183097176717E-02 
2394	 5.72288686616651E-03 
2395	 2.32727728459506E-02 
2396	 1.68138087175607E-02 
2397	 2.60107205767366E-03 
2398	-2.56907606180379E-02 
2399	-6.09118841628572E-02 
2400	-5.54874563365573E-02 
2401	-2.19811333621537E-02 
2402	-3.47157746335977E-02 
2403	-7.55856462962422E-02 
2404	-0.086355510464413 
2405	-0.120618638574981 
2406	-0.142303391566356 
2407	-0.107709342979168 
2408	-0.123469279913331 
2409	-0.139620071268877 
2410	-7.87985446379921E-02 
2411	-4.11947179676989E-02 
2412	-6.71039302354689E-02 
2413	-0.14252119999261 
2414	-0.167563225033731 
2415	-0.164887681655629 
2416	-0.233843024271796 
2417	-0.16239144866608 
2418	-9.69532139626549E-02 
2419	-0.283595487103361 
2420	-0.30317996033953 
2421	-0.143558267848631 
2422	-0.201388319681771 
2423	-0.16521245595294 
2424	-9.72374501268819E-03 
2425	-6.99364888577434E-02 
2426	-0.137890579571483 
2427	-0.167990214152159 
2428	-0.181076767615205 
2429	-0.129496972363601 
2430	-0.100121299213257 
2431	-6.71040895850381E-02 
2432	-0.153472742448757 
2433	-0.32191422964533 
2434	-0.333777101552338 
2435	-0.224260467460541 
2436	-4.83343108053588E-02 
2437	 5.79066712987317E-02 
2438	 0.114275736837971 
2439	 8.45842879444972E-02 
2440	-1.98616047529789E-02 
2441	-0.26908143265601 
2442	-0.397379876653156 
2443	-0.249693424913176 
2444	-0.247161168563113 
2445	 8.84657011062008E-04 
2446	 0.159592731827123 
2447	-2.41789679004193 
2448	 7.44810041038417 
2449	 1.3243816406018 
2450	 0.860489573090299 
2451	 1.54484552969054 
2452	 0.956713783739264 
2453	 1.67678740720678 
2454	-52.4603144459083 
2455	 0.106219386016044 
2456	 0.019600242947351 
2457	 7.09504486776405E-02 
2458	 0.27874092130137 
2459	-0.137277378843228 
2460	-0.571191255031277 
2461	-0.347259806399368 
2462	-0.698163348126438 
2463	-0.525640613515831 
2464	-0.403309545047887 
2465	-0.993579093490783 
2466	-5.19774711251803 
2467	 7.66300713472527 
2468	-12.8543922988851 
2469	-120.991250732929 
2470	 2.86401101465432 
2471	-0.921716351769416 
2472	-0.727580239245196 
2473	-0.336754209265001 
2474	-0.105223086211731 
2475	 1.05027402165721 
2476	 0.961141318155845 
2477	 0.67436825030149 
2478	 0.729876934015539 
2479	 0.407039210959892 
2480	 0.206330818078245 
2481	-0.81529094340628 
2482	-0.771160757951836 
2483	-9.50956848979542E-02 
2484	 0.153644297951512 
2485	 0.567187452968997 
2486	 0.857668939298501 
2487	 0.803101941843782 
2488	 0.871624399202137 
2489	 0.80740623988546 
2490	 0.809192287796354 
2491	 0.867050246204584 
2492	 0.371466880285681 
2493	-0.279868200561976 
2494	-0.780486560935563 
2495	-0.262338885536346 
2496	 6.63475459252501E-02 
2497	 0.7223354111857 
2498	 1.7364608473463 
2499	 3.14154957562296 
2500	-0.509537775355133 
