Wavelength	rt0722east_close00005.asd
350	 2.63245544743997E-02 
351	 2.59700248221644E-02 
352	 2.56865303949111E-02 
353	 2.59348067661639E-02 
354	 2.66562599103512E-02 
355	 2.68796504606043E-02 
356	 2.66644239319222E-02 
357	 2.63924976448114E-02 
358	 2.64444739760342E-02 
359	 0.026694943878521 
360	 2.65482406656185E-02 
361	 2.62568833238081E-02 
362	 2.65432302512898E-02 
363	 2.66344431371041E-02 
364	 2.67684752487801E-02 
365	 2.70010862223504E-02 
366	 2.69250686175465E-02 
367	 2.71053011693679E-02 
368	 2.74064182051175E-02 
369	 2.75469641835935E-02 
370	 0.027404107902093 
371	 2.74640685958038E-02 
372	 2.76312348367213E-02 
373	 2.75589282144777E-02 
374	 0.028018298609793 
375	 2.81701721464748E-02 
376	 2.78969372707257E-02 
377	 0.028249277925124 
378	 2.87330029178333E-02 
379	 0.028692829568926 
380	 2.80981531573557E-02 
381	 2.89438674634619E-02 
382	 2.93944520651073E-02 
383	 2.91355320549577E-02 
384	 2.87801867239402E-02 
385	 2.95262919720321E-02 
386	 3.01515668661496E-02 
387	 3.02249784958161E-02 
388	 3.04187006503213E-02 
389	 3.08101058027358E-02 
390	 3.08022670279854E-02 
391	 0.030380316085113 
392	 3.12995848691532E-02 
393	 3.15651717870783E-02 
394	 3.14076221552396E-02 
395	 3.17066514748424E-02 
396	 3.19713835584718E-02 
397	 3.20595320411565E-02 
398	 3.20552371331774E-02 
399	 3.21911550939924E-02 
400	 3.20972227396496E-02 
401	 3.22094049333394E-02 
402	 3.26761982619028E-02 
403	 3.27778001436104E-02 
404	 3.27300969940477E-02 
405	 3.27609584215284E-02 
406	 3.30323908478783E-02 
407	 3.32548021902841E-02 
408	 3.34197219774138E-02 
409	 3.35781520248779E-02 
410	 3.38070575493547E-02 
411	 0.033794107456906 
412	 3.39631858279846E-02 
413	 0.034480197618226 
414	 3.45998095641264E-02 
415	 3.47154674306239E-02 
416	 3.48899657954484E-02 
417	 0.035073807853651 
418	 3.53647730596886E-02 
419	 3.55786234052399E-02 
420	 3.57083632369638E-02 
421	 3.59516278663919E-02 
422	 3.63490825634858E-02 
423	 3.67393390620274E-02 
424	 3.69806930528308E-02 
425	 3.70812208400241E-02 
426	 0.03732919607168 
427	 3.77388565225242E-02 
428	 3.81763459939058E-02 
429	 3.86064868453283E-02 
430	 3.89439347166739E-02 
431	 3.91809744317394E-02 
432	 3.94008719050567E-02 
433	 3.97501344135994E-02 
434	 4.01341496575122E-02 
435	 4.04379638198802E-02 
436	 4.06333628899458E-02 
437	 4.10337875593096E-02 
438	 4.15027511782098E-02 
439	 0.04172168419521 
440	 4.21495322599713E-02 
441	 4.25903978231485E-02 
442	 0.042917200334018 
443	 4.32048633782533E-02 
444	 4.35371073705916E-02 
445	 0.043892523484885 
446	 0.044213497213798 
447	 4.44309917933866E-02 
448	 4.47184805494324E-02 
449	 4.50647849571876E-02 
450	 4.53265301259146E-02 
451	 4.55487962809096E-02 
452	 4.58085920032465E-02 
453	 4.60886026041906E-02 
454	 4.61515838055348E-02 
455	 4.63890488640326E-02 
456	 4.66526843559899E-02 
457	 4.67030833950132E-02 
458	 4.69382119642922E-02 
459	 4.72015740018605E-02 
460	 0.047388786183496 
461	 4.74844515733052E-02 
462	 4.76775173055167E-02 
463	 4.78827756537146E-02 
464	 4.80167025038959E-02 
465	 4.81566356098849E-02 
466	 4.83211892716346E-02 
467	 4.84982603293209E-02 
468	 4.86697952046247E-02 
469	 0.048925461690303 
470	 4.90950384869667E-02 
471	 4.91783242753981E-02 
472	 4.94261118406763E-02 
473	 4.96576491825017E-02 
474	 4.98573222214854E-02 
475	 5.00542873492152E-02 
476	 5.02725734198824E-02 
477	 5.05409303045422E-02 
478	 5.08116214053942E-02 
479	 5.10015164787215E-02 
480	 5.12383806081185E-02 
481	 5.15287419333316E-02 
482	 5.18329718115767E-02 
483	 5.20448437058634E-02 
484	 5.23275032793436E-02 
485	 5.26774168740691E-02 
486	 5.30311010816549E-02 
487	 5.33811181854192E-02 
488	 5.37241570387202E-02 
489	 5.40819806984634E-02 
490	 5.44945276543735E-02 
491	 5.48328868450255E-02 
492	 5.51770310233271E-02 
493	 5.55939203741819E-02 
494	 5.60113015759149E-02 
495	 5.64166863560045E-02 
496	 5.68010916309612E-02 
497	 5.71767341189508E-02 
498	 0.057679158392346 
499	 5.81784428311558E-02 
500	 5.86257434379417E-02 
501	 5.91390417900623E-02 
502	 5.96526291757495E-02 
503	 6.01239343134776E-02 
504	 6.05670236887548E-02 
505	 6.12026517508612E-02 
506	 6.17006008692268E-02 
507	 6.20904317854604E-02 
508	 6.26724345907041E-02 
509	 6.31720284246087E-02 
510	 6.36146814969002E-02 
511	 6.40894355241619E-02 
512	 0.064732273510288 
513	 6.53766554611063E-02 
514	 0.065977563949654 
515	 6.65453829926999E-02 
516	 6.71096651241646E-02 
517	 6.77173786555785E-02 
518	 6.83818927195911E-02 
519	 6.90774877885187E-02 
520	 6.97708554083284E-02 
521	 7.04066895986752E-02 
522	 7.09813453420701E-02 
523	 7.16508208502239E-02 
524	 7.23435087406204E-02 
525	 7.30187220430803E-02 
526	 7.36668870625571E-02 
527	 7.43121375373203E-02 
528	 7.50631907871407E-02 
529	 7.58946896979036E-02 
530	 7.64933397032817E-02 
531	 7.71467870798438E-02 
532	 7.79031865447677E-02 
533	 7.86936498244894E-02 
534	 7.93286377669892E-02 
535	 8.00336229130354E-02 
536	 8.08539949091352E-02 
537	 8.16005193657759E-02 
538	 8.24179496756171E-02 
539	 8.32332638429287E-02 
540	 8.39620548880439E-02 
541	 8.46397789096394E-02 
542	 8.53926142549077E-02 
543	 8.62203848810069E-02 
544	 8.70425982074683E-02 
545	 8.78256745932971E-02 
546	 8.85975601272334E-02 
547	 0.089373781869173 
548	 9.01283674690078E-02 
549	 9.08932576680455E-02 
550	 9.16237131327489E-02 
551	 9.22966390096579E-02 
552	 9.31622952445192E-02 
553	 9.39678239913383E-02 
554	 9.46602711602432E-02 
555	 9.54366347030758E-02 
556	 9.62241605716101E-02 
557	 9.69668253006873E-02 
558	 9.76614219804198E-02 
559	 9.85163284740214E-02 
560	 9.92135659969892E-02 
561	 9.97764008575459E-02 
562	 0.100432802429001 
563	 0.10107789430649 
564	 0.101694590600343 
565	 0.102276230773389 
566	 0.102818921306487 
567	 0.103327735073499 
568	 0.103853129258918 
569	 0.104425741664422 
570	 0.104888829678717 
571	 0.105294810713345 
572	 0.105697791157221 
573	 0.106134918896338 
574	 0.106538669193839 
575	 0.106892954310326 
576	 0.107199150679684 
577	 0.107479783372899 
578	 0.107729441731924 
579	 0.107930575044668 
580	 0.108068084427701 
581	 0.108229113608987 
582	 0.108313108369855 
583	 0.108295801634251 
584	 0.108342518429007 
585	 0.108219780028897 
586	 0.108019010301414 
587	 0.107903217436279 
588	 0.107693690396126 
589	 0.107567489484755 
590	 0.107490204087305 
591	 0.107191371561179 
592	 0.106905140582596 
593	 0.106640997391557 
594	 0.106318807151137 
595	 0.105707272328225 
596	 0.105050424123627 
597	 0.104382965611646 
598	 0.103632680646021 
599	 0.102879350612393 
600	 0.102226678437889 
601	 0.101732043836684 
602	 0.101367344750619 
603	 0.101173072214259 
604	 0.101070334444134 
605	 0.100982159579237 
606	 0.10105442981171 
607	 0.10108261488171 
608	 0.101054307847638 
609	 0.101162914532334 
610	 0.101242103402412 
611	 0.101275836732436 
612	 0.101281009724219 
613	 0.101261545531029 
614	 0.10131036192215 
615	 0.101405696690457 
616	 0.101460470509578 
617	 0.1014847605945 
618	 0.101500210294853 
619	 0.101489065625316 
620	 0.101354751807744 
621	 0.101385072781185 
622	 0.101466503378601 
623	 0.101415505289818 
624	 0.101419788725328 
625	 0.101375916807888 
626	 0.101332060464811 
627	 0.101470363730227 
628	 0.101496684470249 
629	 0.101449549014908 
630	 0.101409865109563 
631	 0.101391826143114 
632	 0.10129080269498 
633	 0.101201072733609 
634	 0.101263382843664 
635	 0.101173249718876 
636	 0.101100152757224 
637	 0.101121157796886 
638	 0.101121844308799 
639	 0.10098010047633 
640	 0.10085052001316 
641	 0.100866894611353 
642	 0.100709350996387 
643	 0.100526606023176 
644	 0.100383251640272 
645	 0.100265214131967 
646	 0.100102561554661 
647	 9.99909641068741E-02 
648	 9.99447764229857E-02 
649	 9.97126879302006E-02 
650	 9.94833734520079E-02 
651	 9.92493324705419E-02 
652	 9.89459619310538E-02 
653	 9.85895400814566E-02 
654	 9.81723598581342E-02 
655	 9.76588330664936E-02 
656	 9.70551334501197E-02 
657	 9.66680670527787E-02 
658	 9.63416101588178E-02 
659	 9.59324140954019E-02 
660	 9.56625444897891E-02 
661	 9.54460130219487E-02 
662	 9.52278851887593E-02 
663	 9.49984060224527E-02 
664	 0.094980405636446 
665	 9.49281236420046E-02 
666	 9.47353049022968E-02 
667	 0.094644211508242 
668	 9.46504022934214E-02 
669	 9.46404267922394E-02 
670	 9.45229105489502E-02 
671	 9.45530411732973E-02 
672	 9.44925347266748E-02 
673	 9.43294169329445E-02 
674	 9.42777556562923E-02 
675	 9.43484241855742E-02 
676	 9.43891564355375E-02 
677	 9.42968399775145E-02 
678	 9.41471725858903E-02 
679	 9.41718707574277E-02 
680	 9.42706187348625E-02 
681	 9.42271907282923E-02 
682	 9.42421083846919E-02 
683	 9.43228304661197E-02 
684	 9.43819549985218E-02 
685	 9.42190315235836E-02 
686	 9.41910254245445E-02 
687	 9.41600737598373E-02 
688	 9.39413604750835E-02 
689	 9.37689327429313E-02 
690	 9.35027041770384E-02 
691	 9.31375506020833E-02 
692	 0.092748712040487 
693	 9.24411520063661E-02 
694	 9.19948302070964E-02 
695	 9.13557602376111E-02 
696	 9.07243191047082E-02 
697	 9.00550384506828E-02 
698	 8.92978620941281E-02 
699	 8.84690050007487E-02 
700	 8.76528678747976E-02 
701	 8.68082484178244E-02 
702	 8.58891014242841E-02 
703	 8.48348143288854E-02 
704	 8.37522866157174E-02 
705	 8.26504293444314E-02 
706	 8.15292343247623E-02 
707	 8.03321744456614E-02 
708	 7.89686339259858E-02 
709	 7.74732272523861E-02 
710	 7.59206403888418E-02 
711	 7.42955449378434E-02 
712	 7.25556441918922E-02 
713	 7.07327529472953E-02 
714	 6.88857031946479E-02 
715	 6.70252294398735E-02 
716	 0.065024710148054 
717	 6.29292050586361E-02 
718	 6.07616173979383E-02 
719	 5.84975564310858E-02 
720	 5.65665878698387E-02 
721	 5.49001390261171E-02 
722	 5.31240325972476E-02 
723	 5.10823540993556E-02 
724	 4.89864360394782E-02 
725	 4.68308077405897E-02 
726	 4.47172765903848E-02 
727	 4.25819930859142E-02 
728	 4.03278314084438E-02 
729	 3.77541863055462E-02 
730	 3.51574928087647E-02 
731	 3.28812258808102E-02 
732	 3.10171618638755E-02 
733	 2.93757102787028E-02 
734	 2.79526687225205E-02 
735	 2.67767625702589E-02 
736	 2.58577145963884E-02 
737	 2.51739687252001E-02 
738	 2.46706777211107E-02 
739	 2.42939022374075E-02 
740	 2.39808346268752E-02 
741	 2.37149630389326E-02 
742	 2.34986980375927E-02 
743	 2.33430171603534E-02 
744	 2.32575736390299E-02 
745	 0.023226434289277 
746	 2.32274547153391E-02 
747	 2.32346107626445E-02 
748	 2.32291945205397E-02 
749	 2.31989144541564E-02 
750	 0.023146006642979 
751	 2.30966015360723E-02 
752	 2.31198807977979E-02 
753	 2.31334979889686E-02 
754	 2.30083081421742E-02 
755	 2.29658257549958E-02 
756	 2.29346141253645E-02 
757	 2.29230769015553E-02 
758	 2.31570922164112E-02 
759	 2.31740757158945E-02 
760	 2.29989886086265E-02 
761	 0.023104564153063 
762	 2.33036275573044E-02 
763	 0.023420983515944 
764	 2.34326464661515E-02 
765	 2.34109048178076E-02 
766	 2.34620454102966E-02 
767	 2.35501397621041E-02 
768	 2.36641856243967E-02 
769	 2.38132655805528E-02 
770	 2.39290858294961E-02 
771	 2.40801870235975E-02 
772	 2.42991621098771E-02 
773	 2.44386092830569E-02 
774	 0.024655775915098 
775	 2.49273348449511E-02 
776	 2.51590453827724E-02 
777	 2.53348142135796E-02 
778	 2.55494374532994E-02 
779	 2.57956422420799E-02 
780	 2.59737500417965E-02 
781	 0.026399106305113 
782	 2.68007408934421E-02 
783	 2.70158964402078E-02 
784	 0.027372663489161 
785	 2.76794255584728E-02 
786	 2.79645647596253E-02 
787	 0.028306338809572 
788	 2.86254497982882E-02 
789	 2.90001191907607E-02 
790	 2.94694653237478E-02 
791	 3.00084656297907E-02 
792	 3.02898539256083E-02 
793	 3.06139935372233E-02 
794	 3.11188352405182E-02 
795	 3.15254863075579E-02 
796	 3.18620640070771E-02 
797	 3.21471848667491E-02 
798	 3.24405199244538E-02 
799	 3.28881149083553E-02 
800	 3.32245727814039E-02 
801	 3.34942221875932E-02 
802	 3.38723321093839E-02 
803	 3.40266798199995E-02 
804	 3.41698888171491E-02 
805	 3.43602739300589E-02 
806	 3.44408357421881E-02 
807	 3.44471205591563E-02 
808	 3.43859167341737E-02 
809	 3.42814704072229E-02 
810	 3.42240413236208E-02 
811	 3.39593719192699E-02 
812	 3.36225688862637E-02 
813	 3.34617394097984E-02 
814	 3.32061476426217E-02 
815	 3.27576075474869E-02 
816	 3.21661669433724E-02 
817	 3.16098027718515E-02 
818	 3.13297935187057E-02 
819	 3.07817400504778E-02 
820	 2.98521878720243E-02 
821	 2.90484986382016E-02 
822	 2.80670687907918E-02 
823	 2.68354546610398E-02 
824	 2.54918228010874E-02 
825	 2.43339885485129E-02 
826	 2.30079434504121E-02 
827	 2.15504565188024E-02 
828	 2.02280628565735E-02 
829	 1.90580193446349E-02 
830	 1.78675299236624E-02 
831	 1.67404572036009E-02 
832	 1.59554288281056E-02 
833	 1.53642066430219E-02 
834	 1.48407613307361E-02 
835	 1.43625830309043E-02 
836	 0.01404012116305 
837	 1.37369006225945E-02 
838	 1.35080915549644E-02 
839	 1.33596453135596E-02 
840	 1.30563447252443E-02 
841	 1.28374229493856E-02 
842	 0.012711642415472 
843	 1.25762030840608E-02 
844	 1.22279847245603E-02 
845	 1.21167237629028E-02 
846	 1.21416533585594E-02 
847	 1.18763739640252E-02 
848	 1.17828744177981E-02 
849	 1.16168997877067E-02 
850	 1.13394926507939E-02 
851	 1.12524977774447E-02 
852	 1.12084496194472E-02 
853	 1.11005602455316E-02 
854	 1.09188252544444E-02 
855	 1.08409871859317E-02 
856	 1.05776402543637E-02 
857	 1.03953319434001E-02 
858	 1.05079899927554E-02 
859	 1.04002835823531E-02 
860	 1.02875055830824E-02 
861	 1.01487536773529E-02 
862	 9.8979204772341E-03 
863	 9.81968985051564E-03 
864	 9.75997862299806E-03 
865	 9.65717621111773E-03 
866	 9.55492318606093E-03 
867	 9.36360575070593E-03 
868	 9.16628431394568E-03 
869	 9.04433865701034E-03 
870	 9.04131516937715E-03 
871	 9.13124475817072E-03 
872	 9.04469357968326E-03 
873	 8.72555310800863E-03 
874	 8.70062305006769E-03 
875	 8.48177813561288E-03 
876	 8.17222848671113E-03 
877	 7.98275579082182E-03 
878	 7.79485703423045E-03 
879	 7.68598810794868E-03 
880	 7.77404893361168E-03 
881	 8.03514528182518E-03 
882	 7.66327156408914E-03 
883	 7.32169835773991E-03 
884	 7.19343362234781E-03 
885	 7.05204796746618E-03 
886	 7.04910697378892E-03 
887	 7.11165867293774E-03 
888	 7.16745915506854E-03 
889	 7.17544165486569E-03 
890	 7.08997293278477E-03 
891	 6.96597808574617E-03 
892	 6.80429277484099E-03 
893	 6.46933716675619E-03 
894	 6.62751469310697E-03 
895	 6.72324260755597E-03 
896	 6.26900944789761E-03 
897	 6.26852605679704E-03 
898	 6.54646843248596E-03 
899	 6.44615479721076E-03 
900	 5.75582028461677E-03 
901	 6.22239583825258E-03 
902	 6.03093020830407E-03 
903	 5.55819039857665E-03 
904	 5.71796794270739E-03 
905	 5.5803494196603E-03 
906	 5.48501316899786E-03 
907	 5.52892358339852E-03 
908	 5.59024290042832E-03 
909	 5.43303254659725E-03 
910	 6.32079875225501E-03 
911	 7.14869967722033E-03 
912	 5.2871654834412E-03 
913	 5.09156387541366E-03 
914	 5.02069207110853E-03 
915	 4.60532765207756E-03 
916	 5.23889530476413E-03 
917	 5.45313117355668E-03 
918	 5.22016123348951E-03 
919	 4.81842267561903E-03 
920	 4.58815991030044E-03 
921	 4.54528214666193E-03 
922	 4.59899495542928E-03 
923	 4.69161265173519E-03 
924	 4.89541555753379E-03 
925	 5.09371302911299E-03 
926	 4.64669351681488E-03 
927	 3.33283460411994E-03 
928	 3.21506557417824E-03 
929	 3.82239922926437E-03 
930	 4.19976252543179E-03 
931	 3.42796847810942E-03 
932	 5.2161581700649E-03 
933	 3.84634350392959E-03 
934	 6.08146055102371E-04 
935	 1.14307197332076E-03 
936	 6.1660079342453E-03 
937	 7.40589646357506E-03 
938	 6.80678224455847E-03 
939	 7.54591542804048E-03 
940	 4.39056477613111E-03 
941	 3.63881955139636E-03 
942	 4.42079475184916E-03 
943	 3.12500137096399E-03 
944	 3.63639685170685E-03 
945	 6.08376701683846E-03 
946	 7.05861869411956E-03 
947	 3.75351569053734E-03 
948	 6.32952459964651E-03 
949	 6.09093203515178E-03 
950	 3.74984195445167E-03 
951	 4.82218496204757E-03 
952	 1.57671019763354E-03 
953	 2.94702934475987E-03 
954	 6.14878916503421E-03 
955	 2.65947615896458E-03 
956	 4.99658586031319E-03 
957	 6.66262146212249E-03 
958	 0.005916162591213 
959	 5.25046144934951E-03 
960	 4.1625223421611E-03 
961	 3.54966361864434E-03 
962	 3.50880771623892E-03 
963	 3.55550721848475E-03 
964	 3.83116076971326E-03 
965	 4.93938184900302E-03 
966	 5.32875794532422E-03 
967	 3.01091716409187E-03 
968	 4.19747380574764E-03 
969	 5.11913264964479E-03 
970	 4.30427064370953E-03 
971	 3.15734208638539E-03 
972	 3.25102803660616E-03 
973	 3.28543148766732E-03 
974	 3.29017395105786E-03 
975	 4.49675916350357E-03 
976	 4.29264476755713E-03 
977	 3.2574520782602E-03 
978	 2.82423783868741E-03 
979	 4.18877178223439E-03 
980	 5.10736865161576E-03 
981	 4.82936511726192E-03 
982	 3.93657301637264E-03 
983	 3.6678715599638E-03 
984	 2.76639868395694E-03 
985	 3.79151220452938E-03 
986	 5.30736028654632E-03 
987	 3.67458771550113E-03 
988	 4.36951397310529E-03 
989	 4.8811913866378E-03 
990	 4.1362862138491E-03 
991	 2.99575330586487E-03 
992	 3.24403829497255E-03 
993	 3.97776959390305E-03 
994	 4.28002129819313E-03 
995	 3.75804857075801E-03 
996	 3.8304892584582E-03 
997	 3.50321869129699E-03 
998	 3.2092367910733E-03 
999	 3.93221131932055E-03 
1000	 4.13310702041963E-03 
1001	 3.83948351421028E-03 
1002	 3.83471523866557E-03 
1003	 3.95425627262738E-03 
1004	 4.56846293824889E-03 
1005	 4.64747157520064E-03 
1006	 4.44992560895218E-03 
1007	 4.2635717125012E-03 
1008	 3.8462054090892E-03 
1009	 3.40702835627629E-03 
1010	 3.44943411727874E-03 
1011	 3.81506804651997E-03 
1012	 4.17764620658849E-03 
1013	 4.54729903724667E-03 
1014	 4.70642070848741E-03 
1015	 4.66031085226261E-03 
1016	 4.61426726484254E-03 
1017	 4.4050343566165E-03 
1018	 4.28781477685692E-03 
1019	 4.18362053576662E-03 
1020	 4.04309379312546E-03 
1021	 3.85039886950633E-03 
1022	 3.81693850868086E-03 
1023	 3.52727972296562E-03 
1024	 3.54797224703674E-03 
1025	 3.70569984030023E-03 
1026	 3.85708693532944E-03 
1027	 4.03677652440994E-03 
1028	 4.4236829681582E-03 
1029	 4.52569290645612E-03 
1030	 4.55271025477162E-03 
1031	 4.46293272988667E-03 
1032	 4.11889422645666E-03 
1033	 4.01377122815955E-03 
1034	 3.81684166966602E-03 
1035	 3.82859714783237E-03 
1036	 4.24856795427968E-03 
1037	 4.36026817214299E-03 
1038	 4.64399785873199E-03 
1039	 4.40884156829291E-03 
1040	 3.86189208278033E-03 
1041	 3.5312171589446E-03 
1042	 3.41286936112232E-03 
1043	 3.19740464414173E-03 
1044	 3.46033850535093E-03 
1045	 4.38534169363937E-03 
1046	 4.65066927803291E-03 
1047	 5.01639017450714E-03 
1048	 4.99460658942397E-03 
1049	 4.29738103267415E-03 
1050	 4.08754841442703E-03 
1051	 3.8444297421426E-03 
1052	 3.77503095322854E-03 
1053	 4.08442887433136E-03 
1054	 4.19840941338142E-03 
1055	 4.39308716251082E-03 
1056	 4.42286469097962E-03 
1057	 4.34731700737263E-03 
1058	 4.10190267291121E-03 
1059	 3.98373290116013E-03 
1060	 3.74316223181988E-03 
1061	 3.68034523670418E-03 
1062	 3.72878328907056E-03 
1063	 3.79729713095315E-03 
1064	 3.90825844126651E-03 
1065	 4.06911866669582E-03 
1066	 4.51895397466806E-03 
1067	 4.56704644490767E-03 
1068	 4.46750783822304E-03 
1069	 4.32955424956996E-03 
1070	 3.51098117891613E-03 
1071	 3.36985474208516E-03 
1072	 3.64133087948656E-03 
1073	 4.11792632624039E-03 
1074	 4.06162951726871E-03 
1075	 4.09935475155253E-03 
1076	 4.0595787753313E-03 
1077	 3.37556165519221E-03 
1078	 3.3520043561186E-03 
1079	 4.02508965874243E-03 
1080	 4.1297658348624E-03 
1081	 4.0683583662734E-03 
1082	 4.04570854076975E-03 
1083	 3.74940077110162E-03 
1084	 3.64446686796181E-03 
1085	 3.76625649291497E-03 
1086	 3.73007012871571E-03 
1087	 3.65354502828956E-03 
1088	 3.61193153113735E-03 
1089	 3.48744309097264E-03 
1090	 3.2698918507911E-03 
1091	 3.40163118188629E-03 
1092	 3.80095382117681E-03 
1093	 3.8193462773933E-03 
1094	 3.95352533873233E-03 
1095	 3.92255040135986E-03 
1096	 3.45105213950085E-03 
1097	 3.36881719430672E-03 
1098	 3.43553552763192E-03 
1099	 3.53310483277634E-03 
1100	 3.82858242487324E-03 
1101	 4.01373875331819E-03 
1102	 4.33734363402857E-03 
1103	 4.45047934025928E-03 
1104	 4.60210081394543E-03 
1105	 4.24162864931347E-03 
1106	 3.45494888536322E-03 
1107	 3.35294659549499E-03 
1108	 3.35334442415401E-03 
1109	 3.93994332042059E-03 
1110	 4.1109725083364E-03 
1111	 4.44600597283836E-03 
1112	 4.60451052062497E-03 
1113	 4.43707253240045E-03 
1114	 4.41787133249701E-03 
1115	 4.85152868232536E-03 
1116	 4.93266030213532E-03 
1117	 4.00923506393224E-03 
1118	 3.44241933454569E-03 
1119	 3.20222358402582E-03 
1120	 3.27373499244256E-03 
1121	 5.62368914552859E-03 
1122	 3.72853519635873E-03 
1123	 3.2102224342304E-03 
1124	 3.67410896155487E-03 
1125	 1.08545603662768E-03 
1126	 4.43043356075596E-03 
1127	 8.83522815253181E-03 
1128	 8.05874293173975E-03 
1129	 6.22766643368549E-03 
1130	 2.21704869790334E-03 
1131	 1.81832446120999E-03 
1132	 2.30493995451809E-04 
1133	 1.16405513701734E-03 
1134	 6.7614317017686E-03 
1135	 7.47084980669041E-03 
1136	 5.62166661331123E-03 
1137	 5.47851944740365E-03 
1138	 5.17791026042438E-03 
1139	 4.10353034417551E-03 
1140	 3.73319374144142E-03 
1141	 2.93178176864376E-03 
1142	 2.60140300935744E-03 
1143	 3.86440082011253E-03 
1144	 4.88113489770408E-03 
1145	 5.99752713987324E-03 
1146	 5.77237228588072E-03 
1147	 3.54486143128879E-03 
1148	 3.10834897219694E-03 
1149	 4.42917965256949E-03 
1150	 4.51353921780399E-03 
1151	 4.86253304784053E-03 
1152	 4.7275726852717E-03 
1153	 3.71643480234667E-03 
1154	 3.38529977232837E-03 
1155	 3.18608421896757E-03 
1156	 3.49106808580844E-03 
1157	 3.90040295902312E-03 
1158	 4.21621890956583E-03 
1159	 4.28228027453485E-03 
1160	 3.95906476644866E-03 
1161	 3.44077025775834E-03 
1162	 3.10725391479457E-03 
1163	 3.30076410219995E-03 
1164	 3.63780041869788E-03 
1165	 3.75789777665238E-03 
1166	 3.57495442489327E-03 
1167	 3.18779319147696E-03 
1168	 3.31786188966259E-03 
1169	 3.50950388342806E-03 
1170	 3.4756306623345E-03 
1171	 3.5384353223707E-03 
1172	 3.49681444553459E-03 
1173	 3.41653888908237E-03 
1174	 3.18424811236771E-03 
1175	 3.68435591041274E-03 
1176	 3.80690876055461E-03 
1177	 3.56614617214835E-03 
1178	 3.84284833867736E-03 
1179	 3.79552012661298E-03 
1180	 3.38059871113821E-03 
1181	 3.84278954467732E-03 
1182	 4.16607046826213E-03 
1183	 3.73798418886543E-03 
1184	 3.82913390390645E-03 
1185	 3.95157081069582E-03 
1186	 3.57968375311337E-03 
1187	 3.55754595043734E-03 
1188	 3.80062372068892E-03 
1189	 3.75430361167066E-03 
1190	 3.63099023620947E-03 
1191	 3.61334519767702E-03 
1192	 3.59283271625354E-03 
1193	 3.42047726744743E-03 
1194	 3.44243689043239E-03 
1195	 3.69933581794571E-03 
1196	 3.55823257099312E-03 
1197	 3.26517278610515E-03 
1198	 3.19328325226106E-03 
1199	 3.08144055153508E-03 
1200	 3.14971181895442E-03 
1201	 3.64798417413772E-03 
1202	 3.82797774977777E-03 
1203	 3.54308476581323E-03 
1204	 3.52692519932173E-03 
1205	 3.67102868212609E-03 
1206	 3.78788376834293E-03 
1207	 3.8151867828826E-03 
1208	 3.57991867715867E-03 
1209	 3.26423057011924E-03 
1210	 3.29625497489716E-03 
1211	 3.64755829263014E-03 
1212	 3.61744429882526E-03 
1213	 3.53610334834858E-03 
1214	 3.63911304603968E-03 
1215	 3.64681491980369E-03 
1216	 3.19904304901557E-03 
1217	 3.14224272647521E-03 
1218	 3.51893995468051E-03 
1219	 3.25438786132866E-03 
1220	 2.92688581892902E-03 
1221	 3.2531025432068E-03 
1222	 3.48662870684631E-03 
1223	 3.3444541623701E-03 
1224	 3.37532845172681E-03 
1225	 3.39365888434957E-03 
1226	 3.18393335593892E-03 
1227	 3.10325340357671E-03 
1228	 3.25233780911832E-03 
1229	 3.54261395745328E-03 
1230	 3.62513434953942E-03 
1231	 3.43498990339139E-03 
1232	 3.41276800312056E-03 
1233	 3.44613714509909E-03 
1234	 3.43887967822675E-03 
1235	 3.43475584283696E-03 
1236	 3.62531833692412E-03 
1237	 3.64003909930717E-03 
1238	 3.51329500927317E-03 
1239	 3.38379764012292E-03 
1240	 3.19651053898006E-03 
1241	 3.2245918491631E-03 
1242	 3.33120894435787E-03 
1243	 3.36340982008578E-03 
1244	 3.42575053664898E-03 
1245	 3.46408187367973E-03 
1246	 3.32475528932714E-03 
1247	 3.17668359862233E-03 
1248	 3.25337462167268E-03 
1249	 3.36733874571011E-03 
1250	 3.49946948511208E-03 
1251	 3.57024104844154E-03 
1252	 3.48418103374659E-03 
1253	 3.43485356575429E-03 
1254	 3.36717855680289E-03 
1255	 3.28287069207496E-03 
1256	 3.25486955564324E-03 
1257	 3.33226970449861E-03 
1258	 3.35963904074081E-03 
1259	 3.36736323521792E-03 
1260	 3.37993199390014E-03 
1261	 3.44339350714809E-03 
1262	 3.39197474644098E-03 
1263	 3.24363949337577E-03 
1264	 3.18887785441029E-03 
1265	 3.03586355792309E-03 
1266	 3.07853628143991E-03 
1267	 3.33928493468732E-03 
1268	 3.41538234427235E-03 
1269	 3.39140241335608E-03 
1270	 3.44547924996502E-03 
1271	 3.56159470664183E-03 
1272	 3.45585742303053E-03 
1273	 3.30228175264431E-03 
1274	 3.42465225211731E-03 
1275	 3.43635118927608E-03 
1276	 3.25460335825006E-03 
1277	 3.15850872709982E-03 
1278	 3.13735886295284E-03 
1279	 3.16322447858485E-03 
1280	 3.19013370700345E-03 
1281	 3.16879323542731E-03 
1282	 3.31646840250789E-03 
1283	 3.28141949905474E-03 
1284	 2.90499692134518E-03 
1285	 2.88749307474775E-03 
1286	 3.14193272617903E-03 
1287	 3.18754526313217E-03 
1288	 3.26119950464073E-03 
1289	 3.31850415852287E-03 
1290	 3.28757399038796E-03 
1291	 3.22876414770143E-03 
1292	 3.4267518599475E-03 
1293	 3.52195535384696E-03 
1294	 3.45161035819677E-03 
1295	 3.47788121547574E-03 
1296	 3.38869728446504E-03 
1297	 3.17921193765972E-03 
1298	 3.35553789028798E-03 
1299	 3.7057269647021E-03 
1300	 3.73835050534429E-03 
1301	 3.63440306955893E-03 
1302	 3.56890256165279E-03 
1303	 3.33383951281004E-03 
1304	 3.05139910548868E-03 
1305	 3.28592697619649E-03 
1306	 3.35525089097645E-03 
1307	 3.26406240112131E-03 
1308	 3.3816437666246E-03 
1309	 3.85509519812484E-03 
1310	 3.96040498636204E-03 
1311	 3.92176693553627E-03 
1312	 3.95187027097534E-03 
1313	 3.95653241599227E-03 
1314	 3.73824492620066E-03 
1315	 3.19646012155683E-03 
1316	 3.16150021733406E-03 
1317	 3.2671854183186E-03 
1318	 3.20975229744659E-03 
1319	 3.49047851882796E-03 
1320	 3.70252411492943E-03 
1321	 3.86708033252645E-03 
1322	 3.56478997979182E-03 
1323	 3.31749434600337E-03 
1324	 3.5085698908559E-03 
1325	 3.58416126763601E-03 
1326	 3.33027708474776E-03 
1327	 3.54950472352454E-03 
1328	 4.18286882112507E-03 
1329	 3.7603012117944E-03 
1330	 3.00542946765966E-03 
1331	 3.13096870086691E-03 
1332	 3.48435638097678E-03 
1333	 3.42163651843203E-03 
1334	 3.41186120978383E-03 
1335	 4.05142299800296E-03 
1336	 4.55648368223831E-03 
1337	 4.48112228283906E-03 
1338	 5.2322054888623E-03 
1339	 5.76695713296649E-03 
1340	 4.92877041651826E-03 
1341	 4.54887207765557E-03 
1342	 5.09329588905012E-03 
1343	 5.33921520453499E-03 
1344	 4.29909754724271E-03 
1345	 4.64301705507716E-03 
1346	 8.57071964786055E-03 
1347	 9.82479721624029E-03 
1348	 8.18505029324014E-03 
1349	 8.16133748115318E-03 
1350	 2.55957240331806E-03 
1351	 7.76902373992074E-04 
1352	 1.57734675360727E-02 
1353	 2.58550907849231E-02 
1354	 0.032545607685991 
1355	 4.52600186240641E-02 
1356	 6.22691399811701E-02 
1357	 7.48606423343784E-02 
1358	 3.21464668400386E-02 
1359	-2.63172661548134E-02 
1360	 1.60216153002324E-02 
1361	 4.16509029555788E-02 
1362	 1.75232606277744E-02 
1363	 4.67474903442824E-02 
1364	 7.12804287395531E-02 
1365	 0.002342870591002 
1366	-8.77650903906388E-03 
1367	 0.230216675507197 
1368	 0.34482590785387 
1369	 0.345433917458358 
1370	 0.232037200776284 
1371	-0.193711546658231 
1372	-0.149686904475657 
1373	-2.38270789428413E-02 
1374	-7.91145567969433E-02 
1375	 0.136067917646672 
1376	 0.251815484470821 
1377	 0.140867392232087 
1378	 8.67558388647067E-02 
1379	 0.383311186535506 
1380	 0.39247922613738 
1381	 4.12303357527745E-02 
1382	-2.91659903622789E-02 
1383	 6.15054272951585E-02 
1384	 8.08873158498836E-02 
1385	 0.144214688964396 
1386	 0.244982476511717 
1387	 0.532789751715503 
1388	 0.473911751133672 
1389	 7.22591392564568E-03 
1390	-6.35777915568299E-02 
1391	-0.191169619561308 
1392	-0.196652043288973 
1393	-0.061800683481179 
1394	 6.28505950573687E-02 
1395	 0.143687867565448 
1396	 4.72842331932717E-02 
1397	 0.158697387941303 
1398	 0.48368974602625 
1399	 0.417325488196733 
1400	 0.252659777125438 
1401	 3.51151834091214E-02 
1402	-0.204779742489119 
1403	-0.122769085419306 
1404	-3.43191049211801E-02 
1405	-4.50032979555882E-04 
1406	 5.66542904815211E-02 
1407	 0.116630557363651 
1408	 0.162903980674192 
1409	 0.139931235867665 
1410	 0.050821041923265 
1411	 7.31321814728486E-02 
1412	 0.144689677221808 
1413	 0.159161155533465 
1414	 0.212283225036226 
1415	 0.184609299280648 
1416	 8.48896821270661E-02 
1417	 5.72198287982242E-02 
1418	 5.32632526047629E-02 
1419	 2.81691342847576E-02 
1420	 6.63446901489801E-03 
1421	-7.21159550317517E-03 
1422	-2.64093817044376E-02 
1423	-2.21033416442329E-02 
1424	-8.30116767570363E-03 
1425	 1.71223731446779E-03 
1426	 1.98436541136504E-02 
1427	 2.20690874300761E-02 
1428	 1.77825700126922E-02 
1429	 1.65460485353206E-02 
1430	 1.52116876396355E-02 
1431	 1.02302609576534E-02 
1432	-4.83602651572542E-03 
1433	-4.88923039615134E-03 
1434	 1.44879479761594E-03 
1435	 2.07341386931401E-03 
1436	 2.25964535898182E-03 
1437	 2.35363848845768E-02 
1438	 0.017761495308434 
1439	 6.16621911872132E-03 
1440	 1.41777077903486E-02 
1441	 1.58883014344126E-02 
1442	 1.74278986421822E-02 
1443	 2.09000387381362E-02 
1444	 1.14679946002523E-02 
1445	 2.7289910974025E-03 
1446	 4.23387690176352E-03 
1447	 8.48474441574574E-03 
1448	 6.42864724197941E-03 
1449	 3.47494721582899E-03 
1450	 6.57566287807638E-03 
1451	 6.50236015776779E-03 
1452	 5.50880008105993E-03 
1453	 7.77665304679525E-03 
1454	 7.15509845858297E-03 
1455	 1.92054640568286E-03 
1456	 1.45934606055294E-03 
1457	 4.25463531248251E-03 
1458	 0.004181937617825 
1459	 2.9933495814468E-03 
1460	 2.91016287004805E-03 
1461	 2.69780370486172E-03 
1462	 2.8937292661138E-03 
1463	 3.49485529978211E-03 
1464	 4.45840124942162E-03 
1465	 6.77504964968222E-03 
1466	 6.73379605909038E-03 
1467	 5.6278611067846E-03 
1468	 5.32525114649242E-03 
1469	 3.00403853372049E-03 
1470	 2.22621454724438E-03 
1471	 3.5009743063517E-03 
1472	 3.94514271462385E-03 
1473	 3.97235714800984E-03 
1474	 4.14840099882881E-03 
1475	 5.08977917396821E-03 
1476	 4.67051336295116E-03 
1477	 2.83661507933439E-03 
1478	 2.84809873888215E-03 
1479	 3.20784553720246E-03 
1480	 3.36941833269474E-03 
1481	 5.01141320227995E-03 
1482	 4.88009771312851E-03 
1483	 2.80734007766365E-03 
1484	 2.82120367743911E-03 
1485	 3.84112189289285E-03 
1486	 3.65289247625877E-03 
1487	 0.003601050747458 
1488	 3.58406551927692E-03 
1489	 2.89319404937767E-03 
1490	 2.64213348586478E-03 
1491	 2.81923626184837E-03 
1492	 2.87327244471036E-03 
1493	 2.95750559474683E-03 
1494	 2.76065843278727E-03 
1495	 2.39666924656694E-03 
1496	 2.43007115849564E-03 
1497	 2.44397555493129E-03 
1498	 2.37612752246116E-03 
1499	 2.49970086039977E-03 
1500	 2.63861937032919E-03 
1501	 2.75737101904002E-03 
1502	 2.69360474497177E-03 
1503	 2.49866472241668E-03 
1504	 2.59704438574499E-03 
1505	 2.65127055008627E-03 
1506	 2.82494622114925E-03 
1507	 2.87119586254488E-03 
1508	 2.83177580942565E-03 
1509	 2.75331510185945E-03 
1510	 2.61241257984177E-03 
1511	 2.61566561834044E-03 
1512	 2.57928322568918E-03 
1513	 2.56065253382711E-03 
1514	 2.41292104757225E-03 
1515	 2.09744911629229E-03 
1516	 2.38649216452734E-03 
1517	 2.86462431779289E-03 
1518	 2.68937770638048E-03 
1519	 2.41197079266597E-03 
1520	 2.41381760996977E-03 
1521	 2.27055355563368E-03 
1522	 2.05470406739825E-03 
1523	 2.29901599150047E-03 
1524	 2.6580469504537E-03 
1525	 2.62196657538553E-03 
1526	 2.46098885684359E-03 
1527	 2.33906238593423E-03 
1528	 2.40129301308242E-03 
1529	 2.7191981219451E-03 
1530	 2.94083728554877E-03 
1531	 2.93747252909759E-03 
1532	 2.83660642972068E-03 
1533	 2.62681140184674E-03 
1534	 2.39554797058439E-03 
1535	 2.47450296239807E-03 
1536	 2.72526482311837E-03 
1537	 2.64612243359674E-03 
1538	 2.46896497943621E-03 
1539	 2.66846560847793E-03 
1540	 2.73473861221793E-03 
1541	 2.47818911199541E-03 
1542	 2.6122948477791E-03 
1543	 2.79688847721501E-03 
1544	 2.55405960213372E-03 
1545	 2.40007958919092E-03 
1546	 2.41716146285179E-03 
1547	 2.43022096108962E-03 
1548	 2.63125227414666E-03 
1549	 2.82231222739187E-03 
1550	 2.8387325121382E-03 
1551	 2.84188522956397E-03 
1552	 2.74588580544394E-03 
1553	 2.67257391927294E-03 
1554	 2.70992141528084E-03 
1555	 2.67883278140526E-03 
1556	 2.57344102548177E-03 
1557	 2.52717991665245E-03 
1558	 2.63616436037747E-03 
1559	 2.78115842810965E-03 
1560	 2.80079644451041E-03 
1561	 2.7116539710271E-03 
1562	 2.61426721241104E-03 
1563	 2.58882143560447E-03 
1564	 2.60117564525048E-03 
1565	 2.49565604872985E-03 
1566	 2.49018380350449E-03 
1567	 2.64096344653304E-03 
1568	 2.56275821179634E-03 
1569	 2.57889235002785E-03 
1570	 2.71340985924639E-03 
1571	 2.5862092585381E-03 
1572	 2.55520751069647E-03 
1573	 2.55973533361025E-03 
1574	 2.50213513507565E-03 
1575	 2.66998626951552E-03 
1576	 2.78217977745795E-03 
1577	 2.7425971137594E-03 
1578	 2.84622856755698E-03 
1579	 2.7880327561507E-03 
1580	 2.3927177045943E-03 
1581	 2.32319991076745E-03 
1582	 2.59028381122136E-03 
1583	 2.59109551473489E-03 
1584	 2.51145638486384E-03 
1585	 2.66007675207463E-03 
1586	 2.71554480756077E-03 
1587	 2.68484264090413E-03 
1588	 2.70717574029258E-03 
1589	 2.59223122385913E-03 
1590	 2.55612710040319E-03 
1591	 2.63370403362477E-03 
1592	 2.61505913824112E-03 
1593	 2.57173137183617E-03 
1594	 2.45040797557282E-03 
1595	 2.18413027529555E-03 
1596	 2.10818478120004E-03 
1597	 2.31812882986611E-03 
1598	 2.37406392434457E-03 
1599	 2.40985619561342E-03 
1600	 2.54281338666088E-03 
1601	 2.3979763833344E-03 
1602	 2.22348596334692E-03 
1603	 2.54496782891365E-03 
1604	 2.98138705764654E-03 
1605	 2.74555830595733E-03 
1606	 2.36174450774569E-03 
1607	 2.36676224417776E-03 
1608	 2.30077355686757E-03 
1609	 2.46922701474482E-03 
1610	 2.81347642171429E-03 
1611	 2.57493104549667E-03 
1612	 2.29567928338129E-03 
1613	 2.44436012541517E-03 
1614	 2.55402509510242E-03 
1615	 2.45468531280702E-03 
1616	 2.33070896640052E-03 
1617	 2.39201827808085E-03 
1618	 2.52752115000205E-03 
1619	 2.65369053103725E-03 
1620	 2.67063244326661E-03 
1621	 2.48045040401536E-03 
1622	 2.39658979217183E-03 
1623	 2.38892249954587E-03 
1624	 2.37121042666314E-03 
1625	 2.45493210814827E-03 
1626	 2.43256837586324E-03 
1627	 2.38108664000593E-03 
1628	 2.50368245442624E-03 
1629	 2.57631199183427E-03 
1630	 2.58586330041027E-03 
1631	 2.58638517076991E-03 
1632	 2.48095865156068E-03 
1633	 2.54248775757846E-03 
1634	 2.65670052610212E-03 
1635	 2.56063431659078E-03 
1636	 2.49239525212735E-03 
1637	 2.41727376470086E-03 
1638	 2.45138686607413E-03 
1639	 2.70529379162291E-03 
1640	 2.96445110032678E-03 
1641	 3.04471307101218E-03 
1642	 2.82318064546831E-03 
1643	 2.63675860981859E-03 
1644	 2.59038207020302E-03 
1645	 2.55058525491104E-03 
1646	 2.66670058094551E-03 
1647	 2.81222771918552E-03 
1648	 2.91435197872015E-03 
1649	 2.96650501915251E-03 
1650	 2.9071334462983E-03 
1651	 2.97086098306575E-03 
1652	 2.93447604559628E-03 
1653	 2.87464805231264E-03 
1654	 2.71963989037981E-03 
1655	 0.001993474328444 
1656	 1.91877897830234E-03 
1657	 2.33245386788882E-03 
1658	 2.4165747253473E-03 
1659	 2.76765166963376E-03 
1660	 2.98289041375343E-03 
1661	 2.75547664834819E-03 
1662	 2.84257142362967E-03 
1663	 3.27844008218414E-03 
1664	 3.35934261867472E-03 
1665	 3.39445503645995E-03 
1666	 3.26014897083711E-03 
1667	 2.77557639453573E-03 
1668	 2.61389287780983E-03 
1669	 2.44180531712378E-03 
1670	 2.79142694695041E-03 
1671	 3.03444969855079E-03 
1672	 2.55997594202045E-03 
1673	 0.002275684276491 
1674	 2.43526714680387E-03 
1675	 2.64765853556419E-03 
1676	 2.97783103417609E-03 
1677	 3.05153672645368E-03 
1678	 2.60847149919284E-03 
1679	 2.19219931803312E-03 
1680	 2.20223405368907E-03 
1681	 2.41404164103001E-03 
1682	 2.47558656051177E-03 
1683	 2.49490550794928E-03 
1684	 2.33733262266443E-03 
1685	 2.26116349345204E-03 
1686	 2.62439944288964E-03 
1687	 2.56065689660031E-03 
1688	 2.27019452271503E-03 
1689	 2.31985739850796E-03 
1690	 2.39520764911636E-03 
1691	 2.58609158329959E-03 
1692	 2.6946707118815E-03 
1693	 2.48055606275724E-03 
1694	 2.1558697717074E-03 
1695	 2.17410564342931E-03 
1696	 2.36668656568344E-03 
1697	 2.44707439571841E-03 
1698	 2.65573033713401E-03 
1699	 2.55904424425535E-03 
1700	 2.20519673637118E-03 
1701	 2.15126100170245E-03 
1702	 2.30884525353653E-03 
1703	 2.22882388802091E-03 
1704	 1.97361711537797E-03 
1705	 2.18454961307705E-03 
1706	 2.2966899088322E-03 
1707	 2.09817328181422E-03 
1708	 2.60258137673576E-03 
1709	 2.87217515362663E-03 
1710	 2.32228464931838E-03 
1711	 2.36493280322427E-03 
1712	 2.58182141978215E-03 
1713	 2.74483813449234E-03 
1714	 2.81784328279117E-03 
1715	 2.56695480183497E-03 
1716	 2.37589055809654E-03 
1717	 2.47609720230291E-03 
1718	 2.32667879730842E-03 
1719	 1.80482271447846E-03 
1720	 1.67300589216049E-03 
1721	 1.8317900231603E-03 
1722	 2.03381775354329E-03 
1723	 2.83421022447272E-03 
1724	 3.06238485226071E-03 
1725	 2.10057257988143E-03 
1726	 1.82471354445829E-03 
1727	 2.01290186022148E-03 
1728	 1.70984861039317E-03 
1729	 2.18457340261516E-03 
1730	 2.30844580068787E-03 
1731	 1.55151231886674E-03 
1732	 2.09221266142179E-03 
1733	 2.72850010050915E-03 
1734	 2.32831616489441E-03 
1735	 2.24785422112759E-03 
1736	 2.14881568599424E-03 
1737	 1.41638921070155E-03 
1738	 1.79135713777885E-03 
1739	 2.97643262487152E-03 
1740	 3.11173556956728E-03 
1741	 3.13776583587691E-03 
1742	 2.80806549171353E-03 
1743	 2.09534906562337E-03 
1744	 2.29352094397124E-03 
1745	 2.66929675456241E-03 
1746	 3.45997534036428E-03 
1747	 3.51205445367446E-03 
1748	 2.17004396572629E-03 
1749	 1.77408776701894E-03 
1750	 1.7159349446984E-03 
1751	 1.81228291869123E-03 
1752	 2.91216408025923E-03 
1753	 3.13529373187373E-03 
1754	 2.75107613086414E-03 
1755	 0.00247988259176 
1756	 1.45958041643353E-03 
1757	 1.25372879909004E-03 
1758	 1.72445960104543E-03 
1759	 1.81353944756521E-03 
1760	 2.05388836112028E-03 
1761	 2.33116306119743E-03 
1762	 2.98920276143489E-03 
1763	 3.72758371322421E-03 
1764	 3.28657638209488E-03 
1765	 1.70889957389143E-03 
1766	 4.92412281955317E-04 
1767	 9.65191131293714E-04 
1768	 1.7276797934118E-03 
1769	 2.40331937874692E-03 
1770	 3.03824321955507E-03 
1771	 2.00504142561938E-03 
1772	 1.31947407508459E-03 
1773	 2.84926474471803E-03 
1774	 3.63944478875417E-03 
1775	 2.74986868299962E-03 
1776	 2.75159896852497E-03 
1777	 1.6382716904771E-03 
1778	 1.5659743635487E-03 
1779	 4.14199977636593E-03 
1780	 4.31097669075981E-03 
1781	 3.02430700808262E-03 
1782	 3.11657241903038E-03 
1783	 2.13854083304913E-03 
1784	 1.05114106536915E-03 
1785	 5.33634531622156E-04 
1786	 1.39525142514519E-03 
1787	 3.42096505025469E-03 
1788	 4.18009440975377E-03 
1789	 6.71766463118732E-03 
1790	 4.15592371353395E-03 
1791	-6.59925221602763E-04 
1792	-2.40487837612358E-03 
1793	 1.51029771410126E-03 
1794	 5.31284367296271E-03 
1795	 7.25714613134738E-03 
1796	 7.2154532175548E-03 
1797	 1.20362309229467E-03 
1798	 1.98788294657496E-03 
1799	 1.26184986604739E-02 
1800	 1.95855230213982E-02 
1801	 2.27515634239789E-02 
1802	 3.58337954391433E-03 
1803	-4.22383859958999E-03 
1804	-5.59729323558052E-03 
1805	 5.61585488440769E-03 
1806	 6.73614132060471E-02 
1807	 8.90118889280953E-02 
1808	 0.10157780846447 
1809	 6.42137655907034E-02 
1810	-0.22050749791375 
1811	-0.289840013340363 
1812	-0.126070451373356 
1813	-5.64472239689762E-02 
1814	 0.414819398944748 
1815	 0.469644400011895 
1816	-8.84730419671501E-02 
1817	-0.170915591281463 
1818	-0.11180609268361 
1819	 0.44628862673845 
1820	 0.824479608385078 
1821	 0.539243054077188 
1822	 0.468816271768298 
1823	 0.252174249005955 
1824	 0.153050804676026 
1825	 0.296895897481918 
1826	 0.378832797733694 
1827	-0.223479527559019 
1828	-0.171890609147919 
1829	 0.703933258312104 
1830	 0.639604981361682 
1831	-1.36105266068988 
1832	-2.60108371551716 
1833	 2.96179770584006 
1834	-42.0061272121258 
1835	-1.50496035668373 
1836	-1.58352301636899 
1837	-0.525803223838105 
1838	-0.441264604719271 
1839	-2.45616038073365 
1840	 7.22340046482888 
1841	 2.5412877215739 
1842	 1.46249566827972 
1843	 1.51840916424327 
1844	 2.84235528097008 
1845	 2.58639544929971 
1846	-685.431901862071 
1847	 0.922489769659555 
1848	 3.41466982301137 
1849	 2.82357352328533 
1850	 3.88878377151479 
1851	 3.49044944526867 
1852	 2.50457415833542 
1853	 0.966271486666688 
1854	 0.802020789422569 
1855	 1.44397470833293 
1856	 2.33669236742186 
1857	-18.5861514378481 
1858	-5.70047330563153 
1859	-18.5140232484645 
1860	-3.78306870864382 
1861	-2.59455628940074 
1862	-0.146037829001379 
1863	 0.389937369062524 
1864	 0.754457773572439 
1865	 0.922548293676087 
1866	 1.45903302089014 
1867	 1.532006425415 
1868	 0.677399121539236 
1869	 0.662987753091417 
1870	 0.939960966365725 
1871	-2.47433634212841 
1872	-0.717735303805287 
1873	 0.443179535626241 
1874	 2.76588559270292 
1875	-0.575110815186959 
1876	-0.624054383569371 
1877	-0.190822654347802 
1878	-0.919998816705287 
1879	-0.366924985347158 
1880	-0.388806821660707 
1881	 2.78126465545656 
1882	 0.668675039420358 
1883	 1.38866983719626 
1884	-3.74068165118575 
1885	-1.95293690835522 
1886	-9.35592083728449 
1887	 1.02975726228743 
1888	 0.747027268716944 
1889	 0.645724927867142 
1890	 4.77003202874909E-02 
1891	-0.275056303142246 
1892	 5.63648714894478 
1893	 0.693698339550424 
1894	 4.22550280914736 
1895	 4.76743237731222 
1896	 0.400790948138429 
1897	 0.279713292657535 
1898	 0.636477551002841 
1899	-10.5811097977791 
1900	-5.32325305067637 
1901	-2.56799991938506 
1902	-3.94103748010706 
1903	 0.603852138289921 
1904	 0.946675828834351 
1905	 0.274635694583883 
1906	 0.235206682699726 
1907	 170.709817534098 
1908	-1.19962883433584 
1909	-0.24669126162232 
1910	 7.72720246138381 
1911	-2.18773320262811 
1912	-1.23001411405189 
1913	-0.984696111038196 
1914	-0.361489590735605 
1915	-0.108398717617957 
1916	 0.511561432123936 
1917	 4.35887615429705E-02 
1918	 0.119738907277269 
1919	 6.57926963793336 
1920	-5.0162334141954 
1921	-0.375227584729256 
1922	 1.45269010079413E-02 
1923	-0.334537417392754 
1924	-0.584316303670108 
1925	-0.821727443269992 
1926	-0.93937848182909 
1927	-1.53553218795973 
1928	-1.70503028810577 
1929	-2.39522145808281E-02 
1930	 0.251448377318637 
1931	 0.361551560366387 
1932	 0.494613097470553 
1933	 0.538471360799424 
1934	 0.107578674584162 
1935	-1.91890351728965E-03 
1936	 1.84949075550814E-02 
1937	 3.44258379457373E-03 
1938	 0.160694064407179 
1939	 0.227697659978079 
1940	 0.310977132024154 
1941	 0.224035574001796 
1942	 0.134662864671467 
1943	 8.23524465409729E-02 
1944	-4.27181899871588E-04 
1945	-3.59594498140094E-02 
1946	-4.33731845865251E-03 
1947	-2.63161134514877E-02 
1948	-3.10451658811946E-02 
1949	 2.51104984597331E-03 
1950	 2.7067377296792E-03 
1951	 0.014829015726214 
1952	 2.44864403193914E-02 
1953	 2.88368530718689E-02 
1954	 1.15798241383546E-02 
1955	 7.41287285929201E-03 
1956	 9.91410090801883E-03 
1957	 0.016759635448244 
1958	 2.51796017344239E-02 
1959	 2.24123996866888E-02 
1960	 2.33602901006684E-02 
1961	 2.48679005800982E-02 
1962	 1.62128778866866E-02 
1963	 1.15282375980884E-02 
1964	 1.01967825477191E-02 
1965	 4.57085841562588E-03 
1966	 2.32266531322314E-03 
1967	 1.51683556583806E-03 
1968	 4.01216451180977E-03 
1969	 2.59683097951512E-03 
1970	-2.84939896962548E-04 
1971	 1.11136929128665E-03 
1972	 2.84830391193001E-03 
1973	 2.31129431231533E-03 
1974	 3.12860918338951E-03 
1975	 2.45618928650189E-03 
1976	 2.06807322789839E-04 
1977	-5.79439269731955E-04 
1978	-5.72542107917418E-05 
1979	 1.66044321877606E-04 
1980	 3.80262553284349E-04 
1981	 9.00126355632322E-05 
1982	 9.82516166962143E-06 
1983	-6.05357053166114E-04 
1984	-6.45865689128021E-04 
1985	-8.78304194658086E-04 
1986	-8.42163938863672E-04 
1987	 5.23424039920878E-04 
1988	 7.28771467316352E-04 
1989	 6.79154315970688E-04 
1990	 9.42910940359081E-04 
1991	 9.17074020089844E-04 
1992	 1.55211600874157E-03 
1993	 1.61704907661296E-03 
1994	 1.62742740542208E-03 
1995	 1.52541131297673E-03 
1996	 2.05954327794918E-03 
1997	 1.04981622862417E-03 
1998	 6.12654181290316E-04 
1999	 2.62064955188024E-03 
2000	 2.07234446865584E-03 
2001	 1.37487014041733E-03 
2002	 0.001683225733568 
2003	 2.60773435273661E-04 
2004	 2.07235683483807E-03 
2005	 3.56104716303067E-03 
2006	 3.77357001149315E-03 
2007	 3.41764346103653E-03 
2008	 4.6165091594633E-04 
2009	-1.05750248115006E-03 
2010	-2.57073884655033E-03 
2011	-2.84173016065988E-03 
2012	-1.93687021156749E-03 
2013	-9.61075630515724E-04 
2014	-1.66073018369616E-03 
2015	-7.7749282500222E-04 
2016	-3.19893752194236E-05 
2017	-9.24083250925623E-05 
2018	 6.68439170049335E-04 
2019	 1.89130870669765E-03 
2020	 2.48339554420315E-03 
2021	 3.37719888454761E-04 
2022	-4.02250628668129E-04 
2023	 1.15375970204065E-03 
2024	 9.53266797131351E-04 
2025	 8.50253819461552E-05 
2026	 2.52447270363394E-04 
2027	 7.96954886049483E-04 
2028	 8.17839602170796E-05 
2029	-3.90049354206984E-04 
2030	 3.70693143890369E-04 
2031	 1.8798818091795E-05 
2032	-7.71012045152597E-04 
2033	 2.98065638126092E-04 
2034	 9.69416054335015E-04 
2035	 1.42731223777771E-03 
2036	 2.30726139541895E-03 
2037	 1.38615758469603E-03 
2038	 9.11019680385994E-04 
2039	 1.04075131376774E-03 
2040	 1.50227818962627E-03 
2041	 1.59047113051854E-03 
2042	 2.28849148327471E-03 
2043	 2.63203198252945E-03 
2044	 2.48785933672803E-03 
2045	 2.69398360293967E-03 
2046	 2.98583535086655E-03 
2047	 3.03147294792619E-03 
2048	 3.73023904550542E-03 
2049	 3.53391341972937E-03 
2050	 2.94915503424419E-03 
2051	 3.09780358143746E-03 
2052	 2.55736617011906E-03 
2053	 2.54718891273041E-03 
2054	 2.95913396613566E-03 
2055	 3.20301562494322E-03 
2056	 3.09314754427309E-03 
2057	 1.64310011491215E-03 
2058	 1.35662311126948E-03 
2059	 2.3423788906474E-03 
2060	 2.27704503211405E-03 
2061	 1.60267876265643E-03 
2062	 2.40319812436087E-03 
2063	 2.18418488268873E-03 
2064	 1.98499169576676E-04 
2065	 2.04132578442743E-04 
2066	 3.86078666186864E-04 
2067	 1.05276971191694E-04 
2068	 9.69602953684803E-04 
2069	 1.61164423147606E-03 
2070	 1.41568906367792E-03 
2071	 1.94231033998271E-03 
2072	 2.78134716651365E-03 
2073	 2.6347047163801E-03 
2074	 1.44950090187925E-03 
2075	 1.51498300001683E-03 
2076	 1.81730458405916E-03 
2077	 1.47137602152892E-03 
2078	 1.20858530088025E-03 
2079	 1.40965638492578E-03 
2080	 1.32247366525808E-03 
2081	 1.3222478023103E-03 
2082	 2.39566722248889E-03 
2083	 3.34246988268172E-03 
2084	 3.34520250737625E-03 
2085	 3.20418436733331E-03 
2086	 3.33402337014998E-03 
2087	 3.19370469149365E-03 
2088	 2.86871740039711E-03 
2089	 2.70385589737745E-03 
2090	 2.6544713875884E-03 
2091	 2.18913045002053E-03 
2092	 1.95921589975545E-03 
2093	 1.92727937050294E-03 
2094	 2.2743815323225E-03 
2095	 3.09517552599807E-03 
2096	 3.07900245265271E-03 
2097	 2.93972173760951E-03 
2098	 2.99880099538945E-03 
2099	 2.5159137764168E-03 
2100	 2.11663820173035E-03 
2101	 2.48258636449535E-03 
2102	 2.3150090271235E-03 
2103	 2.02731512849435E-03 
2104	 1.68483910060981E-03 
2105	 2.14514712449782E-03 
2106	 2.20186757609456E-03 
2107	 1.21550838590304E-03 
2108	 1.36550769362063E-03 
2109	 1.17278788288755E-03 
2110	 8.24709356520978E-04 
2111	 1.65051042597344E-03 
2112	 1.34966954475467E-03 
2113	 9.74243862834197E-04 
2114	 6.66522189144619E-05 
2115	 2.98392159359518E-05 
2116	 1.51683872592932E-04 
2117	 2.27670051995289E-04 
2118	 6.41324478547497E-04 
2119	 9.70197034006882E-04 
2120	 1.07925219884033E-03 
2121	 1.39234548600396E-03 
2122	 1.77734651883717E-03 
2123	 2.06261820199132E-03 
2124	 2.23463365933936E-03 
2125	 2.5377297138754E-03 
2126	 2.57733819493942E-03 
2127	 2.7622311093231E-03 
2128	 2.38658926211761E-03 
2129	 6.38872263973851E-04 
2130	-7.95250477242166E-05 
2131	 6.85024667424144E-04 
2132	 8.39770475968297E-04 
2133	 7.5747059383968E-04 
2134	 7.79511126903834E-04 
2135	-3.99039999602044E-06 
2136	 2.95699405970657E-05 
2137	 1.17768989325195E-03 
2138	 1.54439606676636E-03 
2139	 1.87763806491389E-03 
2140	 1.96380547200059E-03 
2141	 9.88184710909991E-04 
2142	 1.00746004781084E-03 
2143	 1.89158390817999E-03 
2144	 1.97008432001022E-03 
2145	 1.9060752235573E-03 
2146	 1.96568631503545E-03 
2147	 1.27974604137688E-03 
2148	 1.69924923727391E-03 
2149	 1.82632717721123E-03 
2150	 7.09018029406653E-04 
2151	 9.94420380592575E-04 
2152	 1.78014870919602E-03 
2153	 2.65064458895552E-03 
2154	 3.77240557044186E-03 
2155	 3.8828435400474E-03 
2156	 2.91256031108242E-03 
2157	 2.17977458227013E-03 
2158	 1.03382455084804E-03 
2159	 8.64335023677758E-04 
2160	 8.07720704226431E-04 
2161	 1.12068072183485E-03 
2162	 2.48825184875556E-03 
2163	 2.91912084927944E-03 
2164	 3.3137154065642E-03 
2165	 3.16190515371873E-03 
2166	 1.96693999167412E-03 
2167	 1.54105220106576E-03 
2168	 1.48109289683232E-03 
2169	 1.19911496445756E-03 
2170	 1.14724940131681E-03 
2171	 5.90426509825633E-04 
2172	 1.32031208928823E-04 
2173	-1.28853746793242E-04 
2174	 4.76534002910928E-04 
2175	 9.25534739900952E-04 
2176	 1.08555094759958E-03 
2177	 1.29778743328914E-03 
2178	 1.37613817960061E-03 
2179	 1.75516636313565E-03 
2180	 2.56368660497063E-03 
2181	 3.63602498291681E-03 
2182	 3.36757895621295E-03 
2183	 2.8035154719245E-03 
2184	 3.2426606233974E-03 
2185	 3.44869436429043E-03 
2186	 3.67239513527714E-03 
2187	 4.34002230097618E-03 
2188	 4.82918466574181E-03 
2189	 5.45753808004425E-03 
2190	 4.85961083127602E-03 
2191	 3.31829906696345E-03 
2192	 2.51127621603902E-03 
2193	 8.57641692836341E-04 
2194	 5.2190913149632E-04 
2195	 1.73488483203506E-03 
2196	 1.93564978027562E-03 
2197	 1.79384839301001E-03 
2198	 1.9563261618822E-03 
2199	 1.80019942949615E-03 
2200	 2.3883023363616E-03 
2201	 3.05083623631599E-03 
2202	 2.28018364535564E-03 
2203	 2.11789310920545E-03 
2204	 2.88770683798538E-03 
2205	 1.85896194169532E-03 
2206	 2.32940628389456E-03 
2207	 3.32389660764032E-03 
2208	 7.70648310152995E-04 
2209	-2.36649184086519E-04 
2210	 3.02441740216185E-04 
2211	-5.71038290890721E-04 
2212	 2.50209183332911E-04 
2213	 1.45620342888354E-03 
2214	 2.13711606414609E-03 
2215	 3.09051897036595E-03 
2216	 2.83900189793386E-03 
2217	 2.48670119864077E-03 
2218	 1.51233239511481E-03 
2219	 1.67982714035883E-03 
2220	 1.93908655096486E-03 
2221	 2.75156460311045E-03 
2222	 5.23745980303566E-03 
2223	 5.24938157787917E-03 
2224	 4.04306837669191E-03 
2225	 3.43288958996835E-03 
2226	 9.78645569568923E-04 
2227	 6.5728185369637E-04 
2228	 2.14678275516027E-03 
2229	 2.65493365226538E-03 
2230	 4.31376031812557E-03 
2231	 4.81245867745185E-03 
2232	 4.17020472941503E-03 
2233	 3.64427974819872E-03 
2234	 1.66765663381671E-03 
2235	 1.3469853031641E-03 
2236	 4.22489796565187E-03 
2237	 4.8905022608981E-03 
2238	 4.4790527808043E-03 
2239	 4.89798345636434E-03 
2240	 3.23835292188154E-03 
2241	 1.87805640812815E-03 
2242	 2.79277636953718E-03 
2243	 4.36297203761486E-03 
2244	 4.02436840909139E-03 
2245	 1.76988690006943E-03 
2246	 5.66006401027308E-04 
2247	-1.71687506947694E-04 
2248	-1.11356211820031E-03 
2249	 1.1149056974915E-04 
2250	 3.57962481309632E-03 
2251	 5.1424757036438E-03 
2252	 3.72917699811194E-03 
2253	 3.76878471289339E-03 
2254	 3.82077371433523E-03 
2255	 3.40857858080835E-03 
2256	 4.59161470661565E-03 
2257	 4.22246735263547E-03 
2258	 4.36308900584545E-03 
2259	 4.96011689870317E-03 
2260	 4.66177164433834E-03 
2261	 6.57174498504214E-03 
2262	 5.47963890167648E-03 
2263	-7.48039217288213E-04 
2264	-1.66471025424437E-03 
2265	-1.32080457612227E-06 
2266	 7.47859241796975E-04 
2267	 3.66578941009589E-03 
2268	 5.25751346368075E-03 
2269	 6.03760554400177E-03 
2270	 4.41084253348657E-03 
2271	 1.12602047835836E-03 
2272	 8.02737858126628E-04 
2273	-3.05060664695701E-04 
2274	-1.83219934437052E-04 
2275	 3.30860414431429E-03 
2276	 4.5796055891837E-03 
2277	 3.9126802423162E-03 
2278	 3.38151209625428E-03 
2279	 3.74775144810977E-03 
2280	 2.7297247846969E-03 
2281	-8.83564321700529E-05 
2282	-1.14576811560199E-03 
2283	-4.04689805747337E-03 
2284	-4.33650496781527E-03 
2285	-1.20036213195248E-03 
2286	-1.31430577429729E-03 
2287	-5.62589191697219E-04 
2288	 2.55133771473352E-04 
2289	-1.86144108920707E-03 
2290	-3.51354624246088E-03 
2291	-3.13695808929014E-03 
2292	-3.13033260203894E-03 
2293	-4.19526502089905E-03 
2294	-3.81281198489785E-03 
2295	-3.40713115190485E-03 
2296	-1.41597278355464E-03 
2297	 7.44585517486766E-04 
2298	 4.82030531111633E-04 
2299	 6.44551408302231E-04 
2300	 6.28859798815505E-04 
2301	 3.87636717353638E-03 
2302	 0.006169006597872 
2303	 4.47295163202113E-03 
2304	 6.12895371394939E-03 
2305	 5.63170652236801E-03 
2306	 3.55679441340305E-03 
2307	 5.29804179723768E-03 
2308	 4.11208791108561E-03 
2309	-3.84204927004709E-04 
2310	-8.82770939985017E-04 
2311	 1.38329397417023E-03 
2312	 1.43773963295856E-03 
2313	 1.93638869738821E-03 
2314	 1.98463807740531E-03 
2315	 5.80188423408987E-04 
2316	 4.48298423296282E-04 
2317	 3.57905168764567E-03 
2318	 7.99952485625543E-03 
2319	 7.46187755712346E-03 
2320	 8.21163521617297E-03 
2321	 6.50427725558338E-03 
2322	-4.17261295466068E-03 
2323	-1.07003129596449E-02 
2324	-0.010360909417942 
2325	-1.24511977695729E-02 
2326	-0.015518604709467 
2327	-0.012099646857899 
2328	-8.96706293684754E-03 
2329	-1.25463443438304E-02 
2330	-8.82311847853021E-03 
2331	-1.69111085905989E-03 
2332	-7.34160531289691E-03 
2333	-6.87896292337704E-03 
2334	-5.13999310721004E-03 
2335	-9.75063559823968E-03 
2336	-6.51004431550583E-03 
2337	-7.87574944558221E-03 
2338	-4.40383371224618E-03 
2339	 2.57898273139447E-03 
2340	-3.69438005332147E-03 
2341	-1.18508774485133E-02 
2342	-1.26473468629209E-02 
2343	-5.02284715844761E-03 
2344	 1.42375942434868E-03 
2345	 4.05925116643227E-03 
2346	 8.44966141641869E-03 
2347	 2.4593493820236E-03 
2348	-5.0608648315852E-03 
2349	 1.60828749061249E-03 
2350	-6.18278086576179E-03 
2351	-0.023189758525355 
2352	-1.66045820803534E-02 
2353	-6.71409198570184E-03 
2354	-1.15641510540754E-02 
2355	-1.53246594027876E-02 
2356	-1.57235986838852E-02 
2357	-2.18128891008286E-02 
2358	-1.90743541705156E-02 
2359	-4.03860101878099E-03 
2360	-4.14945625804797E-03 
2361	-1.33310125997064E-02 
2362	-1.43605359544277E-02 
2363	-8.18210948001502E-03 
2364	-3.74461814272386E-03 
2365	-6.45732267855707E-03 
2366	-5.21460211910872E-03 
2367	-1.37899483380851E-02 
2368	-0.029225082130194 
2369	-3.68464851692921E-02 
2370	-3.48476112027676E-02 
2371	-3.26124088291349E-02 
2372	-2.84353816696473E-02 
2373	-8.31569023589083E-03 
2374	-0.006687254616424 
2375	-2.47143148073183E-03 
2376	 1.33700988262505E-02 
2377	 8.10796745241382E-03 
2378	 5.42336394348816E-03 
2379	 1.19952322066568E-02 
2380	 0.013202264445852 
2381	 8.95976857033321E-03 
2382	 2.18769776271109E-02 
2383	 1.32545466882722E-02 
2384	-2.34981580851036E-02 
2385	-3.38228683429667E-02 
2386	-4.00631198172442E-02 
2387	-3.65697523337956E-02 
2388	-3.09725884500903E-02 
2389	-0.035577166042843 
2390	-4.47694358577768E-02 
2391	-6.09896127574589E-02 
2392	-6.68331029656384E-02 
2393	-4.99734290469555E-02 
2394	-1.76463265960573E-02 
2395	-4.53801015862986E-03 
2396	-1.51584548857939E-02 
2397	-2.67080361440426E-02 
2398	-0.038985357095443 
2399	-2.81231841844356E-02 
2400	-2.74617667836564E-02 
2401	-5.40630425731572E-02 
2402	-6.96535233205347E-02 
2403	-9.76407346106145E-02 
2404	-6.36916025459721E-02 
2405	 3.00362009703348E-03 
2406	-3.46194674362543E-03 
2407	 9.51316167839835E-03 
2408	 1.68165939140231E-02 
2409	-3.71849671013919E-02 
2410	-1.31290857535295E-02 
2411	 2.78408183806179E-02 
2412	-0.025779256778626 
2413	-0.032014740619528 
2414	-5.98126215144591E-03 
2415	-9.89986594395976E-02 
2416	-0.109055013287909 
2417	-0.116216426097392 
2418	-0.170893529216889 
2419	-0.178420246955129 
2420	-0.12048846265269 
2421	-1.93957042310573E-02 
2422	 5.64819878613607E-03 
2423	 3.97326258437829E-02 
2424	 0.033066259305217 
2425	-8.79752337086403E-03 
2426	 7.95716943404828E-02 
2427	 7.63414604552851E-02 
2428	-2.41992113939681E-04 
2429	 1.55171208706059E-02 
2430	-1.69881474927652E-02 
2431	-7.27874719151204E-02 
2432	 3.51829909390703E-02 
2433	 6.87995764902671E-02 
2434	-7.72915813923288E-02 
2435	-9.76735785966724E-02 
2436	-0.119201621773564 
2437	-0.143605035442791 
2438	-5.67321716399485E-02 
2439	 1.89193198167512E-02 
2440	 6.75395284837436E-02 
2441	 8.51911204898234E-02 
2442	-1.43810933870672E-02 
2443	-8.87687002513367E-02 
2444	-0.1861143280875 
2445	-0.330611851713261 
2446	-0.321557616676178 
2447	-1.98160374084291 
2448	 6.36531241452366 
2449	 1.97911954261007 
2450	 1.36745238573016 
2451	 2.76813350406535 
2452	 1.5159089573116 
2453	 1.51778121393615 
2454	-21.8671278343112 
2455	 4.89197301623729E-02 
2456	-0.223113286252268 
2457	 1.25240891636524E-02 
2458	 0.110960522963911 
2459	 5.20484423705035E-03 
2460	 0.126971727568757 
2461	-0.261124777465719 
2462	-0.240971047244665 
2463	 0.412355445826689 
2464	 0.553963335551395 
2465	 0.611726666304557 
2466	 2.69963401332532 
2467	-3.50932793869468 
2468	 7.81841306586765 
2469	 116.912226019463 
2470	-3.29460677208249 
2471	 0.433415292548433 
2472	 0.458876101255216 
2473	 0.302255463413412 
2474	 0.178639100752798 
2475	-0.465316439472687 
2476	-2.3345780549874E-03 
2477	 0.273938931970884 
2478	-7.57105125679447E-03 
2479	 0.433004060162373 
2480	 1.29942464907509 
2481	 1.65862715082472 
2482	 1.19441851474711 
2483	 0.627062732122181 
2484	 0.14655514922691 
2485	 0.255374845160564 
2486	 0.311882828589985 
2487	 1.16493100480889E-02 
2488	 2.60196202455213E-02 
2489	 0.271554641560848 
2490	 0.593469839432199 
2491	 1.46231909026728 
2492	 1.72093441780307 
2493	 0.127138258009949 
2494	-0.123064466002481 
2495	 6.89796397354122E-02 
2496	 0.324301930046524 
2497	 0.860366466620986 
2498	 0.331255198926185 
2499	 1.20358137830374 
2500	-0.692030134014437 
