Wavelength	rt0722east_close00006.asd
350	 2.49118272005017E-02 
351	 2.43831330275059E-02 
352	 2.44248410375082E-02 
353	 2.46974269068847E-02 
354	 2.48484727183206E-02 
355	 2.50842309986383E-02 
356	 2.48595127429508E-02 
357	 2.46433901516881E-02 
358	 2.49617045215212E-02 
359	 0.025245695754564 
360	 2.50083585099424E-02 
361	 2.46620856533139E-02 
362	 0.025054487136891 
363	 2.49452378724295E-02 
364	 0.025067669554718 
365	 2.55706259197029E-02 
366	 0.025373406034837 
367	 2.55269563297376E-02 
368	 2.57853830401974E-02 
369	 2.57322752645508E-02 
370	 2.55273407256995E-02 
371	 2.58997706344953E-02 
372	 2.63288775987575E-02 
373	 0.025800362814819 
374	 2.58945857286635E-02 
375	 2.61774694306812E-02 
376	 2.63593084480744E-02 
377	 2.66387386379152E-02 
378	 0.02694750113914 
379	 2.68943773572883E-02 
380	 2.65125632403026E-02 
381	 2.73874773673725E-02 
382	 2.76772733609806E-02 
383	 2.73944384218342E-02 
384	 2.74815782730987E-02 
385	 2.83440837069838E-02 
386	 2.88901233008586E-02 
387	 0.028769390362545 
388	 2.86020434573219E-02 
389	 2.87552843877244E-02 
390	 2.89543317754974E-02 
391	 0.029076995483547 
392	 2.97798464868048E-02 
393	 3.01050861165053E-02 
394	 3.02117772282041E-02 
395	 3.05520284250053E-02 
396	 3.06947792683278E-02 
397	 3.07548920417028E-02 
398	 3.07897546099899E-02 
399	 3.07824448276129E-02 
400	 3.07952598652301E-02 
401	 3.09950117107181E-02 
402	 3.13711380560198E-02 
403	 3.15049151286806E-02 
404	 3.16475889433599E-02 
405	 3.18360145710627E-02 
406	 3.20263256748725E-02 
407	 3.21838558048253E-02 
408	 3.22969126710514E-02 
409	 3.24307019708347E-02 
410	 3.27050169493926E-02 
411	 3.28143856349917E-02 
412	 3.29277729581988E-02 
413	 3.31581245926128E-02 
414	 3.32607800812567E-02 
415	 0.03350212069915 
416	 3.37932823802481E-02 
417	 3.39456000946549E-02 
418	 0.034091259202077 
419	 3.43684689446234E-02 
420	 3.47411404280581E-02 
421	 3.49977500334299E-02 
422	 3.52459465931196E-02 
423	 3.54659271559078E-02 
424	 3.56615277785544E-02 
425	 3.59637343770909E-02 
426	 3.63080200592421E-02 
427	 3.67055198551848E-02 
428	 3.71711202771928E-02 
429	 3.75155809842841E-02 
430	 3.78368096026328E-02 
431	 3.81579529918971E-02 
432	 3.83853721595561E-02 
433	 3.86905026443995E-02 
434	 3.90163727390145E-02 
435	 3.93052486459372E-02 
436	 0.039636523325381 
437	 4.01678237489168E-02 
438	 4.06987185511435E-02 
439	 4.09005681661132E-02 
440	 4.11745706253945E-02 
441	 4.15534886334695E-02 
442	 4.19594057865181E-02 
443	 4.22148988760117E-02 
444	 0.042564446226602 
445	 4.29362835172461E-02 
446	 0.043206630583175 
447	 4.33894206525419E-02 
448	 4.36937690347696E-02 
449	 4.40974066013334E-02 
450	 0.044406359501243 
451	 4.45840377807357E-02 
452	 0.044801085657185 
453	 4.51106201934889E-02 
454	 4.52538655423405E-02 
455	 4.55111310827581E-02 
456	 4.57453585742993E-02 
457	 4.57756911823592E-02 
458	 4.60215419183019E-02 
459	 4.62851907436563E-02 
460	 4.64648784782986E-02 
461	 4.65907252260021E-02 
462	 4.67503740991767E-02 
463	 4.69645941814933E-02 
464	 4.71901389306771E-02 
465	 0.047245860265481 
466	 4.73537068063793E-02 
467	 4.75508977073148E-02 
468	 4.77853691603515E-02 
469	 4.81118273131541E-02 
470	 4.83040238568497E-02 
471	 4.83668843629664E-02 
472	 4.86364514490876E-02 
473	 4.88367976199957E-02 
474	 4.89675262951008E-02 
475	 0.04911476253571 
476	 4.94116329052397E-02 
477	 4.96532386106839E-02 
478	 4.98538948543396E-02 
479	 5.01647255206689E-02 
480	 5.04301071271206E-02 
481	 0.050663965196609 
482	 0.050911557488566 
483	 5.12336863805257E-02 
484	 5.15676258294192E-02 
485	 5.19198855155774E-02 
486	 5.22962960934747E-02 
487	 5.25556481539197E-02 
488	 5.28801645534496E-02 
489	 0.053302312677253 
490	 0.053696229814291 
491	 5.39986234503502E-02 
492	 0.054371692045115 
493	 5.48951913823343E-02 
494	 0.055321714363666 
495	 5.56566971813363E-02 
496	 5.60000738457826E-02 
497	 5.64797686890789E-02 
498	 5.69456433785666E-02 
499	 5.74565326796181E-02 
500	 5.79999559228883E-02 
501	 5.84216893165102E-02 
502	 5.89183230708236E-02 
503	 5.94266816626389E-02 
504	 5.98710666653363E-02 
505	 6.04458623431276E-02 
506	 6.09428459840959E-02 
507	 6.13897684038071E-02 
508	 6.19895598409267E-02 
509	 6.25468033823844E-02 
510	 6.29925405868955E-02 
511	 6.34059848093017E-02 
512	 6.41956678684028E-02 
513	 6.48095025384831E-02 
514	 6.52890295305983E-02 
515	 6.58979741182023E-02 
516	 6.64774892490679E-02 
517	 6.71101185887487E-02 
518	 6.77854121858532E-02 
519	 6.83629382069199E-02 
520	 6.90780555591042E-02 
521	 0.069762353612303 
522	 0.070300722607368 
523	 7.10819668103712E-02 
524	 7.17918885689467E-02 
525	 7.24032953167424E-02 
526	 7.30900371649026E-02 
527	 7.37439518781857E-02 
528	 7.44480488405901E-02 
529	 7.52179503311189E-02 
530	 7.58912276250522E-02 
531	 7.65634818077911E-02 
532	 7.73273876048519E-02 
533	 7.82050497878033E-02 
534	 7.88214420051726E-02 
535	 7.94696538567409E-02 
536	 8.02592493188443E-02 
537	 8.10400325317676E-02 
538	 8.18460628249194E-02 
539	 8.26504751850426E-02 
540	 8.34280128905883E-02 
541	 8.41966631012828E-02 
542	 8.49683411886104E-02 
543	 8.57360765029572E-02 
544	 8.64879715762992E-02 
545	 0.087261797548138 
546	 8.80409442818009E-02 
547	 0.088812828078686 
548	 8.95903044797155E-02 
549	 9.03524704191333E-02 
550	 0.091093789617584 
551	 9.18305158007358E-02 
552	 9.26527820506542E-02 
553	 9.34569900291666E-02 
554	 9.41999789070288E-02 
555	 9.49160579531895E-02 
556	 9.56774746080347E-02 
557	 9.64773526398292E-02 
558	 9.72675405317787E-02 
559	 9.79742551687047E-02 
560	 9.86576173399427E-02 
561	 9.93324439796003E-02 
562	 9.99887691070354E-02 
563	 0.100640174738567 
564	 0.101291920767506 
565	 0.101912009046131 
566	 0.102395356236123 
567	 0.102876636619878 
568	 0.103386832541476 
569	 0.103912975785584 
570	 0.104456840206222 
571	 0.104880427844615 
572	 0.105206935433898 
573	 0.105632410247404 
574	 0.106031369291469 
575	 0.10637682758461 
576	 0.106671247311443 
577	 0.106948814481378 
578	 0.107206085501426 
579	 0.10742072512549 
580	 0.10757234860989 
581	 0.107792776249873 
582	 0.107892752272439 
583	 0.107826937821608 
584	 0.107887340373893 
585	 0.107834156617033 
586	 0.107717908555315 
587	 0.107647586578562 
588	 0.107439214821839 
589	 0.107257644122875 
590	 0.107135172270767 
591	 0.106928870121329 
592	 0.106682758893235 
593	 0.106356532210551 
594	 0.105924246088744 
595	 0.105431062511056 
596	 0.10483170226581 
597	 0.104127779153206 
598	 0.103364609056648 
599	 0.102663345957463 
600	 0.102036515912142 
601	 0.101507251639473 
602	 0.10113641218848 
603	 0.100997256289931 
604	 0.100953012462761 
605	 0.100853682644071 
606	 0.100867667180392 
607	 0.100898481837228 
608	 0.100925479486697 
609	 0.101014922554479 
610	 0.101118202346715 
611	 0.101179887137891 
612	 0.101176138256233 
613	 0.101166938562363 
614	 0.101187510698381 
615	 0.101223194395019 
616	 0.101240792227775 
617	 0.101358485372256 
618	 0.101382996773086 
619	 0.101272835357178 
620	 0.101274468366728 
621	 0.101314263822958 
622	 0.101360625254776 
623	 0.101390515343955 
624	 0.101411007473242 
625	 0.101276902947478 
626	 0.101130821488184 
627	 0.101356099778898 
628	 0.10141396844456 
629	 0.101355525417207 
630	 0.101319396029057 
631	 0.101365527886936 
632	 0.10126268650347 
633	 0.101106207651439 
634	 0.101115849829042 
635	 0.101133354938443 
636	 0.101084261624616 
637	 0.100990579701713 
638	 0.100999436567501 
639	 0.100915024567107 
640	 0.100821560408214 
641	 0.100808688998978 
642	 0.100634760965836 
643	 0.100464178737506 
644	 0.100341718135117 
645	 0.100209822791527 
646	 0.100067113902436 
647	 9.99805265527617E-02 
648	 9.99494842284814E-02 
649	 9.97953849021542E-02 
650	 9.95529099152933E-02 
651	 9.92463190570003E-02 
652	 9.89235657816308E-02 
653	 0.098716438509817 
654	 9.83195881435953E-02 
655	 9.76628205558385E-02 
656	 9.71336367108649E-02 
657	 9.66909405039478E-02 
658	 9.63344243536953E-02 
659	 9.60416663921111E-02 
660	 9.57435821346877E-02 
661	 9.55125349833708E-02 
662	 9.53474382603479E-02 
663	 9.52041150564017E-02 
664	 9.50680489057948E-02 
665	 9.49713396422219E-02 
666	 0.094907419893324 
667	 9.47866691195821E-02 
668	 9.47550277943838E-02 
669	 9.47793324010398E-02 
670	 9.47693560745504E-02 
671	 9.46772260542069E-02 
672	 9.46054054495706E-02 
673	 9.45740434902286E-02 
674	 9.45234000424141E-02 
675	 0.094539187347704 
676	 9.44956375966817E-02 
677	 9.43495056665456E-02 
678	 9.43583334806078E-02 
679	 9.44224704468672E-02 
680	 9.44384563056469E-02 
681	 9.43456842330406E-02 
682	 9.44227529024644E-02 
683	 9.45218466617522E-02 
684	 9.45297647304399E-02 
685	 9.44211100530117E-02 
686	 9.43593602284388E-02 
687	 9.42691615604978E-02 
688	 9.40772581068174E-02 
689	 0.093967268929869 
690	 9.38054799147465E-02 
691	 9.34906171599933E-02 
692	 9.29678619829444E-02 
693	 0.092627147551274 
694	 0.092216050681263 
695	 9.16001213593821E-02 
696	 9.09113907786064E-02 
697	 0.090265775362866 
698	 8.95664422143454E-02 
699	 8.87448118055166E-02 
700	 8.79839669188691E-02 
701	 8.71312337571474E-02 
702	 8.61721004769398E-02 
703	 8.51835490570501E-02 
704	 8.41831118979209E-02 
705	 8.31611908338921E-02 
706	 8.20872402992168E-02 
707	 8.08170149227394E-02 
708	 0.07944943821503 
709	 0.077978456554937 
710	 7.63790522179255E-02 
711	 7.47278482997802E-02 
712	 7.30211620832651E-02 
713	 7.12685567488111E-02 
714	 6.94521672337997E-02 
715	 6.77432587351241E-02 
716	 6.58571427084268E-02 
717	 6.36507420247807E-02 
718	 6.13915300681038E-02 
719	 5.92254760257883E-02 
720	 5.73868150538248E-02 
721	 0.055613526813629 
722	 5.38383655555906E-02 
723	 5.17815162128889E-02 
724	 4.96325478022639E-02 
725	 4.75409200465816E-02 
726	 4.54439761398217E-02 
727	 4.32560835683841E-02 
728	 4.09340383083362E-02 
729	 0.03846393643973 
730	 3.58732470613342E-02 
731	 3.34785144141701E-02 
732	 0.031490843193326 
733	 0.029935457998182 
734	 2.85774967031649E-02 
735	 2.73541757438992E-02 
736	 0.026398040056906 
737	 2.56980582568607E-02 
738	 2.51868866543341E-02 
739	 2.47939024802662E-02 
740	 2.44454554609465E-02 
741	 2.42089220007813E-02 
742	 2.40627035938268E-02 
743	 2.39365991093883E-02 
744	 2.38113890662007E-02 
745	 2.37195519706078E-02 
746	 2.36910098025845E-02 
747	 2.37426019539503E-02 
748	 2.37442772346275E-02 
749	 2.36802607926108E-02 
750	 2.35947911561493E-02 
751	 0.023606312230855 
752	 0.023641589321073 
753	 2.36075187426741E-02 
754	 2.34445234925095E-02 
755	 0.023424681543731 
756	 2.34261096178051E-02 
757	 2.34186710767187E-02 
758	 2.36072269488687E-02 
759	 2.37620661717049E-02 
760	 2.37720564734493E-02 
761	 2.37134228384156E-02 
762	 2.37291175553587E-02 
763	 0.023805533546069 
764	 2.39277167239805E-02 
765	 2.40578756476733E-02 
766	 2.40515485441395E-02 
767	 2.40485640920915E-02 
768	 2.41467027559563E-02 
769	 2.44047404074032E-02 
770	 2.45570312029805E-02 
771	 2.46559321556002E-02 
772	 2.48041078397308E-02 
773	 2.50549309267823E-02 
774	 2.52687563890748E-02 
775	 2.54860562465073E-02 
776	 2.57830548849459E-02 
777	 0.025908394054809 
778	 2.60873840957945E-02 
779	 2.63808254555045E-02 
780	 2.66588856994702E-02 
781	 2.70815611768575E-02 
782	 2.74741545934222E-02 
783	 2.77392008360939E-02 
784	 2.80891937834063E-02 
785	 2.83864880762767E-02 
786	 2.86647615187943E-02 
787	 2.89941525961666E-02 
788	 2.92979876275722E-02 
789	 2.96999620125496E-02 
790	 3.02002023552961E-02 
791	 3.06871141609744E-02 
792	 3.10191265632273E-02 
793	 3.13712439176728E-02 
794	 3.18148102141487E-02 
795	 3.21657006013119E-02 
796	 3.25302345092547E-02 
797	 3.28567776035924E-02 
798	 3.31478129989336E-02 
799	 3.37064576003413E-02 
800	 3.40977208799996E-02 
801	 3.43189586583745E-02 
802	 3.46054718373558E-02 
803	 3.48344015037383E-02 
804	 3.50357286993816E-02 
805	 3.51574983414454E-02 
806	 3.50665109387089E-02 
807	 3.51849634732131E-02 
808	 3.52862711130229E-02 
809	 3.51505941113607E-02 
810	 3.49196376809701E-02 
811	 3.46839505441054E-02 
812	 3.44517313409857E-02 
813	 3.41840623586951E-02 
814	 3.38376907269996E-02 
815	 3.34831362417379E-02 
816	 3.30644269050661E-02 
817	 3.24552386101746E-02 
818	 3.18703933460082E-02 
819	 3.13117118973239E-02 
820	 3.06858182879772E-02 
821	 2.98540903927171E-02 
822	 2.87728535937415E-02 
823	 2.74714436069225E-02 
824	 2.61187247353383E-02 
825	 2.49582360172968E-02 
826	 2.36192059879417E-02 
827	 0.02209751100673 
828	 2.06284631256217E-02 
829	 1.92332114993228E-02 
830	 1.81819793703401E-02 
831	 1.73207551760789E-02 
832	 1.62932906286286E-02 
833	 1.56650216789047E-02 
834	 1.51501762070962E-02 
835	 1.46184822589838E-02 
836	 1.42764691019716E-02 
837	 1.39342980355662E-02 
838	 1.36104558155766E-02 
839	 1.33560169768682E-02 
840	 1.32033158754141E-02 
841	 1.29194556508355E-02 
842	 1.26870149789733E-02 
843	 1.26975331576471E-02 
844	 1.24049791392207E-02 
845	 1.22149252645351E-02 
846	 1.21471453702694E-02 
847	 1.19561893233904E-02 
848	 1.17783612517487E-02 
849	 1.16690880432103E-02 
850	 1.16108302055632E-02 
851	 1.15056344535143E-02 
852	 1.13329851282175E-02 
853	 1.11407579004684E-02 
854	 1.10033875083096E-02 
855	 1.10206293534782E-02 
856	 1.06230838520346E-02 
857	 1.02997016402157E-02 
858	 1.04716269193306E-02 
859	 1.02342294323824E-02 
860	 1.01138173216558E-02 
861	 1.00413154174804E-02 
862	 9.75983272365553E-03 
863	 9.88033153730018E-03 
864	 9.87700079420499E-03 
865	 9.67066805042807E-03 
866	 9.62370847254347E-03 
867	 9.43248997538501E-03 
868	 9.28279341262874E-03 
869	 9.22810529919983E-03 
870	 9.07957616341227E-03 
871	 9.06607621668048E-03 
872	 8.9974658074057E-03 
873	 8.76227414526514E-03 
874	 8.62844776978937E-03 
875	 8.34365036216563E-03 
876	 8.06443828798021E-03 
877	 7.95057518396559E-03 
878	 7.69837692366185E-03 
879	 7.49422215945438E-03 
880	 7.50486307013636E-03 
881	 7.73224531282762E-03 
882	 7.45409088976521E-03 
883	 7.13847294011265E-03 
884	 7.00657657547739E-03 
885	 7.00131850600647E-03 
886	 6.89337395123484E-03 
887	 6.77178384686768E-03 
888	 6.67397632968406E-03 
889	 6.54452551360592E-03 
890	 6.53787690031836E-03 
891	 6.41460905132887E-03 
892	 6.15074587388342E-03 
893	 6.26145275407327E-03 
894	 6.34676168632399E-03 
895	 6.09014665546729E-03 
896	 5.57258221531403E-03 
897	 6.00545169423205E-03 
898	 6.12499672106562E-03 
899	 5.58861877334646E-03 
900	 4.88067299555453E-03 
901	 5.65121048449915E-03 
902	 6.04739347486084E-03 
903	 5.93111680253452E-03 
904	 5.79960466352682E-03 
905	 5.57263696764001E-03 
906	 5.50368878286216E-03 
907	 5.47894096873628E-03 
908	 5.17624734964151E-03 
909	 4.91108249401008E-03 
910	 5.31305874302091E-03 
911	 5.83180550309583E-03 
912	 5.12988765000096E-03 
913	 4.72858440002547E-03 
914	 4.70418973350664E-03 
915	 4.82324039123073E-03 
916	 4.73467833968485E-03 
917	 4.17078876103361E-03 
918	 4.09876978485264E-03 
919	 4.53009747795931E-03 
920	 4.12617996795793E-03 
921	 3.84933989506626E-03 
922	 3.78486866276596E-03 
923	 3.83195200243721E-03 
924	 3.84529352893895E-03 
925	 4.32746858750474E-03 
926	 4.2806766071951E-03 
927	 3.05299661534746E-03 
928	 3.37597474442355E-03 
929	 3.31887922482017E-03 
930	 1.83047584032029E-03 
931	-4.82870933236504E-04 
932	 4.26502990846449E-03 
933	 3.26860778779953E-03 
934	-4.15269942779144E-04 
935	 3.10632610876476E-03 
936	 3.95665688838234E-03 
937	 6.50331860426346E-03 
938	 7.23916732488824E-03 
939	 3.38192392201474E-03 
940	 3.38614798143408E-03 
941	 3.90549777737682E-03 
942	 2.78121824449383E-03 
943	-2.31043404512409E-04 
944	 1.51547713723017E-03 
945	 5.04654618270474E-03 
946	 5.98157271588554E-03 
947	 2.19994050197824E-03 
948	 3.13099316323616E-03 
949	 2.85730808014947E-03 
950	 2.17450124972506E-03 
951	 4.84085677263293E-03 
952	 2.60479083279005E-03 
953	 1.66633942127086E-03 
954	 3.07516018244207E-03 
955	 3.7268662896492E-03 
956	 3.27390397374259E-03 
957	 3.70173451577921E-03 
958	 4.23797893711015E-03 
959	 2.79261896319454E-03 
960	 2.23927080610019E-03 
961	 2.29971311274686E-03 
962	 2.59823234546093E-03 
963	 2.90904710143962E-03 
964	 2.96269788215048E-03 
965	 3.41454438458157E-03 
966	 3.67800414554341E-03 
967	 2.72336371343819E-03 
968	 3.22752880173728E-03 
969	 3.84344300899713E-03 
970	 3.39288311587827E-03 
971	 1.60486149363282E-03 
972	 1.5721276984986E-03 
973	 2.47623580273714E-03 
974	 3.08767165698603E-03 
975	 2.57593394751623E-03 
976	 2.49351605878415E-03 
977	 2.74441978040063E-03 
978	 3.03815837991547E-03 
979	 3.17018799778131E-03 
980	 3.50023026514257E-03 
981	 2.77204376589633E-03 
982	 1.88723326620671E-03 
983	 2.88403863000094E-03 
984	 2.11711364303082E-03 
985	 2.83846605625525E-03 
986	 4.13683632492616E-03 
987	 2.47008922688132E-03 
988	 3.29668865874199E-03 
989	 3.96218123961218E-03 
990	 3.25273885372131E-03 
991	 2.06780617505187E-03 
992	 3.40491236974778E-03 
993	 3.34963300055396E-03 
994	 2.48348495450038E-03 
995	 3.97938991769338E-03 
996	 4.04440525429837E-03 
997	 3.24879867146651E-03 
998	 0.002307418451772 
999	 1.81008254510644E-03 
1000	 2.20976487187862E-03 
1001	 3.36374793711537E-03 
1002	 3.20305203241323E-03 
1003	 3.35718854024203E-03 
1004	 3.65310805721404E-03 
1005	 3.79233074714174E-03 
1006	 3.89536580698782E-03 
1007	 4.5034821926024E-03 
1008	 4.73841924421552E-03 
1009	 4.60687001318839E-03 
1010	 4.49358071324911E-03 
1011	 4.22350592661616E-03 
1012	 3.81028576299829E-03 
1013	 3.66334612477653E-03 
1014	 3.51770604883289E-03 
1015	 3.56711850405447E-03 
1016	 3.39736567147772E-03 
1017	 3.03718273411876E-03 
1018	 2.95868685350024E-03 
1019	 2.90779009312275E-03 
1020	 2.96797880519925E-03 
1021	 3.33905428133976E-03 
1022	 3.52302678394811E-03 
1023	 3.80022378219506E-03 
1024	 3.7398025548424E-03 
1025	 3.39472978795394E-03 
1026	 3.38137375715829E-03 
1027	 3.26116129840401E-03 
1028	 2.8602004211629E-03 
1029	 3.07315353646293E-03 
1030	 3.8452556447782E-03 
1031	 3.91969334877951E-03 
1032	 3.96726188174721E-03 
1033	 3.91439220879573E-03 
1034	 3.27393148209412E-03 
1035	 3.07935055822426E-03 
1036	 3.23341112732982E-03 
1037	 3.2732344125971E-03 
1038	 3.22989326393397E-03 
1039	 0.003419979457827 
1040	 3.52635732550509E-03 
1041	 3.44378924421529E-03 
1042	 3.51699285226624E-03 
1043	 3.60466035849307E-03 
1044	 3.63610736917705E-03 
1045	 3.76670709120873E-03 
1046	 3.75132651077087E-03 
1047	 3.61781731229696E-03 
1048	 3.53883617505291E-03 
1049	 3.30713591782341E-03 
1050	 3.28907652401387E-03 
1051	 3.43822978056526E-03 
1052	 3.46193414189987E-03 
1053	 3.51494621934298E-03 
1054	 3.63054959766606E-03 
1055	 3.8793640131464E-03 
1056	 3.86750848130337E-03 
1057	 3.75983331312788E-03 
1058	 3.56331426094618E-03 
1059	 3.55314307015477E-03 
1060	 3.40060696429622E-03 
1061	 3.34647871567539E-03 
1062	 3.59710104473632E-03 
1063	 3.60929340138363E-03 
1064	 3.39995678848783E-03 
1065	 3.29816879585306E-03 
1066	 3.18758166438275E-03 
1067	 3.16799046946747E-03 
1068	 3.17118754671021E-03 
1069	 3.18931568610207E-03 
1070	 3.42163459287956E-03 
1071	 3.4682449211766E-03 
1072	 3.33149060329694E-03 
1073	 3.1927370902343E-03 
1074	 3.38093129991302E-03 
1075	 3.76470599357699E-03 
1076	 3.76827800261031E-03 
1077	 4.00124220237633E-03 
1078	 3.84513541362903E-03 
1079	 2.84425946597301E-03 
1080	 2.7536625469641E-03 
1081	 3.23070295307922E-03 
1082	 3.25978107058888E-03 
1083	 3.50970062386412E-03 
1084	 3.58680298287603E-03 
1085	 2.96400528918039E-03 
1086	 2.95420764822949E-03 
1087	 3.69905049754589E-03 
1088	 3.88645593185208E-03 
1089	 4.03654465597381E-03 
1090	 4.14086255599877E-03 
1091	 4.03567761719231E-03 
1092	 3.27464224132483E-03 
1093	 3.1948931087828E-03 
1094	 3.56274375719911E-03 
1095	 3.54157733431545E-03 
1096	 3.51204669773769E-03 
1097	 3.44353718307257E-03 
1098	 2.96181610117195E-03 
1099	 2.87728396935592E-03 
1100	 3.4398928420967E-03 
1101	 3.43850329130515E-03 
1102	 2.88746709498405E-03 
1103	 2.89621133211683E-03 
1104	 3.07840646310897E-03 
1105	 2.89153083768035E-03 
1106	 3.32679041539981E-03 
1107	 4.07127705228984E-03 
1108	 4.25190326500862E-03 
1109	 3.96912872144471E-03 
1110	 3.66202195368742E-03 
1111	 2.97049126754789E-03 
1112	 2.83201524817894E-03 
1113	 2.51628673958512E-03 
1114	 2.47802988775155E-03 
1115	 3.64330105438581E-03 
1116	 0.003672068989262 
1117	 2.59295081758205E-03 
1118	 2.44837089673786E-03 
1119	 1.84417929856239E-03 
1120	 1.65563204423902E-03 
1121	 2.21248772510246E-03 
1122	 4.92246552842271E-03 
1123	 9.35833272233421E-03 
1124	 1.05652627517037E-02 
1125	 8.96710194756498E-03 
1126	 7.01120966897879E-03 
1127	 3.92443494142216E-03 
1128	 4.80813708240962E-04 
1129	-7.11527309953882E-04 
1130	 1.7572452940995E-03 
1131	 3.02666935444853E-03 
1132	 3.06542473245838E-03 
1133	 3.69156762108996E-03 
1134	 6.35630924680015E-03 
1135	 5.68564764400874E-03 
1136	 3.31093441580066E-03 
1137	 3.01669847862911E-03 
1138	 3.30796124256947E-03 
1139	 1.1355222463377E-03 
1140	 5.61836961012782E-04 
1141	 1.21683497019744E-03 
1142	 1.57314895559969E-03 
1143	 2.75706081880545E-03 
1144	 4.0908324631863E-03 
1145	 3.97530708815658E-03 
1146	 2.93133830832712E-03 
1147	 0.002931784778195 
1148	 4.72781697096902E-03 
1149	 5.23208203849996E-03 
1150	 5.13434514230713E-03 
1151	 4.97540677545812E-03 
1152	 4.71124690547607E-03 
1153	 3.56682869917083E-03 
1154	 2.97673910435499E-03 
1155	 2.72184487534682E-03 
1156	 2.49497354197637E-03 
1157	 2.22970700548066E-03 
1158	 2.64432000593254E-03 
1159	 3.33176781571776E-03 
1160	 3.40905834152196E-03 
1161	 2.88535829356576E-03 
1162	 2.67709565152391E-03 
1163	 2.72382887907893E-03 
1164	 2.73085358606193E-03 
1165	 3.29424816037437E-03 
1166	 3.62422254706525E-03 
1167	 3.08532940092094E-03 
1168	 2.61468526824591E-03 
1169	 2.59798109333311E-03 
1170	 2.80811198685524E-03 
1171	 2.84984741113508E-03 
1172	 3.33708341969662E-03 
1173	 3.38994745974913E-03 
1174	 3.07746316335846E-03 
1175	 2.72087624008416E-03 
1176	 2.63838357901664E-03 
1177	 2.72294564042664E-03 
1178	 2.9870507743581E-03 
1179	 3.15620321038568E-03 
1180	 3.05495291884819E-03 
1181	 3.11414531976269E-03 
1182	 3.07986460203568E-03 
1183	 2.73185754377933E-03 
1184	 2.73399802900164E-03 
1185	 3.15448486707162E-03 
1186	 3.41770228531932E-03 
1187	 3.35950704813924E-03 
1188	 3.20288462992391E-03 
1189	 3.08103869632324E-03 
1190	 2.97262843636121E-03 
1191	 3.01831415357033E-03 
1192	 3.08968943708517E-03 
1193	 3.38525341680515E-03 
1194	 3.35347233335295E-03 
1195	 3.20731104533275E-03 
1196	 3.28757441878718E-03 
1197	 3.24269705301712E-03 
1198	 3.13863845025164E-03 
1199	 3.2915645032201E-03 
1200	 3.25543556241715E-03 
1201	 2.99572430870798E-03 
1202	 3.06909137328501E-03 
1203	 3.17290264264451E-03 
1204	 3.16991709043812E-03 
1205	 3.37339568691491E-03 
1206	 3.3865195084613E-03 
1207	 3.17946520760455E-03 
1208	 3.07200470081236E-03 
1209	 3.13938251741161E-03 
1210	 3.14376392746354E-03 
1211	 3.03225080074289E-03 
1212	 3.24031080992017E-03 
1213	 3.38811821484128E-03 
1214	 3.31720936479312E-03 
1215	 3.14844164191854E-03 
1216	 3.17969644725953E-03 
1217	 3.10790744658835E-03 
1218	 3.06928607703255E-03 
1219	 3.28364411710514E-03 
1220	 3.26753946506562E-03 
1221	 3.05559739797765E-03 
1222	 0.002935533164139 
1223	 2.76599882678727E-03 
1224	 2.72798835147062E-03 
1225	 3.1032123998369E-03 
1226	 3.32803435183267E-03 
1227	 3.08214786031809E-03 
1228	 3.05462005247881E-03 
1229	 3.23379658460103E-03 
1230	 3.04621895190398E-03 
1231	 2.95706960105989E-03 
1232	 3.12202352581813E-03 
1233	 3.0435102417347E-03 
1234	 3.01851922963844E-03 
1235	 2.98764576612348E-03 
1236	 3.16993383031691E-03 
1237	 3.17037382119603E-03 
1238	 2.99073925428939E-03 
1239	 2.90060653313749E-03 
1240	 3.0025004214703E-03 
1241	 3.0948722091464E-03 
1242	 3.11224268348754E-03 
1243	 3.15511318402295E-03 
1244	 3.2408020091475E-03 
1245	 3.26739780731537E-03 
1246	 3.19430757671236E-03 
1247	 3.06610333078881E-03 
1248	 2.99180549559197E-03 
1249	 2.99282158660426E-03 
1250	 2.99556257080912E-03 
1251	 3.04009638619774E-03 
1252	 2.93662761015858E-03 
1253	 2.87885726231243E-03 
1254	 3.10917900207851E-03 
1255	 3.19357576351445E-03 
1256	 3.18239116721186E-03 
1257	 2.95723455209249E-03 
1258	 2.97475075089175E-03 
1259	 3.1405251858059E-03 
1260	 3.1120028375768E-03 
1261	 3.09065933509731E-03 
1262	 3.11920078518476E-03 
1263	 3.05785303794587E-03 
1264	 2.83310529986894E-03 
1265	 2.79087460478344E-03 
1266	 2.7601197575861E-03 
1267	 2.74805689768485E-03 
1268	 2.94486663134501E-03 
1269	 3.24831657806577E-03 
1270	 3.25169736553211E-03 
1271	 3.1413243826909E-03 
1272	 3.06632295790531E-03 
1273	 2.81923008269484E-03 
1274	 2.98079673616479E-03 
1275	 3.18649268982977E-03 
1276	 2.9924559415832E-03 
1277	 3.19423632550269E-03 
1278	 3.40503630653247E-03 
1279	 3.08768878369875E-03 
1280	 2.95401260656085E-03 
1281	 3.04393059049155E-03 
1282	 3.23355193977668E-03 
1283	 3.21216888502059E-03 
1284	 3.29335049166099E-03 
1285	 3.44543795563098E-03 
1286	 3.57572929365247E-03 
1287	 3.48573980247769E-03 
1288	 3.34050480505541E-03 
1289	 3.40134428198346E-03 
1290	 3.43041005717552E-03 
1291	 3.12592610238389E-03 
1292	 3.01522661107041E-03 
1293	 3.18059796095502E-03 
1294	 3.13728861400823E-03 
1295	 2.99826085670913E-03 
1296	 3.05514613112115E-03 
1297	 3.28984376848387E-03 
1298	 3.34365004713688E-03 
1299	 3.21654083300279E-03 
1300	 3.23505266066551E-03 
1301	 3.2845724651066E-03 
1302	 3.12061523972456E-03 
1303	 2.82998116149693E-03 
1304	 2.88999556189141E-03 
1305	 3.05384087729765E-03 
1306	 3.05402564632992E-03 
1307	 3.02966375699075E-03 
1308	 3.17121315678749E-03 
1309	 3.39107911957419E-03 
1310	 3.31604590071453E-03 
1311	 3.08396890523024E-03 
1312	 3.24895387453502E-03 
1313	 3.65152030443199E-03 
1314	 3.39578991075524E-03 
1315	 2.73274402569351E-03 
1316	 2.82981205749533E-03 
1317	 2.91903085009872E-03 
1318	 2.80839961914671E-03 
1319	 3.39794412557193E-03 
1320	 3.78023849493454E-03 
1321	 3.64588591387106E-03 
1322	 3.30256755170621E-03 
1323	 3.32437287009803E-03 
1324	 3.81511428741424E-03 
1325	 3.86204176298346E-03 
1326	 3.3538367879363E-03 
1327	 3.55348586491912E-03 
1328	 4.30917153253171E-03 
1329	 4.37261397905293E-03 
1330	 4.00004508346175E-03 
1331	 3.96107869337664E-03 
1332	 4.03365804647693E-03 
1333	 3.8347222804001E-03 
1334	 3.33991815688532E-03 
1335	 3.48067549304683E-03 
1336	 3.78220532244757E-03 
1337	 3.51659678055529E-03 
1338	 3.54375819491753E-03 
1339	 3.85582766300393E-03 
1340	 3.14499061650796E-03 
1341	 3.20388800370118E-03 
1342	 5.67448931127606E-03 
1343	 6.05624897444068E-03 
1344	 3.62707317010119E-03 
1345	 3.49112855481515E-03 
1346	 3.93794357422514E-03 
1347	 4.14547187206097E-03 
1348	 7.90197920076547E-03 
1349	 1.19435829925472E-02 
1350	 1.79644513596369E-02 
1351	 0.019913831685723 
1352	 7.72311885112488E-03 
1353	 8.09984890905919E-03 
1354	 1.71419526213961E-02 
1355	 1.95681158757418E-02 
1356	 1.89633361039833E-02 
1357	 2.00939404383358E-02 
1358	 3.28188349946263E-02 
1359	-1.72321958935315E-02 
1360	-5.58550739303331E-02 
1361	 1.41879547667543E-02 
1362	 3.16943262156866E-02 
1363	 1.15780986612835E-02 
1364	 3.06017710693911E-02 
1365	 3.82777192558993E-02 
1366	 0.143215644866385 
1367	 0.331219980364692 
1368	 0.249167076494882 
1369	 6.36630663241383E-02 
1370	 0.171538151326605 
1371	 0.314132690186298 
1372	 1.04496941850963E-03 
1373	-0.271416724711869 
1374	-3.78217465712565E-02 
1375	-2.12594158249914E-02 
1376	-2.98866693418269E-02 
1377	 0.754301702406154 
1378	 0.979382835076145 
1379	 0.219589143442748 
1380	 9.14981403414853E-02 
1381	 0.213636826492377 
1382	 0.239236464097125 
1383	 0.27251392966276 
1384	 0.330893439315674 
1385	 0.559891994244653 
1386	 0.564731779416035 
1387	 0.320097303212259 
1388	 0.262521804133857 
1389	 0.159318654480288 
1390	 0.136649726194127 
1391	 0.303451509719462 
1392	 0.376279732913554 
1393	 0.315362938255298 
1394	 0.489968354638434 
1395	 0.438300623601333 
1396	 0.24729896508393 
1397	 0.164898479208302 
1398	 0.121758550708111 
1399	 0.297575746766186 
1400	 0.666482530263155 
1401	 0.580639707937381 
1402	 0.404522288310231 
1403	 0.409360793633936 
1404	 0.366655814725641 
1405	 0.295010079334811 
1406	 0.346344243507328 
1407	 0.263584534481881 
1408	-2.52457525726433E-02 
1409	-3.50154404015279E-02 
1410	 9.01779894478557E-02 
1411	 0.137839519864335 
1412	 0.277300052671993 
1413	 0.243399788701167 
1414	 0.125473934025256 
1415	 0.109870415715507 
1416	 0.064539105742034 
1417	 3.66057578637525E-02 
1418	 8.10840044822803E-02 
1419	 6.35518811391953E-02 
1420	 6.32926946157687E-03 
1421	-1.40472788701344E-02 
1422	-2.79847050944825E-02 
1423	-1.97288285610395E-02 
1424	-1.23198957180434E-02 
1425	-1.40570391303431E-03 
1426	 3.55239494172095E-02 
1427	 0.040844265105729 
1428	 2.97582342857861E-02 
1429	 2.60221467578903E-02 
1430	 1.01089951192807E-02 
1431	 9.17185392526361E-03 
1432	 2.59297603245973E-02 
1433	 2.98928267727496E-02 
1434	 0.031288187369166 
1435	 3.14149983508799E-02 
1436	 2.48566430968102E-02 
1437	 1.83707245285081E-02 
1438	 8.95864894219434E-03 
1439	 8.71606843591697E-03 
1440	 1.65244819628195E-02 
1441	 9.24095568023911E-03 
1442	-5.46247637943689E-04 
1443	 1.52087394835375E-03 
1444	 4.98590506648578E-03 
1445	 3.90907706106305E-03 
1446	 4.95198521959672E-03 
1447	 6.03269381512003E-03 
1448	 4.70650271665528E-03 
1449	 6.34894388862238E-03 
1450	 7.41525350336664E-03 
1451	 5.89698002168353E-03 
1452	 5.90065297930213E-03 
1453	 5.96031301785338E-03 
1454	 4.32505951726318E-03 
1455	 3.89375649714377E-03 
1456	 3.83975074167746E-03 
1457	 1.84635158370509E-03 
1458	 1.35959209108358E-03 
1459	 2.87983780910625E-03 
1460	 3.41142100032452E-03 
1461	 2.97566352773033E-03 
1462	 2.86880472482565E-03 
1463	 3.7777500413214E-03 
1464	 4.17061883539991E-03 
1465	 3.47373383255198E-03 
1466	 3.18763768014177E-03 
1467	 3.55294873114517E-03 
1468	 4.1311692416039E-03 
1469	 4.69540809865872E-03 
1470	 4.70883434115186E-03 
1471	 3.64924951047806E-03 
1472	 5.10574098118036E-03 
1473	 9.1662391824419E-03 
1474	 8.71587769608062E-03 
1475	 6.93582286491835E-03 
1476	 7.03062487233407E-03 
1477	 5.49173818986087E-03 
1478	 4.20839431065384E-03 
1479	 4.60324536935031E-03 
1480	 4.67626209386847E-03 
1481	 3.83561564890297E-03 
1482	 3.18129862720469E-03 
1483	 3.21584258782214E-03 
1484	 3.07743639989373E-03 
1485	 2.05977664495737E-03 
1486	 2.0274751141429E-03 
1487	 3.07086218609297E-03 
1488	 3.25178729471552E-03 
1489	 2.96104796939671E-03 
1490	 2.98270173079381E-03 
1491	 3.2441745047947E-03 
1492	 3.07281323841671E-03 
1493	 2.59751495179899E-03 
1494	 2.70427489477688E-03 
1495	 2.86980827626525E-03 
1496	 2.74262237262539E-03 
1497	 3.0740601950002E-03 
1498	 3.04921162737042E-03 
1499	 2.08413458686353E-03 
1500	 1.96241926686191E-03 
1501	 2.57039627525174E-03 
1502	 2.6930521196342E-03 
1503	 2.88781899720265E-03 
1504	 3.00270472004795E-03 
1505	 2.96659280862353E-03 
1506	 2.65547575898507E-03 
1507	 2.51793678022487E-03 
1508	 2.56579023548961E-03 
1509	 2.42949553624052E-03 
1510	 2.34080484147097E-03 
1511	 2.4155154386351E-03 
1512	 2.3806695478728E-03 
1513	 2.47241989209937E-03 
1514	 2.49179224909238E-03 
1515	 2.26179984297712E-03 
1516	 2.23284612676135E-03 
1517	 2.35757320671951E-03 
1518	 2.31502815157528E-03 
1519	 2.17111281942808E-03 
1520	 2.2731093963371E-03 
1521	 2.46676599742383E-03 
1522	 2.47478118938401E-03 
1523	 2.56849519726402E-03 
1524	 2.59690559352729E-03 
1525	 2.58674672335446E-03 
1526	 2.71538455681073E-03 
1527	 2.73174436736478E-03 
1528	 2.6211298388516E-03 
1529	 2.33254077835904E-03 
1530	 2.12570495038834E-03 
1531	 2.23670404879281E-03 
1532	 2.31809759241415E-03 
1533	 2.32410928926596E-03 
1534	 2.32413374368558E-03 
1535	 2.28901489497932E-03 
1536	 2.36520694553466E-03 
1537	 2.60966900300708E-03 
1538	 2.65509437388867E-03 
1539	 2.29623979028346E-03 
1540	 2.21490391636306E-03 
1541	 2.33726248400193E-03 
1542	 2.22943882860406E-03 
1543	 2.41310978403954E-03 
1544	 2.63284199762479E-03 
1545	 2.52622245705827E-03 
1546	 2.5886414934696E-03 
1547	 2.75031802827836E-03 
1548	 2.63783906393068E-03 
1549	 2.30733361206032E-03 
1550	 2.23438993240523E-03 
1551	 2.57551534967723E-03 
1552	 2.67127286095566E-03 
1553	 2.46881920502785E-03 
1554	 2.51333473222022E-03 
1555	 2.76026755524018E-03 
1556	 2.75409778853187E-03 
1557	 2.5117358120724E-03 
1558	 2.4771663255871E-03 
1559	 2.53487091276758E-03 
1560	 2.38951927294821E-03 
1561	 2.42267321289092E-03 
1562	 2.83793733330358E-03 
1563	 2.88486241335483E-03 
1564	 2.52790481006155E-03 
1565	 2.55193891997535E-03 
1566	 2.61266232420101E-03 
1567	 2.3949534029382E-03 
1568	 2.3705428599954E-03 
1569	 2.67797335979731E-03 
1570	 2.94084776011311E-03 
1571	 2.6827736360877E-03 
1572	 2.37103496391761E-03 
1573	 2.42401483543655E-03 
1574	 2.44976851606231E-03 
1575	 2.45698952158196E-03 
1576	 2.46846590594464E-03 
1577	 2.39155446168574E-03 
1578	 2.36319968852764E-03 
1579	 2.46023561636703E-03 
1580	 2.72748888921325E-03 
1581	 2.82130645837251E-03 
1582	 2.50253998786975E-03 
1583	 2.38954728070921E-03 
1584	 2.55978580315732E-03 
1585	 2.47035535998945E-03 
1586	 2.31240909067428E-03 
1587	 2.44715229452496E-03 
1588	 2.63958002212498E-03 
1589	 2.63476151280638E-03 
1590	 2.66341709693832E-03 
1591	 2.73322026531349E-03 
1592	 2.63887350565588E-03 
1593	 2.46828525457244E-03 
1594	 2.51842147690444E-03 
1595	 2.60271554130629E-03 
1596	 2.40104678392366E-03 
1597	 2.40107232740907E-03 
1598	 2.65695484715653E-03 
1599	 2.79384108028084E-03 
1600	 2.76324103224221E-03 
1601	 2.56080069416372E-03 
1602	 2.4623751189361E-03 
1603	 2.56484189300359E-03 
1604	 2.62180581550619E-03 
1605	 2.61113807145934E-03 
1606	 2.47187550839378E-03 
1607	 2.26643026641656E-03 
1608	 2.37561391554969E-03 
1609	 2.67079161535314E-03 
1610	 2.79747159048731E-03 
1611	 2.7275673981808E-03 
1612	 2.48218647195892E-03 
1613	 2.30150698006863E-03 
1614	 2.41630036392809E-03 
1615	 2.52497097077026E-03 
1616	 2.4421403532763E-03 
1617	 2.46198931281021E-03 
1618	 2.40340586843901E-03 
1619	 2.08950260604804E-03 
1620	 2.05294789903306E-03 
1621	 2.35340029613949E-03 
1622	 2.49173012776009E-03 
1623	 2.43607876444902E-03 
1624	 2.34550071212958E-03 
1625	 2.15534260920779E-03 
1626	 2.15651283780943E-03 
1627	 2.34129478283395E-03 
1628	 2.35683113863756E-03 
1629	 2.36603571459023E-03 
1630	 2.38439604432417E-03 
1631	 2.43634991890813E-03 
1632	 2.58205064786986E-03 
1633	 2.65008025676374E-03 
1634	 2.66499700526187E-03 
1635	 2.78328623314199E-03 
1636	 3.05656466326217E-03 
1637	 3.17875707799253E-03 
1638	 2.93897254442127E-03 
1639	 2.70301338365173E-03 
1640	 2.8136834351969E-03 
1641	 3.0286818374321E-03 
1642	 2.91942990662875E-03 
1643	 2.70514176055391E-03 
1644	 2.64227246284618E-03 
1645	 2.46143631364375E-03 
1646	 2.29883144795456E-03 
1647	 2.47027480905329E-03 
1648	 2.78909485528182E-03 
1649	 2.89466606443037E-03 
1650	 2.77490149609758E-03 
1651	 2.69205122029677E-03 
1652	 2.59696852931543E-03 
1653	 2.32073214873958E-03 
1654	 2.33341902266018E-03 
1655	 2.59288221812995E-03 
1656	 2.55329731658218E-03 
1657	 2.49235356974494E-03 
1658	 2.61303124152823E-03 
1659	 2.63227984373342E-03 
1660	 2.69351329744352E-03 
1661	 3.00690208358481E-03 
1662	 2.95327938111483E-03 
1663	 2.66210858340645E-03 
1664	 2.59597763598143E-03 
1665	 2.38936548283533E-03 
1666	 2.39174233342325E-03 
1667	 2.72759220749405E-03 
1668	 2.62595099635109E-03 
1669	 2.4839917691655E-03 
1670	 2.37410528199715E-03 
1671	 2.43314199826748E-03 
1672	 2.78459229684965E-03 
1673	 2.63918073420088E-03 
1674	 2.27188769611786E-03 
1675	 2.34433187318181E-03 
1676	 2.23860925563165E-03 
1677	 2.1819310687516E-03 
1678	 2.45886447575859E-03 
1679	 2.25158078046655E-03 
1680	 1.96350528234714E-03 
1681	 2.26377150252862E-03 
1682	 2.39570352830277E-03 
1683	 2.2462567722427E-03 
1684	 2.38944529322919E-03 
1685	 2.63773658214289E-03 
1686	 2.61665012106588E-03 
1687	 2.55249169292493E-03 
1688	 2.66265886191234E-03 
1689	 2.49649616294587E-03 
1690	 1.95051433552524E-03 
1691	 2.06828477704478E-03 
1692	 2.56058296141182E-03 
1693	 2.37147974558841E-03 
1694	 2.34021239878349E-03 
1695	 2.50403531785288E-03 
1696	 2.07142780184802E-03 
1697	 2.01969989028742E-03 
1698	 2.57454762718529E-03 
1699	 2.69665247474248E-03 
1700	 2.57620444569265E-03 
1701	 2.37679885904262E-03 
1702	 2.32890149427392E-03 
1703	 2.67339875698011E-03 
1704	 2.83322737411635E-03 
1705	 2.82957025303692E-03 
1706	 2.62807369767081E-03 
1707	 2.46428784320437E-03 
1708	 2.81082845677789E-03 
1709	 2.84368927246354E-03 
1710	 2.45374237917221E-03 
1711	 2.51851629895667E-03 
1712	 2.36965675691644E-03 
1713	 2.72208307568383E-03 
1714	 2.88569988790476E-03 
1715	 2.36895767932272E-03 
1716	 2.3363617930272E-03 
1717	 2.63377769647305E-03 
1718	 2.8216036072568E-03 
1719	 2.99401785149489E-03 
1720	 2.48542505067739E-03 
1721	 1.92665705481677E-03 
1722	 2.41259089155776E-03 
1723	 0.003021617059113 
1724	 2.96624560995983E-03 
1725	 2.68894161672257E-03 
1726	 2.67250753908084E-03 
1727	 2.47652834212254E-03 
1728	 2.36157338842014E-03 
1729	 3.13286333877652E-03 
1730	 2.96836147123557E-03 
1731	 1.64260562510383E-03 
1732	 1.60236921840374E-03 
1733	 1.80740234374281E-03 
1734	 1.34981232341765E-03 
1735	 2.23405564951105E-03 
1736	 3.21562286604557E-03 
1737	 2.74989917129691E-03 
1738	 2.46844563294444E-03 
1739	 2.51858930929803E-03 
1740	 2.4385852461644E-03 
1741	 2.6348256812343E-03 
1742	 2.89582754415207E-03 
1743	 2.70336407818441E-03 
1744	 2.26868628503067E-03 
1745	 2.23720340447412E-03 
1746	 2.39941659876066E-03 
1747	 2.39974197494489E-03 
1748	 2.17800287007359E-03 
1749	 2.09457569618557E-03 
1750	 2.28776754688233E-03 
1751	 2.50255189162606E-03 
1752	 2.62344047121485E-03 
1753	 2.52480139717494E-03 
1754	 2.38445279726231E-03 
1755	 2.39420022439688E-03 
1756	 2.37986956255211E-03 
1757	 0.002529430067715 
1758	 2.13647344611116E-03 
1759	 1.72953662604128E-03 
1760	 2.06061944897603E-03 
1761	 2.62038839860709E-03 
1762	 2.96324275253446E-03 
1763	 2.67681872064041E-03 
1764	 2.28086566770229E-03 
1765	 2.47207717663072E-03 
1766	 2.50585479808806E-03 
1767	 2.22447207183078E-03 
1768	 2.82697933378793E-03 
1769	 3.42760982073966E-03 
1770	 2.61385184390983E-03 
1771	 2.02657082311095E-03 
1772	 1.63811970863667E-03 
1773	 0.001318302932858 
1774	 2.78846136750675E-03 
1775	 4.48850336917361E-03 
1776	 4.69023507577957E-03 
1777	 1.52694167274579E-03 
1778	 1.11454634157353E-03 
1779	 2.94642687352822E-03 
1780	 3.59353453087791E-03 
1781	 6.22680788515459E-03 
1782	 6.30444034347937E-03 
1783	 1.89150672443059E-03 
1784	 1.3608440052518E-03 
1785	 2.47532297593226E-03 
1786	 2.50036156568736E-03 
1787	 5.4986193249535E-03 
1788	 5.72088787837764E-03 
1789	 1.71616930893212E-03 
1790	 2.12513237666095E-03 
1791	 1.20638638045192E-03 
1792	 2.34510764078416E-03 
1793	 5.08192669399003E-03 
1794	 5.36096710331178E-03 
1795	 5.30650855370658E-03 
1796	 2.87970700931619E-03 
1797	 4.74332824958444E-03 
1798	 1.47249895120078E-02 
1799	 2.13230493342454E-02 
1800	 9.73514038893302E-03 
1801	 6.05112084680653E-03 
1802	-0.011323931720582 
1803	-1.93341834422554E-02 
1804	 8.46463090553627E-03 
1805	 2.55910112483797E-02 
1806	 4.08995252542905E-02 
1807	 4.99036268774469E-02 
1808	 4.88637307639393E-02 
1809	 2.92727072554655E-02 
1810	-6.92305968694585E-02 
1811	-0.105702065828888 
1812	-9.44598527706809E-02 
1813	-6.48253127454951E-02 
1814	 0.143438458297538 
1815	 0.209941750774824 
1816	 0.188418801668594 
1817	 0.101387400172049 
1818	 3.19531544007101E-02 
1819	 0.1742416215538 
1820	 0.205814205228594 
1821	 8.60830199642986E-02 
1822	 0.145009356447732 
1823	 0.103639190688459 
1824	 0.199617947498849 
1825	 0.922045657276534 
1826	 1.21304377088915 
1827	 3.1231095806034 
1828	 3.03468184522369 
1829	-0.511335449512331 
1830	-0.477860985559552 
1831	 3.97783968904076 
1832	 3.19291174774559 
1833	-2.89695839087338 
1834	 38.1986894711324 
1835	 0.378940634978403 
1836	 0.436928184191646 
1837	 1.01442336477331 
1838	 1.19497024386392 
1839	 3.44351050829127 
1840	-7.12159283980733 
1841	-2.53715750843422 
1842	-0.804762459217844 
1843	-0.462342049736551 
1844	-0.049325528967325 
1845	 0.143184376852231 
1846	 1522.32908384579 
1847	-2.72895686818226 
1848	-1.0114542256742 
1849	-0.882756916728518 
1850	-0.188940662517517 
1851	 0.285211725106507 
1852	 0.814085674604452 
1853	 0.83829348580529 
1854	 0.999399255996846 
1855	 1.7596292682612 
1856	 3.08313971415203 
1857	-18.3181688918206 
1858	-5.45049817840952 
1859	-22.2075169422007 
1860	-3.68174323092201 
1861	-3.72366679873055 
1862	-9.89014639612833E-02 
1863	 0.39326836519532 
1864	-0.801377472163364 
1865	-0.729072803534707 
1866	-0.315619760210887 
1867	-0.563077271021238 
1868	-0.574457643023232 
1869	-0.371288038672899 
1870	 0.152475207441257 
1871	 7.79013662010962E-02 
1872	-1.35070092663597 
1873	-1.67716794260186 
1874	-2.79071167649946 
1875	 0.135660508593707 
1876	-0.487096895272863 
1877	 2.70209279481986 
1878	 4.16554441363682 
1879	 1.85302794189282 
1880	 1.33376087507981 
1881	-2.87246430460833 
1882	-0.473888293821455 
1883	 0.686788274694983 
1884	-9.13790936867061 
1885	-2.09949819129018 
1886	-4.66511179524539 
1887	 0.33187542711168 
1888	-0.429125201921011 
1889	-0.455080497502882 
1890	 1.00097648496853E-02 
1891	 0.167010964602838 
1892	-2.06164676501776 
1893	-0.855539707195707 
1894	-3.5940059532308 
1895	-7.07227958624141 
1896	 5.36700948279757 
1897	 2.34701968321307 
1898	 5.52323324807813 
1899	-33.372756208117 
1900	-11.2841340326391 
1901	-6.93075509738864 
1902	-11.2413911200622 
1903	-0.680279531346756 
1904	 0.192314946995898 
1905	 1.69027397969843 
1906	 1.49979245558089 
1907	-61.8965339181116 
1908	 1.6164134838148 
1909	 2.17255054861051 
1910	-5.12321990472419 
1911	 3.69404975648555 
1912	 2.06136572980255 
1913	 1.6837040322968 
1914	 0.649693852589108 
1915	 0.509171977342039 
1916	 0.797180254345581 
1917	 0.742145170479123 
1918	 0.688296596739555 
1919	 17.2220777942575 
1920	 15.101488389122 
1921	 0.413094225266759 
1922	 0.19634275471705 
1923	 0.095264930863496 
1924	 0.245732192925399 
1925	 0.128128250144508 
1926	 0.188703637256461 
1927	 0.507960681166598 
1928	 2.28869609848722 
1929	-0.836080598625487 
1930	-1.15119394324279 
1931	-0.985440588016591 
1932	-0.332696716855416 
1933	-0.428046319774576 
1934	-0.370115220597706 
1935	-0.170766926799167 
1936	 0.048381998897523 
1937	 0.162811140451868 
1938	 0.146120477278336 
1939	 0.11961945006062 
1940	 7.09331815360725E-02 
1941	-5.94158561643561E-02 
1942	-8.12921345347019E-02 
1943	 7.23307516849017E-04 
1944	 2.04296359204832E-02 
1945	 2.84843843253299E-02 
1946	 4.70862629269671E-02 
1947	-1.28174538377763E-03 
1948	-0.067934851557721 
1949	-7.37623804351059E-02 
1950	-5.66443546608685E-02 
1951	-6.68636465079822E-02 
1952	-7.46967960777595E-02 
1953	-7.29490906211051E-02 
1954	-6.81620974016915E-02 
1955	-7.01553131156166E-02 
1956	-5.96258369206231E-02 
1957	-3.02341248042282E-02 
1958	-1.06482000449177E-02 
1959	-1.66729757419205E-02 
1960	-2.20309510292436E-02 
1961	-1.71358131543518E-02 
1962	-1.41033616101912E-02 
1963	-1.26187369005526E-02 
1964	-6.46748950199472E-03 
1965	-1.59389254633739E-03 
1966	-2.85237804564354E-04 
1967	-1.90647526554198E-03 
1968	 7.24329197582451E-06 
1969	 1.87760549243534E-03 
1970	 1.04164420722852E-03 
1971	 1.24527983662727E-03 
1972	 1.41002377483673E-03 
1973	 3.84318829788308E-04 
1974	-4.62688001125234E-04 
1975	 5.31153754622762E-04 
1976	 1.29150151720285E-03 
1977	 1.37571809368811E-03 
1978	 2.29723241230317E-03 
1979	 2.40696389235206E-03 
1980	 1.97059664252867E-03 
1981	 5.56161987135796E-04 
1982	-3.66071138843015E-05 
1983	 4.07260428087119E-04 
1984	-4.54764622283219E-04 
1985	-4.82102247753906E-04 
1986	 1.5235746212523E-03 
1987	 2.51952157822735E-03 
1988	 3.56516161806235E-03 
1989	 4.71642804021259E-03 
1990	 3.76410405218089E-03 
1991	 1.47951227573724E-03 
1992	 1.25000620432589E-03 
1993	 2.33843532317599E-03 
1994	 2.23404239399246E-03 
1995	 2.28446339482499E-03 
1996	 3.09549714603872E-03 
1997	 2.84273397027686E-03 
1998	 2.06112781606057E-03 
1999	 3.73144660451463E-03 
2000	 5.14843901740369E-03 
2001	 5.7335245665605E-03 
2002	 6.22832209007533E-03 
2003	 5.38145442647289E-03 
2004	 3.48853250528066E-03 
2005	-1.77565223926278E-04 
2006	-3.70101715025625E-03 
2007	-4.91042549792283E-03 
2008	-4.01760746074241E-03 
2009	-3.74602398454729E-03 
2010	-2.73982231671434E-03 
2011	-1.38755254373516E-03 
2012	 2.43386437348604E-04 
2013	 7.96091321382064E-04 
2014	 1.11586251423684E-03 
2015	 1.90661888968412E-03 
2016	 8.98716098053873E-04 
2017	-1.94735733476956E-03 
2018	-9.31975229479612E-04 
2019	 1.64430753738058E-03 
2020	 1.46848137638029E-03 
2021	 2.15571250793029E-03 
2022	 1.54861196147128E-03 
2023	-7.22559803324604E-04 
2024	-1.18023646260016E-03 
2025	-8.22743150027629E-04 
2026	-6.23688788285453E-04 
2027	 9.95655539247916E-05 
2028	 5.61644209711006E-04 
2029	 3.62582803391612E-04 
2030	 4.69800409171271E-04 
2031	 9.82975460235676E-04 
2032	 1.01497970292106E-03 
2033	 7.60904250668754E-04 
2034	 5.07763567481611E-04 
2035	 2.6069376396335E-04 
2036	 3.26003043000336E-04 
2037	 7.03132780286632E-04 
2038	 1.18691983621088E-03 
2039	 1.47284796754283E-03 
2040	 1.6245794630457E-03 
2041	 1.50853566860233E-03 
2042	 1.0616408025303E-03 
2043	 9.25714374428658E-04 
2044	 6.69789249028272E-04 
2045	 5.54533735800802E-04 
2046	 1.89316857345201E-04 
2047	 3.95071983190928E-04 
2048	 8.19908202980265E-04 
2049	 1.3976410176849E-03 
2050	 2.02207328619658E-03 
2051	 1.97952546086577E-03 
2052	 1.98838513930903E-03 
2053	 1.4036158363344E-03 
2054	 9.55037709176073E-04 
2055	 1.11053568510884E-03 
2056	 1.09143069144867E-03 
2057	 6.16604676128167E-04 
2058	 1.30773651141513E-04 
2059	 9.70526665274188E-05 
2060	 1.3644213893393E-04 
2061	-4.14098624680817E-04 
2062	-1.61453973379002E-04 
2063	 1.09127818483534E-03 
2064	 5.95837219992837E-04 
2065	 1.08724017585476E-03 
2066	 1.64282620442362E-03 
2067	 1.80604656368886E-03 
2068	 2.29835222015332E-03 
2069	 1.38033898493074E-03 
2070	 1.0904118664606E-03 
2071	 1.08390306012626E-03 
2072	 7.41702252715865E-04 
2073	 9.470939660859E-04 
2074	 2.2204331810713E-03 
2075	 2.00134456567576E-03 
2076	 1.18517535129217E-03 
2077	 7.19154032965606E-04 
2078	-7.60320080329832E-04 
2079	-8.56250624884818E-04 
2080	-6.19478835924387E-05 
2081	 4.99265710865709E-04 
2082	 1.08582740672354E-03 
2083	 1.96713596069294E-03 
2084	 1.53009375385428E-03 
2085	 1.4093055184431E-03 
2086	 2.83850566531061E-03 
2087	 3.18242496819775E-03 
2088	 2.70323516037373E-03 
2089	 2.18450820043685E-03 
2090	 7.61271294114298E-04 
2091	-4.42860164313288E-04 
2092	-5.69097422618389E-04 
2093	 1.23133863984003E-03 
2094	 1.41134372083126E-03 
2095	 1.25836585466014E-03 
2096	 8.90842709850617E-04 
2097	-3.40309217947149E-04 
2098	-9.29378265271711E-04 
2099	-1.34664832162399E-03 
2100	-1.59952547662209E-03 
2101	-1.19678671132989E-03 
2102	-1.48931234449818E-03 
2103	-2.03076380987914E-03 
2104	-8.77966619627549E-04 
2105	 7.04169602312994E-04 
2106	 7.81571868675436E-04 
2107	 6.59776556788965E-04 
2108	 6.753131649914E-04 
2109	-8.88837624843583E-05 
2110	-1.85555282839106E-04 
2111	-3.64272250454358E-04 
2112	-8.40810379952613E-04 
2113	-8.72178119566718E-04 
2114	-1.21165272204704E-03 
2115	-1.27329023322168E-03 
2116	-6.06960905649546E-04 
2117	-2.55674714532346E-04 
2118	 4.21715352266367E-04 
2119	 4.9483187119237E-04 
2120	 2.81341927284001E-04 
2121	-3.69901976390532E-04 
2122	 3.011360773956E-05 
2123	-5.3957489676757E-04 
2124	-3.48834622831942E-04 
2125	 1.12944166699837E-03 
2126	 1.02390455039567E-03 
2127	 6.89651619647966E-04 
2128	 9.02757170103186E-04 
2129	 4.31206481523411E-04 
2130	 3.47423043287005E-04 
2131	 4.83722569149259E-04 
2132	 5.94243001782139E-05 
2133	 3.85072521587127E-04 
2134	 5.38892355235637E-04 
2135	 5.81417635409333E-04 
2136	 9.96680925856696E-04 
2137	 1.82826451908708E-03 
2138	 2.05273398331319E-03 
2139	 2.49985987817749E-03 
2140	 2.39172661440016E-03 
2141	 1.4044766275782E-03 
2142	 9.42706283640807E-04 
2143	 5.12789341621346E-04 
2144	 2.14282207664107E-04 
2145	-5.59062189248468E-04 
2146	-1.24481729772196E-03 
2147	-1.46111648300548E-03 
2148	-1.20569925637379E-03 
2149	 2.18192250303369E-05 
2150	 1.19297216801319E-03 
2151	 7.21111638384163E-04 
2152	 2.02872202790282E-04 
2153	 2.22130388660537E-04 
2154	 2.14707337618109E-04 
2155	 1.19495776810084E-03 
2156	 1.46170545470806E-03 
2157	 1.50351860583407E-03 
2158	 6.1314993712023E-04 
2159	 8.04231770059261E-04 
2160	 1.87611120641544E-03 
2161	 1.82809430422142E-03 
2162	 9.54549626552154E-04 
2163	 6.81774661819393E-04 
2164	-9.25141311592423E-05 
2165	-3.08147673196766E-05 
2166	 2.00044121944711E-03 
2167	 2.42760125389487E-03 
2168	 1.32675858200839E-03 
2169	 1.3019910358593E-03 
2170	 1.55842401469979E-03 
2171	 1.10334047173572E-03 
2172	 7.33111438385094E-04 
2173	 4.91280546818162E-04 
2174	-1.30521509936979E-04 
2175	-5.7704038069478E-05 
2176	 7.6515997767149E-04 
2177	 1.97941229252178E-03 
2178	 1.90128659447957E-03 
2179	 1.25174412193565E-03 
2180	 0.001167337217269 
2181	 9.38723888416262E-04 
2182	 1.13636274738033E-03 
2183	 2.02405003184775E-03 
2184	 2.15186303481887E-03 
2185	 1.71625778005477E-03 
2186	 1.78455344673648E-03 
2187	 1.89451108021451E-03 
2188	 1.6180125407211E-03 
2189	 2.18069116753685E-03 
2190	 1.95748890119547E-03 
2191	 2.29555925283333E-04 
2192	-7.77994788824099E-04 
2193	-2.40191523549834E-03 
2194	-2.44555257687242E-03 
2195	-4.67344605648975E-04 
2196	 1.96142127997364E-04 
2197	 1.47026533872226E-03 
2198	 1.80402357107245E-03 
2199	-9.56999916522886E-05 
2200	-2.5462275793705E-04 
2201	 1.28076831664868E-03 
2202	 1.10031803663505E-03 
2203	 3.10606855629524E-03 
2204	 4.40686210760795E-03 
2205	 4.54143321136704E-03 
2206	 4.81376987332661E-03 
2207	 2.73227964045621E-03 
2208	 1.79213939909368E-03 
2209	 1.58912256811443E-03 
2210	 1.96311990894915E-03 
2211	 2.0375568306857E-03 
2212	 6.22454413020332E-04 
2213	 1.41342124358361E-03 
2214	 2.27903326017144E-03 
2215	 2.18013111275755E-03 
2216	 2.6414394353815E-03 
2217	 1.70985045683828E-03 
2218	-2.46908505892751E-03 
2219	-3.04729855111368E-03 
2220	-1.14965521999148E-03 
2221	-1.82179838922691E-03 
2222	-2.94888954929443E-03 
2223	-2.91067416712663E-03 
2224	-4.15590889118631E-03 
2225	-4.0320944212734E-03 
2226	-1.22843087919853E-03 
2227	-8.46213267174348E-05 
2228	-3.0264609534873E-04 
2229	 1.60725855716923E-04 
2230	 1.61330823720555E-03 
2231	 2.3405678592026E-03 
2232	 2.53707978894501E-03 
2233	 2.58042556525076E-03 
2234	 1.89610264239394E-03 
2235	 1.82179866175958E-03 
2236	 2.15524733257368E-03 
2237	 1.03599589563856E-03 
2238	-2.22041898452952E-04 
2239	-2.46751671971133E-03 
2240	-2.86235327052421E-03 
2241	-1.8860239054008E-03 
2242	-1.93780208326507E-03 
2243	-6.53308079344534E-04 
2244	-1.50557045970485E-03 
2245	-2.43488579834891E-03 
2246	-2.07454111711544E-03 
2247	-1.68346280692693E-03 
2248	-4.36018210167298E-04 
2249	-6.57490081604996E-04 
2250	-9.97417597896745E-04 
2251	-5.09911404253342E-04 
2252	 1.06383772894844E-03 
2253	 9.95517686975362E-04 
2254	-1.29709989590886E-03 
2255	-1.03957242243028E-05 
2256	-1.20370206853355E-04 
2257	-1.90935819733702E-03 
2258	 8.57808699908628E-04 
2259	 2.52462373149139E-03 
2260	 2.75188878939811E-03 
2261	 2.35640898758513E-03 
2262	 1.67278382036201E-03 
2263	-1.71756477511137E-03 
2264	-2.65751727044681E-03 
2265	-3.57759264984552E-03 
2266	-2.90163460296566E-03 
2267	 2.27454283799465E-03 
2268	 2.96765165349518E-03 
2269	 1.06258573936697E-03 
2270	 1.82658047237082E-03 
2271	 1.99727700578527E-03 
2272	 2.2256528706249E-04 
2273	-6.1410340097034E-04 
2274	-1.36827726865119E-03 
2275	-5.23671887893205E-03 
2276	-6.71051048305503E-03 
2277	-4.8928649523315E-03 
2278	-0.005197954957358 
2279	-8.07510932691607E-03 
2280	-7.09612899660021E-03 
2281	-4.35024155164188E-03 
2282	-9.0040679973071E-04 
2283	 3.79790363979199E-03 
2284	 4.70444992540279E-03 
2285	 3.25518924211414E-03 
2286	 6.37470897800278E-04 
2287	-2.96209617012989E-03 
2288	-4.54308550660926E-03 
2289	-4.04156917891355E-03 
2290	-2.13366440939862E-03 
2291	 2.23217896021843E-04 
2292	 5.12870466818503E-03 
2293	 8.02750443360789E-03 
2294	 4.70751309866808E-03 
2295	 2.10257360398366E-03 
2296	-1.60014567303694E-03 
2297	-3.03272675164939E-03 
2298	 4.02506733097507E-04 
2299	 6.58837719053777E-04 
2300	 2.82706593843052E-03 
2301	 1.4815875108196E-03 
2302	-4.25537927103549E-03 
2303	-3.35069349202899E-03 
2304	-3.95036688418972E-03 
2305	-7.87912353394511E-03 
2306	-7.78253386746656E-03 
2307	-5.64014409492266E-03 
2308	-7.44382833521689E-03 
2309	-6.16604080319949E-03 
2310	-2.56818888251516E-03 
2311	-5.90780683848097E-03 
2312	-7.1190544605681E-03 
2313	-8.27065889378519E-03 
2314	-1.32307319854511E-02 
2315	-1.09601817623077E-02 
2316	-4.31057595014512E-03 
2317	 4.99932665069558E-04 
2318	 6.90539732045389E-03 
2319	 1.17657042932692E-02 
2320	 1.11845821491045E-02 
2321	 7.26336849761272E-03 
2322	 3.75111293206274E-03 
2323	 6.8364565741943E-05 
2324	-7.95244424314833E-03 
2325	-1.39870383419071E-02 
2326	-1.31021349413326E-02 
2327	-1.21001941162389E-02 
2328	-1.31051693646493E-02 
2329	-1.26255385049229E-02 
2330	-9.95171475225098E-03 
2331	-1.00965012520747E-02 
2332	-1.26663936537252E-02 
2333	-1.06445789087625E-02 
2334	-6.98499022167865E-03 
2335	-7.80059743741267E-03 
2336	-1.32860880275701E-02 
2337	-1.51585317490371E-02 
2338	-1.22164747505983E-02 
2339	-9.83744088368525E-03 
2340	-3.41699832224271E-03 
2341	 2.04009337504811E-03 
2342	-4.513747304465E-04 
2343	-2.32219655410452E-03 
2344	-3.86723863749638E-03 
2345	-0.010513937729037 
2346	-1.63474289688176E-02 
2347	-1.99236975835263E-02 
2348	-1.43738814718272E-02 
2349	-2.22295615320438E-03 
2350	 3.29389023657757E-03 
2351	 9.97201407565375E-03 
2352	 3.67607058105789E-03 
2353	-1.83131290757489E-02 
2354	-1.95827468680126E-02 
2355	-1.16676754183841E-02 
2356	-7.27859240086999E-03 
2357	 3.59030807814981E-03 
2358	 4.75179911616151E-03 
2359	 1.14710462987243E-04 
2360	 7.62684608165312E-03 
2361	 1.65850356527241E-02 
2362	 1.51104391933818E-02 
2363	 6.58642376139704E-03 
2364	-1.81490112745744E-03 
2365	-3.8779310894933E-03 
2366	-5.82003686853731E-03 
2367	-1.32859623316502E-02 
2368	-1.25248581806303E-02 
2369	-0.003012105353045 
2370	-6.90588378933121E-03 
2371	-0.011419719858093 
2372	-1.48027253781708E-02 
2373	-3.62199700010374E-02 
2374	-4.49681158774775E-02 
2375	-3.90109809899961E-02 
2376	-3.92440376402462E-02 
2377	-3.93506153282605E-02 
2378	-3.40891467410082E-02 
2379	-2.47232954504204E-02 
2380	-2.90246208842662E-02 
2381	-3.47953026980123E-02 
2382	-3.69105750606364E-02 
2383	-4.53402878631162E-02 
2384	-2.15120501040112E-02 
2385	-5.41458178808978E-04 
2386	-1.62859727661989E-02 
2387	-2.54635298541811E-02 
2388	-2.17399413062649E-02 
2389	-7.60802115547707E-03 
2390	 3.89897617059347E-03 
2391	-0.023280276528893 
2392	-5.19367240548595E-02 
2393	-3.79144503148513E-02 
2394	-2.65537194325646E-02 
2395	-2.24815381425387E-03 
2396	 4.26922103602792E-02 
2397	 3.79198428613139E-02 
2398	 0.023486659419962 
2399	 5.68101854058499E-02 
2400	 5.40844936131904E-02 
2401	-1.59165223651653E-03 
2402	-1.61219952871229E-02 
2403	-3.72191819336276E-02 
2404	-7.97307333312662E-02 
2405	-7.31204982379603E-02 
2406	-8.85019436623725E-02 
2407	-0.100747052792163 
2408	-5.94165544483433E-02 
2409	-0.043971417114493 
2410	-4.79336785880223E-02 
2411	-9.59845431762322E-02 
2412	-0.169417331607033 
2413	-0.105075747848193 
2414	 3.29180029502316E-03 
2415	 4.47287967193828E-02 
2416	 1.64666260855377E-02 
2417	-0.125076494606505 
2418	-0.219860537037945 
2419	-0.198339676460578 
2420	-0.25694936351539 
2421	-0.237246045499106 
2422	-0.2166972255535 
2423	-0.26991187740465 
2424	-0.20363338281826 
2425	-0.163412686764159 
2426	-0.115745623552293 
2427	-5.03572960881465E-02 
2428	-6.02842343661761E-02 
2429	-6.80786523291783E-02 
2430	-0.183202435318619 
2431	-0.228399873138915 
2432	-0.153230198042201 
2433	-0.136189575587375 
2434	-6.44973099044869E-02 
2435	-7.53882680896682E-02 
2436	-0.164605532942063 
2437	-6.25239578216088E-02 
2438	-3.02229639505038E-02 
2439	-0.216732528894887 
2440	-0.200839729148642 
2441	-0.367309587705994 
2442	-0.609458922997859 
2443	-0.347127508820392 
2444	-0.326531620562541 
2445	-0.428981028692151 
2446	-0.327756321494902 
2447	-0.858121857097096 
2448	 2.17773817074257 
2449	 0.970675936162436 
2450	 0.577711634697681 
2451	 1.29974000124351 
2452	 1.2900213543066 
2453	 2.75743603420241 
2454	-168.413511246477 
2455	-3.98680403144929 
2456	-1.93300998425183 
2457	-0.853717170040129 
2458	-0.901604197727877 
2459	-1.08780045328511 
2460	-0.85209984239498 
2461	-1.62449276782614 
2462	-1.22627234301467 
2463	-0.106881429022541 
2464	-0.341346392929495 
2465	-0.475204031694541 
2466	-3.44018448029674 
2467	 7.14701482260473 
2468	-14.3207543030832 
2469	-207.907090508664 
2470	 7.68508394528486 
2471	 2.54248661671079 
2472	 0.332080335022065 
2473	 5.34512519207687E-02 
2474	 0.29028646070622 
2475	 1.49197892707188 
2476	 2.15047516289635 
2477	 2.67537296136808 
2478	 2.13993700098721 
2479	 1.55271972980726 
2480	 2.10104086682073 
2481	 3.14687042656012 
2482	 1.08787965868152 
2483	 0.150212980024524 
2484	 1.88591841931575E-02 
2485	 0.062238925761033 
2486	 0.297360561079795 
2487	 0.177871960658482 
2488	 0.210267709972576 
2489	 0.452112308084124 
2490	 0.209884093277854 
2491	 0.19495727567413 
2492	 3.8244129404043E-03 
2493	-0.902000853651668 
2494	-1.22680950534656 
2495	-0.809241792395306 
2496	-7.87831443423846E-02 
2497	 0.772261731345645 
2498	 1.20367938594773 
2499	 2.71217257933954 
2500	-0.976332820379601 
