Wavelength	rt0722east_close00004.asd
350	 2.60575396804265E-02 
351	 2.55065974470936E-02 
352	 2.56538118895029E-02 
353	 2.56999179244229E-02 
354	 2.53320740633965E-02 
355	 2.58384025565071E-02 
356	 2.58756051579309E-02 
357	 2.58890775685153E-02 
358	 2.64799020864787E-02 
359	 2.65096668368147E-02 
360	 2.62146649784727E-02 
361	 2.60963879253571E-02 
362	 2.66207017939385E-02 
363	 2.63778145377704E-02 
364	 2.62800571367219E-02 
365	 2.66435077792544E-02 
366	 2.64625584890079E-02 
367	 2.65854036587333E-02 
368	 0.026769894942811 
369	 2.67032962859146E-02 
370	 2.68219820009502E-02 
371	 2.71997561616442E-02 
372	 2.74841653767578E-02 
373	 2.72315447710878E-02 
374	 2.75103647193962E-02 
375	 2.76047780180619E-02 
376	 0.027409164498671 
377	 2.78667260800493E-02 
378	 2.82526085164548E-02 
379	 2.83166280623067E-02 
380	 2.81290440571972E-02 
381	 2.83357611446815E-02 
382	 2.85727682463918E-02 
383	 0.028679692050715 
384	 2.87074875617865E-02 
385	 2.94316232427227E-02 
386	 2.97656496452952E-02 
387	 0.029553778265302 
388	 2.97888998927461E-02 
389	 0.029813407443349 
390	 2.98415245245642E-02 
391	 3.01704811232872E-02 
392	 0.030986007921938 
393	 3.13389564486136E-02 
394	 3.13141246102208E-02 
395	 3.13669029458674E-02 
396	 3.14983719037022E-02 
397	 3.16344331198825E-02 
398	 3.17572510031687E-02 
399	 3.18969302378034E-02 
400	 3.18179555380634E-02 
401	 3.19621415723887E-02 
402	 3.24539486664022E-02 
403	 3.25148600389159E-02 
404	 3.25422133303491E-02 
405	 3.26281709339073E-02 
406	 3.27578978647169E-02 
407	 0.032961106707084 
408	 0.033026165379471 
409	 3.30550148535513E-02 
410	 3.34266452002154E-02 
411	 3.35176478073763E-02 
412	 3.35843942024871E-02 
413	 3.38612897958455E-02 
414	 3.41537561730904E-02 
415	 3.44354244121456E-02 
416	 0.034647077559218 
417	 3.47671612077707E-02 
418	 3.50286169973589E-02 
419	 3.52427689098444E-02 
420	 3.53953302727614E-02 
421	 3.56841114325715E-02 
422	 3.60746867203012E-02 
423	 3.63529111982143E-02 
424	 3.64456806204172E-02 
425	 3.67758808532898E-02 
426	 3.69913761732728E-02 
427	 3.72516665611569E-02 
428	 3.78497860282014E-02 
429	 3.81869014310563E-02 
430	 3.85205857381035E-02 
431	 3.89270210801071E-02 
432	 3.91824125439545E-02 
433	 3.94273506043614E-02 
434	 3.97070310186454E-02 
435	 4.00202361158684E-02 
436	 4.02739171722413E-02 
437	 4.07316968801449E-02 
438	 4.12664765408687E-02 
439	 4.15747206705295E-02 
440	 4.18578263207911E-02 
441	 4.22174473118945E-02 
442	 4.26242356615346E-02 
443	 4.28741666027839E-02 
444	 4.31903367704765E-02 
445	 4.35158886451324E-02 
446	 4.37631732644254E-02 
447	 4.40308418799893E-02 
448	 0.04433419811953 
449	 4.46690905761182E-02 
450	 4.50061685662598E-02 
451	 4.51721391408997E-02 
452	 4.53586059383042E-02 
453	 4.56663055130748E-02 
454	 4.59057952114146E-02 
455	 4.61361889999687E-02 
456	 4.62785554790045E-02 
457	 4.62935027603059E-02 
458	 4.65651789038867E-02 
459	 4.68904432801351E-02 
460	 4.71206647504606E-02 
461	 4.72027340517918E-02 
462	 4.72715011745113E-02 
463	 4.74258913458435E-02 
464	 4.76698462823437E-02 
465	 4.77726444147204E-02 
466	 4.79709149123584E-02 
467	 4.82170411035541E-02 
468	 4.83551593724155E-02 
469	 4.85415426198816E-02 
470	 4.87531251083578E-02 
471	 4.89585545429571E-02 
472	 4.91372600237552E-02 
473	 4.93052488262974E-02 
474	 4.94992332245658E-02 
475	 4.97341350421742E-02 
476	 4.99266767410309E-02 
477	 5.01515156555524E-02 
478	 5.03964502925661E-02 
479	 5.05999589942233E-02 
480	 5.08576953992086E-02 
481	 5.11353674499695E-02 
482	 5.14122452899082E-02 
483	 5.17312818883889E-02 
484	 0.052042971233313 
485	 0.052332895781889 
486	 5.26222990404978E-02 
487	 5.30439467085815E-02 
488	 5.33715364030605E-02 
489	 5.36186958660362E-02 
490	 5.40333914654761E-02 
491	 5.43966628535996E-02 
492	 5.47381495707605E-02 
493	 0.055125403240012 
494	 5.56149923209121E-02 
495	 5.60394337833045E-02 
496	 5.64171511191872E-02 
497	 5.68558539594363E-02 
498	 5.73136895353116E-02 
499	 5.77577389127253E-02 
500	 0.058196148104074 
501	 5.86984062436523E-02 
502	 5.92119542189075E-02 
503	 5.97209770306897E-02 
504	 6.02310315756224E-02 
505	 6.08010783553838E-02 
506	 6.12220832969201E-02 
507	 0.06158261572387 
508	 6.21811745013464E-02 
509	 6.26971277909352E-02 
510	 6.31687497461872E-02 
511	 6.36789709093979E-02 
512	 6.42885774313204E-02 
513	 0.064864893315652 
514	 6.54254475233817E-02 
515	 6.60354739233493E-02 
516	 6.66072659075724E-02 
517	 6.72403292773326E-02 
518	 6.79274652820472E-02 
519	 6.85184376317356E-02 
520	 6.92174166616056E-02 
521	 6.98884186000086E-02 
522	 7.04289054788337E-02 
523	 7.11068325668864E-02 
524	 7.17844308387755E-02 
525	 7.24312448291337E-02 
526	 7.30972985895137E-02 
527	 7.37731543309723E-02 
528	 7.44935272678177E-02 
529	 7.52442973832626E-02 
530	 7.59097045310048E-02 
531	 7.65468751193172E-02 
532	 7.72535192410894E-02 
533	 7.80820486312905E-02 
534	 7.87294372683899E-02 
535	 7.93978326908555E-02 
536	 8.01672577047989E-02 
537	 8.09386576843578E-02 
538	 8.17382825927268E-02 
539	 8.25165266687336E-02 
540	 8.32442638628377E-02 
541	 8.40130940559849E-02 
542	 8.47539186250145E-02 
543	 8.54892876356233E-02 
544	 8.62895032182134E-02 
545	 8.70503667720274E-02 
546	 8.77989127377552E-02 
547	 8.85708627634683E-02 
548	 8.93956058120945E-02 
549	 9.01533274358319E-02 
550	 9.08492296247553E-02 
551	 9.15483938361745E-02 
552	 9.23458403463597E-02 
553	 0.093118566345119 
554	 9.38505991210454E-02 
555	 0.094653406146493 
556	 0.095389011266529 
557	 9.60905086217822E-02 
558	 9.68140285702377E-02 
559	 9.75809385733708E-02 
560	 9.82872495607549E-02 
561	 9.89471176936595E-02 
562	 9.96394103079415E-02 
563	 0.100232685260774 
564	 0.100806584345773 
565	 0.1014087493051 
566	 0.101978525923269 
567	 0.1024770267301 
568	 0.102959905609947 
569	 0.103488377057607 
570	 0.103934131520553 
571	 0.104353847098273 
572	 0.104766017798344 
573	 0.105137282117834 
574	 0.105574600277751 
575	 0.105964904947164 
576	 0.106215651127061 
577	 0.106474089478941 
578	 0.106721307208555 
579	 0.106919043253505 
580	 0.107028976051272 
581	 0.107154800676473 
582	 0.107220273353835 
583	 0.107208969254704 
584	 0.107263431767152 
585	 0.107161582627137 
586	 0.106999121394711 
587	 0.106936458545883 
588	 0.106779403935103 
589	 0.106591352069225 
590	 0.106388255225795 
591	 0.106107982611211 
592	 0.105868841178439 
593	 0.105582123020307 
594	 0.105148963165675 
595	 0.104545737712478 
596	 0.103905037951225 
597	 0.103233739523287 
598	 0.102474153525193 
599	 0.101641584050582 
600	 0.101002253473527 
601	 0.100619086834379 
602	 0.100151263369587 
603	 0.099906042814901 
604	 9.98476341516152E-02 
605	 9.98413911791785E-02 
606	 9.98535056527547E-02 
607	 9.98308924497404E-02 
608	 9.98104775259689E-02 
609	 9.99143727491301E-02 
610	 0.100024714617005 
611	 0.10010938450683 
612	 0.100151038878747 
613	 0.100105738489044 
614	 0.100102454688333 
615	 0.100145758509485 
616	 0.100177502324499 
617	 0.100306450448085 
618	 0.100334575793243 
619	 0.100218410462925 
620	 0.100202037381712 
621	 0.100277643031972 
622	 0.100323737636433 
623	 0.100237083187459 
624	 0.100237022836412 
625	 0.100186809081066 
626	 0.100117107942887 
627	 0.10021047973984 
628	 0.100142375808818 
629	 0.100077040524261 
630	 0.100142304002667 
631	 0.100130360968118 
632	 0.10001560337049 
633	 9.99003195877685E-02 
634	 9.99233987057643E-02 
635	 9.99469316003077E-02 
636	 9.99048695694672E-02 
637	 9.98222848964942E-02 
638	 9.98442606514076E-02 
639	 9.96992755713667E-02 
640	 9.95384385181069E-02 
641	 9.95356444218859E-02 
642	 9.94213493368216E-02 
643	 9.92690422907326E-02 
644	 9.91058271847979E-02 
645	 0.098922380390556 
646	 9.87912234923867E-02 
647	 9.87226898656701E-02 
648	 9.86595756188758E-02 
649	 9.84105450546029E-02 
650	 9.82314854844924E-02 
651	 9.80437909996832E-02 
652	 9.76824484752718E-02 
653	 9.72747082171126E-02 
654	 9.68269505026304E-02 
655	 9.63258875285064E-02 
656	 0.095808940818866 
657	 9.54245085164066E-02 
658	 9.50483342138813E-02 
659	 9.45941894773525E-02 
660	 9.42869222222418E-02 
661	 9.40893924682042E-02 
662	 9.39366292062017E-02 
663	 9.37616539720375E-02 
664	 9.36850081170033E-02 
665	 0.09355336366066 
666	 9.33385174550149E-02 
667	 9.32955257327938E-02 
668	 9.32927763357696E-02 
669	 9.33061883171013E-02 
670	 9.33218651688055E-02 
671	 9.32191054307712E-02 
672	 9.31313211386154E-02 
673	 9.30704510472737E-02 
674	 9.29360980411939E-02 
675	 9.29522237767919E-02 
676	 9.29783391158774E-02 
677	 9.28977801883664E-02 
678	 9.28197440276659E-02 
679	 9.28190205721947E-02 
680	 9.28530299577202E-02 
681	 9.28350853821372E-02 
682	 9.28185212218584E-02 
683	 9.28763076981023E-02 
684	 9.29523537130387E-02 
685	 0.092811650969767 
686	 9.27215222139573E-02 
687	 9.26622096034208E-02 
688	 9.25442566369936E-02 
689	 9.23954358748377E-02 
690	 9.20864306680985E-02 
691	 9.16816455091498E-02 
692	 9.13435093710005E-02 
693	 9.09765092318784E-02 
694	 9.04715370731366E-02 
695	 8.98521424089585E-02 
696	 8.92746489923478E-02 
697	 8.85363604561484E-02 
698	 8.77083467258699E-02 
699	 8.69597847920371E-02 
700	 8.61726531381092E-02 
701	 8.52838348818962E-02 
702	 8.43152805560831E-02 
703	 8.33199250322599E-02 
704	 8.22688228649162E-02 
705	 8.11547778331525E-02 
706	 7.99999416041184E-02 
707	 7.88102050139519E-02 
708	 7.74431261696955E-02 
709	 7.59523828809498E-02 
710	 7.44385182046286E-02 
711	 7.28061319609846E-02 
712	 7.10335982771894E-02 
713	 6.91845021007556E-02 
714	 6.73552260264996E-02 
715	 0.065608533704184 
716	 6.36616787799468E-02 
717	 6.14249498699028E-02 
718	 5.92802341081523E-02 
719	 5.70920906612535E-02 
720	 0.055202176288065 
721	 5.35156306937826E-02 
722	 5.16801051536253E-02 
723	 4.95969870302147E-02 
724	 4.75544848587036E-02 
725	 4.55990459618653E-02 
726	 4.35577067989269E-02 
727	 4.13346000773276E-02 
728	 3.89384892035774E-02 
729	 3.64903449337187E-02 
730	 3.40414021816409E-02 
731	 3.18107332129494E-02 
732	 2.98877834638934E-02 
733	 2.82768570620423E-02 
734	 2.69456817253603E-02 
735	 2.58678884027755E-02 
736	 2.49787418517633E-02 
737	 2.43066887541832E-02 
738	 2.37813482427803E-02 
739	 2.33652961525981E-02 
740	 2.31694959065648E-02 
741	 2.29004838510633E-02 
742	 2.26133370699483E-02 
743	 2.25168540983196E-02 
744	 2.24582075246427E-02 
745	 2.23995059505969E-02 
746	 2.23505054526772E-02 
747	 2.23684558484898E-02 
748	 2.23465081607908E-02 
749	 0.022277723323789 
750	 2.21927679757112E-02 
751	 2.21372625138289E-02 
752	 2.21551864861386E-02 
753	 2.22047332407436E-02 
754	 0.022198114742126 
755	 2.21045250930758E-02 
756	 2.20340844937733E-02 
757	 2.20611406556428E-02 
758	 2.22420817934425E-02 
759	 2.22800499424224E-02 
760	 2.22090084929554E-02 
761	 2.23148579164714E-02 
762	 2.23738189441768E-02 
763	 2.24921579453006E-02 
764	 2.26173742798225E-02 
765	 2.26683368298349E-02 
766	 2.25633596199126E-02 
767	 2.25895747403158E-02 
768	 2.27883525058129E-02 
769	 2.29789772805832E-02 
770	 2.30586727113615E-02 
771	 2.31302256539719E-02 
772	 2.32850771499597E-02 
773	 2.34459784462851E-02 
774	 2.37066652251761E-02 
775	 2.40141646885685E-02 
776	 2.42594114007138E-02 
777	 2.44065759993257E-02 
778	 2.45713950146234E-02 
779	 2.47959952888322E-02 
780	 2.50439402557153E-02 
781	 2.55156198732149E-02 
782	 2.58522518165322E-02 
783	 2.59199862628554E-02 
784	 2.63146403016943E-02 
785	 2.67085605265911E-02 
786	 2.70867700677521E-02 
787	 2.74759975167557E-02 
788	 2.75592478400787E-02 
789	 2.78076513128789E-02 
790	 0.028329965554721 
791	 2.88857623536895E-02 
792	 2.92453236699726E-02 
793	 2.96193703736538E-02 
794	 3.00911276581366E-02 
795	 3.04142577234722E-02 
796	 3.07645445054529E-02 
797	 3.10775461523615E-02 
798	 3.13224830001579E-02 
799	 3.17797675545511E-02 
800	 3.20720803870089E-02 
801	 0.032285982578135 
802	 3.27152949585364E-02 
803	 3.30289334861823E-02 
804	 0.033166888691248 
805	 3.31556218029303E-02 
806	 0.033088309049715 
807	 3.32066003177374E-02 
808	 3.32850952077121E-02 
809	 3.31467012870796E-02 
810	 3.30025860094476E-02 
811	 3.27579082285911E-02 
812	 3.24456333601729E-02 
813	 3.21462362365523E-02 
814	 0.031846784541113 
815	 3.15969722145128E-02 
816	 3.12705052405978E-02 
817	 3.06574473869555E-02 
818	 2.99701060071198E-02 
819	 0.029428905573794 
820	 2.89829115748509E-02 
821	 2.83165463916311E-02 
822	 0.027095249878097 
823	 2.57396340939104E-02 
824	 2.46281100434065E-02 
825	 0.023387352942252 
826	 2.20652750418251E-02 
827	 2.06731442928395E-02 
828	 1.93281594869736E-02 
829	 1.81507558672609E-02 
830	 1.71122890680355E-02 
831	 1.61438029718708E-02 
832	 1.52296913604738E-02 
833	 0.014768527404426 
834	 1.43650934711734E-02 
835	 1.38353679772126E-02 
836	 1.33957066589625E-02 
837	 0.013089074279721 
838	 1.28289188902648E-02 
839	 1.25759510753691E-02 
840	 1.25168346679806E-02 
841	 1.23275394601203E-02 
842	 1.21045285810285E-02 
843	 1.20063003825807E-02 
844	 1.16559340415234E-02 
845	 1.15639764792449E-02 
846	 1.16076766929148E-02 
847	 1.12916758909102E-02 
848	 1.11521280155152E-02 
849	 1.10126214177047E-02 
850	 1.08406089569925E-02 
851	 1.08606575573559E-02 
852	 1.06122737184342E-02 
853	 1.04677188862503E-02 
854	 1.06168822698488E-02 
855	 0.010504207583307 
856	 1.02828393099597E-02 
857	 1.00813062255033E-02 
858	 9.96262983624002E-03 
859	 9.74685759151094E-03 
860	 9.80494474766105E-03 
861	 9.82092262120131E-03 
862	 9.33722059893794E-03 
863	 9.3179569155553E-03 
864	 9.29013100512201E-03 
865	 9.13855590116749E-03 
866	 9.13046086868202E-03 
867	 9.02966599890174E-03 
868	 8.85952935325387E-03 
869	 8.73796635948355E-03 
870	 8.83905393113191E-03 
871	 8.77618304406743E-03 
872	 8.57965217833387E-03 
873	 8.37964431647658E-03 
874	 8.30958273981558E-03 
875	 8.13225308699323E-03 
876	 7.93564219094381E-03 
877	 7.82914931764526E-03 
878	 7.60017871329411E-03 
879	 7.4225892386748E-03 
880	 7.42399902220246E-03 
881	 7.60767992603044E-03 
882	 7.54421847822125E-03 
883	 7.33317963748853E-03 
884	 7.07149097651109E-03 
885	 6.85337519491023E-03 
886	 6.95034518857088E-03 
887	 6.98427968737724E-03 
888	 6.78959074527816E-03 
889	 6.53711294578492E-03 
890	 6.33031300300357E-03 
891	 6.33576205573698E-03 
892	 6.52478653720906E-03 
893	 6.49271560836634E-03 
894	 6.50208062996086E-03 
895	 6.25196168624136E-03 
896	 5.66749569713855E-03 
897	 5.83989071807403E-03 
898	 6.38199251212492E-03 
899	 6.26636153176742E-03 
900	 5.23281845348824E-03 
901	 6.0316924603791E-03 
902	 6.15015172086329E-03 
903	 5.7506909642918E-03 
904	 5.77638255610018E-03 
905	 5.42293338104864E-03 
906	 5.38732435745989E-03 
907	 5.60652240621499E-03 
908	 5.44996495890672E-03 
909	 4.85353863266363E-03 
910	 5.19399856976364E-03 
911	 6.02574470242156E-03 
912	 5.45945137281891E-03 
913	 5.13844829871458E-03 
914	 5.14390450381538E-03 
915	 5.3202784070532E-03 
916	 5.43502660860894E-03 
917	 4.82025003732282E-03 
918	 4.7104726907586E-03 
919	 5.23810575814391E-03 
920	 0.004877746268799 
921	 4.8018768893117E-03 
922	 4.53361707670242E-03 
923	 3.92968385713086E-03 
924	 4.19472381581603E-03 
925	 4.68855902349342E-03 
926	 4.67058679226161E-03 
927	 3.83448939517976E-03 
928	 3.83165689863595E-03 
929	 3.95358958329933E-03 
930	 3.88773874083036E-03 
931	 3.89529286830148E-03 
932	 6.92176001629443E-03 
933	 5.83757899192436E-03 
934	 2.70877218239793E-03 
935	 3.8322857943673E-03 
936	 4.60434796135436E-03 
937	 4.18711117716708E-03 
938	 4.41560323839156E-03 
939	 6.12156134430631E-03 
940	 3.3004068772407E-03 
941	 2.79901444044473E-03 
942	 3.10214415986446E-03 
943	 2.84414202179016E-04 
944	 3.49516626819907E-03 
945	 7.22352448476165E-03 
946	 6.6823262768211E-03 
947	 1.47813321558432E-03 
948	 5.15200861531596E-03 
949	 5.13959432123738E-03 
950	 2.66379555225533E-03 
951	 5.88450923750489E-03 
952	 3.92507947285453E-03 
953	 3.8639010976593E-03 
954	 5.49979709110351E-03 
955	 4.17622929647425E-03 
956	 5.98460144630181E-03 
957	 6.29587772152021E-03 
958	 4.37203663964564E-03 
959	 2.77570163039985E-03 
960	 2.67800637804023E-03 
961	 2.88911015993292E-03 
962	 3.29078244390344E-03 
963	 4.4335128204158E-03 
964	 5.02738323939064E-03 
965	 5.41573320164723E-03 
966	 5.55652168623792E-03 
967	 5.07198172755279E-03 
968	 3.85614698923537E-03 
969	 3.06459449184162E-03 
970	 3.1537337334206E-03 
971	 3.69445860801454E-03 
972	 2.83549986791833E-03 
973	 2.37255228061059E-03 
974	 2.77283618269588E-03 
975	 2.87505858180947E-03 
976	 3.04511317609265E-03 
977	 3.10067115799823E-03 
978	 3.15069553251262E-03 
979	 3.52208364794831E-03 
980	 4.03405393194512E-03 
981	 4.03815196678826E-03 
982	 3.93835648560582E-03 
983	 4.61845177305241E-03 
984	 3.84148265840313E-03 
985	 3.65663275616602E-03 
986	 3.96868982776437E-03 
987	 3.24831590018188E-03 
988	 4.80726084738108E-03 
989	 5.17149422007977E-03 
990	 3.90426149810206E-03 
991	 3.24226760727291E-03 
992	 3.54860874695075E-03 
993	 2.97826614689586E-03 
994	 2.59675866148467E-03 
995	 4.50220880454213E-03 
996	 3.51635508415727E-03 
997	 2.84984257253751E-03 
998	 3.32658108828806E-03 
999	 3.85313973839973E-03 
1000	 4.28929393404184E-03 
1001	 3.64402140821533E-03 
1002	 4.08547453722928E-03 
1003	 4.20040406869598E-03 
1004	 4.20768289701357E-03 
1005	 4.3444398570556E-03 
1006	 4.44280354422035E-03 
1007	 4.41067635092356E-03 
1008	 4.24305709186785E-03 
1009	 4.19461489833305E-03 
1010	 4.06556525170725E-03 
1011	 3.77431578166451E-03 
1012	 3.69392638144995E-03 
1013	 3.73309938373276E-03 
1014	 3.64950467683831E-03 
1015	 3.37920044116999E-03 
1016	 3.28154620699586E-03 
1017	 3.18970725439629E-03 
1018	 3.22005501244389E-03 
1019	 3.36438447703476E-03 
1020	 3.46390117878526E-03 
1021	 3.60515996649659E-03 
1022	 3.91302215185818E-03 
1023	 3.96974381985993E-03 
1024	 3.91629018852292E-03 
1025	 3.80182369728508E-03 
1026	 3.6282348612016E-03 
1027	 3.65229356361903E-03 
1028	 3.75591203403912E-03 
1029	 3.90415272434513E-03 
1030	 4.31568747404504E-03 
1031	 4.35970122996371E-03 
1032	 4.20956249085382E-03 
1033	 4.10474402751824E-03 
1034	 3.85638499326514E-03 
1035	 3.71586566836984E-03 
1036	 3.52998941183466E-03 
1037	 3.53882347859565E-03 
1038	 3.90907553085573E-03 
1039	 3.68530271036282E-03 
1040	 3.97851621282412E-03 
1041	 4.21713173435287E-03 
1042	 4.26299014356819E-03 
1043	 4.17030713440359E-03 
1044	 4.22082695774539E-03 
1045	 4.24265224658358E-03 
1046	 4.20023232841933E-03 
1047	 4.13963148460905E-03 
1048	 4.15520964335021E-03 
1049	 4.15655305584429E-03 
1050	 4.09362335962153E-03 
1051	 4.04176330836195E-03 
1052	 4.06178192584242E-03 
1053	 4.00916177800282E-03 
1054	 3.99956091422641E-03 
1055	 4.28469095488317E-03 
1056	 4.32487357628922E-03 
1057	 4.24599121224987E-03 
1058	 3.98607270798282E-03 
1059	 3.83293057921337E-03 
1060	 3.46751864732146E-03 
1061	 3.4704359874407E-03 
1062	 3.71911445247735E-03 
1063	 3.83035541375233E-03 
1064	 4.19012358311256E-03 
1065	 4.2363361059025E-03 
1066	 3.96157944122266E-03 
1067	 3.89773033103221E-03 
1068	 3.85420878692126E-03 
1069	 3.76572427681885E-03 
1070	 3.65987428394802E-03 
1071	 3.69185312788331E-03 
1072	 3.92877069396265E-03 
1073	 3.79309728277529E-03 
1074	 3.83073735431201E-03 
1075	 4.02429139041425E-03 
1076	 4.05183614454368E-03 
1077	 3.91154777616194E-03 
1078	 3.91032673666426E-03 
1079	 4.09559722619005E-03 
1080	 3.95694120569032E-03 
1081	 3.50661382645708E-03 
1082	 3.4177719633156E-03 
1083	 3.25891179089703E-03 
1084	 3.27825466672295E-03 
1085	 3.79573919981432E-03 
1086	 3.96743689353582E-03 
1087	 3.91896225993453E-03 
1088	 3.93365992857729E-03 
1089	 3.74755823792154E-03 
1090	 3.97629914208627E-03 
1091	 3.83508038809491E-03 
1092	 3.5859985001199E-03 
1093	 3.62826804545929E-03 
1094	 3.47601281575693E-03 
1095	 3.55216834395578E-03 
1096	 4.2751533423633E-03 
1097	 4.28733060370524E-03 
1098	 3.94631179497818E-03 
1099	 3.75646505707079E-03 
1100	 2.90928399821587E-03 
1101	 2.80036646708741E-03 
1102	 3.52637727179831E-03 
1103	 3.67740251177895E-03 
1104	 3.7495131073373E-03 
1105	 4.20507904474779E-03 
1106	 4.36432493471161E-03 
1107	 3.5838395973169E-03 
1108	 3.68855726944875E-03 
1109	 4.19470315490106E-03 
1110	 4.12674781369146E-03 
1111	 3.70794086245174E-03 
1112	 3.62868789666038E-03 
1113	 3.03989155349801E-03 
1114	 2.98696656109096E-03 
1115	 4.02080309565715E-03 
1116	 4.53036012243954E-03 
1117	 5.3048751951254E-03 
1118	 5.30701638620349E-03 
1119	 3.33936008896383E-03 
1120	 2.52403244328327E-03 
1121	-4.06143987275552E-04 
1122	 3.43021132126694E-03 
1123	 7.90483975509787E-03 
1124	 2.78441616060131E-03 
1125	 2.4788435263813E-03 
1126	 3.83565110107803E-03 
1127	 5.91450350025455E-04 
1128	 5.05142424710027E-03 
1129	 6.9638319863978E-03 
1130	 6.69373376654067E-03 
1131	 5.45014457525865E-03 
1132	 5.15866522892548E-03 
1133	 6.14882171053396E-03 
1134	 6.62582370422426E-03 
1135	 6.84226113866756E-03 
1136	 8.65975415483052E-03 
1137	 7.95098919866503E-03 
1138	 4.92248917846844E-03 
1139	 3.54253212432286E-03 
1140	 2.33104417353882E-03 
1141	 3.17927123457875E-03 
1142	 4.94521255069385E-03 
1143	 5.28684701074205E-03 
1144	 5.55174654086996E-03 
1145	 4.51826986133889E-03 
1146	 3.0833327435128E-03 
1147	 3.69312375957286E-03 
1148	 4.04098391493703E-03 
1149	 2.98123400963092E-03 
1150	 3.26440291328761E-03 
1151	 4.13150798211076E-03 
1152	 4.41484716667787E-03 
1153	 5.25856207547142E-03 
1154	 5.41045181978787E-03 
1155	 5.51719504472899E-03 
1156	 4.00698219003714E-03 
1157	 3.35988022638573E-03 
1158	 4.03213214366745E-03 
1159	 3.86575665391101E-03 
1160	 3.79837141893527E-03 
1161	 4.34322316145158E-03 
1162	 3.78437630192485E-03 
1163	 3.01957287241522E-03 
1164	 3.10736246077285E-03 
1165	 3.10972159935638E-03 
1166	 2.92659766693244E-03 
1167	 3.13404396392977E-03 
1168	 3.24686198947081E-03 
1169	 2.88581780023288E-03 
1170	 2.7577885035802E-03 
1171	 2.90621551555308E-03 
1172	 3.53050873951171E-03 
1173	 3.51036750274058E-03 
1174	 3.37876684259375E-03 
1175	 3.2793178273764E-03 
1176	 3.03377515015597E-03 
1177	 2.9447387195005E-03 
1178	 3.34512295335689E-03 
1179	 3.67394801445247E-03 
1180	 3.44608981782238E-03 
1181	 3.21161645859243E-03 
1182	 3.15279612503339E-03 
1183	 2.98509878456378E-03 
1184	 3.13764901737059E-03 
1185	 3.27496690079144E-03 
1186	 3.20582413207026E-03 
1187	 3.15756501921822E-03 
1188	 2.82188862433575E-03 
1189	 2.83230219723196E-03 
1190	 3.32366514323105E-03 
1191	 3.32540192273975E-03 
1192	 3.23642045134299E-03 
1193	 3.18908589275094E-03 
1194	 3.17621034514814E-03 
1195	 2.81848893681291E-03 
1196	 2.88734652026146E-03 
1197	 3.36711777801595E-03 
1198	 3.36171850585925E-03 
1199	 3.25117524818716E-03 
1200	 3.42124423836608E-03 
1201	 3.34891764245327E-03 
1202	 3.2544879347063E-03 
1203	 3.41922666693268E-03 
1204	 3.46515497139792E-03 
1205	 3.38475073420713E-03 
1206	 3.16824041841924E-03 
1207	 2.9620036832202E-03 
1208	 2.97641739714777E-03 
1209	 3.0724477637075E-03 
1210	 3.1770099987661E-03 
1211	 3.23461069486536E-03 
1212	 3.19125852146755E-03 
1213	 3.03987293656891E-03 
1214	 0.003006187853608 
1215	 3.18417595525883E-03 
1216	 3.46720405369927E-03 
1217	 3.42081582133374E-03 
1218	 3.18323195034599E-03 
1219	 3.06437175816267E-03 
1220	 3.08379217487429E-03 
1221	 3.08641979369676E-03 
1222	 3.05427436781578E-03 
1223	 3.1119414443173E-03 
1224	 3.18521809010161E-03 
1225	 3.05227549786478E-03 
1226	 2.98227603793861E-03 
1227	 3.0950760520043E-03 
1228	 3.06733709508062E-03 
1229	 3.08772528133984E-03 
1230	 3.23850440676181E-03 
1231	 3.31482281280151E-03 
1232	 3.20891632554223E-03 
1233	 3.00064226612684E-03 
1234	 2.97999827453823E-03 
1235	 2.94673305361415E-03 
1236	 2.94719521714006E-03 
1237	 2.89224932232209E-03 
1238	 2.83479177015519E-03 
1239	 2.79161140116539E-03 
1240	 2.83057980212446E-03 
1241	 2.94069280904654E-03 
1242	 2.92993625487939E-03 
1243	 2.79580661939816E-03 
1244	 2.82502169525594E-03 
1245	 3.02018265390852E-03 
1246	 3.20763746386052E-03 
1247	 3.3266483273917E-03 
1248	 3.14099684914624E-03 
1249	 2.86840972776081E-03 
1250	 2.91823927339466E-03 
1251	 3.00688942526889E-03 
1252	 2.99364550198871E-03 
1253	 2.89364816762308E-03 
1254	 2.71576908767546E-03 
1255	 2.95706771226984E-03 
1256	 3.13129235894272E-03 
1257	 3.62544263613356E-03 
1258	 3.60104867766679E-03 
1259	 3.12893672701801E-03 
1260	 3.07311520936625E-03 
1261	 3.15836779591881E-03 
1262	 3.08100478876421E-03 
1263	 3.18960191322354E-03 
1264	 3.10064106687909E-03 
1265	 2.81163479990926E-03 
1266	 2.61601619180468E-03 
1267	 2.70952128216847E-03 
1268	 3.0552666064444E-03 
1269	 3.28318105691688E-03 
1270	 3.0910726617976E-03 
1271	 3.13541877578098E-03 
1272	 3.38014615555818E-03 
1273	 3.12480304650714E-03 
1274	 3.00664835169033E-03 
1275	 3.16613750619454E-03 
1276	 3.05935689066887E-03 
1277	 2.96644855913522E-03 
1278	 3.00658939690162E-03 
1279	 3.02346843142706E-03 
1280	 2.96377385487871E-03 
1281	 2.87100944356698E-03 
1282	 2.81434483617397E-03 
1283	 2.90620074806226E-03 
1284	 2.98681102641302E-03 
1285	 2.91148378359123E-03 
1286	 2.96773665484863E-03 
1287	 3.02309838169085E-03 
1288	 2.84555027392427E-03 
1289	 2.82450947616392E-03 
1290	 3.03771554139903E-03 
1291	 3.07687315172744E-03 
1292	 3.04811476891655E-03 
1293	 3.05152997473792E-03 
1294	 3.03338106982516E-03 
1295	 3.13682927533527E-03 
1296	 3.23372275865079E-03 
1297	 3.15109127671056E-03 
1298	 2.97568270982063E-03 
1299	 2.78245792836646E-03 
1300	 2.81050757124802E-03 
1301	 2.95867907159706E-03 
1302	 2.9977381675963E-03 
1303	 2.97982418763601E-03 
1304	 3.0185510416865E-03 
1305	 3.17029949862607E-03 
1306	 3.09682734938435E-03 
1307	 3.14373781200041E-03 
1308	 3.10594328933101E-03 
1309	 2.57545321500119E-03 
1310	 2.48575428365941E-03 
1311	 3.00535842994543E-03 
1312	 3.13475503360228E-03 
1313	 2.95651609991128E-03 
1314	 2.93334021194277E-03 
1315	 2.98130021231413E-03 
1316	 2.8707129810801E-03 
1317	 2.66782130101628E-03 
1318	 2.82455343847246E-03 
1319	 3.22011466927346E-03 
1320	 3.1314546753838E-03 
1321	 2.89981681816175E-03 
1322	 2.82151439447484E-03 
1323	 3.21473699240369E-03 
1324	 3.33079930197628E-03 
1325	 2.94819897651884E-03 
1326	 3.39615594502286E-03 
1327	 3.84855841328987E-03 
1328	 3.17503711841286E-03 
1329	 2.5773171125455E-03 
1330	 2.68661366431317E-03 
1331	 2.57721840807928E-03 
1332	 2.1560294784615E-03 
1333	 2.41240634254045E-03 
1334	 2.84803839401789E-03 
1335	 3.04311864060321E-03 
1336	 1.81718405341987E-03 
1337	 1.67846068470333E-03 
1338	 3.07069358798463E-03 
1339	 3.41546039859436E-03 
1340	 2.55457007374521E-03 
1341	 2.59696740258982E-03 
1342	 3.28130810453652E-03 
1343	 3.48406871614568E-03 
1344	 4.31106356877851E-03 
1345	 4.60807542240554E-03 
1346	 3.20925241426427E-03 
1347	 3.54253058130523E-03 
1348	 5.95398154810699E-03 
1349	 6.10384984856048E-03 
1350	 5.64620771173249E-03 
1351	 6.10729012091837E-03 
1352	-2.30913775799574E-03 
1353	-6.40563529492939E-03 
1354	 4.22077050769702E-03 
1355	 3.58975278271122E-02 
1356	 5.16663859410015E-02 
1357	 1.22240531717477E-02 
1358	-3.63160382763652E-02 
1359	-3.09395399452839E-02 
1360	-2.01647036005351E-03 
1361	 4.38045649728938E-02 
1362	 8.77946075327102E-02 
1363	 4.47655474851379E-02 
1364	-0.055171435683277 
1365	-3.17549379198366E-02 
1366	 7.77605897455112E-02 
1367	 2.94844994052258E-03 
1368	 4.75077006858645E-02 
1369	 0.176088576963472 
1370	 0.241657067330447 
1371	 0.34176356862618 
1372	 0.316487218847024 
1373	 0.280306902770331 
1374	 0.114991962332377 
1375	-0.295872168872575 
1376	-0.297362327607775 
1377	-0.140680220074305 
1378	-0.222600651719267 
1379	-0.222280658468729 
1380	-9.03602314031423E-02 
1381	-8.95044166760588E-02 
1382	-9.14959749040912E-02 
1383	 0.148518682361481 
1384	 0.225482187068435 
1385	 8.64784718806541E-02 
1386	-1.62931707150666E-02 
1387	-0.127310456306254 
1388	-0.114522523029729 
1389	 3.46613760018832E-02 
1390	 5.08219298227918E-02 
1391	 2.57714929636452E-02 
1392	 0.101234397529478 
1393	 0.435314828818452 
1394	 0.487804753738958 
1395	 0.180706746071943 
1396	 4.34827112195599E-02 
1397	 0.263129172909182 
1398	 0.28940654398155 
1399	 0.280806325133957 
1400	 0.652889735323888 
1401	 0.568313622404196 
1402	 6.52184912826758E-02 
1403	-0.112395896955651 
1404	 2.84093310406373E-02 
1405	 6.14957289551515E-02 
1406	-0.167328185617926 
1407	-7.14653039770355E-02 
1408	 0.367634859100995 
1409	 0.304494689656752 
1410	 8.06487799220645E-02 
1411	 5.10871160712087E-02 
1412	-7.24797237681501E-02 
1413	-8.16659840393791E-02 
1414	 4.40909946701722E-02 
1415	 8.06261656556446E-02 
1416	 0.114448254620674 
1417	 0.10770142147589 
1418	 6.07780062001188E-02 
1419	 4.85242495793907E-02 
1420	 3.72201081607709E-02 
1421	 2.69722505600927E-02 
1422	 4.45814421938575E-02 
1423	 0.034347575954288 
1424	-5.34608895036355E-03 
1425	-7.41039860606758E-03 
1426	-3.94640366933742E-03 
1427	-1.14563423463131E-04 
1428	 0.031224132432342 
1429	 3.16077165699493E-02 
1430	 5.9203514929589E-03 
1431	 3.71088073830749E-03 
1432	 3.25985033146098E-03 
1433	-9.39380993127922E-04 
1434	 1.99782301073867E-03 
1435	 8.88982138311706E-03 
1436	 1.35755704024023E-02 
1437	 1.99826944188559E-02 
1438	 2.33457707880716E-02 
1439	 2.50332854230704E-02 
1440	 1.93545719667331E-02 
1441	 9.81416398851781E-03 
1442	 9.52782498589001E-03 
1443	 1.46672578776155E-02 
1444	 1.65768158067234E-02 
1445	 0.012905478555278 
1446	 7.21159562372219E-03 
1447	 0.005563826057114 
1448	 4.3216657624344E-03 
1449	 5.20536241651908E-04 
1450	-1.14770859044508E-03 
1451	 1.6334481811749E-03 
1452	 4.62730692085912E-03 
1453	 5.7064032234194E-03 
1454	 5.5385686894513E-03 
1455	 4.92545840049251E-03 
1456	 4.1759166323058E-03 
1457	 1.64368190243108E-03 
1458	 1.99582571095072E-03 
1459	 4.30717890028212E-03 
1460	 4.3063979670964E-03 
1461	 4.03495670217601E-03 
1462	 4.84793532872087E-03 
1463	 5.18938018508976E-03 
1464	 4.62533416316992E-03 
1465	 5.00781199479082E-03 
1466	 4.97578972614718E-03 
1467	 2.65284621667738E-03 
1468	 2.11401915227638E-03 
1469	 3.69189623877285E-03 
1470	 3.41469477354743E-03 
1471	 1.43260338322985E-03 
1472	 1.76312714820134E-03 
1473	 4.39368410654383E-03 
1474	 3.90398464770297E-03 
1475	 1.49832879806631E-03 
1476	 1.85935648943069E-03 
1477	 2.5496674519509E-03 
1478	 2.32592605846133E-03 
1479	 3.63753250751902E-03 
1480	 3.81225188705799E-03 
1481	 1.69506946889817E-03 
1482	 1.43831182406444E-03 
1483	 2.51740267156046E-03 
1484	 2.89466811959978E-03 
1485	 3.18094284600465E-03 
1486	 3.57507206107569E-03 
1487	 4.31544119198535E-03 
1488	 3.91330606224146E-03 
1489	 2.77867354705318E-03 
1490	 2.67128554526362E-03 
1491	 2.47103362477818E-03 
1492	 2.37001702542629E-03 
1493	 2.98668986171123E-03 
1494	 3.08144786447571E-03 
1495	 2.72908153031427E-03 
1496	 2.51502190425721E-03 
1497	 2.30067441825148E-03 
1498	 2.26050621587719E-03 
1499	 2.28266016909189E-03 
1500	 2.19434977495225E-03 
1501	 2.13082278928208E-03 
1502	 2.15062853302875E-03 
1503	 2.12599298843535E-03 
1504	 2.02873669272507E-03 
1505	 1.92941865893692E-03 
1506	 2.05989087041829E-03 
1507	 2.01468980823258E-03 
1508	 1.96558481420491E-03 
1509	 2.39606487297766E-03 
1510	 2.65530917353084E-03 
1511	 2.2626364445886E-03 
1512	 2.17497780940785E-03 
1513	 2.44867543595497E-03 
1514	 2.33504397933112E-03 
1515	 2.15398421908645E-03 
1516	 2.14071127181665E-03 
1517	 2.06158903975869E-03 
1518	 2.02737149062392E-03 
1519	 2.22577214620826E-03 
1520	 2.39471871069697E-03 
1521	 2.42178532997706E-03 
1522	 2.33389574859108E-03 
1523	 2.13983634471297E-03 
1524	 2.23528630601737E-03 
1525	 2.45175362115397E-03 
1526	 2.31551407612108E-03 
1527	 2.16314037818093E-03 
1528	 2.24474402740738E-03 
1529	 2.20745590255554E-03 
1530	 2.08058587279359E-03 
1531	 2.15235972583896E-03 
1532	 2.24839938991177E-03 
1533	 2.24322284279223E-03 
1534	 2.23317744475648E-03 
1535	 2.05090543281548E-03 
1536	 1.98907265361896E-03 
1537	 2.19074730480375E-03 
1538	 2.20346161055642E-03 
1539	 2.15741873197427E-03 
1540	 2.12890726791953E-03 
1541	 2.13087136080292E-03 
1542	 2.20842120524368E-03 
1543	 2.30006269930577E-03 
1544	 2.44655250757808E-03 
1545	 2.29539651552134E-03 
1546	 1.97552022421481E-03 
1547	 2.0376784807635E-03 
1548	 0.002256252001856 
1549	 2.32905271849496E-03 
1550	 2.38821846180172E-03 
1551	 2.33763067699482E-03 
1552	 2.22230978898483E-03 
1553	 2.36050562776782E-03 
1554	 2.45069970519842E-03 
1555	 2.25795774131073E-03 
1556	 2.21195018266674E-03 
1557	 2.43287274157748E-03 
1558	 2.6301349790784E-03 
1559	 2.69940653961356E-03 
1560	 2.73518922023438E-03 
1561	 2.53970172034648E-03 
1562	 2.13186671048429E-03 
1563	 2.04743080405244E-03 
1564	 2.1613472864442E-03 
1565	 2.13211593488809E-03 
1566	 2.06918322950615E-03 
1567	 2.05176051249772E-03 
1568	 2.09216573311003E-03 
1569	 2.08155270897121E-03 
1570	 2.09761364764857E-03 
1571	 2.25580741325929E-03 
1572	 2.20477408226272E-03 
1573	 1.99358526687246E-03 
1574	 2.10433140625664E-03 
1575	 2.26917411701876E-03 
1576	 2.15154158751973E-03 
1577	 2.13244383876119E-03 
1578	 2.13778546590358E-03 
1579	 1.8799975190054E-03 
1580	 1.89926155364826E-03 
1581	 2.21700990600024E-03 
1582	 2.37018372690259E-03 
1583	 2.26606813151031E-03 
1584	 2.16850699640751E-03 
1585	 2.52304649065793E-03 
1586	 0.002746430836022 
1587	 2.62354327196709E-03 
1588	 2.59329241857375E-03 
1589	 2.49509767188428E-03 
1590	 2.38407062532868E-03 
1591	 2.27106545224108E-03 
1592	 2.30570098303049E-03 
1593	 2.35526145859259E-03 
1594	 2.06638781698933E-03 
1595	 1.97935821947978E-03 
1596	 2.25272162928549E-03 
1597	 2.38357854773019E-03 
1598	 2.31001997109081E-03 
1599	 2.35531052506071E-03 
1600	 2.4094277636121E-03 
1601	 2.29688186577099E-03 
1602	 2.1621939366738E-03 
1603	 2.01289534444351E-03 
1604	 2.09643034561122E-03 
1605	 2.35171083941938E-03 
1606	 2.30154890793744E-03 
1607	 2.14632456712213E-03 
1608	 2.14615957839662E-03 
1609	 2.06356832943644E-03 
1610	 1.92491952989526E-03 
1611	 1.94158247475315E-03 
1612	 2.04798930327742E-03 
1613	 2.22079047462276E-03 
1614	 2.43279240994697E-03 
1615	 2.34065150877395E-03 
1616	 2.19950097051175E-03 
1617	 2.32904612792156E-03 
1618	 2.28970902093486E-03 
1619	 2.26006933632587E-03 
1620	 2.22826210935539E-03 
1621	 1.9771076739994E-03 
1622	 2.09553409201013E-03 
1623	 2.35249118783466E-03 
1624	 2.33458742749931E-03 
1625	 2.35882747746548E-03 
1626	 2.24687237501117E-03 
1627	 1.94121322911201E-03 
1628	 1.9914247692107E-03 
1629	 2.26478494479284E-03 
1630	 2.19828118598022E-03 
1631	 2.06161095235311E-03 
1632	 2.17013599267705E-03 
1633	 2.13242731091009E-03 
1634	 1.7800128280114E-03 
1635	 1.65023654580789E-03 
1636	 2.00198334792694E-03 
1637	 2.32855118910087E-03 
1638	 2.42038607179834E-03 
1639	 2.2039198138091E-03 
1640	 1.94270847197885E-03 
1641	 2.0398999446627E-03 
1642	 2.01853147007712E-03 
1643	 2.18235349018443E-03 
1644	 2.4635404842109E-03 
1645	 2.01097138906455E-03 
1646	 1.74404721358164E-03 
1647	 2.13648261328491E-03 
1648	 2.24735286474976E-03 
1649	 2.13556693934168E-03 
1650	 2.22119435878411E-03 
1651	 2.01166317885806E-03 
1652	 1.99701286246713E-03 
1653	 2.69857410693734E-03 
1654	 2.64562734732913E-03 
1655	 1.99984993738732E-03 
1656	 1.97953033449908E-03 
1657	 2.02660608749774E-03 
1658	 2.10641559100538E-03 
1659	 2.7088812516486E-03 
1660	 2.82993462215587E-03 
1661	 2.54675315046957E-03 
1662	 2.33166090526944E-03 
1663	 1.85963233838414E-03 
1664	 1.75324949491379E-03 
1665	 1.84083917077133E-03 
1666	 1.84156851221252E-03 
1667	 2.16274379085026E-03 
1668	 2.11298399644603E-03 
1669	 2.04813052528874E-03 
1670	 2.15128430920145E-03 
1671	 1.84841110031854E-03 
1672	 1.90745266460698E-03 
1673	 2.10604461788434E-03 
1674	 1.95914493706247E-03 
1675	 2.1596865725258E-03 
1676	 2.23486056655239E-03 
1677	 1.9379354899028E-03 
1678	 2.05579089242407E-03 
1679	 1.98183686412657E-03 
1680	 1.57790362887796E-03 
1681	 1.69411011611142E-03 
1682	 1.93274576700024E-03 
1683	 2.02934312648987E-03 
1684	 2.00303897837058E-03 
1685	 1.88048904439397E-03 
1686	 1.95246636561544E-03 
1687	 1.96726415353614E-03 
1688	 1.93482794069992E-03 
1689	 1.90976055352458E-03 
1690	 1.65804926908174E-03 
1691	 1.5440427007713E-03 
1692	 1.91273323527271E-03 
1693	 2.20664916244233E-03 
1694	 2.06083489728297E-03 
1695	 1.83509838317227E-03 
1696	 1.9278575399935E-03 
1697	 2.29243649481465E-03 
1698	 2.43490094649583E-03 
1699	 2.28642599229271E-03 
1700	 2.03910857454391E-03 
1701	 1.83406964112509E-03 
1702	 1.82738626427554E-03 
1703	 2.08319600901842E-03 
1704	 2.48538237807711E-03 
1705	 2.59698369649135E-03 
1706	 2.39877852915393E-03 
1707	 2.30693494701254E-03 
1708	 0.002150287048928 
1709	 1.96427279251952E-03 
1710	 2.23086581231161E-03 
1711	 2.52335918104712E-03 
1712	 2.41857344710336E-03 
1713	 2.02481269344174E-03 
1714	 1.95453303600309E-03 
1715	 2.44825892805608E-03 
1716	 2.59317527251923E-03 
1717	 2.20912414205551E-03 
1718	 1.99594610405904E-03 
1719	 1.8470772011512E-03 
1720	 1.82863860242258E-03 
1721	 2.03085109077468E-03 
1722	 1.88165888856781E-03 
1723	 1.52445214039209E-03 
1724	 1.84752000773366E-03 
1725	 2.27386381910501E-03 
1726	 1.92605616519595E-03 
1727	 1.85126404045691E-03 
1728	 1.94558079939887E-03 
1729	 1.74130044901858E-03 
1730	 1.73860347265828E-03 
1731	 2.01876808701181E-03 
1732	 2.14891189576156E-03 
1733	 1.60667507366661E-03 
1734	 1.69010225330713E-03 
1735	 2.1558389055896E-03 
1736	 1.63055680745002E-03 
1737	 1.4355184746823E-03 
1738	 1.65981890500718E-03 
1739	 1.60839833499759E-03 
1740	 1.88177368373796E-03 
1741	 2.25061534358642E-03 
1742	 2.08610127261723E-03 
1743	 1.70887604023915E-03 
1744	 1.62529044864267E-03 
1745	 1.72110267322757E-03 
1746	 2.44790482425292E-03 
1747	 2.56348120184621E-03 
1748	 1.87541619032516E-03 
1749	 1.94995214466264E-03 
1750	 2.43471098039758E-03 
1751	 2.2356406822482E-03 
1752	 2.2007635518733E-03 
1753	 2.17005588055753E-03 
1754	 1.30983629040941E-03 
1755	 1.08734221941472E-03 
1756	 1.52767713505201E-03 
1757	 1.38292625347107E-03 
1758	 1.69405613755374E-03 
1759	 2.36735328657144E-03 
1760	 2.36851155457235E-03 
1761	 1.7760103695876E-03 
1762	 1.90588207248471E-03 
1763	 2.40676854267203E-03 
1764	 2.95835146241037E-03 
1765	 2.96159332313523E-03 
1766	 1.63809292228848E-03 
1767	 9.12628270507392E-04 
1768	 1.06477894948036E-03 
1769	 1.92732509248749E-03 
1770	 4.12251536950186E-03 
1771	 4.39894669047326E-03 
1772	 2.30556207667373E-03 
1773	 8.57241681335838E-04 
1774	 5.40946606569028E-05 
1775	 2.56805425726809E-03 
1776	 3.45525875054914E-03 
1777	 4.61456441927256E-03 
1778	 5.12344882682064E-03 
1779	 2.91006542771875E-03 
1780	 2.14851086328168E-03 
1781	 2.71410159086998E-03 
1782	 2.92160443449857E-03 
1783	 3.89674642514206E-03 
1784	 3.32471223760611E-03 
1785	 7.88592293055538E-04 
1786	 9.36310725377924E-04 
1787	 1.32716902643383E-03 
1788	 2.79742522441383E-03 
1789	 8.83007317061303E-03 
1790	 6.44718215555264E-03 
1791	 4.72518149170052E-03 
1792	 1.20156806504296E-03 
1793	-1.23745762758601E-03 
1794	 3.24209092936185E-03 
1795	 4.59989508856777E-03 
1796	 2.03351506805785E-03 
1797	 3.47413608969267E-03 
1798	 2.65045661855506E-03 
1799	 3.74179277636427E-04 
1800	 3.20391673247744E-03 
1801	 2.02344451023782E-03 
1802	-1.42687747317675E-02 
1803	-1.48163319546499E-02 
1804	 9.95749019010518E-03 
1805	 1.51903961967007E-02 
1806	 2.80927293082059E-02 
1807	 3.55318746783764E-02 
1808	-2.82873445419073E-02 
1809	-3.73485106833226E-02 
1810	 3.67285563168769E-02 
1811	 7.65873760470646E-02 
1812	 0.173006855855703 
1813	 0.167372398303768 
1814	-2.56437795483748E-02 
1815	-0.102594446310874 
1816	-0.287280026260113 
1817	-0.183949776591755 
1818	 4.40361665080211E-02 
1819	 0.207238089990482 
1820	 0.467023729073542 
1821	 0.032785687257129 
1822	-0.126357041059699 
1823	-0.216565954937105 
1824	-0.331629137145147 
1825	-0.275414847344926 
1826	-0.259383632434136 
1827	-1.66518325465078 
1828	-1.57601206306815 
1829	 0.326949561005567 
1830	 0.458509479400411 
1831	-2.0187134621985 
1832	-1.12172791915778 
1833	-1.03305859120313 
1834	 9.5844360953689 
1835	-1.32334136945661 
1836	-1.57566209364279 
1837	-1.14928512318983 
1838	-1.21984262906202 
1839	-2.57826875866733 
1840	 9.05451720196968 
1841	 1.92572484944033 
1842	 0.81160579696455 
1843	 0.648771470960193 
1844	-0.631363757596053 
1845	-1.10327675463792 
1846	 480.678509712107 
1847	-2.72789053287829 
1848	 7.29714287907784 
1849	 3.33349077459658 
1850	 4.08750579198729 
1851	 1.74900789975783 
1852	 0.324445766343411 
1853	-0.075334204844076 
1854	-6.05631775262996E-02 
1855	 0.466470931096781 
1856	 0.991421468080105 
1857	-10.9756156195552 
1858	-5.57381973878227 
1859	-31.7936007562821 
1860	-11.0545398623686 
1861	-9.0286254507231 
1862	-3.07629089117237 
1863	-1.77150570003684 
1864	-1.65457798986188 
1865	-1.34204728787541 
1866	-2.07915268104661 
1867	-2.09898065455563 
1868	-0.893318999657589 
1869	-1.05326943704533 
1870	-2.07048575519967 
1871	 8.89865345130446 
1872	 3.07134492697724 
1873	 2.10477010833175 
1874	 5.46761742950746 
1875	-1.22911455064186 
1876	-1.45856974179974 
1877	 3.84896898214208 
1878	 4.36341402243867 
1879	 1.753789624912 
1880	 1.2846362096928 
1881	-2.46347052551686 
1882	 0.355978689279911 
1883	-0.293178482783189 
1884	 9.37830988021804 
1885	 8.96483128334103 
1886	 36.1269237508137 
1887	-3.55795757116117 
1888	-1.37454933644818 
1889	-0.925168505692859 
1890	 8.86531963236807E-02 
1891	 0.128143648667801 
1892	 6.01517729553578 
1893	 1.21021962079726 
1894	 2.55371217081594 
1895	 5.81294629633095 
1896	-3.04621575784271 
1897	-0.552063771648569 
1898	-1.6391334253938 
1899	 20.5352126289031 
1900	 10.2088668024289 
1901	 12.7337444339471 
1902	 35.9634634620908 
1903	-4.00269407496608 
1904	-2.36281049274789 
1905	-0.480983925577484 
1906	 2.65440216169671 
1907	 247.526528927399 
1908	-8.20258641623851 
1909	-5.16474802863099 
1910	-28.9324977627117 
1911	 1.03339136551231 
1912	 0.609681992036707 
1913	 0.412975510555383 
1914	 0.249850132626862 
1915	 0.117866188300163 
1916	 0.263417512654038 
1917	 8.76491598969554E-02 
1918	-1.17125373282148 
1919	-19.6844460486463 
1920	-23.8145051089694 
1921	-1.24302626975249 
1922	-0.481593149754737 
1923	-0.243116180087293 
1924	-0.394620555184994 
1925	-0.7586453470662 
1926	-0.97810960053771 
1927	-1.47332138786604 
1928	-1.61981091606109 
1929	-5.53097574358598E-02 
1930	-0.045925886087685 
1931	 0.532984575180419 
1932	 0.538530656306445 
1933	 0.276290862998897 
1934	 0.192307574412054 
1935	 0.229999184295095 
1936	 0.171160520495375 
1937	 0.167585248386989 
1938	 5.61626519536056E-02 
1939	 5.39074832082179E-02 
1940	 7.82728892477346E-03 
1941	 3.22494509061889E-02 
1942	 7.76866374176914E-02 
1943	 0.172175522916696 
1944	 0.182468796973212 
1945	 0.106203591377586 
1946	 5.65987939374408E-02 
1947	 3.53620307198346E-02 
1948	 4.44146572375995E-02 
1949	 8.75411936367892E-02 
1950	 0.122984050007182 
1951	 0.119230309190439 
1952	 0.107365320123993 
1953	 6.75347081170998E-02 
1954	 0.047483240247537 
1955	 2.80743446473163E-02 
1956	 0.016172713365207 
1957	 0.02615069699373 
1958	 2.15812441812104E-02 
1959	 1.96701647381127E-02 
1960	 2.52320378684405E-02 
1961	 0.015139198116245 
1962	 9.24337234078607E-03 
1963	 1.32679008459324E-02 
1964	 1.01841822473475E-02 
1965	 5.49371466063466E-03 
1966	 4.53238718952732E-03 
1967	 3.82988232155433E-03 
1968	 2.54011574238495E-03 
1969	 5.18415006177641E-03 
1970	 7.97246754365029E-03 
1971	 5.49001194443612E-03 
1972	 3.03332240031408E-03 
1973	 2.11603513009047E-03 
1974	 9.337932454541E-04 
1975	 2.71975701001508E-03 
1976	 3.17948908003598E-03 
1977	 1.01122364663683E-03 
1978	 1.54716127202056E-03 
1979	 2.26247634279048E-03 
1980	 3.69714567508515E-03 
1981	 4.63633347751513E-03 
1982	 5.69426277182726E-03 
1983	 5.03320364864235E-03 
1984	 2.73790529190295E-03 
1985	 1.45792713450445E-03 
1986	 1.34510950482559E-03 
1987	 8.31705305922544E-04 
1988	 2.60140846164144E-04 
1989	 7.79688237702992E-04 
1990	 7.25652621795333E-04 
1991	-6.85770727377328E-05 
1992	 5.23157337179073E-04 
1993	 1.29081535719235E-03 
1994	 1.73187058481004E-03 
1995	 2.16704409793795E-03 
1996	 2.5453443559259E-03 
1997	 2.90580069641801E-03 
1998	 4.51919231465248E-03 
1999	 4.89903349066795E-03 
2000	 5.78624422107365E-03 
2001	 7.57695253196008E-03 
2002	 4.43473450360469E-03 
2003	 1.41226943374281E-03 
2004	 3.23283298496355E-03 
2005	 7.09614549540093E-03 
2006	 9.42288677537865E-03 
2007	 9.89858614327179E-03 
2008	 0.010143798615886 
2009	 1.01385988139168E-02 
2010	 8.02643804369067E-03 
2011	 6.72334795423917E-03 
2012	 0.006823381856337 
2013	 5.35505660017013E-03 
2014	 2.37145325211757E-03 
2015	 1.10433648989348E-03 
2016	 3.21276176250972E-03 
2017	 2.91952894526947E-03 
2018	 3.14301057389146E-03 
2019	 3.35477490700687E-03 
2020	 2.09500250963358E-03 
2021	 3.02545202818663E-03 
2022	 3.73635393366961E-03 
2023	 3.36122676666439E-03 
2024	 3.2673952107795E-03 
2025	 3.23074703263414E-03 
2026	 2.84963863161443E-03 
2027	 2.02493908353077E-03 
2028	 2.06483933736462E-03 
2029	 2.60459499619181E-03 
2030	 1.9228188166441E-03 
2031	 1.66725427678942E-03 
2032	 2.24221476964149E-03 
2033	 2.38378155450159E-03 
2034	 2.60283416420668E-03 
2035	 2.77699564322589E-03 
2036	 2.26906273735838E-03 
2037	 1.19271650744698E-03 
2038	 4.51702097484249E-04 
2039	 3.82304236547754E-04 
2040	 1.2722353110009E-03 
2041	 1.53862416152933E-03 
2042	 1.69560959823616E-03 
2043	 2.21172718394236E-03 
2044	 2.95032807158752E-03 
2045	 3.40185167524413E-03 
2046	 3.44111491411286E-03 
2047	 3.35932717167382E-03 
2048	 2.89169199965476E-03 
2049	 2.78417435364898E-03 
2050	 2.49419644710092E-03 
2051	 2.77892865875185E-03 
2052	 3.80161315786741E-03 
2053	 3.1998027409643E-03 
2054	 2.34457839962494E-03 
2055	 0.002717644808533 
2056	 2.93773911821972E-03 
2057	 2.45914099419125E-03 
2058	 2.58644727071462E-03 
2059	 4.22195296366497E-03 
2060	 4.29809387580665E-03 
2061	 3.33035123700423E-03 
2062	 2.71918824326772E-03 
2063	 2.93084132492216E-03 
2064	 2.80250692120746E-03 
2065	 3.64257754381653E-03 
2066	 4.96401144888942E-03 
2067	 5.62434408040621E-03 
2068	 6.71700470016798E-03 
2069	 6.19179723715476E-03 
2070	 5.00292066077794E-03 
2071	 4.79708010828156E-03 
2072	 3.46281061637895E-03 
2073	 2.94373201094804E-03 
2074	 3.74681098960645E-03 
2075	 3.73108653013099E-03 
2076	 3.02535318727732E-03 
2077	 3.01546277605279E-03 
2078	 3.49046620956341E-03 
2079	 3.4660036418092E-03 
2080	 3.26514121223562E-03 
2081	 3.21817968356091E-03 
2082	 3.59118556511821E-03 
2083	 3.81590530622853E-03 
2084	 4.1022095690051E-03 
2085	 3.88588709379695E-03 
2086	 2.89215045597212E-03 
2087	 2.08864783187831E-03 
2088	 1.76365554003704E-03 
2089	 2.05124837149838E-03 
2090	 2.48198292279446E-03 
2091	 2.56744581913755E-03 
2092	 2.45866697438757E-03 
2093	 1.66827289275301E-03 
2094	 1.65599274351936E-03 
2095	 2.18646756330839E-03 
2096	 2.1214396551148E-03 
2097	 2.51450625472256E-03 
2098	 2.29655619344017E-03 
2099	 1.11668457017018E-03 
2100	 1.94184029896905E-04 
2101	 7.70234092703014E-04 
2102	 7.65674848516903E-04 
2103	 1.64074845306247E-03 
2104	 2.20258423594264E-03 
2105	 1.68240791878137E-03 
2106	 2.10911097441424E-03 
2107	 2.3139524090528E-03 
2108	 2.71230911668364E-03 
2109	 3.14125514133865E-03 
2110	 0.001910911044787 
2111	 1.39032520688969E-03 
2112	 1.89344250459398E-03 
2113	 1.92561603578597E-03 
2114	 2.44963077573969E-03 
2115	 2.58010645492737E-03 
2116	 2.02006030940583E-03 
2117	 2.00068599032951E-03 
2118	 2.44970760535906E-03 
2119	 2.53531981194968E-03 
2120	 2.75666570962981E-03 
2121	 2.53809514227261E-03 
2122	 2.73480265664399E-03 
2123	 2.5819410612638E-03 
2124	 2.32532340549909E-03 
2125	 2.26208930944736E-03 
2126	 1.33717789901513E-03 
2127	 1.56446047098312E-03 
2128	 2.91415504056426E-03 
2129	 3.18160126971395E-03 
2130	 2.48050002089601E-03 
2131	 1.13105575472023E-03 
2132	 5.14350750428985E-04 
2133	 9.99578849357006E-04 
2134	 1.38883784291095E-03 
2135	 3.52350235521479E-03 
2136	 4.09941179986577E-03 
2137	 3.56930982255978E-03 
2138	 3.47227944098931E-03 
2139	 3.29594978789338E-03 
2140	 3.07350454476372E-03 
2141	 2.75105950178965E-03 
2142	 2.2807422743105E-03 
2143	 1.56716241703171E-03 
2144	 1.27926621332143E-03 
2145	 5.3406311868886E-04 
2146	 3.15153063665786E-04 
2147	 2.23018262282227E-04 
2148	 4.92044195095032E-04 
2149	 1.32140213520965E-03 
2150	 1.84350291762755E-03 
2151	 2.63871118238457E-03 
2152	 2.52894639478058E-03 
2153	 2.24309841421796E-03 
2154	 2.34353257103607E-03 
2155	 1.78762230877138E-03 
2156	 2.30346562843217E-03 
2157	 2.59782749242638E-03 
2158	 3.38632417222438E-03 
2159	 2.95595021631617E-03 
2160	 1.27291493548263E-03 
2161	 1.15942310697317E-03 
2162	 1.16441845067997E-03 
2163	 1.09965765592162E-03 
2164	 2.53941164561644E-03 
2165	 2.96153380000649E-03 
2166	 2.43069550837435E-03 
2167	 2.37494300909979E-03 
2168	 1.96634283970575E-03 
2169	 2.30584331413226E-03 
2170	 3.49054718446638E-03 
2171	 3.4789062947395E-03 
2172	 3.44071265810541E-03 
2173	 3.76330495933334E-03 
2174	 4.03165779189627E-03 
2175	 4.90872220078134E-03 
2176	 3.95020305314603E-03 
2177	 3.62196556362047E-03 
2178	 3.30101896447448E-03 
2179	 7.62841858855634E-04 
2180	 1.22629035639706E-03 
2181	 1.67251908626279E-03 
2182	 9.08374756988943E-05 
2183	-2.41001317250822E-04 
2184	-5.57693243091819E-04 
2185	-2.34489311616494E-04 
2186	-4.35187787482438E-04 
2187	-2.91000785821707E-04 
2188	-4.84379073956137E-04 
2189	-1.56459911593085E-03 
2190	-1.75039922647727E-03 
2191	-1.46758523305817E-03 
2192	-4.50841218700545E-04 
2193	 1.81594695409965E-03 
2194	 2.51974246244345E-03 
2195	 3.05406020924479E-03 
2196	 3.62975252119816E-03 
2197	 3.29276282083218E-03 
2198	 3.08525142922648E-03 
2199	 2.91655289162141E-03 
2200	 2.88549127409145E-03 
2201	 5.10444624927059E-03 
2202	 5.81274368480419E-03 
2203	 5.09397383022711E-03 
2204	 6.46228154992104E-03 
2205	 6.00834044980644E-03 
2206	 3.04148393471906E-03 
2207	 2.78436205113573E-03 
2208	 3.48395451251706E-03 
2209	 2.14859133923403E-03 
2210	 1.66942293982993E-03 
2211	 2.11180693860231E-03 
2212	 1.83946921951426E-03 
2213	 1.77407691174691E-03 
2214	 2.24494183667376E-03 
2215	 2.96019664413403E-03 
2216	 2.26848876345677E-03 
2217	 1.33437106982741E-03 
2218	-2.39317605924336E-04 
2219	 4.16175453610037E-05 
2220	 6.88818664007646E-04 
2221	 5.5720478263504E-04 
2222	 1.04935945341763E-03 
2223	 1.52804139288365E-03 
2224	 1.19502529215631E-03 
2225	 1.62056306825306E-03 
2226	 3.41212115190179E-03 
2227	 4.08041096368687E-03 
2228	 3.65684697343316E-03 
2229	 3.71480393751476E-03 
2230	 4.93571480968141E-03 
2231	 4.66749528181276E-03 
2232	 2.59678721206844E-03 
2233	 1.87594339024482E-03 
2234	 3.43666132291504E-04 
2235	 4.90788101159461E-04 
2236	 2.80375492944498E-03 
2237	 3.96246283001043E-03 
2238	 4.06059354434988E-03 
2239	 4.29185987878791E-03 
2240	 3.07398812551168E-03 
2241	 2.8561431746252E-03 
2242	 3.86646061576246E-03 
2243	 3.96074874168131E-03 
2244	 4.68306535320653E-03 
2245	 4.06215878629125E-03 
2246	 3.06173901722859E-03 
2247	 0.00296433230292 
2248	 1.99497121987739E-03 
2249	 2.48008148557439E-03 
2250	 3.75679483188272E-03 
2251	 2.42410513015076E-03 
2252	 9.43494791319925E-04 
2253	 2.12063471618146E-03 
2254	 1.99656807020072E-03 
2255	 1.11269997814645E-03 
2256	 2.8861092677977E-03 
2257	 4.06498235519099E-03 
2258	 1.9010328793292E-03 
2259	 8.05466890606987E-04 
2260	 4.74759893710713E-04 
2261	-1.45122272535039E-03 
2262	-1.67915771151873E-03 
2263	 1.28920220769425E-03 
2264	 1.50247936993201E-03 
2265	 4.0811060283809E-04 
2266	 8.25169747904338E-04 
2267	 1.45989575076306E-03 
2268	 2.31022485025138E-03 
2269	 3.84346801233195E-03 
2270	 4.10650532896575E-03 
2271	 2.77576120118149E-03 
2272	 3.06123058075307E-03 
2273	 5.1155693129581E-03 
2274	 5.5715949194214E-03 
2275	 5.46682176512311E-03 
2276	 5.86338729905244E-03 
2277	 4.9951842558085E-03 
2278	 4.95931635566401E-03 
2279	 7.15517652703794E-03 
2280	 7.31126976807585E-03 
2281	 5.85558429899938E-03 
2282	 5.38171501487553E-03 
2283	 4.89647304056546E-03 
2284	 3.3244673303739E-03 
2285	 2.73551081977715E-03 
2286	 2.16857184141343E-03 
2287	 3.20739798157631E-03 
2288	 6.36440201436588E-03 
2289	 6.70232141949785E-03 
2290	 6.15511799928503E-03 
2291	 6.91570670552119E-03 
2292	 5.44458113839256E-03 
2293	 2.95514646312202E-03 
2294	 2.89767751631817E-03 
2295	 2.53883609823358E-03 
2296	-2.0318686634977E-04 
2297	 1.51912085903601E-03 
2298	 8.05865513642965E-03 
2299	 7.01495924892171E-03 
2300	 3.15551024142307E-03 
2301	 5.12667662839624E-03 
2302	 6.23513838317398E-03 
2303	 7.93953100406609E-03 
2304	 9.66960619260226E-03 
2305	 8.5323114244696E-03 
2306	 3.55866770818729E-03 
2307	-2.77022859885495E-03 
2308	-1.50827985074892E-03 
2309	 8.43365239561963E-04 
2310	 1.27206500327141E-03 
2311	 5.52586609721535E-03 
2312	 7.41492663852431E-03 
2313	 5.27737629838805E-03 
2314	 3.77256549595337E-03 
2315	 3.4601957893002E-03 
2316	 2.8756319811166E-03 
2317	 3.87163057793883E-03 
2318	 7.64502765416747E-03 
2319	 9.4979883905332E-03 
2320	 7.83624975837431E-03 
2321	 5.04214393704785E-03 
2322	 3.27573745629462E-03 
2323	 5.32211292885187E-03 
2324	 9.85791773295914E-03 
2325	 0.011212373875187 
2326	 9.7969063885682E-03 
2327	 4.60574439209506E-03 
2328	-3.25018891090638E-03 
2329	-3.58278305652206E-03 
2330	-1.89416999902983E-03 
2331	-1.81529643034534E-03 
2332	 2.83373479745577E-03 
2333	 5.87702773677098E-04 
2334	-6.19076082240691E-03 
2335	-4.79916340507479E-03 
2336	-3.4104534895274E-03 
2337	 3.14247069946204E-03 
2338	 1.33853498364743E-02 
2339	 9.95282401313457E-03 
2340	 2.36280218033116E-03 
2341	-5.98765809230175E-04 
2342	 0.004207864476294 
2343	 1.76070139722304E-02 
2344	 0.019831205881411 
2345	 1.60851890562179E-02 
2346	 1.36979802719999E-02 
2347	 2.66771581959361E-03 
2348	-1.82984481136152E-04 
2349	 5.73065174613026E-03 
2350	 3.36247533676888E-03 
2351	 3.67903881823085E-03 
2352	 0.016046239935092 
2353	 1.13739286588682E-02 
2354	-6.37575021683862E-03 
2355	-1.05363703939441E-02 
2356	-8.7151928805343E-03 
2357	 2.15800370633545E-03 
2358	 0.01327762498842 
2359	 1.21213669576708E-02 
2360	 3.73048904972162E-03 
2361	-7.18655451855531E-04 
2362	 5.81189198736935E-04 
2363	 5.65130562261168E-03 
2364	 1.13444778162455E-02 
2365	 7.50113051066265E-03 
2366	 1.19549722869286E-02 
2367	 1.87966257820312E-02 
2368	 6.35759305907342E-03 
2369	-4.10424612847447E-03 
2370	-3.74269954487898E-03 
2371	 6.42269059662399E-04 
2372	 1.63181609071576E-02 
2373	 4.31255381521682E-02 
2374	 4.79408907141718E-02 
2375	 3.25772655376629E-02 
2376	 3.30209157377199E-02 
2377	 2.65820002797998E-02 
2378	 0.017600476742109 
2379	 3.33887912047157E-02 
2380	 4.11842964509056E-02 
2381	 2.16677525317143E-02 
2382	 3.71739109772724E-03 
2383	-2.04744403965532E-02 
2384	-0.064001787212385 
2385	-7.78661243520507E-02 
2386	-4.54554229445825E-02 
2387	-2.97059872030562E-02 
2388	-3.54517893360032E-02 
2389	 3.8096740386019E-03 
2390	 1.69665360768885E-02 
2391	-2.43039522396563E-03 
2392	 2.13027459980296E-02 
2393	 4.23948595391845E-02 
2394	 3.45613090685473E-02 
2395	 3.26558461496469E-02 
2396	 3.87153053865687E-02 
2397	 1.83522167578602E-02 
2398	 3.98000797283161E-03 
2399	 2.67622888398732E-02 
2400	 0.047975189162294 
2401	 5.34422204368357E-02 
2402	 6.47310195448949E-02 
2403	 5.85134640059559E-02 
2404	 4.75827235539137E-02 
2405	 5.17618997920113E-02 
2406	 3.93655503237753E-02 
2407	 1.91531467730686E-02 
2408	 2.27305025242083E-02 
2409	 5.62536942694409E-02 
2410	 7.44354821125821E-02 
2411	 0.148899725712234 
2412	 0.197524040229381 
2413	 0.165959793774779 
2414	 0.180350735579373 
2415	 0.111279709845357 
2416	 3.60663971852411E-02 
2417	 0.097167783913729 
2418	 0.168376312856386 
2419	 0.129013663533542 
2420	 0.161084334135442 
2421	 0.202052409147356 
2422	 4.30279878059045E-02 
2423	-2.73263786745467E-02 
2424	-6.90290860079139E-02 
2425	-0.214545056854554 
2426	-0.203682029926056 
2427	-0.113789563497047 
2428	-9.34867662908288E-02 
2429	-0.14466773760271 
2430	-0.167653810491424 
2431	-9.42078443562248E-02 
2432	-7.13119125687297E-02 
2433	-0.022015047151771 
2434	 2.46033961605086E-02 
2435	-0.002874637802602 
2436	 2.71687234007415E-02 
2437	-5.22053663391582E-03 
2438	 4.06611375675241E-02 
2439	 0.050661246690766 
2440	-0.116513955867413 
2441	-0.160536728498845 
2442	-9.98640396226027E-02 
2443	-0.102944396781615 
2444	-2.61915027320153E-02 
2445	 0.171257955627982 
2446	 0.2816314995211 
2447	 0.384523156913252 
2448	 0.178694428371059 
2449	-0.387340467692726 
2450	-0.334513229613512 
2451	-0.359003434627125 
2452	 1.04553105722957 
2453	 2.42164715894409 
2454	-68.6434186722164 
2455	-0.235857903024445 
2456	 0.114680044850184 
2457	-5.51902419575351E-03 
2458	-0.389011505281153 
2459	-0.846245249959912 
2460	-0.880347854584855 
2461	-0.686953037320872 
2462	-0.321030660487503 
2463	-0.353379031617528 
2464	-0.445615502305804 
2465	-0.258121861176659 
2466	-4.14006920856337 
2467	 6.99402836438784 
2468	-7.03797921660258 
2469	-97.6948768566003 
2470	 2.33199867505791 
2471	-1.02993346820499 
2472	-0.528679941893498 
2473	-0.50262025815933 
2474	-0.754358052461853 
2475	-0.508548587430684 
2476	 4.98885582793813E-02 
2477	 0.418636332177048 
2478	 1.05286620848391 
2479	 0.56514888129256 
2480	 0.118391187377429 
2481	 0.15441218704817 
2482	 0.281862558153178 
2483	-3.81693108236818E-02 
2484	-0.165564138818703 
2485	-5.03271484067332E-02 
2486	-0.211298815473433 
2487	-0.630772387535825 
2488	-0.558704150750712 
2489	-0.49941691395745 
2490	-0.767751645697686 
2491	-0.460698568757611 
2492	 7.48698236765686E-03 
2493	-0.136588126862892 
2494	 0.14536455622026 
2495	-0.702583624865258 
2496	-0.865282860059181 
2497	-1.65272327032215 
2498	-2.57719929966348 
2499	-2.89654154268609 
2500	-3.32772243584145E-03 
