Wavelength	rt0722east_close00003.asd
350	 0.024822558307243 
351	 2.47368688694351E-02 
352	 2.48082788075032E-02 
353	 2.48921533876682E-02 
354	 2.49160853485636E-02 
355	 2.50780494559946E-02 
356	 2.50408067162861E-02 
357	 2.51094216036162E-02 
358	 0.025527308995054 
359	 2.54936131110253E-02 
360	 2.49627009244666E-02 
361	 2.45253854134343E-02 
362	 2.49751973435053E-02 
363	 2.48415627583827E-02 
364	 2.50075303107324E-02 
365	 2.55853630179497E-02 
366	 2.50971292353124E-02 
367	 0.025345560066983 
368	 2.57059500629507E-02 
369	 2.53927821893783E-02 
370	 0.025315672557212 
371	 2.58999675631059E-02 
372	 2.64827963502923E-02 
373	 2.60180643625844E-02 
374	 2.61531202986855E-02 
375	 2.61732013285959E-02 
376	 2.59349420907636E-02 
377	 2.63735616772937E-02 
378	 2.70607457957093E-02 
379	 2.72001719300273E-02 
380	 2.66016917668545E-02 
381	 2.71501056094834E-02 
382	 2.74356989695397E-02 
383	 2.74289031998086E-02 
384	 2.77059162306898E-02 
385	 0.028005403962194 
386	 2.82623528692633E-02 
387	 2.84750717228971E-02 
388	 2.86945218449269E-02 
389	 2.88211306013466E-02 
390	 2.88797746015067E-02 
391	 2.90482115463659E-02 
392	 2.98936815457967E-02 
393	 3.01571250694599E-02 
394	 2.99918949596138E-02 
395	 3.00528071646379E-02 
396	 3.04762919491131E-02 
397	 3.06854082195472E-02 
398	 3.06265341320446E-02 
399	 3.07019728920358E-02 
400	 3.05787550198855E-02 
401	 3.07438192310202E-02 
402	 3.13059000721973E-02 
403	 3.12966817814751E-02 
404	 3.12447500514047E-02 
405	 3.13332303230811E-02 
406	 3.15845090904047E-02 
407	 3.18755004336867E-02 
408	 3.19511239741503E-02 
409	 3.19290449187066E-02 
410	 3.22521540664565E-02 
411	 3.23416040265992E-02 
412	 3.24014528347029E-02 
413	 3.26575526391376E-02 
414	 3.30754274056228E-02 
415	 3.33677597810336E-02 
416	 3.35108297764029E-02 
417	 3.36159102537549E-02 
418	 3.38073854466998E-02 
419	 3.40394510301933E-02 
420	 3.43075709997949E-02 
421	 3.46634611856618E-02 
422	 3.50124946309955E-02 
423	 3.52701985247144E-02 
424	 3.54321936844169E-02 
425	 3.56898837895677E-02 
426	 3.59622790381306E-02 
427	 3.62723923019011E-02 
428	 3.66696155851795E-02 
429	 3.70546523764448E-02 
430	 0.037419119582092 
431	 3.77440974517399E-02 
432	 3.79913680885941E-02 
433	 3.83306223074437E-02 
434	 3.86718675870715E-02 
435	 3.89393554262865E-02 
436	 3.92666734784301E-02 
437	 3.97034569002954E-02 
438	 4.01704101440867E-02 
439	 4.05222362518406E-02 
440	 4.07228576551312E-02 
441	 4.10252308509003E-02 
442	 4.14680964274779E-02 
443	 4.17341259568735E-02 
444	 0.042091385818482 
445	 4.24741559511166E-02 
446	 4.27644254750323E-02 
447	 4.29967539853374E-02 
448	 4.32927787098445E-02 
449	 4.36152171903804E-02 
450	 4.38266257200661E-02 
451	 4.41035498557004E-02 
452	 4.43870196660651E-02 
453	 4.46088698084558E-02 
454	 4.47366129737939E-02 
455	 4.50165230514939E-02 
456	 4.52838945337432E-02 
457	 4.53278464180773E-02 
458	 4.55607902290338E-02 
459	 4.57972506783924E-02 
460	 4.59301220802806E-02 
461	 4.59712194811763E-02 
462	 4.61392336045275E-02 
463	 4.63946901280015E-02 
464	 4.66322245386973E-02 
465	 4.67154530957842E-02 
466	 4.68725952748281E-02 
467	 4.71225677854681E-02 
468	 4.73723224872801E-02 
469	 4.75705435981805E-02 
470	 4.77158662094447E-02 
471	 4.78526798963607E-02 
472	 4.80736126089118E-02 
473	 0.048298487296097 
474	 4.84712438416265E-02 
475	 4.85922877379396E-02 
476	 4.88267351130652E-02 
477	 4.90807098885614E-02 
478	 4.93207270598257E-02 
479	 4.95636576127269E-02 
480	 4.98775998222077E-02 
481	 0.050145034150533 
482	 5.03370551167219E-02 
483	 5.06471561542525E-02 
484	 5.10281237119376E-02 
485	 5.13921374557756E-02 
486	 5.16652243514557E-02 
487	 5.19552813549348E-02 
488	 5.22753769512027E-02 
489	 5.26356289613874E-02 
490	 5.30442224272192E-02 
491	 5.33631404672476E-02 
492	 0.053702279898262 
493	 5.41429809288581E-02 
494	 5.45569221601195E-02 
495	 0.055017174754608 
496	 5.54874510667969E-02 
497	 5.58967731817388E-02 
498	 5.63613069066003E-02 
499	 5.68518158291866E-02 
500	 5.73286147180563E-02 
501	 5.77579200125124E-02 
502	 5.82716991525602E-02 
503	 5.88197327740838E-02 
504	 5.93241476126491E-02 
505	 5.98273998940641E-02 
506	 6.03034364743008E-02 
507	 6.07853262456237E-02 
508	 6.13408638138041E-02 
509	 6.18265106457861E-02 
510	 6.22691677558663E-02 
511	 0.062758876374627 
512	 6.34989655135421E-02 
513	 6.40946899026638E-02 
514	 6.45906262364905E-02 
515	 6.51995472393425E-02 
516	 6.58221557540964E-02 
517	 6.64928405465207E-02 
518	 0.067168486172566 
519	 6.77082904385945E-02 
520	 6.83723533396137E-02 
521	 6.90469104594665E-02 
522	 6.96271011743027E-02 
523	 7.03389419201505E-02 
524	 7.10349058351255E-02 
525	 7.16779032856142E-02 
526	 7.23203600851865E-02 
527	 7.30246088507208E-02 
528	 7.37499098981739E-02 
529	 7.44591193612378E-02 
530	 7.51571117885012E-02 
531	 7.58517246549666E-02 
532	 7.65893887690859E-02 
533	 0.077383879367404 
534	 7.79856562124111E-02 
535	 7.86480088008655E-02 
536	 7.94427576248778E-02 
537	 8.01985784974496E-02 
538	 8.09546216951273E-02 
539	 8.17574489023482E-02 
540	 8.26119998516616E-02 
541	 8.33785445154596E-02 
542	 8.41455223585923E-02 
543	 8.49244500720419E-02 
544	 8.56830550421783E-02 
545	 8.64376729367123E-02 
546	 8.72066295175748E-02 
547	 8.79861940000564E-02 
548	 8.87317002190408E-02 
549	 8.94820165599868E-02 
550	 9.02308826994667E-02 
551	 9.09679376443832E-02 
552	 9.17328515147433E-02 
553	 9.25619804810268E-02 
554	 9.34057529027645E-02 
555	 9.41188013484837E-02 
556	 9.48252938444082E-02 
557	 9.55542297791575E-02 
558	 9.63067309803842E-02 
559	 9.71106585220093E-02 
560	 9.78086666674435E-02 
561	 9.84218445321483E-02 
562	 9.90833830750742E-02 
563	 0.099779125994954 
564	 0.100420848392116 
565	 0.100968398870794 
566	 0.101492444654194 
567	 0.102009764462402 
568	 0.102535831760761 
569	 0.103060946439306 
570	 0.103474663509701 
571	 0.10388983448407 
572	 0.104338279790631 
573	 0.104749685075907 
574	 0.105126597403848 
575	 0.105473794054481 
576	 0.105792317705144 
577	 0.106069616820926 
578	 0.106337695643134 
579	 0.106563131046373 
580	 0.106687352526446 
581	 0.106825011422799 
582	 0.106921249572713 
583	 0.106950578381257 
584	 0.106984412394519 
585	 0.106904966646936 
586	 0.106770063778371 
587	 0.106673903347071 
588	 0.106521481176666 
589	 0.106325044283825 
590	 0.10611689947013 
591	 0.10592344790276 
592	 0.105747539293772 
593	 0.105489364896009 
594	 0.105064007658421 
595	 0.104465154705166 
596	 0.103860062772273 
597	 0.103230799731527 
598	 0.102472176782326 
599	 0.101703401196968 
600	 0.101084399750037 
601	 0.10065954307973 
602	 0.100264879384335 
603	 0.100076261408818 
604	 9.99941537671224E-02 
605	 9.98877303100463E-02 
606	 9.99468535974421E-02 
607	 9.99905296417236E-02 
608	 9.99910615605503E-02 
609	 0.100089780916555 
610	 0.100163316713999 
611	 0.100199845624994 
612	 0.100218278971402 
613	 0.100255031380831 
614	 0.100267707762471 
615	 0.100280568339403 
616	 0.100349936732253 
617	 0.100468822333708 
618	 0.100520152497187 
619	 0.100466699752884 
620	 0.100405312223108 
621	 0.1004172415524 
622	 0.100453627532765 
623	 0.100448216775015 
624	 0.100518235673004 
625	 0.100468782050136 
626	 0.10035618653458 
627	 0.100462407863849 
628	 0.100422620406235 
629	 0.100385367857928 
630	 0.10046396847184 
631	 0.100422109487573 
632	 0.100320279448814 
633	 0.100230902878643 
634	 0.100223960930333 
635	 0.100271646613781 
636	 0.100235657232256 
637	 0.100102382576646 
638	 0.100044536604062 
639	 0.09998548760038 
640	 9.98895797546346E-02 
641	 9.97509931372946E-02 
642	 9.96329986506222E-02 
643	 9.95460366703717E-02 
644	 9.94692375539795E-02 
645	 9.93560998104208E-02 
646	 9.91603887007606E-02 
647	 9.90207162717079E-02 
648	 9.89753690065464E-02 
649	 9.87415915501811E-02 
650	 9.85267913161153E-02 
651	 9.83098226354473E-02 
652	 9.80096982914651E-02 
653	 9.77008599957286E-02 
654	 0.097278964448474 
655	 9.67197491670359E-02 
656	 9.62032399877045E-02 
657	 9.58158599539688E-02 
658	 9.54748398894392E-02 
659	 0.095108126942174 
660	 9.48172304294663E-02 
661	 9.45700053071502E-02 
662	 9.43491863501497E-02 
663	 9.41590725976894E-02 
664	 9.40974723490416E-02 
665	 9.39912338590372E-02 
666	 9.37899649273676E-02 
667	 9.37172236703071E-02 
668	 9.37543929466111E-02 
669	 9.37967734030879E-02 
670	 9.37356610590851E-02 
671	 9.36256654093295E-02 
672	 9.35623709323161E-02 
673	 0.093526801766604 
674	 9.34075723778576E-02 
675	 9.35135887757759E-02 
676	 9.36047785330883E-02 
677	 9.34983807850036E-02 
678	 9.34014484345351E-02 
679	 9.34057647325839E-02 
680	 9.34580495051113E-02 
681	 9.34509409179392E-02 
682	 9.34818017869795E-02 
683	 9.35370220857812E-02 
684	 9.35704227347812E-02 
685	 9.35013682586402E-02 
686	 9.33881172934892E-02 
687	 9.32488809591895E-02 
688	 0.093108158860141 
689	 9.30020599882113E-02 
690	 0.092855432823339 
691	 0.092567412650554 
692	 9.20481886091487E-02 
693	 9.16590353587558E-02 
694	 9.12463199285028E-02 
695	 9.06970638717485E-02 
696	 9.00290495149293E-02 
697	 8.93204715567439E-02 
698	 8.85358925138846E-02 
699	 8.76925090643316E-02 
700	 0.086949622871739 
701	 8.60992815788775E-02 
702	 0.085145440802301 
703	 8.42279309329461E-02 
704	 8.31626875810364E-02 
705	 8.20446381741399E-02 
706	 0.080949714824181 
707	 7.97479628544737E-02 
708	 7.83725819733641E-02 
709	 7.68911509788359E-02 
710	 7.53857250767692E-02 
711	 7.36782207451196E-02 
712	 7.18968609969164E-02 
713	 7.01227212604037E-02 
714	 6.83174976140997E-02 
715	 6.64724129701033E-02 
716	 6.44553862136895E-02 
717	 6.23396403478746E-02 
718	 6.02826455101923E-02 
719	 5.80784774343009E-02 
720	 5.61132342274273E-02 
721	 5.43734467301824E-02 
722	 5.26172950065431E-02 
723	 0.050599316524096 
724	 4.84929517306062E-02 
725	 4.63593817310116E-02 
726	 4.43437549960511E-02 
727	 4.22101910472969E-02 
728	 0.039793188217118 
729	 3.72616668285399E-02 
730	 3.46719286109956E-02 
731	 3.23763211719404E-02 
732	 3.05587765240289E-02 
733	 2.88813786258838E-02 
734	 2.74890441551906E-02 
735	 2.64032678860788E-02 
736	 2.54014885060868E-02 
737	 2.46755683403434E-02 
738	 2.41663126991904E-02 
739	 2.37826192921768E-02 
740	 2.34904937470293E-02 
741	 2.32319782720858E-02 
742	 2.30314890344474E-02 
743	 2.29357976315919E-02 
744	 2.28166301235077E-02 
745	 2.27317590487863E-02 
746	 2.27248490349781E-02 
747	 0.022794278679771 
748	 2.27405668591419E-02 
749	 2.26480326561867E-02 
750	 2.26278622112213E-02 
751	 2.26071703003422E-02 
752	 2.26333164600122E-02 
753	 2.26485623391205E-02 
754	 0.022567399029716 
755	 2.25792348152736E-02 
756	 0.022514198331364 
757	 2.24196236611381E-02 
758	 2.28069883310903E-02 
759	 0.022836817494351 
760	 2.25680305727436E-02 
761	 2.27313714422442E-02 
762	 2.26578571572839E-02 
763	 2.29129892560608E-02 
764	 2.31845359960489E-02 
765	 2.30948301609366E-02 
766	 2.30095273597606E-02 
767	 2.30487412839853E-02 
768	 2.32215890114522E-02 
769	 2.34504613252075E-02 
770	 2.35437939177546E-02 
771	 2.36061697008605E-02 
772	 2.37507764501179E-02 
773	 2.39252257006963E-02 
774	 2.41964896623846E-02 
775	 2.44921998354706E-02 
776	 2.47030038431501E-02 
777	 2.48748797958239E-02 
778	 2.50866483276787E-02 
779	 2.53635481213867E-02 
780	 2.56747161572218E-02 
781	 2.60653532206326E-02 
782	 2.63548959936091E-02 
783	 2.65211496023975E-02 
784	 2.70023394256149E-02 
785	 2.72953750566574E-02 
786	 2.74983415403156E-02 
787	 2.78676907404428E-02 
788	 0.028252305836038 
789	 2.86481823704277E-02 
790	 2.90658656946337E-02 
791	 0.029526467508101 
792	 3.00144671047436E-02 
793	 3.03917082301922E-02 
794	 0.030676660002312 
795	 3.11503960721891E-02 
796	 3.15533589367944E-02 
797	 3.18518911252932E-02 
798	 0.032130106017882 
799	 3.26052440062656E-02 
800	 0.032907478527898 
801	 3.30603065062044E-02 
802	 3.33159514201171E-02 
803	 3.37012533439345E-02 
804	 0.033959985693076 
805	 3.40125853171664E-02 
806	 3.40025145204174E-02 
807	 3.40898978758876E-02 
808	 3.40894830259161E-02 
809	 3.39008944292522E-02 
810	 3.38403198002264E-02 
811	 3.37308525580941E-02 
812	 3.34889216169184E-02 
813	 0.033090978556747 
814	 3.26697470381819E-02 
815	 0.032365674089371 
816	 3.20845407252127E-02 
817	 3.15672351041637E-02 
818	 3.08999230112807E-02 
819	 0.030281391708148 
820	 2.96586217607715E-02 
821	 2.87121654665343E-02 
822	 2.76833764755825E-02 
823	 2.65528414613323E-02 
824	 2.53269194023467E-02 
825	 2.40957280322792E-02 
826	 2.26221625156381E-02 
827	 2.10440751484003E-02 
828	 1.97054992229541E-02 
829	 1.84816679587988E-02 
830	 1.73564567609892E-02 
831	 1.63358380105203E-02 
832	 1.54830466896722E-02 
833	 1.49225719137164E-02 
834	 1.45410233431706E-02 
835	 1.41638347680612E-02 
836	 1.36025765978543E-02 
837	 1.31803870032725E-02 
838	 0.01295073607074 
839	 1.28279508247305E-02 
840	 1.25462044593658E-02 
841	 1.22895414703888E-02 
842	 1.21621877253447E-02 
843	 1.21420187305454E-02 
844	 1.17479887845197E-02 
845	 1.17364956574035E-02 
846	 1.18915773223844E-02 
847	 1.14338884254804E-02 
848	 1.12107582339861E-02 
849	 1.10198088018668E-02 
850	 1.08159454620846E-02 
851	 0.010869694968183 
852	 1.06398594021286E-02 
853	 1.04113073861305E-02 
854	 0.010435910135081 
855	 1.05220779058415E-02 
856	 0.010248981920847 
857	 9.97746905874551E-03 
858	 1.00530393744924E-02 
859	 9.93858171777728E-03 
860	 9.8827523591245E-03 
861	 9.79793537293448E-03 
862	 9.50375731096314E-03 
863	 9.34373126169062E-03 
864	 9.25671214695297E-03 
865	 9.21426296606717E-03 
866	 9.21272162510165E-03 
867	 8.9643192351719E-03 
868	 8.7847473288562E-03 
869	 8.75204269473332E-03 
870	 8.54649030691099E-03 
871	 8.58132939571775E-03 
872	 8.50968843737339E-03 
873	 8.16623723362007E-03 
874	 8.14931845561298E-03 
875	 8.09020129533793E-03 
876	 7.87614098202086E-03 
877	 7.54676920520025E-03 
878	 7.36740448967012E-03 
879	 7.19430020450977E-03 
880	 7.16284946890439E-03 
881	 7.37844538313063E-03 
882	 7.06671331065843E-03 
883	 6.88271699657324E-03 
884	 6.9182738581902E-03 
885	 6.81567242089159E-03 
886	 6.78223616704097E-03 
887	 6.73842272792158E-03 
888	 6.60489151743694E-03 
889	 6.35262794759912E-03 
890	 6.17760960075302E-03 
891	 6.14036424049343E-03 
892	 6.20035682018357E-03 
893	 6.17973911535725E-03 
894	 6.23746059307116E-03 
895	 6.05736760279142E-03 
896	 5.60216494100293E-03 
897	 6.14942625916069E-03 
898	 6.06812515689166E-03 
899	 5.27176158361752E-03 
900	 4.58682369258833E-03 
901	 5.48193165528799E-03 
902	 5.66897125637299E-03 
903	 5.36456306568472E-03 
904	 5.52480755737364E-03 
905	 5.48166004173269E-03 
906	 5.34474822225107E-03 
907	 5.22210969975195E-03 
908	 5.16204405746878E-03 
909	 4.73982718063491E-03 
910	 5.05983882124188E-03 
911	 5.77189297996785E-03 
912	 5.35388432915794E-03 
913	 5.15590388982523E-03 
914	 5.13112596344162E-03 
915	 5.12192988576566E-03 
916	 5.00883657040972E-03 
917	 3.95622702771491E-03 
918	 4.07491155480773E-03 
919	 5.40983605346648E-03 
920	 5.03108184894568E-03 
921	 4.12380340174965E-03 
922	 3.6730480396573E-03 
923	 3.96022220667845E-03 
924	 3.83951929894547E-03 
925	 3.81101331335877E-03 
926	 3.98935626507297E-03 
927	 4.31851976216222E-03 
928	 4.4783020735257E-03 
929	 4.22424764727184E-03 
930	 3.94941319083508E-03 
931	 4.38725724173705E-03 
932	 4.98495062531909E-03 
933	 1.43959667224122E-03 
934	-1.67630303194643E-03 
935	 2.46190983159976E-03 
936	 7.92731964740911E-03 
937	 7.39581815910301E-03 
938	 4.70832828081654E-03 
939	 4.80595797096848E-03 
940	 3.56015213833233E-03 
941	 4.41134000927197E-03 
942	 5.0909448647624E-03 
943	 0.00220699104618 
944	 4.39513287929824E-03 
945	 6.34156063702471E-03 
946	 5.38813622763174E-03 
947	 2.58289247863734E-03 
948	 4.18427296533995E-03 
949	 4.4618094091788E-03 
950	 3.30471889791347E-03 
951	 3.55858242161583E-03 
952	 8.36632264214714E-05 
953	-5.02772626971893E-05 
954	 3.0954563601353E-03 
955	 4.46589555468432E-03 
956	 4.73697544684724E-03 
957	 4.05743253934284E-03 
958	 3.80507905546532E-03 
959	 0.005198851209277 
960	 3.39725356809085E-03 
961	 2.07378837556371E-03 
962	 2.03809978641917E-03 
963	 1.77317768317015E-03 
964	 2.5989738960107E-03 
965	 3.69731559982409E-03 
966	 4.11450461508713E-03 
967	 3.34019820476181E-03 
968	 3.64024798359688E-03 
969	 3.67960609672327E-03 
970	 3.19120358331965E-03 
971	 3.01731441457844E-03 
972	 2.94323374110655E-03 
973	 2.75368594329835E-03 
974	 3.03735665288879E-03 
975	 4.57846127404455E-03 
976	 3.30935275047963E-03 
977	 2.80491162267847E-03 
978	 4.01401283640051E-03 
979	 4.79607083967753E-03 
980	 4.6208793507146E-03 
981	 3.72084653685143E-03 
982	 2.93003194038473E-03 
983	 3.14937349654119E-03 
984	 2.9801257566407E-03 
985	 3.66463168017757E-03 
986	 4.58840952730051E-03 
987	 4.06633955877882E-03 
988	 4.87929841388728E-03 
989	 4.92854576861971E-03 
990	 3.84388037520708E-03 
991	 3.03659344919094E-03 
992	 4.17272957453696E-03 
993	 3.67203033175584E-03 
994	 2.21702560410028E-03 
995	 3.06131572933852E-03 
996	 3.80363908134627E-03 
997	 4.09329791245988E-03 
998	 4.24503646871323E-03 
999	 4.65276955177802E-03 
1000	 4.25374382144891E-03 
1001	 3.42416307203914E-03 
1002	 3.66871819304034E-03 
1003	 3.84139363152694E-03 
1004	 3.94376401413903E-03 
1005	 4.04293753042951E-03 
1006	 4.24500707915962E-03 
1007	 4.27872825662619E-03 
1008	 4.2500907775045E-03 
1009	 4.06599018214936E-03 
1010	 3.80602452611908E-03 
1011	 3.80507352393943E-03 
1012	 3.95688084067807E-03 
1013	 4.17207955962199E-03 
1014	 4.10991957564487E-03 
1015	 3.93985797410971E-03 
1016	 3.76347915935274E-03 
1017	 3.22270714453373E-03 
1018	 3.08598368334376E-03 
1019	 3.23853386923435E-03 
1020	 3.21772737494002E-03 
1021	 3.18353191098483E-03 
1022	 3.23950101205932E-03 
1023	 3.67377143156409E-03 
1024	 3.79212278909557E-03 
1025	 3.99020282620208E-03 
1026	 4.23273107653287E-03 
1027	 4.0769910216896E-03 
1028	 3.31479669345529E-03 
1029	 3.19961973715523E-03 
1030	 3.13518676336916E-03 
1031	 3.2248536166412E-03 
1032	 3.76021820960393E-03 
1033	 3.9134029864094E-03 
1034	 4.09686128996933E-03 
1035	 4.02286971128256E-03 
1036	 3.48112305389984E-03 
1037	 3.31116309163622E-03 
1038	 3.12394956964803E-03 
1039	 2.97966054009047E-03 
1040	 3.57014380658607E-03 
1041	 3.89192998749616E-03 
1042	 3.97257626389944E-03 
1043	 4.08972218695533E-03 
1044	 3.94917941414182E-03 
1045	 3.25231951863194E-03 
1046	 3.10508031236035E-03 
1047	 3.07710435754805E-03 
1048	 3.11342063621968E-03 
1049	 3.55553918412115E-03 
1050	 3.58838320863738E-03 
1051	 3.36697683145407E-03 
1052	 3.31678963330204E-03 
1053	 2.96640672344708E-03 
1054	 2.99266531213087E-03 
1055	 3.63310503047816E-03 
1056	 3.84219505286804E-03 
1057	 3.9472206275724E-03 
1058	 4.06903903602459E-03 
1059	 4.05778385009122E-03 
1060	 3.67560993577073E-03 
1061	 3.5824851659963E-03 
1062	 3.54916864085784E-03 
1063	 3.64928146569434E-03 
1064	 4.0741712836967E-03 
1065	 4.01356948175952E-03 
1066	 3.75679635685287E-03 
1067	 3.64813701426999E-03 
1068	 3.14605478896856E-03 
1069	 2.95676745665866E-03 
1070	 3.1507715653385E-03 
1071	 3.24677462956668E-03 
1072	 3.39000538404762E-03 
1073	 3.4903583295118E-03 
1074	 3.50877225483412E-03 
1075	 3.53884551771696E-03 
1076	 3.50977858397411E-03 
1077	 3.29819871634816E-03 
1078	 3.25917013386652E-03 
1079	 3.29121686925269E-03 
1080	 3.31883767053318E-03 
1081	 3.49744141005038E-03 
1082	 3.46063951462781E-03 
1083	 3.22822610495727E-03 
1084	 3.15682733588502E-03 
1085	 2.91734478098514E-03 
1086	 2.95713289894456E-03 
1087	 3.51849133735913E-03 
1088	 3.68139997982354E-03 
1089	 3.81291690943086E-03 
1090	 3.69154631787471E-03 
1091	 3.69967534501329E-03 
1092	 3.50334240722388E-03 
1093	 3.38649171836216E-03 
1094	 3.40816476025421E-03 
1095	 3.36047520752039E-03 
1096	 3.16160218412556E-03 
1097	 3.05890340807925E-03 
1098	 2.9767107975006E-03 
1099	 2.99334556485701E-03 
1100	 3.17579944406166E-03 
1101	 3.19808225695711E-03 
1102	 3.07904989794648E-03 
1103	 3.17479185318287E-03 
1104	 3.30973378718066E-03 
1105	 3.54481658212353E-03 
1106	 3.25739136234058E-03 
1107	 3.53717248620302E-03 
1108	 3.9803452670831E-03 
1109	 3.1183560071964E-03 
1110	 2.95656094671839E-03 
1111	 3.44980175416236E-03 
1112	 3.44836572583728E-03 
1113	 2.76421714435063E-03 
1114	 2.83132132779675E-03 
1115	 3.57538515239818E-03 
1116	 3.61803132439433E-03 
1117	 3.99227775840439E-03 
1118	 4.16514895000864E-03 
1119	 2.00427663360381E-03 
1120	 1.79867835301605E-03 
1121	 4.69047107354547E-03 
1122	 6.35425837291381E-03 
1123	 5.06852857730241E-03 
1124	 2.34858929200988E-03 
1125	-9.3442221010924E-04 
1126	 1.61888801791433E-03 
1127	 7.25431616543707E-03 
1128	 6.67904093368698E-03 
1129	 6.0040392522354E-03 
1130	 1.55685805715289E-03 
1131	 8.32618329107022E-04 
1132	 9.17519622459091E-04 
1133	 2.81918363049066E-03 
1134	 0.006606937796758 
1135	 6.30349190473142E-03 
1136	 6.21656472849045E-03 
1137	 6.27604646930177E-03 
1138	 4.49888921794495E-03 
1139	 2.4378819482718E-03 
1140	 6.03927595514914E-03 
1141	 4.57742455919613E-03 
1142	 3.01015600770334E-04 
1143	 2.84207143810114E-03 
1144	 4.55670307034504E-03 
1145	 3.50378089463429E-03 
1146	 5.86338676066327E-03 
1147	 5.27530651957955E-03 
1148	 1.53748101788535E-03 
1149	 1.72765467319321E-03 
1150	 1.70904053116596E-03 
1151	 2.09344877202185E-03 
1152	 2.4074221789262E-03 
1153	 3.06125954642612E-03 
1154	 3.25174001079947E-03 
1155	 3.0667071661231E-03 
1156	 3.89193784132856E-03 
1157	 3.69174797888112E-03 
1158	 3.00175441079644E-03 
1159	 3.09354888942849E-03 
1160	 3.58076410792594E-03 
1161	 3.72867275007838E-03 
1162	 3.56084065566301E-03 
1163	 3.25689992297703E-03 
1164	 2.82873463878594E-03 
1165	 2.62700294608917E-03 
1166	 2.79836499662476E-03 
1167	 2.99077967499631E-03 
1168	 2.83537817677555E-03 
1169	 2.74882635035849E-03 
1170	 2.96538539464188E-03 
1171	 2.98667145963316E-03 
1172	 2.84558610322931E-03 
1173	 2.9128878323679E-03 
1174	 3.01218463854944E-03 
1175	 3.10885016326421E-03 
1176	 3.3263798115706E-03 
1177	 3.19045152733074E-03 
1178	 2.82490082841676E-03 
1179	 2.95599632417248E-03 
1180	 3.12511862931754E-03 
1181	 3.11366030676557E-03 
1182	 3.49005467432553E-03 
1183	 3.42572609496902E-03 
1184	 2.83222519283532E-03 
1185	 2.80944097668085E-03 
1186	 2.94169694757606E-03 
1187	 2.93568866340008E-03 
1188	 3.13364155900807E-03 
1189	 0.003190576500894 
1190	 2.97576432070689E-03 
1191	 2.72301612623691E-03 
1192	 2.56893998459862E-03 
1193	 2.38557465653717E-03 
1194	 2.50748159343642E-03 
1195	 2.84663010938472E-03 
1196	 2.80039992264903E-03 
1197	 2.74966047959255E-03 
1198	 3.0877312653889E-03 
1199	 2.94868287847321E-03 
1200	 2.73464629406483E-03 
1201	 3.1791280865104E-03 
1202	 3.18090100522138E-03 
1203	 2.74392499663088E-03 
1204	 2.80162449485996E-03 
1205	 2.94801274549644E-03 
1206	 2.86017118935396E-03 
1207	 2.8720194290889E-03 
1208	 2.96358918311647E-03 
1209	 2.93153950780817E-03 
1210	 2.93392276703847E-03 
1211	 3.05634859298613E-03 
1212	 0.003209237846384 
1213	 3.27725896900392E-03 
1214	 3.26170821928702E-03 
1215	 3.07088436555887E-03 
1216	 2.97983614603078E-03 
1217	 3.11193132045361E-03 
1218	 3.19162655671029E-03 
1219	 3.06984609239517E-03 
1220	 3.04029378585727E-03 
1221	 3.03778726368207E-03 
1222	 2.90922263500853E-03 
1223	 2.9655646239025E-03 
1224	 3.12639345180955E-03 
1225	 3.07107472805027E-03 
1226	 2.90867045813814E-03 
1227	 2.96671994464737E-03 
1228	 3.17693928584458E-03 
1229	 3.14667155064523E-03 
1230	 2.95701995894349E-03 
1231	 2.9305262602525E-03 
1232	 2.96565675204489E-03 
1233	 2.89294879061725E-03 
1234	 2.90386885324424E-03 
1235	 2.93195594837552E-03 
1236	 2.74925898418964E-03 
1237	 2.7161227035587E-03 
1238	 2.80169685408636E-03 
1239	 3.08399636380108E-03 
1240	 2.94236943690947E-03 
1241	 2.84077971555503E-03 
1242	 2.76776286933147E-03 
1243	 2.46965916450376E-03 
1244	 2.61871090276893E-03 
1245	 2.91495150974688E-03 
1246	 2.81885434143518E-03 
1247	 2.80746870782312E-03 
1248	 2.94042854107613E-03 
1249	 2.94226011236838E-03 
1250	 2.88554471479627E-03 
1251	 2.88652886670852E-03 
1252	 2.8207325211212E-03 
1253	 2.63752724253517E-03 
1254	 2.57968035112627E-03 
1255	 2.77832958294705E-03 
1256	 2.85687300725872E-03 
1257	 2.80745567327347E-03 
1258	 2.80284785998702E-03 
1259	 2.94124270034344E-03 
1260	 2.94936672281966E-03 
1261	 2.75698874876078E-03 
1262	 2.75449580885086E-03 
1263	 2.86794432893537E-03 
1264	 2.86857040268579E-03 
1265	 2.72070278779482E-03 
1266	 2.83430562382909E-03 
1267	 2.85210137933436E-03 
1268	 2.61002698015625E-03 
1269	 2.52290513673083E-03 
1270	 2.65160607411296E-03 
1271	 2.85757156981366E-03 
1272	 2.9473317051546E-03 
1273	 2.90290860740454E-03 
1274	 2.87188032830625E-03 
1275	 2.8076425034266E-03 
1276	 2.61437772837013E-03 
1277	 2.66818629451983E-03 
1278	 2.85597038458317E-03 
1279	 2.60025687327571E-03 
1280	 2.59087526326948E-03 
1281	 2.6715009113013E-03 
1282	 2.70884758925457E-03 
1283	 2.64898212064182E-03 
1284	 2.80572092271681E-03 
1285	 2.92890153352521E-03 
1286	 2.8889796534721E-03 
1287	 2.85255485174927E-03 
1288	 2.96932862964293E-03 
1289	 2.96183887330887E-03 
1290	 2.69113841844057E-03 
1291	 2.57547559083035E-03 
1292	 2.78754442646878E-03 
1293	 2.89689136537666E-03 
1294	 2.71223211135171E-03 
1295	 2.67667783052371E-03 
1296	 2.75983471232573E-03 
1297	 2.5897267085743E-03 
1298	 2.47007373920017E-03 
1299	 2.66141015021786E-03 
1300	 2.65673584961468E-03 
1301	 2.35084401317646E-03 
1302	 2.40062623198101E-03 
1303	 2.67797923359861E-03 
1304	 2.76145667813574E-03 
1305	 2.75514855311762E-03 
1306	 2.84945051707374E-03 
1307	 2.80580655762891E-03 
1308	 2.8631208855992E-03 
1309	 3.13370924843103E-03 
1310	 3.1745559662083E-03 
1311	 3.1149107623305E-03 
1312	 2.97007857017215E-03 
1313	 2.50233631002396E-03 
1314	 2.50217555122565E-03 
1315	 2.88121556768296E-03 
1316	 2.76033605589438E-03 
1317	 2.4403949698945E-03 
1318	 2.47861736166677E-03 
1319	 2.37922426713518E-03 
1320	 2.28181363457956E-03 
1321	 2.29094526552813E-03 
1322	 3.01583541513264E-03 
1323	 3.14994847701931E-03 
1324	 2.89484197414466E-03 
1325	 3.40726643309277E-03 
1326	 3.56251335391785E-03 
1327	 3.25719600057585E-03 
1328	 3.47842654199565E-03 
1329	 3.18163856839983E-03 
1330	 2.72347501207306E-03 
1331	 3.09925400789212E-03 
1332	 3.32679724629772E-03 
1333	 3.39834465066085E-03 
1334	 3.35510704877898E-03 
1335	 3.42066725557731E-03 
1336	 3.42970185572847E-03 
1337	 3.60916603709368E-03 
1338	 4.23606439872053E-03 
1339	 4.08528941951568E-03 
1340	 3.03558878438241E-03 
1341	 2.93220028881305E-03 
1342	 2.83067315200528E-03 
1343	 2.96030765990856E-03 
1344	 4.57963885590239E-03 
1345	 5.58636548035003E-03 
1346	 6.53423344494455E-03 
1347	 7.15748760651879E-03 
1348	 6.98327888311652E-03 
1349	 6.77064085032592E-03 
1350	 2.83337043641443E-03 
1351	 5.18630696485909E-04 
1352	 5.03417533339489E-03 
1353	 8.45339939028764E-03 
1354	 2.18306568918238E-02 
1355	 1.44041341743664E-02 
1356	 7.45526404933533E-03 
1357	 1.74162516321976E-02 
1358	 0.025783285272527 
1359	 5.47786718179012E-02 
1360	 0.113353678321007 
1361	 0.160698562548124 
1362	 0.20454486136855 
1363	 0.19805640719929 
1364	 0.11033399288308 
1365	 2.22704451158066E-02 
1366	-4.76288337460679E-02 
1367	-0.103263354018973 
1368	-0.10059818306353 
1369	-1.32536814430768E-02 
1370	 2.63505868576796E-02 
1371	 0.100225895217937 
1372	 0.248663221856582 
1373	 0.58508773124346 
1374	 0.493300815298889 
1375	 1.90494945697653E-02 
1376	 2.64647395244845E-02 
1377	 3.14639229475108E-02 
1378	-5.12421465980152E-02 
1379	 0.102896992147096 
1380	 0.205400763796559 
1381	 0.247997173119964 
1382	 0.130033241482901 
1383	-8.44281240963275E-02 
1384	-3.24135867734142E-02 
1385	 0.166864078687936 
1386	 6.62383001313315E-02 
1387	-1.83567016618452E-02 
1388	 5.74112196170402E-02 
1389	-0.106053984903415 
1390	-0.238094562413978 
1391	-0.16457104344017 
1392	-0.027297739688736 
1393	 8.98693524491844E-02 
1394	 2.36962702605308E-02 
1395	 1.36869957607499E-02 
1396	 0.212611266981786 
1397	 7.96176616072682E-02 
1398	-0.25332972482136 
1399	-0.203756447296317 
1400	-0.208817310035524 
1401	-0.231077529413166 
1402	-2.47410245138587E-02 
1403	-0.177071828467501 
1404	-0.351230883037224 
1405	-0.316117992209381 
1406	-9.22658455899766E-02 
1407	-2.60900801119349E-02 
1408	 0.109455136269621 
1409	 0.120293467488363 
1410	-5.47985392405714E-03 
1411	-1.95797933744799E-02 
1412	 3.05474722405636E-02 
1413	 6.24696529605366E-03 
1414	-8.10597675644367E-02 
1415	-9.48433836682387E-02 
1416	-0.115417579448615 
1417	-0.07636317979776 
1418	 5.49397062339937E-02 
1419	 5.17556712666517E-02 
1420	 2.30110788640368E-04 
1421	 4.36146331733285E-04 
1422	-2.10008258031674E-02 
1423	-1.45175094269617E-02 
1424	 2.88037152543952E-02 
1425	 3.39801743346919E-02 
1426	 0.021570377652695 
1427	 2.08445569039179E-02 
1428	 2.12135666645176E-02 
1429	 1.68982269072171E-02 
1430	 9.28608962991831E-03 
1431	 5.92820122888365E-03 
1432	-1.14900608735291E-03 
1433	-1.21649203069485E-03 
1434	 1.39296954507919E-02 
1435	 0.014392902328949 
1436	 4.65538202103792E-03 
1437	-1.93450139716185E-03 
1438	 2.38188419637724E-03 
1439	 8.09660756756419E-03 
1440	 1.12035849354169E-02 
1441	 1.01488819611045E-02 
1442	 4.59248409664167E-03 
1443	 3.52861951234285E-03 
1444	 4.77678671372839E-03 
1445	 3.32588628488814E-03 
1446	 4.03137988465483E-03 
1447	 6.06442108979876E-03 
1448	 3.86984491822443E-03 
1449	 3.45850347622539E-03 
1450	 6.27101128599798E-03 
1451	 6.52529572618068E-03 
1452	 5.0434461035819E-03 
1453	 3.40571065999628E-03 
1454	 4.0986775984844E-03 
1455	 3.6167866058993E-03 
1456	 2.5305141244672E-03 
1457	 3.32931877181809E-03 
1458	 3.45337921688993E-03 
1459	 1.25682452484422E-03 
1460	 9.42347738413375E-05 
1461	-4.21639628454622E-05 
1462	 1.40286348481462E-03 
1463	 3.91383910365767E-03 
1464	 3.37376342942088E-03 
1465	 2.27150420013069E-03 
1466	 3.73674930645245E-03 
1467	 4.96341476615912E-03 
1468	 3.23429339748402E-03 
1469	 2.71463540492396E-03 
1470	 3.3080615438996E-03 
1471	-3.48346633047046E-04 
1472	-1.54019164061722E-03 
1473	 2.06965278159946E-03 
1474	 2.82746776625358E-03 
1475	 7.44994046896582E-04 
1476	 3.7100217274004E-04 
1477	 1.51195461525911E-03 
1478	 2.24302672552409E-03 
1479	 2.51512586115389E-03 
1480	 2.62140787955964E-03 
1481	 2.89585621109942E-03 
1482	 3.25868012750493E-03 
1483	 3.86456032872746E-03 
1484	 3.46151543241349E-03 
1485	 2.72244379159547E-03 
1486	 2.32721065026381E-03 
1487	 1.1836803145228E-03 
1488	 9.26673534815596E-04 
1489	 1.46692517641485E-03 
1490	 1.57120689031268E-03 
1491	 1.67640597661138E-03 
1492	 1.83773898568434E-03 
1493	 1.68873714676761E-03 
1494	 1.80632190041618E-03 
1495	 2.52855130025093E-03 
1496	 2.56702085399064E-03 
1497	 2.07091536648679E-03 
1498	 2.14081741748123E-03 
1499	 2.36420729390157E-03 
1500	 2.11598824187029E-03 
1501	 1.8050114450034E-03 
1502	 1.91785415604327E-03 
1503	 1.87167682250929E-03 
1504	 1.81350256589078E-03 
1505	 2.13987625752913E-03 
1506	 2.41815948245565E-03 
1507	 2.17421645171132E-03 
1508	 2.03833129642266E-03 
1509	 2.16084850320528E-03 
1510	 2.26756106654574E-03 
1511	 2.11078418010209E-03 
1512	 1.97093755823427E-03 
1513	 2.16358955151072E-03 
1514	 2.21837723659724E-03 
1515	 2.18443494428964E-03 
1516	 2.43543279640687E-03 
1517	 2.42480180072161E-03 
1518	 2.19396409301219E-03 
1519	 2.38121802087743E-03 
1520	 2.5463515219853E-03 
1521	 2.33365887853663E-03 
1522	 2.2045374056694E-03 
1523	 2.27011599724115E-03 
1524	 2.21230017409491E-03 
1525	 2.1970633701134E-03 
1526	 2.31965729531701E-03 
1527	 2.16160243604252E-03 
1528	 1.92857274530794E-03 
1529	 2.0461581668345E-03 
1530	 2.24854645898471E-03 
1531	 2.35673305450894E-03 
1532	 2.43103009605217E-03 
1533	 2.33632052046533E-03 
1534	 2.38893126953914E-03 
1535	 2.41867188661856E-03 
1536	 2.14857654406078E-03 
1537	 2.2274162395318E-03 
1538	 2.35253896734364E-03 
1539	 2.29981000802132E-03 
1540	 2.54143087923146E-03 
1541	 2.71799831376069E-03 
1542	 2.5398699019783E-03 
1543	 2.22386662099624E-03 
1544	 2.15916858150854E-03 
1545	 2.28661155239762E-03 
1546	 2.25490454555367E-03 
1547	 2.33102119881089E-03 
1548	 2.42094392086974E-03 
1549	 2.26867084334199E-03 
1550	 2.16785060975424E-03 
1551	 2.21380047473663E-03 
1552	 2.31863531688326E-03 
1553	 2.44930817568496E-03 
1554	 2.4849195465977E-03 
1555	 2.42620723495967E-03 
1556	 2.36658681426821E-03 
1557	 2.39647234652859E-03 
1558	 2.43350317209109E-03 
1559	 2.18253735032427E-03 
1560	 2.10468837083742E-03 
1561	 2.19108152655948E-03 
1562	 1.95984406383627E-03 
1563	 2.01221471849897E-03 
1564	 2.28110094913671E-03 
1565	 2.32544373988286E-03 
1566	 2.36128415595367E-03 
1567	 2.44704888008647E-03 
1568	 2.43591105152426E-03 
1569	 2.33504815206235E-03 
1570	 2.36081258614028E-03 
1571	 2.26692249664319E-03 
1572	 2.08885412432212E-03 
1573	 2.26566700464874E-03 
1574	 2.32173839183412E-03 
1575	 2.01824477785486E-03 
1576	 2.06779499543932E-03 
1577	 2.2710347487459E-03 
1578	 2.03989084333919E-03 
1579	 2.02371914537283E-03 
1580	 2.33831681787652E-03 
1581	 2.27358722717071E-03 
1582	 2.11823884259102E-03 
1583	 2.27542496218926E-03 
1584	 2.29794388278383E-03 
1585	 2.10445410341562E-03 
1586	 2.05547683548838E-03 
1587	 2.19382424709463E-03 
1588	 2.39718024682273E-03 
1589	 2.3285346944566E-03 
1590	 2.15491416786842E-03 
1591	 2.36620530474773E-03 
1592	 2.44606525211503E-03 
1593	 2.36070512947723E-03 
1594	 2.68594210067113E-03 
1595	 2.63799448003682E-03 
1596	 2.17495188374799E-03 
1597	 2.3525318946778E-03 
1598	 2.53876986578555E-03 
1599	 2.21157159482138E-03 
1600	 2.1175799398981E-03 
1601	 2.21207468972653E-03 
1602	 2.10946567704835E-03 
1603	 2.00466080131704E-03 
1604	 2.19387792649707E-03 
1605	 2.40610068802942E-03 
1606	 2.22811822670857E-03 
1607	 2.1689457647863E-03 
1608	 2.42325328752984E-03 
1609	 2.29005892930572E-03 
1610	 2.09022719101476E-03 
1611	 2.21448519923389E-03 
1612	 2.29074853192477E-03 
1613	 2.57556819514003E-03 
1614	 2.93551192159718E-03 
1615	 2.83848432623242E-03 
1616	 2.48278183625462E-03 
1617	 2.31560818727473E-03 
1618	 2.36585635858314E-03 
1619	 2.47059257849385E-03 
1620	 2.50406412005638E-03 
1621	 2.21769263494955E-03 
1622	 2.01487540323185E-03 
1623	 2.16674531212434E-03 
1624	 2.23035939881964E-03 
1625	 2.30806749513716E-03 
1626	 2.36209419981009E-03 
1627	 2.26497678535659E-03 
1628	 2.38776512148167E-03 
1629	 2.48839362325559E-03 
1630	 2.32850937606052E-03 
1631	 2.14070313757322E-03 
1632	 2.17479300049805E-03 
1633	 2.38765808755841E-03 
1634	 2.32087740341235E-03 
1635	 2.23875588127448E-03 
1636	 2.22528673969135E-03 
1637	 1.97873982214274E-03 
1638	 2.04436435106854E-03 
1639	 2.44002256817412E-03 
1640	 2.40137868325483E-03 
1641	 2.15145162077317E-03 
1642	 2.25161948544025E-03 
1643	 2.14337950050056E-03 
1644	 1.91991399834012E-03 
1645	 2.3423491825673E-03 
1646	 2.58347349690008E-03 
1647	 2.20065285829882E-03 
1648	 2.29133139811968E-03 
1649	 2.52844076292651E-03 
1650	 2.11710144482099E-03 
1651	 1.75489091397215E-03 
1652	 1.85834447832435E-03 
1653	 2.31410054566083E-03 
1654	 2.37513880352157E-03 
1655	 2.4549071627874E-03 
1656	 2.6419575497886E-03 
1657	 2.58425595264955E-03 
1658	 2.41910511510636E-03 
1659	 2.40558554839399E-03 
1660	 2.4670200080678E-03 
1661	 2.35993398111254E-03 
1662	 2.24293127514456E-03 
1663	 2.30554699385521E-03 
1664	 2.29984210684183E-03 
1665	 1.93857700349157E-03 
1666	 0.001846219603794 
1667	 2.31215945245936E-03 
1668	 2.11888807658141E-03 
1669	 1.79464066966669E-03 
1670	 2.34982704009238E-03 
1671	 2.49843302339348E-03 
1672	 1.98866311968319E-03 
1673	 1.95568379996706E-03 
1674	 2.03010944430354E-03 
1675	 1.75875087252092E-03 
1676	 1.73709313915773E-03 
1677	 2.15093760268918E-03 
1678	 2.25539690648985E-03 
1679	 2.01017692846493E-03 
1680	 2.02760188730922E-03 
1681	 2.0682725056339E-03 
1682	 1.97856920325738E-03 
1683	 2.23925476279327E-03 
1684	 2.66708833933533E-03 
1685	 2.64594670726133E-03 
1686	 2.47974052210554E-03 
1687	 2.3748870520395E-03 
1688	 1.94926301343984E-03 
1689	 1.78361844460275E-03 
1690	 2.04866964121476E-03 
1691	 2.01611154603743E-03 
1692	 1.94509496250961E-03 
1693	 2.08920470515843E-03 
1694	 2.07237720831075E-03 
1695	 2.06817318339831E-03 
1696	 2.2002561629298E-03 
1697	 2.15715906209516E-03 
1698	 2.10706299780293E-03 
1699	 2.10651862426903E-03 
1700	 1.99365844836369E-03 
1701	 2.14809141962903E-03 
1702	 2.09361708345745E-03 
1703	 1.60777794388173E-03 
1704	 1.81974085776863E-03 
1705	 2.07401533613214E-03 
1706	 1.88596843848812E-03 
1707	 2.15623286991214E-03 
1708	 2.31424214161198E-03 
1709	 2.17855304623533E-03 
1710	 2.16936294028628E-03 
1711	 2.03861612919923E-03 
1712	 1.72431865449571E-03 
1713	 1.42891241239052E-03 
1714	 1.48543699691391E-03 
1715	 1.97334582155993E-03 
1716	 1.99063278494622E-03 
1717	 2.23182829800324E-03 
1718	 2.17084113913386E-03 
1719	 1.35298051381575E-03 
1720	 1.14605082084917E-03 
1721	 1.62537382023266E-03 
1722	 1.85267945377838E-03 
1723	 2.22201092478171E-03 
1724	 2.15784131869568E-03 
1725	 1.13924075469825E-03 
1726	 9.43615733145036E-04 
1727	 0.001530971529474 
1728	 1.58489112156091E-03 
1729	 1.71700639356692E-03 
1730	 1.83565481635742E-03 
1731	 1.26031722925875E-03 
1732	 1.51638426085058E-03 
1733	 2.48716381791236E-03 
1734	 2.32550617861802E-03 
1735	 1.90897832485775E-03 
1736	 1.86290419594124E-03 
1737	 1.50905060553994E-03 
1738	 1.55115926095008E-03 
1739	 2.20565517920804E-03 
1740	 2.2193536982005E-03 
1741	 1.94861783942356E-03 
1742	 2.13383578749199E-03 
1743	 1.87884923113232E-03 
1744	 1.77830935723129E-03 
1745	 2.22174838527898E-03 
1746	 2.35820892451864E-03 
1747	 2.34334818640641E-03 
1748	 2.00845807600717E-03 
1749	 2.07962692079553E-03 
1750	 2.39226098339965E-03 
1751	 2.36204327455615E-03 
1752	 2.50293702326778E-03 
1753	 2.44772668078318E-03 
1754	 1.76271579723234E-03 
1755	 1.72373281608243E-03 
1756	 2.25234288871205E-03 
1757	 1.80781893954655E-03 
1758	 1.84786589338319E-03 
1759	 2.49814956903261E-03 
1760	 2.53451812060967E-03 
1761	 1.46444360215501E-03 
1762	 1.12221700557042E-03 
1763	 1.97572830593023E-03 
1764	 1.83154694551846E-03 
1765	 1.77665381768712E-03 
1766	 2.55141212908579E-03 
1767	 1.44469231301816E-03 
1768	 6.45784658557994E-04 
1769	 2.01400735465798E-03 
1770	 2.34392630536566E-03 
1771	 2.14545715279627E-03 
1772	 2.75936314265173E-03 
1773	 2.40598225773321E-03 
1774	 2.06314951119659E-03 
1775	 1.80858752859115E-03 
1776	 1.42178057342084E-03 
1777	 1.72555723119943E-03 
1778	 1.83923669232206E-03 
1779	 1.09626066704171E-03 
1780	 1.32085323834678E-03 
1781	 3.09000320416933E-03 
1782	 2.88746299450788E-03 
1783	 1.22407492424523E-03 
1784	 1.89647891796875E-03 
1785	 2.88580757825045E-03 
1786	 2.58759090179121E-03 
1787	 3.81647690017451E-03 
1788	 4.29768320543767E-03 
1789	 1.90849900786421E-03 
1790	 2.37748436175315E-03 
1791	 2.96897100241264E-03 
1792	 1.77019637412018E-03 
1793	 1.53350400206974E-03 
1794	 2.73273741563454E-03 
1795	 1.97160245011735E-03 
1796	-7.49116337107379E-04 
1797	 1.031461265575E-04 
1798	 3.00329680881121E-03 
1799	 3.48558955864122E-03 
1800	-1.39265608689269E-02 
1801	-1.47191560587317E-02 
1802	 3.58068711219957E-03 
1803	 1.08242781591587E-02 
1804	 5.43526045320405E-02 
1805	 6.78245853000848E-02 
1806	-1.07015897722764E-02 
1807	-4.54098892988923E-02 
1808	-7.96136432541834E-02 
1809	-0.103710024518566 
1810	-1.71506071728509E-02 
1811	 2.50911711106323E-02 
1812	 4.69496173525958E-02 
1813	 6.44930150999887E-02 
1814	 3.00399378195528E-02 
1815	-2.57676586995814E-02 
1816	-0.142463985127439 
1817	-6.55729146167834E-02 
1818	-5.32048085849232E-02 
1819	 0.17078132074324 
1820	 0.150332828661879 
1821	-0.528010679442757 
1822	-0.668070762776106 
1823	-0.408946202289824 
1824	-0.345944531374672 
1825	 0.289991043615797 
1826	 0.528833992154488 
1827	 0.508642840028783 
1828	 0.253855224919765 
1829	-0.635743942128432 
1830	-0.348611559586471 
1831	 7.5279684239209 
1832	 4.50025234661341 
1833	 1.85626894017064 
1834	-79.368405053653 
1835	-3.20805155102623 
1836	-3.24192261454727 
1837	-1.92453117309619 
1838	-1.53215147548396 
1839	-1.80665521586581 
1840	-1.94314328813878 
1841	-0.883613873768066 
1842	-0.351114624731381 
1843	-0.615443871432407 
1844	-2.08299511071174 
1845	-2.26427931734105 
1846	-3823.81846131128 
1847	 4.6928868825098 
1848	-1.32649502943851 
1849	 2.09199644737764 
1850	 1.71313413442982 
1851	 0.648602207048066 
1852	 0.998113859407533 
1853	 0.203014138221555 
1854	 0.183119497442104 
1855	 1.36387373539246 
1856	 1.93804266716321 
1857	 3.3835504496281 
1858	 1.88823171207807 
1859	 5.39193780841066 
1860	 5.82550575539167 
1861	 1.81514001518545 
1862	-0.333703163010603 
1863	-4.17795615788145E-02 
1864	 0.283747683288087 
1865	 0.254903382844976 
1866	 0.366046547816308 
1867	 0.652365341696246 
1868	 0.359219082417645 
1869	 0.35373259722566 
1870	 0.631967033899323 
1871	-4.69986024584384 
1872	-1.16835411837855 
1873	-0.269628894529332 
1874	 0.469518363822115 
1875	-0.873621193688831 
1876	-1.21831938645513 
1877	 0.879050949283542 
1878	 1.39204601001065 
1879	 0.750419741082475 
1880	 0.668168415805209 
1881	-5.88966318601844 
1882	-1.19660491555624 
1883	-0.863602389504225 
1884	-2.06624050891194 
1885	-5.69449537920688 
1886	-18.827998365131 
1887	 1.18761661607819 
1888	 0.564578172423842 
1889	 0.48945243104508 
1890	 0.175170028547577 
1891	 0.224759040004362 
1892	-7.01551657446295 
1893	-1.09558311119215 
1894	-1.15929411061393 
1895	-1.41578519123466 
1896	 0.72695744762215 
1897	-0.625745285969804 
1898	-0.752555885458177 
1899	 3.27180164750907 
1900	 2.30093358565134 
1901	 3.55478213101489 
1902	 8.77204716316645 
1903	-0.892084940826956 
1904	-1.31503007209805 
1905	-0.746925979663369 
1906	-2.19919329554675 
1907	-418.153176190296 
1908	 8.00866669196251 
1909	 2.51821330457747 
1910	 16.6932277780386 
1911	-0.825943250380246 
1912	 0.190702293917737 
1913	 0.345090187155214 
1914	-0.334542690982885 
1915	-0.556705312820982 
1916	-0.809627738810918 
1917	-0.654563297589546 
1918	-0.729774354862049 
1919	 0.756264806035128 
1920	 22.1517554538001 
1921	 1.47057157337453 
1922	 1.09321066293379 
1923	 0.564351434799129 
1924	 0.227126048708778 
1925	 0.176810393758855 
1926	 9.02386076514382E-02 
1927	-0.217559075477703 
1928	-1.21688359773649 
1929	-0.197403647675186 
1930	-0.459864185669533 
1931	-0.110769535388441 
1932	-7.05355051789457E-03 
1933	-4.0935264666626E-03 
1934	 4.48908898424695E-02 
1935	 0.116546243562459 
1936	 7.13360766319193E-02 
1937	 0.140241435592033 
1938	 0.232551120916601 
1939	 0.18551405506873 
1940	 4.37326188998897E-02 
1941	 4.35402363641935E-02 
1942	 3.29895970521624E-02 
1943	-9.75098901295679E-03 
1944	 5.32432423870477E-02 
1945	 7.43592298857635E-02 
1946	 7.84426912537265E-02 
1947	 7.69118309071776E-02 
1948	 1.22172157437499E-02 
1949	-1.09797171797311E-02 
1950	-2.85149526323631E-02 
1951	-3.07829728600487E-02 
1952	-2.29462698144757E-02 
1953	 0.011473844032078 
1954	 1.38905460729681E-03 
1955	-7.7971029196325E-03 
1956	-4.12685725184936E-03 
1957	 1.54968867952338E-04 
1958	 2.30410930980272E-03 
1959	 2.33195762961437E-03 
1960	 1.14993166204724E-02 
1961	 1.22966841117894E-02 
1962	 6.17277487484006E-03 
1963	 6.26108573964295E-03 
1964	 4.12243332414518E-03 
1965	 7.18499735259898E-04 
1966	-2.85335790106623E-04 
1967	 1.34537420057804E-03 
1968	 1.96709215703197E-03 
1969	 1.01698777431624E-03 
1970	 2.00188957434435E-04 
1971	 9.91947139606353E-04 
1972	 2.47818695443301E-03 
1973	 2.39145387186887E-03 
1974	 1.95079817078189E-03 
1975	 0.001175299102745 
1976	-7.57851731284002E-04 
1977	-2.25860796419912E-03 
1978	-1.43318906681965E-03 
1979	-9.23394869993816E-04 
1980	-2.56263857198695E-05 
1981	-4.8633775423542E-05 
1982	 5.20666000108714E-04 
1983	 1.50484645738566E-03 
1984	 2.22409476680927E-03 
1985	 1.92730166151627E-03 
1986	 2.62659037239683E-03 
1987	 2.78426990958607E-03 
1988	 4.1609120388641E-04 
1989	 3.30806652379466E-04 
1990	 1.12967821407173E-03 
1991	 7.89685261084635E-04 
1992	 1.80863489874556E-03 
1993	 2.66669463422371E-03 
1994	 3.35979288076268E-03 
1995	 3.8746947270583E-03 
1996	 4.07568403748796E-03 
1997	 2.89016898234454E-03 
1998	 2.89697808167742E-03 
1999	 2.4401798317998E-03 
2000	 2.06872776439682E-03 
2001	 5.42507166804464E-03 
2002	 6.21840525616678E-03 
2003	 4.83708914576525E-03 
2004	 4.09028521176359E-03 
2005	 1.41825321541068E-03 
2006	 2.81284613973064E-03 
2007	 4.87878129183443E-03 
2008	 1.65016743995751E-03 
2009	 1.20337227026147E-03 
2010	 6.76874396684188E-04 
2011	 5.86137981424644E-04 
2012	 1.37546976842092E-03 
2013	 3.64873445158221E-03 
2014	 2.19277432687247E-03 
2015	 1.50961930502204E-03 
2016	 2.17346194423927E-03 
2017	 1.16209423184859E-03 
2018	 1.25094337632086E-03 
2019	-1.14999179495276E-04 
2020	-7.90347560387685E-04 
2021	 1.11571787958798E-04 
2022	-1.04269472487482E-04 
2023	-1.10528321664799E-05 
2024	 4.46434192180439E-05 
2025	-8.96762876665362E-04 
2026	-1.25118378288047E-03 
2027	-1.2077290720174E-03 
2028	-7.03103043972257E-04 
2029	-4.45528850239076E-04 
2030	 2.2635191422093E-04 
2031	 1.07872610055223E-03 
2032	 1.15002089846579E-03 
2033	 1.48118011604379E-03 
2034	 1.05993549070923E-03 
2035	 4.08684067222124E-04 
2036	 3.05146158463499E-04 
2037	 1.57631643628231E-04 
2038	-1.17631437584678E-04 
2039	-4.28178185693554E-04 
2040	-5.81509271455059E-04 
2041	-5.34965477683636E-04 
2042	-7.07373829086827E-04 
2043	-4.20787779761881E-04 
2044	 7.54224669254725E-04 
2045	 9.612677841706E-04 
2046	 6.87174719542979E-04 
2047	 9.44924148743274E-04 
2048	 6.14375786938555E-04 
2049	 8.48820695839506E-04 
2050	 2.56558551140583E-03 
2051	 2.22966181156948E-03 
2052	 6.73738606671633E-04 
2053	 7.14227836034946E-04 
2054	 5.25010240498714E-04 
2055	 5.29999244290658E-04 
2056	 5.70706650049321E-04 
2057	 1.18112312032196E-03 
2058	 1.58140226055868E-03 
2059	 2.0426016811251E-03 
2060	 1.97291969024837E-03 
2061	 1.87663511491406E-03 
2062	 2.17078362552907E-03 
2063	 1.54945560184198E-03 
2064	 1.79309998171978E-04 
2065	-2.89072422546476E-04 
2066	-5.39009018668957E-04 
2067	-8.70664917988281E-04 
2068	 4.89320767740556E-05 
2069	 1.16310275431982E-03 
2070	 1.52103059183249E-03 
2071	 1.38278866092817E-03 
2072	 3.4797807434596E-04 
2073	-2.40657549176349E-04 
2074	-1.3537739873114E-03 
2075	-1.25011653056334E-03 
2076	-2.62170963438386E-04 
2077	 1.30779630379725E-04 
2078	 8.95915568122688E-04 
2079	 1.00780275923472E-03 
2080	 4.87373806227792E-04 
2081	 1.49764069775501E-04 
2082	 7.65030015446893E-04 
2083	 1.16812546986463E-03 
2084	 8.31215808596871E-04 
2085	 1.21149967181368E-03 
2086	 1.50711766585944E-03 
2087	 9.39531710611376E-04 
2088	 8.67484469919631E-04 
2089	 1.24150115263509E-03 
2090	 7.42721877748634E-04 
2091	-1.01926201138197E-04 
2092	-3.86713082990818E-04 
2093	-1.9053720288423E-04 
2094	-1.23432641826841E-04 
2095	 2.13045237825649E-04 
2096	 1.03706199822157E-04 
2097	-5.97762599591441E-04 
2098	-6.57420475874325E-04 
2099	-9.98017985706258E-04 
2100	-1.77811964033628E-04 
2101	 7.86072593217107E-04 
2102	 1.3935269049844E-03 
2103	 1.22759098908058E-03 
2104	 9.09881509219569E-04 
2105	 1.02598604241076E-03 
2106	 1.59865992691943E-03 
2107	 2.52004843627446E-03 
2108	 2.58863586729068E-03 
2109	 1.86271687231966E-03 
2110	 8.22612893200972E-04 
2111	 4.72616526587012E-04 
2112	 3.11892512200377E-05 
2113	-3.94713210735488E-05 
2114	 1.14526363638084E-03 
2115	 1.34008707693235E-03 
2116	 8.6477269433286E-04 
2117	 1.05081470534994E-03 
2118	 1.0296722705123E-03 
2119	 1.2583883975043E-03 
2120	 2.13903554669649E-03 
2121	 2.42411877173019E-03 
2122	 2.35764533893362E-03 
2123	 2.68969260844162E-03 
2124	 2.35988525018565E-03 
2125	 1.80663245382186E-03 
2126	 1.97903148555302E-03 
2127	 2.27662714654885E-03 
2128	 2.1213356493272E-03 
2129	 2.24129786114778E-03 
2130	 2.90745946802324E-03 
2131	 2.53241271479223E-03 
2132	 1.13784023746278E-03 
2133	 8.78058319566165E-04 
2134	 9.0542964082139E-04 
2135	 4.33834718203617E-04 
2136	 6.15778660243481E-04 
2137	 2.76683591520637E-03 
2138	 2.75680876964265E-03 
2139	 1.28892863209301E-03 
2140	 9.65848810555354E-04 
2141	-1.40826414769178E-04 
2142	-1.66112048513727E-04 
2143	 1.12127832663224E-03 
2144	 1.93013909068019E-03 
2145	 2.1625011733883E-03 
2146	 1.86134669412605E-03 
2147	 1.03660822407016E-03 
2148	 7.73444094812725E-04 
2149	 1.03160553661197E-03 
2150	 1.25767210336557E-03 
2151	 1.27015090826895E-03 
2152	 1.22000562840847E-03 
2153	 1.47189675323097E-03 
2154	 2.42368888801436E-03 
2155	 2.60647860767196E-03 
2156	 1.8944430502215E-03 
2157	 1.78616434718033E-03 
2158	 1.09762835545903E-03 
2159	 1.10491767528093E-03 
2160	 2.06917851626532E-03 
2161	 2.31562689266508E-03 
2162	 2.4264776900034E-03 
2163	 1.8120927503921E-03 
2164	 3.76539902199403E-04 
2165	 3.12810554802946E-07 
2166	-4.21503405990566E-04 
2167	-5.63951532541658E-04 
2168	 3.4100880907382E-04 
2169	 5.12653653543794E-04 
2170	 3.71944364232364E-04 
2171	-1.42164500538772E-04 
2172	-4.43103912738799E-04 
2173	-9.22337253513213E-05 
2174	 7.02224037343325E-04 
2175	 1.20760726695702E-03 
2176	 8.81530115177811E-04 
2177	 4.70601323663887E-04 
2178	 2.71046924468425E-04 
2179	-8.35860433826858E-04 
2180	-2.3645245073904E-03 
2181	-1.87433762036276E-03 
2182	 8.99797242698105E-05 
2183	 1.36081688011736E-03 
2184	 1.2544126771768E-03 
2185	 8.70225197173693E-04 
2186	 9.09244449323378E-04 
2187	-1.23727584982246E-03 
2188	-1.60435817264579E-03 
2189	 8.19677677606281E-04 
2190	 9.95955850328948E-04 
2191	-7.9351013482748E-04 
2192	-6.0516061471304E-04 
2193	 8.97415501063711E-04 
2194	 8.57581635747669E-04 
2195	 8.78505423636124E-04 
2196	 4.63426735090897E-04 
2197	-2.31934726357562E-03 
2198	-3.12368718122812E-03 
2199	-2.95269887636004E-03 
2200	-1.97595101260604E-03 
2201	-9.45500603865709E-04 
2202	 1.1029737189759E-03 
2203	 2.09935538781722E-03 
2204	 1.21070514222582E-03 
2205	 6.67242815596638E-04 
2206	 2.47122136977334E-04 
2207	 3.71599819738614E-05 
2208	 9.5781758364801E-04 
2209	 2.22390977191251E-03 
2210	 2.7287724830787E-03 
2211	 2.21137639428329E-03 
2212	 2.47720103437555E-03 
2213	 2.92970561154782E-03 
2214	 2.08592689465206E-03 
2215	 6.69223768852777E-04 
2216	-2.01827841162472E-04 
2217	-1.99392750811858E-05 
2218	 2.761502509981E-04 
2219	 7.3906055911253E-04 
2220	 3.02003981881154E-03 
2221	 3.70377606697132E-03 
2222	 4.07414497550806E-03 
2223	 3.5474174964095E-03 
2224	 1.00544509073203E-03 
2225	 6.61687315283537E-04 
2226	 4.38341813240742E-04 
2227	-1.96002497932248E-04 
2228	 2.05824041605031E-03 
2229	 2.06147747049803E-03 
2230	-1.88138411587032E-03 
2231	-2.48122063089653E-03 
2232	-2.29292940151028E-03 
2233	-1.89320188832047E-03 
2234	-2.52852358723752E-04 
2235	 3.97325419324203E-03 
2236	 4.46279520459139E-03 
2237	 4.48518518513293E-03 
2238	 5.15699193314237E-03 
2239	 4.46022437361016E-03 
2240	 4.04931662736265E-03 
2241	 3.19977625610973E-03 
2242	-5.64062691871146E-05 
2243	-2.22607460761193E-03 
2244	-1.64157070298123E-03 
2245	-2.2747114475245E-04 
2246	 2.49620884942622E-03 
2247	 4.02715574515681E-03 
2248	 2.49059999668035E-03 
2249	 2.43116601490716E-04 
2250	-9.15684095332606E-04 
2251	-2.36381395334826E-03 
2252	-2.86192954189406E-03 
2253	-1.16684585548844E-03 
2254	 3.26778781563145E-05 
2255	-6.04046191293696E-04 
2256	-1.71457078932997E-03 
2257	-6.09130001221184E-04 
2258	 6.09419219387952E-04 
2259	 2.92557341791777E-03 
2260	 3.67550757144515E-03 
2261	 3.66457234292243E-03 
2262	 3.09322001127266E-03 
2263	 6.59164289099111E-04 
2264	 5.8182334833827E-04 
2265	 2.17331794187081E-03 
2266	 2.7290186414534E-03 
2267	 4.15892707555118E-03 
2268	 3.89452788282069E-03 
2269	 2.05345095872467E-03 
2270	 2.01690378153872E-03 
2271	 1.29505844810206E-03 
2272	 1.57671719478855E-03 
2273	 4.34032542179717E-03 
2274	 4.77577312014007E-03 
2275	 4.28438802110135E-03 
2276	 4.29307349060028E-03 
2277	 2.2186657571596E-03 
2278	 2.11595092371604E-03 
2279	 5.20350350245101E-03 
2280	 5.03912776497968E-03 
2281	 2.99406213425048E-03 
2282	 2.78145278120343E-03 
2283	 4.33864239593224E-03 
2284	 5.7749004187081E-03 
2285	 6.70791762200266E-03 
2286	 7.76789549645809E-03 
2287	 5.87012845457427E-03 
2288	 2.9008012541435E-03 
2289	 1.76675706239072E-03 
2290	 1.56880464948834E-03 
2291	 2.06721708653385E-03 
2292	-3.26203810432857E-04 
2293	-3.28094053167603E-03 
2294	-9.90760682890711E-04 
2295	 1.4109081069079E-04 
2296	-1.71666554870843E-03 
2297	 1.83354372423982E-03 
2298	 3.5549367750594E-03 
2299	 2.74455847853052E-03 
2300	 5.39753137418622E-03 
2301	 5.12472248414427E-03 
2302	 2.20725860921552E-03 
2303	 5.34725727380835E-04 
2304	-9.26323729921371E-04 
2305	-2.70256977790641E-03 
2306	-1.53813967284591E-03 
2307	-9.2341535011559E-04 
2308	-3.01242080961398E-03 
2309	-3.09285447914784E-03 
2310	-3.15801864698394E-03 
2311	-3.27096255527787E-03 
2312	-4.46334232710323E-04 
2313	 1.72819541722808E-03 
2314	 1.95089173968928E-03 
2315	 4.57262682376726E-03 
2316	 6.17898735144984E-03 
2317	 4.9727417883954E-03 
2318	 3.74345915605288E-03 
2319	-1.25665145581271E-03 
2320	-6.34555987251603E-03 
2321	-6.75223228333763E-03 
2322	-4.18541781152984E-03 
2323	-1.87355091967331E-03 
2324	-1.10071011985233E-03 
2325	-9.54864021577816E-04 
2326	-6.24794951040193E-03 
2327	-9.07335351708153E-03 
2328	-6.16806602425097E-03 
2329	-5.87668134544862E-03 
2330	-5.60899784747304E-03 
2331	-5.07066052280606E-03 
2332	-9.18177180153503E-03 
2333	-1.32665788716488E-02 
2334	-9.2667827335229E-03 
2335	-4.31395296390665E-03 
2336	-6.38929108100948E-04 
2337	-1.69452757101684E-03 
2338	-5.83895036133029E-03 
2339	-7.61100958779756E-03 
2340	-1.62762857650619E-02 
2341	-2.02713958429514E-02 
2342	-1.67493817638884E-02 
2343	-1.26544765594903E-02 
2344	-3.11778066276593E-03 
2345	 0.012332494952019 
2346	 2.53990611340003E-02 
2347	 2.54237026522084E-02 
2348	 1.93870405363716E-02 
2349	 9.19431615620782E-03 
2350	-9.18370245395434E-04 
2351	-8.10359610180919E-03 
2352	-1.36117764009205E-02 
2353	-1.30081406356931E-02 
2354	-8.65091373364228E-03 
2355	-1.03910412524463E-03 
2356	 3.2760651560092E-03 
2357	 1.33038610663931E-03 
2358	-1.33950317979874E-02 
2359	-2.70359166629089E-02 
2360	-2.24240589309823E-02 
2361	-1.60756249730586E-02 
2362	-7.65893461830926E-03 
2363	-7.25110573889514E-03 
2364	-1.72971555442391E-02 
2365	-2.61043762099122E-02 
2366	-3.56783029436615E-02 
2367	-3.14641810915768E-02 
2368	-2.65831126608785E-02 
2369	-3.24477717647249E-02 
2370	-0.028449105112998 
2371	-2.50903968006119E-02 
2372	-0.029604932253328 
2373	-1.91844952456031E-02 
2374	-9.6856534504645E-03 
2375	-1.22248521421137E-02 
2376	-5.38328175217471E-03 
2377	-6.72131373467899E-03 
2378	-1.50671958949164E-02 
2379	-6.58171072161174E-03 
2380	-1.25672322422395E-02 
2381	-2.69479592621522E-02 
2382	-1.91249406021356E-02 
2383	-0.039955247281561 
2384	-6.81427318993385E-02 
2385	-4.80315840186665E-02 
2386	-4.31189116726089E-02 
2387	-0.035701784039223 
2388	 2.80432680498079E-03 
2389	 1.14314900814361E-02 
2390	-1.16279200781387E-03 
2391	 3.41466710810931E-03 
2392	 5.02373337763588E-03 
2393	-1.73974881633658E-02 
2394	-1.82938782505255E-02 
2395	 1.81636906085356E-02 
2396	 0.053999723091782 
2397	 4.49118784518137E-02 
2398	 2.58785927630023E-02 
2399	 2.85536488699368E-03 
2400	-5.13060144753189E-02 
2401	-4.31082956491435E-02 
2402	-3.95216895654254E-04 
2403	-1.59867057292777E-02 
2404	-4.62564769489643E-02 
2405	-6.80092806662502E-02 
2406	-0.084763220808112 
2407	-7.87576883898914E-02 
2408	-0.023889852076592 
2409	 2.90968817782619E-03 
2410	 8.73721069193083E-03 
2411	 3.31099664772263E-02 
2412	-7.38025948418148E-03 
2413	-8.45653214309258E-02 
2414	-9.45026592424396E-02 
2415	-0.11837804595389 
2416	-9.08221631354168E-02 
2417	 4.20839961040263E-02 
2418	 5.61716931886325E-02 
2419	-9.94485846356698E-02 
2420	-0.137380787510516 
2421	-0.149162197482286 
2422	-0.161779220473114 
2423	-0.081299809201025 
2424	-2.91019101171109E-02 
2425	 8.17127975728799E-03 
2426	 0.050712399853204 
2427	 4.08367931769677E-02 
2428	 0.017930965301978 
2429	-3.36896006762023E-02 
2430	-0.101027228734677 
2431	-9.52211327232339E-02 
2432	 3.21845698967842E-02 
2433	 8.53695261313673E-02 
2434	 0.116357730942468 
2435	 9.33593554624839E-02 
2436	-0.108942699057776 
2437	-0.135103662370482 
2438	-8.82050573787152E-02 
2439	 1.35260101447157E-02 
2440	 0.126601036225575 
2441	 8.83957774663458E-02 
2442	 1.79940999299638E-02 
2443	-4.35386788449414E-02 
2444	 2.28247834661197E-03 
2445	 0.113004667834505 
2446	 9.41383106760998E-02 
2447	 0.362799513127926 
2448	-0.566954752331068 
2449	 0.544604072147477 
2450	 0.599220109264446 
2451	 1.24903749313854 
2452	 2.00512096753953 
2453	 3.45715739581401 
2454	-141.329203525194 
2455	-2.32675805064861 
2456	-0.923096457750361 
2457	-0.484172143221483 
2458	-0.419310438973898 
2459	-0.366203255669898 
2460	-0.389341256935787 
2461	-0.505883570693066 
2462	-0.737819679065261 
2463	-0.536792008811475 
2464	-0.323863551601679 
2465	-3.78665295805462E-02 
2466	 2.99560234971844 
2467	-2.21264841385159 
2468	-0.655719040082927 
2469	-9.47160446713275 
2470	 1.29713245821671 
2471	 0.461925402612146 
2472	 0.217446536406589 
2473	 0.49977162727673 
2474	 0.875401924328561 
2475	 1.94980772913745 
2476	 1.44223776467151 
2477	 0.742718933171714 
2478	 0.25598510959802 
2479	-0.112358157914011 
2480	-1.0473460747732 
2481	-0.162337923176575 
2482	 0.320334444583198 
2483	 0.387444633668669 
2484	 0.903927772481488 
2485	 0.824628662620975 
2486	 0.597331473752543 
2487	 0.543626839931102 
2488	 0.151472684545093 
2489	-0.14512378323116 
2490	 6.23555843170909E-04 
2491	 0.719093362017665 
2492	 1.34914257638218 
2493	 0.886660572955081 
2494	 0.892453509834726 
2495	 0.219162275399786 
2496	 0.193028713312168 
2497	 0.794124376295242 
2498	 0.510630587616603 
2499	-0.168949594580623 
2500	 0.39015199416027 
