Wavelength	rt0722east_close00009.asd
350	 2.55615333096768E-02 
351	 0.024782032641294 
352	 2.39764896749846E-02 
353	 2.39689017265642E-02 
354	 2.48039170290699E-02 
355	 2.52373332076071E-02 
356	 2.49239225964062E-02 
357	 2.46993124797063E-02 
358	 2.53227437762863E-02 
359	 2.55267043587495E-02 
360	 2.54440697390113E-02 
361	 2.53587663669043E-02 
362	 2.55477078233469E-02 
363	 2.54336109279119E-02 
364	 2.53707556332154E-02 
365	 2.54896103162927E-02 
366	 2.54112508294692E-02 
367	 2.56195995908318E-02 
368	 2.57571673103905E-02 
369	 2.55380013945405E-02 
370	 2.56580252529288E-02 
371	 2.62523869285673E-02 
372	 2.67145852151194E-02 
373	 2.62572799627902E-02 
374	 2.65375197415416E-02 
375	 2.66273066070962E-02 
376	 2.62735427379068E-02 
377	 2.64809788701527E-02 
378	 2.71219586814051E-02 
379	 2.73775467329773E-02 
380	 2.69143601459153E-02 
381	 2.73791941262632E-02 
382	 2.77804244564428E-02 
383	 2.78918976629912E-02 
384	 2.79430978837041E-02 
385	 2.85183770411366E-02 
386	 2.89177445026371E-02 
387	 0.028850671110054 
388	 2.86233727114068E-02 
389	 2.89909659144446E-02 
390	 0.029329938167554 
391	 2.93035838960345E-02 
392	 2.99776153291198E-02 
393	 3.04651310627671E-02 
394	 3.06453797342722E-02 
395	 3.07108939709674E-02 
396	 3.07639962865405E-02 
397	 3.08191681952918E-02 
398	 3.08741529320334E-02 
399	 3.09208400264172E-02 
400	 3.09540446263895E-02 
401	 0.031151669391509 
402	 3.15504596367425E-02 
403	 3.18662020240186E-02 
404	 3.19164579742848E-02 
405	 3.18809803463199E-02 
406	 3.20336132341411E-02 
407	 3.22883118906205E-02 
408	 3.24205709680089E-02 
409	 3.24886160125963E-02 
410	 3.28025551188327E-02 
411	 3.28414928943898E-02 
412	 3.29572558633401E-02 
413	 3.33543989482247E-02 
414	 3.35062316672122E-02 
415	 3.37882624048425E-02 
416	 3.40992015173519E-02 
417	 0.034207561491474 
418	 0.034306730137478 
419	 3.44696567265816E-02 
420	 3.47465124864265E-02 
421	 3.51656495460048E-02 
422	 3.54949632464806E-02 
423	 3.57108153368813E-02 
424	 3.58721704695461E-02 
425	 3.60981614216513E-02 
426	 3.64847062950551E-02 
427	 3.69676362055551E-02 
428	 3.73956577745926E-02 
429	 3.76824451322822E-02 
430	 3.79674596633649E-02 
431	 3.82764344509365E-02 
432	 3.84792365108548E-02 
433	 3.87733360922961E-02 
434	 0.039102679902716 
435	 3.93960922731894E-02 
436	 3.96936881061121E-02 
437	 4.01774099225282E-02 
438	 4.07087888832641E-02 
439	 4.10061578835036E-02 
440	 4.12112310029163E-02 
441	 4.15296678402039E-02 
442	 4.19844307265363E-02 
443	 4.23295312284184E-02 
444	 4.26410401270382E-02 
445	 4.29424791395873E-02 
446	 4.32364774713412E-02 
447	 4.34742727091657E-02 
448	 4.37791557797232E-02 
449	 0.044129621236526 
450	 4.43971380960778E-02 
451	 4.45419653014533E-02 
452	 4.47319991457158E-02 
453	 0.045039454664563 
454	 4.52867311899689E-02 
455	 4.55107413314004E-02 
456	 4.56651344628782E-02 
457	 4.57348475532021E-02 
458	 4.59857591303088E-02 
459	 4.62273361576418E-02 
460	 4.63826947804578E-02 
461	 4.65143042434095E-02 
462	 4.66616764182243E-02 
463	 4.68762307623349E-02 
464	 4.71381412732734E-02 
465	 4.72325440055263E-02 
466	 0.047345866086695 
467	 4.75308760631408E-02 
468	 4.77677227284721E-02 
469	 4.80365816448265E-02 
470	 4.82238879693201E-02 
471	 4.83296671544212E-02 
472	 4.85091442068638E-02 
473	 4.87389452606024E-02 
474	 0.048934473275759 
475	 4.90570015628078E-02 
476	 4.92863072439953E-02 
477	 4.95790777259644E-02 
478	 4.98618679808297E-02 
479	 5.00598549824665E-02 
480	 5.03075984820285E-02 
481	 5.05463608012814E-02 
482	 5.07614377353262E-02 
483	 5.10800776102077E-02 
484	 5.14204327452419E-02 
485	 5.17427305168428E-02 
486	 5.20457598893641E-02 
487	 5.24532181002095E-02 
488	 5.28013960002115E-02 
489	 5.30941470695046E-02 
490	 5.35002142832418E-02 
491	 5.38122732009971E-02 
492	 5.41533995765716E-02 
493	 5.46107908294141E-02 
494	 5.50113433047797E-02 
495	 5.53825826114683E-02 
496	 5.57855909592548E-02 
497	 0.056280024623697 
498	 5.67240349334115E-02 
499	 5.71505594041502E-02 
500	 5.75981243151509E-02 
501	 5.80828595416594E-02 
502	 5.86152828354416E-02 
503	 5.91426658752572E-02 
504	 5.96233112398279E-02 
505	 6.01332037732846E-02 
506	 6.05980471317116E-02 
507	 0.061041694549344 
508	 6.15579567476796E-02 
509	 6.20398921048381E-02 
510	 6.25120961897423E-02 
511	 6.30287564776861E-02 
512	 6.36864486189882E-02 
513	 6.42550210141141E-02 
514	 6.47584873768977E-02 
515	 6.53270842698648E-02 
516	 6.59725611626588E-02 
517	 6.66314118077516E-02 
518	 6.72766244361538E-02 
519	 6.79402339667695E-02 
520	 6.86053538282746E-02 
521	 6.92147901445443E-02 
522	 6.97731274426283E-02 
523	 0.070515590385812 
524	 7.12083543021117E-02 
525	 7.18407175086005E-02 
526	 7.25546774893194E-02 
527	 7.32396688553194E-02 
528	 7.38942196360735E-02 
529	 0.074542555652316 
530	 7.52362797764505E-02 
531	 7.58829877384065E-02 
532	 7.65653656462564E-02 
533	 7.73765076734804E-02 
534	 7.80784752718519E-02 
535	 7.87616431451581E-02 
536	 7.94691778212075E-02 
537	 8.01620305872629E-02 
538	 8.09813528972773E-02 
539	 0.081811077947023 
540	 8.25364246840924E-02 
541	 8.32566087882641E-02 
542	 8.40201459358437E-02 
543	 8.48022768363004E-02 
544	 8.55424550503701E-02 
545	 8.63006541729803E-02 
546	 8.70841031527319E-02 
547	 8.78694310282091E-02 
548	 8.85848258622774E-02 
549	 8.93512905133657E-02 
550	 9.01148728959007E-02 
551	 9.07980760454823E-02 
552	 9.15604394538457E-02 
553	 9.23090403106761E-02 
554	 9.30297324648459E-02 
555	 9.38064972654304E-02 
556	 9.45334403691488E-02 
557	 9.52611871381888E-02 
558	 9.60345969893408E-02 
559	 9.67886356401871E-02 
560	 9.74758217264041E-02 
561	 9.81070405687911E-02 
562	 9.87345930771105E-02 
563	 9.93721215884579E-02 
564	 0.100000036677088 
565	 0.100582123431798 
566	 0.101057190317079 
567	 0.10152666095334 
568	 0.102038660867615 
569	 0.102583812492283 
570	 0.102982423810293 
571	 0.103335149687165 
572	 0.103708317861501 
573	 0.104108191136788 
574	 0.104478508201566 
575	 0.104805602763994 
576	 0.105094711813224 
577	 0.105384273295856 
578	 0.1056296233485 
579	 0.105808364986348 
580	 0.105925016746041 
581	 0.106090451737005 
582	 0.106170653152763 
583	 0.106138018285339 
584	 0.106223884354968 
585	 0.106146884608412 
586	 0.106017068141689 
587	 0.106010295611348 
588	 0.105797958145756 
589	 0.105571395989237 
590	 0.105394825136739 
591	 0.105145257775442 
592	 0.104919753509665 
593	 0.104660846798139 
594	 0.104283987440583 
595	 0.103696651102584 
596	 0.103038195853814 
597	 0.102350202220604 
598	 0.101620352940349 
599	 0.100841503979797 
600	 0.100207409891814 
601	 9.97853910930324E-02 
602	 0.099384548886616 
603	 9.91373691547663E-02 
604	 9.90294991967563E-02 
605	 0.099008123472597 
606	 9.90816331017701E-02 
607	 9.91003488401585E-02 
608	 9.90542635182533E-02 
609	 0.099085033460887 
610	 9.92730346993801E-02 
611	 9.94038119092377E-02 
612	 9.93339164188551E-02 
613	 9.93023286428066E-02 
614	 9.93325128125687E-02 
615	 0.099370435758257 
616	 9.93349101585058E-02 
617	 9.94125736454592E-02 
618	 9.93845612612124E-02 
619	 9.92387439228872E-02 
620	 9.93665850905892E-02 
621	 9.94341189214401E-02 
622	 9.94196046557149E-02 
623	 0.099403348904482 
624	 9.94615461153095E-02 
625	 9.93891756771228E-02 
626	 9.92760941772983E-02 
627	 0.099468262948564 
628	 9.94256232267803E-02 
629	 9.93362588317005E-02 
630	 9.93832272584955E-02 
631	 9.93589910600711E-02 
632	 9.92853502608516E-02 
633	 9.92187285021687E-02 
634	 9.92164508401389E-02 
635	 9.91698896589289E-02 
636	 9.90730936672417E-02 
637	 9.89850802953087E-02 
638	 9.90450896187629E-02 
639	 9.89400410728394E-02 
640	 0.098800101617387 
641	 9.87913653640526E-02 
642	 9.86577462545884E-02 
643	 9.84454012937512E-02 
644	 9.82411905436983E-02 
645	 9.81529908331366E-02 
646	 9.80564464096021E-02 
647	 9.79579262443746E-02 
648	 9.78529651015706E-02 
649	 9.76513346539638E-02 
650	 9.74294371978864E-02 
651	 9.71810130154219E-02 
652	 9.68864259243265E-02 
653	 9.66031381294174E-02 
654	 9.62180349647163E-02 
655	 9.56746566123436E-02 
656	 9.50932226343563E-02 
657	 9.46946562219652E-02 
658	 9.43681708599237E-02 
659	 9.40004983912996E-02 
660	 0.093723701189166 
661	 9.34652749776251E-02 
662	 9.32259392768734E-02 
663	 9.30594303056861E-02 
664	 9.30292865043346E-02 
665	 9.29343283398224E-02 
666	 9.27252680882127E-02 
667	 9.26808944747723E-02 
668	 9.26561583204888E-02 
669	 9.26429440228822E-02 
670	 0.092651428648563 
671	 9.25740715290531E-02 
672	 9.25187650443159E-02 
673	 9.24667919590189E-02 
674	 9.22931020254558E-02 
675	 9.23767500394878E-02 
676	 9.24726377340673E-02 
677	 9.23681974348158E-02 
678	 9.22184061984937E-02 
679	 0.092154684648444 
680	 9.21839220288883E-02 
681	 9.22402481393062E-02 
682	 9.22750922994728E-02 
683	 9.23021631644079E-02 
684	 9.23029330051293E-02 
685	 9.22008301771893E-02 
686	 9.21086090887101E-02 
687	 9.19860618965028E-02 
688	 0.091804868961616 
689	 9.17125561949346E-02 
690	 9.15318585650705E-02 
691	 9.11992333026248E-02 
692	 9.07315333322796E-02 
693	 9.03551103117654E-02 
694	 8.98815435731693E-02 
695	 8.92717430761179E-02 
696	 8.87504591993081E-02 
697	 8.80943473137234E-02 
698	 8.72964685644604E-02 
699	 0.086476719511528 
700	 8.57350260533594E-02 
701	 8.49248728968241E-02 
702	 8.39931501078541E-02 
703	 8.29594797094915E-02 
704	 8.20160686844614E-02 
705	 8.09833196104072E-02 
706	 7.97854699710708E-02 
707	 7.86245415833952E-02 
708	 7.73018301385662E-02 
709	 7.58451537128576E-02 
710	 0.074344260518781 
711	 7.27336786988447E-02 
712	 7.10354295873851E-02 
713	 0.069280662778199 
714	 6.74572325715335E-02 
715	 6.56790608333859E-02 
716	 6.37725617044865E-02 
717	 6.17248869811995E-02 
718	 5.96878250159745E-02 
719	 5.75985929125539E-02 
720	 5.56907813468625E-02 
721	 5.38234727596246E-02 
722	 0.052126950502958 
723	 5.02458970533895E-02 
724	 4.82339721598525E-02 
725	 0.046102973271437 
726	 4.40766289001006E-02 
727	 4.19704219989865E-02 
728	 3.96341988578628E-02 
729	 3.71741328712148E-02 
730	 3.47033321806778E-02 
731	 0.032468186969111 
732	 3.05623643054861E-02 
733	 2.90119004996966E-02 
734	 2.76687462581001E-02 
735	 2.65045720607631E-02 
736	 2.56132446846775E-02 
737	 2.49214083041382E-02 
738	 2.43822531981778E-02 
739	 2.39820330127854E-02 
740	 2.37639960995194E-02 
741	 2.35110883579377E-02 
742	 2.32743695300365E-02 
743	 2.32083199162926E-02 
744	 2.30694211998677E-02 
745	 2.30085541593751E-02 
746	 2.30531892484813E-02 
747	 2.30159745666829E-02 
748	 2.29725198985198E-02 
749	 2.29220292139419E-02 
750	 2.28615544869804E-02 
751	 2.28288150309227E-02 
752	 2.28307496261279E-02 
753	 2.28345741186582E-02 
754	 0.022796058721212 
755	 2.27759810176734E-02 
756	 2.27145214005211E-02 
757	 2.26625666073431E-02 
758	 2.29158523705031E-02 
759	 0.022877931655083 
760	 2.27181507628884E-02 
761	 2.30205515418531E-02 
762	 2.30495764118832E-02 
763	 2.31588025730737E-02 
764	 2.32442806295773E-02 
765	 2.31719781452077E-02 
766	 2.32392686583574E-02 
767	 2.32914903389104E-02 
768	 2.33460380889479E-02 
769	 2.35815255467695E-02 
770	 2.37602901832131E-02 
771	 2.38605309733507E-02 
772	 2.39447605893683E-02 
773	 2.41691739658018E-02 
774	 2.44465080282967E-02 
775	 2.47139164459307E-02 
776	 2.49317160248614E-02 
777	 2.51236692385132E-02 
778	 2.53098591840873E-02 
779	 2.55151280892607E-02 
780	 2.57731497251488E-02 
781	 2.62195659347048E-02 
782	 2.66035480314394E-02 
783	 2.67989547644111E-02 
784	 2.71133746183139E-02 
785	 2.74577209232878E-02 
786	 2.77859900426122E-02 
787	 2.80677722638927E-02 
788	 2.82971563003718E-02 
789	 0.028746606861661 
790	 2.93132829794105E-02 
791	 2.96282598414415E-02 
792	 2.99529223810551E-02 
793	 3.03824174257862E-02 
794	 3.08784279088224E-02 
795	 3.12116162196606E-02 
796	 3.15307301832053E-02 
797	 3.18062208867664E-02 
798	 3.20515594941277E-02 
799	 3.25673679949987E-02 
800	 3.29227919042284E-02 
801	 3.31450902368125E-02 
802	 3.34761974934201E-02 
803	 3.35282859678938E-02 
804	 3.37374282640526E-02 
805	 3.40688025961947E-02 
806	 3.39430621120259E-02 
807	 3.39143614194175E-02 
808	 3.39135849491927E-02 
809	 3.38262593069355E-02 
810	 3.37559697769775E-02 
811	 3.35162785355561E-02 
812	 3.31609414988818E-02 
813	 3.28469998014719E-02 
814	 3.25802503550032E-02 
815	 3.23464581629447E-02 
816	 0.03198768868184 
817	 3.13264228642773E-02 
818	 3.08012553300844E-02 
819	 3.03146042435101E-02 
820	 2.96914380334556E-02 
821	 2.87621661691382E-02 
822	 2.77518871876271E-02 
823	 2.65426243108844E-02 
824	 2.51867194151009E-02 
825	 2.41779228468326E-02 
826	 2.28909903445977E-02 
827	 2.13478045880736E-02 
828	 1.99090445414237E-02 
829	 0.018607242019053 
830	 1.75092495699724E-02 
831	 1.66224208036381E-02 
832	 1.59253226834104E-02 
833	 1.52536406847876E-02 
834	 1.46969033203406E-02 
835	 1.42736771470066E-02 
836	 1.38818032513031E-02 
837	 1.35267171398384E-02 
838	 1.32272203888468E-02 
839	 1.29899348311777E-02 
840	 1.27865052486023E-02 
841	 0.012532041031262 
842	 1.23907294500677E-02 
843	 1.24616459578454E-02 
844	 1.20854980056812E-02 
845	 1.19557169907565E-02 
846	 1.19717726767155E-02 
847	 1.15587210140845E-02 
848	 1.14053815213077E-02 
849	 1.13964247398601E-02 
850	 1.13297864789772E-02 
851	 1.10397272417875E-02 
852	 0.010906267222935 
853	 1.08182651095427E-02 
854	 1.07139757204765E-02 
855	 1.08817060963824E-02 
856	 1.05546160120374E-02 
857	 1.02823177899024E-02 
858	 1.05314204269102E-02 
859	 1.01091148927663E-02 
860	 9.87783451788624E-03 
861	 9.87816078818632E-03 
862	 9.76662577752239E-03 
863	 9.74164295233528E-03 
864	 9.61702835256326E-03 
865	 9.42260864446513E-03 
866	 9.37855628770622E-03 
867	 9.30931486439841E-03 
868	 9.2191045791363E-03 
869	 9.11694126864696E-03 
870	 8.98682030246366E-03 
871	 8.80682201238116E-03 
872	 8.58264675894813E-03 
873	 8.38185789180228E-03 
874	 8.39321017604513E-03 
875	 8.3836912845728E-03 
876	 8.17666217338901E-03 
877	 7.79158275195012E-03 
878	 7.83950950004558E-03 
879	 7.67461056015632E-03 
880	 7.53070323807978E-03 
881	 7.82941594679235E-03 
882	 7.53936302867776E-03 
883	 7.21741081556393E-03 
884	 7.06354006568236E-03 
885	 6.95426400087675E-03 
886	 7.07194681080789E-03 
887	 6.93575194169121E-03 
888	 6.53365314248882E-03 
889	 6.42841122759411E-03 
890	 6.39328837228315E-03 
891	 6.36984406424702E-03 
892	 6.32097460752501E-03 
893	 6.21022800586882E-03 
894	 6.5774160567902E-03 
895	 6.51777886874232E-03 
896	 5.4870025693445E-03 
897	 5.49806079670664E-03 
898	 0.006023595781445 
899	 6.06305778760262E-03 
900	 5.26968651141307E-03 
901	 5.94026028242768E-03 
902	 5.59704045455567E-03 
903	 4.97443157094471E-03 
904	 5.49226699672132E-03 
905	 5.42874478896553E-03 
906	 5.51527478199815E-03 
907	 5.66699100924154E-03 
908	 5.23453239704657E-03 
909	 0.004365949252275 
910	 4.93820706195231E-03 
911	 6.11829198912164E-03 
912	 5.07224869002247E-03 
913	 5.12434864910619E-03 
914	 4.98080882072028E-03 
915	 4.35747915338743E-03 
916	 4.58293135140288E-03 
917	 4.53064391344513E-03 
918	 4.08050645638801E-03 
919	 3.76028007984602E-03 
920	 4.60925035934361E-03 
921	 4.86034068914701E-03 
922	 4.2122292228365E-03 
923	 3.42671045236055E-03 
924	 4.86453086946133E-03 
925	 4.88859069853257E-03 
926	 4.17326365939393E-03 
927	 4.11602993393165E-03 
928	 3.23555940382516E-03 
929	 2.56383318909124E-03 
930	 2.25710344252287E-03 
931	 2.13701287508729E-03 
932	 3.29267659578284E-03 
933	 1.76916632932615E-03 
934	-7.65716128381548E-04 
935	 4.46035167909755E-04 
936	 5.78045139102079E-03 
937	 4.01989692238222E-03 
938	 9.44142722959066E-04 
939	 3.44532846409627E-03 
940	 2.95726269412625E-03 
941	 1.17417646653023E-03 
942	 6.90094606951329E-04 
943	 3.5362602035628E-03 
944	 5.22530033062574E-03 
945	 6.45597516497571E-03 
946	 5.62327384713972E-03 
947	 1.68902761444646E-03 
948	 4.15408101582646E-03 
949	 4.41891944485691E-03 
950	 1.88307344912161E-03 
951	 1.40522212352997E-03 
952	 4.20187361300586E-03 
953	 3.92284385161965E-03 
954	 2.09137415146619E-03 
955	 4.36725841719203E-03 
956	 4.54124001865037E-03 
957	 4.12719538205189E-03 
958	 4.37581128505495E-03 
959	 5.32595683864285E-03 
960	 3.64148688548899E-03 
961	 2.66649428710588E-03 
962	 3.23002726659659E-03 
963	 3.86687640542564E-03 
964	 3.84448789935966E-03 
965	 3.6210228399349E-03 
966	 3.37878731716123E-03 
967	 3.04542159973457E-03 
968	 2.84240084832127E-03 
969	 2.97848176785077E-03 
970	 3.17095870460548E-03 
971	 2.83518090385719E-03 
972	 2.22488665379846E-03 
973	 2.9529693170813E-03 
974	 3.83854884252533E-03 
975	 1.85972924889395E-03 
976	 2.85255216397631E-03 
977	 3.82615848036392E-03 
978	 3.34225715348242E-03 
979	 2.53941616315376E-03 
980	 3.23773904742165E-03 
981	 3.70878201713844E-03 
982	 3.40027222034668E-03 
983	 3.01797088943128E-03 
984	 2.55816358498505E-03 
985	 2.88648530963559E-03 
986	 3.05592970543727E-03 
987	 1.55870185517804E-03 
988	 3.64126208489366E-03 
989	 3.93045677998629E-03 
990	 1.91462230938693E-03 
991	 1.32953432351778E-03 
992	 2.92557974079243E-03 
993	 2.99772814234811E-03 
994	 1.89838285052649E-03 
995	 2.53570599058377E-03 
996	 2.94316525911709E-03 
997	 3.19615795109054E-03 
998	 3.43768945143478E-03 
999	 3.68285557427234E-03 
1000	 3.41967339024562E-03 
1001	 4.18256920575247E-03 
1002	 4.22222722973951E-03 
1003	 4.25404956357783E-03 
1004	 4.30121465145054E-03 
1005	 4.24678663944343E-03 
1006	 4.26802546640888E-03 
1007	 4.00854005366883E-03 
1008	 3.68165025933943E-03 
1009	 3.53246916487244E-03 
1010	 3.02236334051699E-03 
1011	 3.07490415683599E-03 
1012	 3.26358940362842E-03 
1013	 0.003302625498234 
1014	 3.44078647597112E-03 
1015	 3.67261308872493E-03 
1016	 3.86003814337777E-03 
1017	 4.16851071141334E-03 
1018	 4.26641182257459E-03 
1019	 4.39540842904941E-03 
1020	 4.33739239660017E-03 
1021	 3.91923581679592E-03 
1022	 3.70223708536881E-03 
1023	 3.70598510198894E-03 
1024	 3.62949195173756E-03 
1025	 3.82917165145223E-03 
1026	 3.87144396856205E-03 
1027	 3.90021926010304E-03 
1028	 3.73690469482431E-03 
1029	 3.84199279364249E-03 
1030	 4.12667321799278E-03 
1031	 4.29228614744929E-03 
1032	 4.6880849286216E-03 
1033	 4.65975668124365E-03 
1034	 4.37607034559273E-03 
1035	 4.09717110570515E-03 
1036	 3.23907515423792E-03 
1037	 3.01656764015255E-03 
1038	 3.40799903536079E-03 
1039	 3.25570325372812E-03 
1040	 3.25476373670262E-03 
1041	 3.43008652770965E-03 
1042	 3.57170972207395E-03 
1043	 3.4700278144861E-03 
1044	 3.68146478278355E-03 
1045	 4.3825690200025E-03 
1046	 4.53073308804901E-03 
1047	 4.41969071704834E-03 
1048	 4.40775809973669E-03 
1049	 4.23906825652873E-03 
1050	 4.07145495057656E-03 
1051	 3.89731958535773E-03 
1052	 3.78210842795049E-03 
1053	 3.4385654855514E-03 
1054	 3.41738123983484E-03 
1055	 3.73455526329819E-03 
1056	 3.94075003007092E-03 
1057	 4.18713399977216E-03 
1058	 4.72336294921339E-03 
1059	 4.69356725513742E-03 
1060	 4.35074326500325E-03 
1061	 4.16665495701648E-03 
1062	 3.5535961395047E-03 
1063	 3.51988270357855E-03 
1064	 4.02611173974982E-03 
1065	 4.08082511486083E-03 
1066	 4.15397267855077E-03 
1067	 4.18335822906611E-03 
1068	 0.003897000758115 
1069	 3.77920676393678E-03 
1070	 3.88618753984547E-03 
1071	 3.86277742695736E-03 
1072	 3.78718558951238E-03 
1073	 3.57367466806878E-03 
1074	 3.62508105039372E-03 
1075	 3.76993736172813E-03 
1076	 3.85057634455246E-03 
1077	 4.20791999073686E-03 
1078	 4.13870962546732E-03 
1079	 3.62223599250106E-03 
1080	 3.5164494539938E-03 
1081	 3.40107744093054E-03 
1082	 3.41058173562461E-03 
1083	 3.83741638944726E-03 
1084	 3.94477135034642E-03 
1085	 3.80589685630062E-03 
1086	 3.76505638966857E-03 
1087	 3.73007484774986E-03 
1088	 3.69707772306547E-03 
1089	 3.89559228166462E-03 
1090	 3.69460062108669E-03 
1091	 3.56729065936748E-03 
1092	 3.23742292280674E-03 
1093	 3.16718058932981E-03 
1094	 3.02993860412545E-03 
1095	 3.37819878401762E-03 
1096	 4.59458755459752E-03 
1097	 4.62774155352483E-03 
1098	 4.03350899535305E-03 
1099	 3.98928222979291E-03 
1100	 3.25083788634884E-03 
1101	 3.10918441919097E-03 
1102	 4.52135312609233E-03 
1103	 4.76277846412872E-03 
1104	 4.27335532920604E-03 
1105	 3.51690303073534E-03 
1106	 3.56474198280788E-03 
1107	 3.32073719790911E-03 
1108	 3.64369631728522E-03 
1109	 4.73112548723423E-03 
1110	 4.96792785067551E-03 
1111	 4.16614054051419E-03 
1112	 4.35449048034194E-03 
1113	 5.31890172123808E-03 
1114	 5.40819340582034E-03 
1115	 5.20745148866443E-03 
1116	 5.31046349932456E-03 
1117	 3.70658229701691E-03 
1118	 3.50617275505617E-03 
1119	 7.57395277503967E-03 
1120	 8.65128728274911E-03 
1121	 7.84695873153251E-03 
1122	 6.25753631689344E-03 
1123	 3.18238065819855E-03 
1124	 1.27883793492972E-03 
1125	 5.81541050030921E-03 
1126	 9.23027323544066E-03 
1127	 9.53871769281554E-03 
1128	 0.009438473017987 
1129	 7.74817016235359E-03 
1130	 2.58346348697847E-03 
1131	 3.03098139303032E-03 
1132	 5.24139973898823E-03 
1133	 5.0370635218079E-03 
1134	 5.91908087472894E-03 
1135	 5.75524948790589E-03 
1136	 4.25561740791398E-03 
1137	 4.29871517812215E-03 
1138	 5.60160219708847E-03 
1139	 4.41064150807734E-03 
1140	 5.36561666165396E-03 
1141	 6.45191309656239E-03 
1142	 4.87080733544321E-03 
1143	 5.92208447319456E-03 
1144	 6.56862807272081E-03 
1145	 3.58460744411517E-03 
1146	 4.25530831783501E-03 
1147	 5.75784417924207E-03 
1148	 4.33774871605736E-03 
1149	 3.80020574247166E-03 
1150	 3.68880032170898E-03 
1151	 2.88351538362126E-03 
1152	 2.63868111265065E-03 
1153	 3.19243941947358E-03 
1154	 3.46464416867178E-03 
1155	 3.64077878965652E-03 
1156	 3.42224893917019E-03 
1157	 3.13461479647403E-03 
1158	 3.69575756803397E-03 
1159	 3.76887307282433E-03 
1160	 3.27362652014784E-03 
1161	 3.39485143079259E-03 
1162	 3.67105135161297E-03 
1163	 3.59795428181824E-03 
1164	 3.59109693136778E-03 
1165	 0.003814426900142 
1166	 3.6961941730236E-03 
1167	 3.37205824490654E-03 
1168	 3.53084827766997E-03 
1169	 3.50287561587451E-03 
1170	 3.3716063247187E-03 
1171	 3.41883591223867E-03 
1172	 3.65926761267183E-03 
1173	 3.6253093109713E-03 
1174	 3.52825006263659E-03 
1175	 3.53452493105936E-03 
1176	 3.38045226581209E-03 
1177	 3.23571862985402E-03 
1178	 3.30199964595058E-03 
1179	 3.57444034624268E-03 
1180	 3.54481965568285E-03 
1181	 3.44578200472229E-03 
1182	 3.64855799807914E-03 
1183	 3.51184661984481E-03 
1184	 3.31526794464415E-03 
1185	 3.48043163507366E-03 
1186	 3.36751773463796E-03 
1187	 3.07462142940664E-03 
1188	 3.00916829906042E-03 
1189	 3.11163670787772E-03 
1190	 3.27937825406478E-03 
1191	 3.22063205869041E-03 
1192	 3.16532932520627E-03 
1193	 3.04694799597214E-03 
1194	 3.08598556230389E-03 
1195	 3.16760267315096E-03 
1196	 3.2948698219486E-03 
1197	 3.51356357288045E-03 
1198	 3.43002023272817E-03 
1199	 2.99088597734801E-03 
1200	 2.96755291493192E-03 
1201	 3.44499165440936E-03 
1202	 3.58980814119691E-03 
1203	 3.37298767854985E-03 
1204	 3.35825418931386E-03 
1205	 3.20082549952535E-03 
1206	 2.94987941974009E-03 
1207	 3.13130185136598E-03 
1208	 3.15197784512836E-03 
1209	 2.95518525148299E-03 
1210	 2.93628285446085E-03 
1211	 2.97890246922421E-03 
1212	 3.11663378148813E-03 
1213	 3.14504475961383E-03 
1214	 3.1197612093684E-03 
1215	 0.003012410413512 
1216	 2.97563753692594E-03 
1217	 2.92428911984454E-03 
1218	 3.02381472745293E-03 
1219	 3.26684489265244E-03 
1220	 3.37893084294056E-03 
1221	 3.21427541101414E-03 
1222	 2.97646551527465E-03 
1223	 2.95637918942173E-03 
1224	 3.01808084106625E-03 
1225	 3.04751739183676E-03 
1226	 0.003193168233612 
1227	 3.22988356111876E-03 
1228	 2.97805238297714E-03 
1229	 2.97557351339101E-03 
1230	 3.35955421510733E-03 
1231	 3.37905525648209E-03 
1232	 3.00580522957477E-03 
1233	 2.97243562521262E-03 
1234	 3.12573012184729E-03 
1235	 3.09076363208703E-03 
1236	 3.12131317632191E-03 
1237	 3.20170436555765E-03 
1238	 3.31375513422138E-03 
1239	 3.00852675621096E-03 
1240	 2.92447119060891E-03 
1241	 3.18577731800413E-03 
1242	 3.30382499627772E-03 
1243	 3.16136614839392E-03 
1244	 3.03023039550301E-03 
1245	 2.9389139707764E-03 
1246	 0.002882651396871 
1247	 2.94490186514764E-03 
1248	 3.01400726048657E-03 
1249	 3.01482935508807E-03 
1250	 2.8287783879927E-03 
1251	 2.79253766824137E-03 
1252	 3.19890054408863E-03 
1253	 3.39680391431759E-03 
1254	 3.25452848327582E-03 
1255	 3.43237515925466E-03 
1256	 3.53368728588451E-03 
1257	 3.29441150882691E-03 
1258	 3.14521073585567E-03 
1259	 3.2463174688399E-03 
1260	 3.27484364981701E-03 
1261	 3.16107136961828E-03 
1262	 3.18224523381465E-03 
1263	 3.52491830082559E-03 
1264	 3.35067877494579E-03 
1265	 3.18204509494399E-03 
1266	 3.27174354052125E-03 
1267	 3.27123406298359E-03 
1268	 3.23216581816806E-03 
1269	 3.17191341616535E-03 
1270	 3.09469589365698E-03 
1271	 3.15833689732325E-03 
1272	 3.21837366026877E-03 
1273	 3.43508289618602E-03 
1274	 3.56826065093656E-03 
1275	 3.23028234344949E-03 
1276	 3.01744447678928E-03 
1277	 3.06379804808513E-03 
1278	 3.07301251749624E-03 
1279	 3.03822366226803E-03 
1280	 3.13168092556525E-03 
1281	 3.25050795657914E-03 
1282	 3.17246501445757E-03 
1283	 3.0413428593177E-03 
1284	 3.10527727293032E-03 
1285	 3.23943587907873E-03 
1286	 3.17729368171373E-03 
1287	 3.0897965721921E-03 
1288	 3.23387650533977E-03 
1289	 3.27818245298143E-03 
1290	 3.07505993745387E-03 
1291	 2.96789742987278E-03 
1292	 3.17187724319364E-03 
1293	 3.17418885765131E-03 
1294	 2.98608024013207E-03 
1295	 3.02735932310924E-03 
1296	 3.23930613793634E-03 
1297	 3.29492412279576E-03 
1298	 3.26665540413571E-03 
1299	 3.23250178115254E-03 
1300	 3.11538959901336E-03 
1301	 2.98748356794135E-03 
1302	 2.79700170831363E-03 
1303	 2.68372347569623E-03 
1304	 2.7600125884721E-03 
1305	 2.88526671657142E-03 
1306	 3.02708724234091E-03 
1307	 3.40137696749194E-03 
1308	 3.53814265697485E-03 
1309	 3.48196019313679E-03 
1310	 3.48847578708602E-03 
1311	 3.61698206194202E-03 
1312	 3.39498942509914E-03 
1313	 2.66790403719463E-03 
1314	 2.6199546423833E-03 
1315	 2.69719398324839E-03 
1316	 2.7273231435546E-03 
1317	 0.003547891986877 
1318	 3.79042061920137E-03 
1319	 3.3314107312954E-03 
1320	 3.17662890196927E-03 
1321	 3.09472238662769E-03 
1322	 2.90884674404117E-03 
1323	 2.74933203209157E-03 
1324	 2.74659489652869E-03 
1325	 2.90512455110685E-03 
1326	 3.28045364362376E-03 
1327	 3.37455287130399E-03 
1328	 3.41709516250428E-03 
1329	 4.13533430905502E-03 
1330	 4.58019467958667E-03 
1331	 4.32516237697806E-03 
1332	 4.22922985654366E-03 
1333	 4.31840669835094E-03 
1334	 4.13458962951762E-03 
1335	 3.81540553372431E-03 
1336	 4.29240151398171E-03 
1337	 4.52132909965291E-03 
1338	 4.10726291504875E-03 
1339	 3.27518094422312E-03 
1340	 1.9075871440287E-03 
1341	 2.19229293927068E-03 
1342	 3.3095816984152E-03 
1343	 2.87754841770269E-03 
1344	 3.08903074463403E-03 
1345	 3.81122932955823E-03 
1346	 2.31213984538221E-03 
1347	 1.36040520199467E-03 
1348	 4.0999189640899E-03 
1349	 6.59585300934398E-03 
1350	 6.2645628808915E-03 
1351	 4.69479214319083E-03 
1352	 3.47590086083167E-03 
1353	 8.38993356625904E-03 
1354	 1.90731785185734E-02 
1355	 2.28090351496494E-02 
1356	 3.08308405519604E-02 
1357	 4.13366911330823E-02 
1358	 5.75958033682589E-02 
1359	 5.04370852882318E-02 
1360	 1.42259638569569E-02 
1361	-7.48169385444637E-03 
1362	 8.03725305794324E-03 
1363	-1.18959145758192E-03 
1364	 6.32259953414352E-02 
1365	 0.239636014083224 
1366	 0.209711603303182 
1367	 6.38962472010958E-02 
1368	 3.84176456806659E-02 
1369	 2.45824964467394E-02 
1370	-0.022921534327877 
1371	-0.019474540815237 
1372	 3.95710249905128E-02 
1373	 6.20892989232579E-02 
1374	 5.95943819410421E-02 
1375	 0.093886172723378 
1376	 0.180554680659381 
1377	 0.386938354757294 
1378	 0.340960470052008 
1379	 0.207529773311882 
1380	 0.217122889096635 
1381	-1.1380119056217E-03 
1382	-2.89740033003495E-02 
1383	 0.285101129335012 
1384	 0.375881317790622 
1385	 0.361503743417507 
1386	 0.347936779236846 
1387	 0.331699956315187 
1388	 0.286100123134518 
1389	 0.178393759744364 
1390	 0.15108987892225 
1391	 0.195935442541892 
1392	 5.26429721536437E-02 
1393	 0.125562243720423 
1394	 0.30421470810451 
1395	 0.341483428089419 
1396	 0.465865483742852 
1397	 0.364332075793664 
1398	 0.2811987785449 
1399	 0.472960364907835 
1400	 0.482321623632911 
1401	-0.057149571421032 
1402	-0.018345198296778 
1403	 0.140866390195197 
1404	-8.04684716853984E-02 
1405	-0.134377972058371 
1406	 1.73676704399918E-02 
1407	 0.107397832408973 
1408	 7.56718610008612E-02 
1409	 4.09472469161117E-02 
1410	 1.75735664200983E-02 
1411	 5.54596946148928E-02 
1412	 9.68290448053906E-02 
1413	 8.79505572735719E-02 
1414	 0.126786966566717 
1415	 0.140095996981271 
1416	 0.100408024247178 
1417	 6.14210251553627E-02 
1418	 3.18602313180149E-02 
1419	 0.037777684045566 
1420	 3.37348267948118E-02 
1421	 0.027361778530408 
1422	 4.32833205525326E-02 
1423	 5.21065092679518E-02 
1424	 5.51929050342192E-02 
1425	 4.23277389475991E-02 
1426	 0.019168131897427 
1427	 2.06226829808734E-02 
1428	 3.12363478407103E-02 
1429	 2.55109981846836E-02 
1430	 1.59872279433854E-02 
1431	 2.09515813924588E-02 
1432	 3.09951663006756E-02 
1433	 0.020995216585738 
1434	 9.41001439639332E-03 
1435	 1.16926023521838E-02 
1436	 1.39737058514848E-02 
1437	-0.013457528244859 
1438	-9.71258146452634E-04 
1439	 2.48903594951383E-02 
1440	 1.36134709073549E-02 
1441	 5.87323609527353E-03 
1442	 8.46598648542126E-03 
1443	 5.80501151736745E-03 
1444	 1.49915461416912E-02 
1445	 1.97030209214888E-02 
1446	 7.8720085787421E-03 
1447	 5.13373196849127E-03 
1448	 8.28882724416263E-03 
1449	 5.39954393285841E-03 
1450	 4.33731029293078E-03 
1451	 5.71724982646715E-03 
1452	 4.31326821634998E-03 
1453	 4.15286202529048E-03 
1454	 3.87652218646812E-03 
1455	 5.65730643937106E-03 
1456	 5.47641599948676E-03 
1457	 3.65869562576587E-03 
1458	 2.93287087646695E-03 
1459	 2.27986399263213E-03 
1460	 2.97037046561402E-03 
1461	 4.82205804944053E-03 
1462	 4.70752135038521E-03 
1463	 4.63124446142626E-03 
1464	 5.23747823766169E-03 
1465	 4.59729998530277E-03 
1466	 3.79990108382284E-03 
1467	 3.74413974586917E-03 
1468	 4.76173313371546E-03 
1469	 5.50569004813872E-03 
1470	 5.56514984182453E-03 
1471	 7.72110823471001E-03 
1472	 7.89259761525471E-03 
1473	 4.48896154141659E-03 
1474	 3.98552116866726E-03 
1475	 5.72443316305547E-03 
1476	 5.84629115949087E-03 
1477	 5.52367111475176E-03 
1478	 5.31638711457656E-03 
1479	 4.60707361175926E-03 
1480	 4.21540643801881E-03 
1481	 4.06287805973443E-03 
1482	 4.10974113580664E-03 
1483	 4.62654240994649E-03 
1484	 4.49198604006125E-03 
1485	 4.14687704126979E-03 
1486	 3.75697101701125E-03 
1487	 2.68492787781821E-03 
1488	 2.64449118705506E-03 
1489	 3.33440858217911E-03 
1490	 3.3539934365376E-03 
1491	 3.57422301282599E-03 
1492	 3.50232228308905E-03 
1493	 2.88549645231933E-03 
1494	 2.62300225136794E-03 
1495	 2.40934343542854E-03 
1496	 2.36747372302775E-03 
1497	 2.43438473082915E-03 
1498	 2.5209646741812E-03 
1499	 2.90097346620062E-03 
1500	 2.96183730602387E-03 
1501	 2.76262728636165E-03 
1502	 2.77023775029399E-03 
1503	 2.72568446328461E-03 
1504	 2.68034086253753E-03 
1505	 2.63285806835157E-03 
1506	 2.81286735398608E-03 
1507	 2.94469455230419E-03 
1508	 3.04217986240991E-03 
1509	 2.88804229562316E-03 
1510	 2.64461545179394E-03 
1511	 2.50641105201215E-03 
1512	 2.33320210686959E-03 
1513	 2.28121648215597E-03 
1514	 2.5222279127903E-03 
1515	 2.67575070901567E-03 
1516	 2.53964878393211E-03 
1517	 2.42539976361116E-03 
1518	 2.46835029370614E-03 
1519	 2.37623530385947E-03 
1520	 2.36990806100683E-03 
1521	 2.69847026681284E-03 
1522	 2.78736173634671E-03 
1523	 2.60729354043356E-03 
1524	 2.61976228271107E-03 
1525	 2.79191647844391E-03 
1526	 2.78935889984407E-03 
1527	 2.59673109282311E-03 
1528	 2.57077006730759E-03 
1529	 2.60311113754314E-03 
1530	 2.57674444914456E-03 
1531	 2.63797343629512E-03 
1532	 2.76246854912222E-03 
1533	 2.81165861802146E-03 
1534	 2.58152112994455E-03 
1535	 2.40734436112116E-03 
1536	 2.60401985063871E-03 
1537	 2.86922553700077E-03 
1538	 2.80422583072615E-03 
1539	 2.61821884197156E-03 
1540	 2.58762235375333E-03 
1541	 2.33894143007089E-03 
1542	 2.22951780277268E-03 
1543	 2.59998738291864E-03 
1544	 2.75250239647614E-03 
1545	 2.68750957925921E-03 
1546	 2.74947641771979E-03 
1547	 2.65833831069314E-03 
1548	 2.46099730141826E-03 
1549	 2.34922419355961E-03 
1550	 2.32756904109235E-03 
1551	 2.44172097188992E-03 
1552	 2.45661037874157E-03 
1553	 2.42019809493449E-03 
1554	 2.64900183766283E-03 
1555	 2.65861022702314E-03 
1556	 2.41433222136187E-03 
1557	 2.44806349834226E-03 
1558	 2.42273350891831E-03 
1559	 2.32468553712387E-03 
1560	 2.43111985163101E-03 
1561	 2.56685171201053E-03 
1562	 2.58280866361824E-03 
1563	 2.47411734887621E-03 
1564	 2.56113685570599E-03 
1565	 2.87503920917661E-03 
1566	 2.77730672811781E-03 
1567	 2.43330439666897E-03 
1568	 2.46918491051202E-03 
1569	 2.56620834399408E-03 
1570	 2.45350601041847E-03 
1571	 2.34598437414355E-03 
1572	 2.42129916813878E-03 
1573	 2.4911629485989E-03 
1574	 2.45343886716423E-03 
1575	 2.57320401282647E-03 
1576	 2.65003500424918E-03 
1577	 2.4859813158519E-03 
1578	 2.39631260590966E-03 
1579	 2.46359855351242E-03 
1580	 2.61408762336174E-03 
1581	 2.66890634796926E-03 
1582	 2.49195015540739E-03 
1583	 2.33909207164045E-03 
1584	 2.40159307264834E-03 
1585	 2.48881318192382E-03 
1586	 2.34491100487834E-03 
1587	 2.3947262981511E-03 
1588	 2.45950110054781E-03 
1589	 2.15528288627672E-03 
1590	 2.1857728677227E-03 
1591	 2.31534436358607E-03 
1592	 2.20325109075082E-03 
1593	 2.25839396213137E-03 
1594	 2.44907981020751E-03 
1595	 2.70263372685656E-03 
1596	 2.72350028126752E-03 
1597	 2.53269548288637E-03 
1598	 2.49852477725539E-03 
1599	 2.58512227362048E-03 
1600	 2.69181039515131E-03 
1601	 2.66767842330435E-03 
1602	 2.63952229522399E-03 
1603	 2.51229959926088E-03 
1604	 2.27332401900861E-03 
1605	 2.43426655759509E-03 
1606	 2.73916771032104E-03 
1607	 2.82023990774479E-03 
1608	 2.77885965380306E-03 
1609	 2.74543951030287E-03 
1610	 2.83929053117608E-03 
1611	 3.00223825039778E-03 
1612	 3.01668377135302E-03 
1613	 2.7033928660117E-03 
1614	 2.39817927880156E-03 
1615	 2.57525477118355E-03 
1616	 2.75021803048935E-03 
1617	 2.45639062975205E-03 
1618	 2.49478815707067E-03 
1619	 2.83129631649145E-03 
1620	 2.70015786174698E-03 
1621	 2.64763430739601E-03 
1622	 2.7604164363622E-03 
1623	 2.50527016896017E-03 
1624	 2.35010946919568E-03 
1625	 2.49397262111839E-03 
1626	 2.6108547521614E-03 
1627	 2.60692472068602E-03 
1628	 2.48722545212849E-03 
1629	 2.64892263966846E-03 
1630	 2.9411568457199E-03 
1631	 2.82738736606165E-03 
1632	 2.63035123778307E-03 
1633	 2.49370023082199E-03 
1634	 2.4803270662523E-03 
1635	 2.81978199569218E-03 
1636	 3.08840597522142E-03 
1637	 3.1010626208615E-03 
1638	 2.95990054855574E-03 
1639	 2.63613842955721E-03 
1640	 2.29829287552177E-03 
1641	 2.22628164876299E-03 
1642	 2.46432743701537E-03 
1643	 2.73258732984362E-03 
1644	 2.63817747016128E-03 
1645	 2.39644240866893E-03 
1646	 2.63876072413808E-03 
1647	 2.69752686531244E-03 
1648	 2.43120361097948E-03 
1649	 2.53309386019766E-03 
1650	 2.57852299122328E-03 
1651	 2.5932580182359E-03 
1652	 2.75617736028506E-03 
1653	 2.83051403111988E-03 
1654	 2.87326261676391E-03 
1655	 2.86737569538171E-03 
1656	 2.68342944703585E-03 
1657	 2.25484598011355E-03 
1658	 2.29137814522094E-03 
1659	 2.55836357826103E-03 
1660	 2.55645136133048E-03 
1661	 2.74371302358974E-03 
1662	 2.78918031787744E-03 
1663	 2.34268328494739E-03 
1664	 2.21902896648483E-03 
1665	 2.48729928143295E-03 
1666	 2.59085783210704E-03 
1667	 2.58367484426639E-03 
1668	 2.80196026202459E-03 
1669	 2.94786408666466E-03 
1670	 2.82685948493697E-03 
1671	 2.62398822434718E-03 
1672	 2.69491475104509E-03 
1673	 2.62204658229889E-03 
1674	 2.43910668423359E-03 
1675	 2.55651799850753E-03 
1676	 2.59492988000406E-03 
1677	 2.27789274586954E-03 
1678	 2.01319384425299E-03 
1679	 2.14485761940642E-03 
1680	 2.2567982308556E-03 
1681	 2.42667728523523E-03 
1682	 2.70298452061238E-03 
1683	 2.56917321634397E-03 
1684	 2.32783095164292E-03 
1685	 2.46810981246071E-03 
1686	 2.77260501416837E-03 
1687	 2.84203638768814E-03 
1688	 2.73138152532228E-03 
1689	 2.49212090289763E-03 
1690	 2.27546353312409E-03 
1691	 2.27180619359709E-03 
1692	 2.37014622196903E-03 
1693	 2.4402650749765E-03 
1694	 2.4512856915964E-03 
1695	 2.63190873255449E-03 
1696	 2.73934387644123E-03 
1697	 2.4944395638018E-03 
1698	 2.18072779849494E-03 
1699	 1.97808257986462E-03 
1700	 1.9410499590716E-03 
1701	 2.11571774823128E-03 
1702	 2.37020161980648E-03 
1703	 2.44795187397618E-03 
1704	 2.16534358203178E-03 
1705	 2.03320909728779E-03 
1706	 2.40856019553471E-03 
1707	 2.4090450235797E-03 
1708	 2.08761102931307E-03 
1709	 2.08328579654876E-03 
1710	 2.03355290415789E-03 
1711	 2.23004440172655E-03 
1712	 2.77713212073438E-03 
1713	 2.66175681004076E-03 
1714	 2.74863186675639E-03 
1715	 2.64928216962144E-03 
1716	 2.56582742186375E-03 
1717	 2.71958139669525E-03 
1718	 2.73945327891917E-03 
1719	 2.14294947864016E-03 
1720	 2.04727784062464E-03 
1721	 2.49700128315979E-03 
1722	 2.38610291011942E-03 
1723	 2.58653547919188E-03 
1724	 3.0337447777042E-03 
1725	 2.62228499484733E-03 
1726	 2.33568766780907E-03 
1727	 2.55779528286378E-03 
1728	 2.50518861349624E-03 
1729	 2.52911825231658E-03 
1730	 2.87442346789886E-03 
1731	 3.0859969615396E-03 
1732	 2.90611640583857E-03 
1733	 2.57780700877446E-03 
1734	 2.48323928454707E-03 
1735	 2.25304132350122E-03 
1736	 1.90344162876139E-03 
1737	 2.40310598588544E-03 
1738	 3.03210008758742E-03 
1739	 2.44034084917941E-03 
1740	 1.87895368651234E-03 
1741	 2.09079843480028E-03 
1742	 1.95735229382591E-03 
1743	 1.98297558877764E-03 
1744	 2.36004980931036E-03 
1745	 2.30154725776144E-03 
1746	 1.75730294471124E-03 
1747	 1.91146993093484E-03 
1748	 0.003493469566674 
1749	 3.69820616243346E-03 
1750	 2.98565967208527E-03 
1751	 2.81445501510426E-03 
1752	 1.97581634593843E-03 
1753	 1.64230604490521E-03 
1754	 2.11840730057374E-03 
1755	 2.36002183918767E-03 
1756	 2.62405673691468E-03 
1757	 2.92007872868252E-03 
1758	 2.97938902532914E-03 
1759	 2.54994852213617E-03 
1760	 2.00372068413538E-03 
1761	 2.13817520286761E-03 
1762	 2.11477289552807E-03 
1763	 1.98900201880168E-03 
1764	 2.34620120251336E-03 
1765	 2.60568443175207E-03 
1766	 2.58488310255711E-03 
1767	 2.3962823969333E-03 
1768	 2.36635797110899E-03 
1769	 2.71514384170408E-03 
1770	 2.80112541430926E-03 
1771	 2.97005508643905E-03 
1772	 3.45393210384168E-03 
1773	 2.71475678933014E-03 
1774	 1.96999802652299E-03 
1775	 1.4469090668995E-03 
1776	 1.50098476208177E-03 
1777	 2.3905250490511E-03 
1778	 2.61982423572654E-03 
1779	 3.42934009065181E-03 
1780	 3.71228518021812E-03 
1781	 2.25113674093777E-03 
1782	 2.22013299569368E-03 
1783	 3.6596897262995E-03 
1784	 3.90609116675258E-03 
1785	 4.04015222153304E-03 
1786	 4.0571893166083E-03 
1787	 2.98765175779206E-03 
1788	 2.90142926121259E-03 
1789	 3.79880069246276E-03 
1790	 3.21234581202926E-03 
1791	 1.45530628629389E-03 
1792	-5.1487444570549E-04 
1793	 1.83898682385374E-03 
1794	 6.44700405417535E-03 
1795	 7.55448543573723E-03 
1796	 0.008534286811906 
1797	 9.82160255854662E-03 
1798	 2.02133294971317E-03 
1799	 4.18785950719207E-03 
1800	 1.90407975693232E-03 
1801	-3.21473014618887E-03 
1802	-9.11017603659776E-03 
1803	-4.62921029306336E-03 
1804	 1.68305842482861E-02 
1805	 0.034308276601467 
1806	 7.96691209204508E-02 
1807	 0.094689856865611 
1808	 4.22563067217511E-02 
1809	 5.39087278374341E-03 
1810	-9.28589245336194E-02 
1811	-0.138521901805341 
1812	-9.50264474941499E-02 
1813	-9.41181209961116E-02 
1814	 2.34747911267161E-02 
1815	 2.85854146913075E-02 
1816	-0.107640601814529 
1817	 7.25539976428086E-02 
1818	 7.63704388776813E-03 
1819	 0.261762797718214 
1820	 0.499442621846738 
1821	 0.622633273165353 
1822	 0.662165735243281 
1823	 0.387115083053713 
1824	 0.348992191690816 
1825	 0.326167778272525 
1826	 0.31948977681348 
1827	 0.710353268507727 
1828	 1.67211190743575 
1829	 1.33533327655328 
1830	 0.927353624681306 
1831	 0.987390234761919 
1832	-0.148850316706714 
1833	 5.43819270694686 
1834	-89.3993141343279 
1835	-1.30063431132441 
1836	-1.06828510574313 
1837	-0.69532769118681 
1838	-0.207479167471141 
1839	 1.16303091305208 
1840	-10.5102219992317 
1841	-2.64108365482954 
1842	-1.18519383875553 
1843	-1.0355395239619 
1844	 1.31967295009405 
1845	 3.02259435212191 
1846	 3736.57826829671 
1847	-5.60306396822289 
1848	 10.7982958068605 
1849	 2.35282912361496 
1850	-0.648940350317842 
1851	-1.3590510061456 
1852	-1.64528301988436 
1853	-1.31629124054023 
1854	-1.21076154703669 
1855	-0.362974800056696 
1856	 3.39291151563091E-02 
1857	-3.53531205252423 
1858	-0.828036985371977 
1859	 7.25991597992039 
1860	 5.16119379066137 
1861	 3.59401768600154 
1862	 1.41971819484163 
1863	 0.731868448724364 
1864	-7.33188757263132E-03 
1865	-0.253970584508739 
1866	-0.308075462731193 
1867	-0.265426447005185 
1868	 0.158412168466955 
1869	 0.328342217844693 
1870	 0.748198130317429 
1871	-3.40767663411171 
1872	-2.355551496972 
1873	-1.15725779617942 
1874	-1.48436706725945 
1875	 0.108566927634406 
1876	-0.455775947409741 
1877	 2.66535706391446 
1878	 3.10681985508538 
1879	 0.742169851240004 
1880	 0.220189424831014 
1881	 3.14338205053621 
1882	 1.22255751427628 
1883	 3.06232607828139 
1884	-10.4473005513945 
1885	 0.227426742861733 
1886	 7.96863193910683 
1887	-1.51582081354141 
1888	-1.32852087362876 
1889	-1.2324298793207 
1890	-0.453328159951882 
1891	-0.371859141849553 
1892	 3.66145662879163 
1893	-0.391556182772239 
1894	-1.51237638779545 
1895	-0.798749038718085 
1896	 0.188573762556525 
1897	 0.115525086727849 
1898	 1.48266156750662 
1899	-12.721840534354 
1900	-3.02141246093961 
1901	 5.3543943159358 
1902	 19.4275109870804 
1903	-2.68458483709823 
1904	-1.81614063985413 
1905	-0.36102232461746 
1906	 3.22592980935534 
1907	 381.940561533746 
1908	-8.93870946954794 
1909	-4.08747025681312 
1910	-43.0240559809414 
1911	 3.83707629076982 
1912	 0.995729332856168 
1913	 0.590663308400085 
1914	 0.751639264587908 
1915	 0.701571857440937 
1916	 0.388079539105408 
1917	 1.33360926735042 
1918	 1.66084178732705 
1919	 28.6886705460531 
1920	 58.3822486173303 
1921	 2.03398685801496 
1922	 1.10991724264795 
1923	 0.540652362696328 
1924	 0.373212083042975 
1925	 0.823604148917144 
1926	 0.91281511069211 
1927	 0.746856517660307 
1928	 0.501986793485068 
1929	-1.14211089173966 
1930	-0.699073483475638 
1931	-1.57588804186559E-03 
1932	-0.211939825691081 
1933	 0.202626644427049 
1934	 0.735929655735836 
1935	 0.455506506302998 
1936	 0.390358920369395 
1937	 0.30726935799149 
1938	 4.78681298644054E-02 
1939	-2.01899020904352E-02 
1940	-1.52569310537316E-02 
1941	-1.18548856095454E-02 
1942	-2.69873569179764E-02 
1943	-1.90573398156541E-02 
1944	-1.36014248415986E-02 
1945	-4.15068250430526E-02 
1946	-6.85955203036026E-02 
1947	-7.36431443533036E-02 
1948	-0.08772600926498 
1949	-0.093698712353407 
1950	-5.13487824478238E-02 
1951	-1.66715771565023E-02 
1952	-1.06340873031686E-02 
1953	-2.02683224878937E-02 
1954	-2.17590692197376E-02 
1955	-2.80336434154588E-02 
1956	-2.73197795606619E-02 
1957	-1.25684383237032E-02 
1958	-5.16013240998294E-03 
1959	-3.03035015749714E-03 
1960	 1.33231251752611E-03 
1961	 7.77138822116194E-03 
1962	 8.42149024143014E-03 
1963	 4.0983189997407E-03 
1964	-9.96718517167088E-04 
1965	 3.47101093185356E-04 
1966	 1.76953609075309E-03 
1967	 4.9423016228532E-03 
1968	 5.54621738978234E-03 
1969	 5.46316052527119E-03 
1970	 2.15905135234821E-03 
1971	-1.17217259586481E-03 
1972	-8.95045122366018E-04 
1973	 2.8063131453871E-04 
1974	-3.2789236719749E-04 
1975	-2.01781844587952E-03 
1976	-1.49653748700199E-03 
1977	 2.33032777815456E-05 
1978	 1.31587100038009E-03 
1979	 1.93213524630506E-03 
1980	 3.12598303198261E-03 
1981	 2.4477545974195E-03 
1982	 9.47553587421247E-04 
1983	 2.59820237167239E-04 
1984	 8.84021118342763E-04 
1985	 1.32741017127863E-03 
1986	 9.63340171594352E-04 
1987	 2.21475740929477E-03 
1988	 3.01688363173065E-03 
1989	 1.77534862203172E-03 
1990	 1.38824559854725E-03 
1991	 1.47201255310484E-03 
1992	 1.4754007682105E-03 
1993	 2.23600377172576E-03 
1994	 1.9063606954157E-03 
1995	 1.4010215122615E-03 
1996	-5.20311428911282E-04 
1997	-2.19495377826802E-03 
1998	-2.18193132238706E-03 
1999	-1.52113644018153E-05 
2000	 5.78244527670974E-04 
2001	 1.88063087311113E-03 
2002	 3.72869294713443E-03 
2003	 2.14325274786808E-03 
2004	 4.25027367117379E-03 
2005	 3.36767592414136E-03 
2006	-2.63591750205909E-03 
2007	-3.00167264891958E-03 
2008	-3.95957740773206E-03 
2009	-4.31543486506342E-03 
2010	-2.08290377162885E-03 
2011	-7.70249988872323E-04 
2012	-8.49133797151547E-04 
2013	 1.32092004839478E-03 
2014	 2.92003916052277E-03 
2015	 1.78770879501011E-03 
2016	 2.05114052166067E-03 
2017	 1.08489536773541E-03 
2018	 1.47922908812288E-03 
2019	 2.33340404770557E-03 
2020	 1.58052704208397E-03 
2021	 1.58660754928127E-03 
2022	 4.26897234070121E-04 
2023	-7.79556952358236E-04 
2024	-4.87292858593246E-04 
2025	 1.24337250254882E-03 
2026	 1.30712352083076E-03 
2027	 1.17773530028173E-03 
2028	 1.69159010198552E-03 
2029	 1.06345774555928E-03 
2030	 1.3852523795697E-04 
2031	 6.53980296563745E-04 
2032	 1.00155965640727E-03 
2033	 1.31345420230994E-03 
2034	 1.51235633395337E-03 
2035	 9.350556148607E-04 
2036	 2.46510492616793E-05 
2037	-7.39742437301649E-04 
2038	-7.61862058135293E-04 
2039	-8.18666654214928E-04 
2040	-1.48847231969335E-04 
2041	-1.05061508316039E-04 
2042	-4.66959910501869E-04 
2043	-9.15184627871684E-04 
2044	-1.61983222983302E-03 
2045	-2.29560266787818E-03 
2046	-3.01826905452555E-03 
2047	-2.85712828680169E-03 
2048	-2.29337071409869E-03 
2049	-1.86409539949339E-03 
2050	-1.35468148698102E-03 
2051	-5.30088716269301E-04 
2052	 5.83392408570151E-04 
2053	 9.87122358081927E-04 
2054	 6.71754500816449E-04 
2055	 6.82006363078158E-04 
2056	 9.20011684428672E-04 
2057	 9.97847843924858E-04 
2058	 8.13301563245516E-04 
2059	 5.3064420758573E-04 
2060	 6.28598036397154E-04 
2061	-8.82381914119037E-05 
2062	 1.01975701546948E-03 
2063	 2.22002665842775E-03 
2064	 2.08868110756176E-03 
2065	 2.45833266036729E-03 
2066	 1.68517606210309E-03 
2067	-7.40327758326574E-05 
2068	 7.2559179603118E-04 
2069	 7.8924061645025E-04 
2070	-4.6236246146929E-04 
2071	 1.03569832948537E-03 
2072	 1.87949331996017E-03 
2073	 1.63816545237688E-03 
2074	 1.43337334962619E-03 
2075	 7.53349897510819E-04 
2076	-2.20989639555849E-03 
2077	-2.52301774312656E-03 
2078	-1.10380430938778E-03 
2079	-9.22995350627877E-04 
2080	-4.55350072592846E-04 
2081	-1.53126368072567E-04 
2082	 9.01129956620151E-05 
2083	 6.89523372738297E-04 
2084	 5.738260632717E-04 
2085	 4.03603699829777E-04 
2086	 7.33574410359988E-04 
2087	 2.12798419208382E-05 
2088	 2.22666719081716E-04 
2089	 1.36066207317018E-03 
2090	 1.11637751907018E-03 
2091	 1.18389921054114E-03 
2092	 1.17140017281946E-03 
2093	 1.16113665009644E-03 
2094	 9.43089624161426E-04 
2095	 1.7315109699725E-04 
2096	 2.05165576503968E-04 
2097	 9.37762068063259E-04 
2098	 1.03051016867058E-03 
2099	 1.20221302156251E-03 
2100	 1.45812441189643E-03 
2101	 1.92693665832772E-03 
2102	 1.82333884666905E-03 
2103	 2.14399615487116E-03 
2104	 2.48721187266374E-03 
2105	 1.43777349379071E-03 
2106	 1.1580387246498E-03 
2107	 1.5019147044137E-03 
2108	 1.68614547165826E-03 
2109	 2.07951870026513E-03 
2110	 1.30359204933639E-03 
2111	 5.01380692131244E-04 
2112	 1.16433464293836E-04 
2113	-2.65028712400067E-04 
2114	-5.61555339439522E-04 
2115	-2.61111518034027E-04 
2116	 6.83407484096477E-04 
2117	 7.7103303721358E-04 
2118	 6.91118650227702E-04 
2119	 5.81632314356047E-04 
2120	-1.10541026171253E-04 
2121	-4.25553733146131E-04 
2122	-5.04733216605326E-04 
2123	-3.34110857613954E-04 
2124	 2.81854697779927E-04 
2125	 6.27890553630574E-04 
2126	 7.03072277272328E-04 
2127	 4.47601924472674E-04 
2128	-2.35370690855075E-04 
2129	-6.73232724938097E-04 
2130	-1.30592264629691E-03 
2131	-1.07223334717304E-03 
2132	 1.9244454746403E-04 
2133	 2.33391803896674E-04 
2134	 1.12862301831408E-04 
2135	 3.75553211660343E-04 
2136	 7.60523098692423E-05 
2137	-1.81433699028153E-03 
2138	-1.91315764534542E-03 
2139	-9.42451709352084E-04 
2140	-6.52756533782552E-04 
2141	 5.74644667714875E-05 
2142	 4.7145621031264E-04 
2143	 5.6714424907577E-04 
2144	 5.91937543292651E-04 
2145	 3.88584566280095E-04 
2146	 2.66955416289786E-04 
2147	 3.38333918635382E-04 
2148	 2.27228078090255E-04 
2149	 6.00735398770892E-04 
2150	 9.7763438207566E-04 
2151	 5.22501323316645E-04 
2152	 1.77318348555847E-04 
2153	-1.43607350335404E-04 
2154	-1.21759114205832E-04 
2155	 7.98613573561892E-04 
2156	 1.47310043837582E-03 
2157	 1.32285574434697E-03 
2158	 2.98818793869657E-04 
2159	 4.85197204096469E-04 
2160	 4.7195387343819E-04 
2161	 7.83727421995912E-04 
2162	 2.66708409236447E-03 
2163	 2.97819676866692E-03 
2164	 2.1895914782206E-03 
2165	 1.85773536736461E-03 
2166	 8.60875278819314E-04 
2167	 8.72685602277719E-04 
2168	 1.9929564059435E-03 
2169	 1.95061917377961E-03 
2170	 1.73311687388496E-03 
2171	 1.40564866763432E-03 
2172	 8.82891823919821E-04 
2173	 7.64515351572641E-05 
2174	-2.24580566120823E-04 
2175	 8.14971025795158E-04 
2176	 1.83789394759987E-03 
2177	 2.11289271134448E-03 
2178	 1.35299627267772E-03 
2179	-2.53802787635942E-04 
2180	-1.26593335653857E-03 
2181	-2.31904921938581E-03 
2182	-2.77707449171902E-03 
2183	-1.7068601148597E-03 
2184	-7.89700277731626E-04 
2185	 2.83140955902457E-04 
2186	 8.62427384685352E-04 
2187	 2.1985921223891E-03 
2188	 2.29317922751119E-03 
2189	 3.25122095281547E-04 
2190	-7.1478365104318E-05 
2191	 1.11039666333932E-04 
2192	 2.41099062034924E-04 
2193	 1.78665599586559E-03 
2194	 1.86069542737459E-03 
2195	 2.0869519104668E-04 
2196	 4.48230033626458E-05 
2197	 1.75450358414471E-04 
2198	-2.93672683805095E-04 
2199	-9.39862541514753E-04 
2200	 8.20595416109886E-04 
2201	 4.67178549644309E-04 
2202	-2.16188040745059E-03 
2203	-1.44694509105955E-03 
2204	-1.72919261498197E-03 
2205	-2.65474057127485E-03 
2206	-9.65380218442487E-04 
2207	-5.41539472872943E-04 
2208	 3.43868492540164E-04 
2209	 3.27644031043424E-03 
2210	 3.48548286682504E-03 
2211	 1.63997812725588E-03 
2212	 1.03884913398407E-03 
2213	-6.28376257028039E-04 
2214	-6.5641878123045E-04 
2215	 1.50801657507653E-03 
2216	 2.02575386059703E-03 
2217	 2.15608754235444E-03 
2218	 6.42315758594995E-04 
2219	 6.79756695855747E-04 
2220	 1.63425548088807E-03 
2221	 0.001916703181699 
2222	 3.03549878194576E-03 
2223	 2.57923258263799E-03 
2224	-6.80120677295368E-04 
2225	-1.05495655293907E-03 
2226	 7.75533482080218E-04 
2227	 6.15622321891431E-04 
2228	 1.8981038286648E-04 
2229	 8.35232914174185E-04 
2230	 9.38190822181364E-04 
2231	 1.64578007253782E-04 
2232	 7.22833944861082E-04 
2233	 2.05165702642995E-04 
2234	-2.25695072534521E-03 
2235	-5.09514732693841E-03 
2236	-5.74428857675687E-03 
2237	-3.62079855833742E-03 
2238	-1.46541581281289E-03 
2239	-1.20186759109788E-03 
2240	-1.25692530761832E-03 
2241	-1.49166280049267E-04 
2242	-8.07020919284545E-04 
2243	-1.80402621696164E-03 
2244	-1.04942667168211E-03 
2245	-1.69237358050909E-03 
2246	-2.18284856793531E-03 
2247	-1.34805478363846E-03 
2248	-2.03581316623512E-04 
2249	 1.16716222348676E-03 
2250	 1.9470291130879E-03 
2251	 3.30178462939002E-03 
2252	 3.43334859433834E-03 
2253	 1.50032634349831E-03 
2254	 7.57612599647053E-04 
2255	 1.8830950626728E-04 
2256	-1.15334953366979E-03 
2257	-2.1889984110283E-03 
2258	-3.67408072736354E-03 
2259	-4.3538854567464E-03 
2260	-5.15572417451027E-03 
2261	-6.96008144797401E-03 
2262	-6.36932373069546E-03 
2263	-4.84737664346781E-03 
2264	-2.02763934014291E-03 
2265	 6.19620141108654E-03 
2266	 8.14471842882825E-03 
2267	 6.35907889822819E-03 
2268	 6.07883932223091E-03 
2269	 1.93597370116283E-03 
2270	 9.81404682592264E-04 
2271	 4.93816926015389E-03 
2272	 4.5763012668091E-03 
2273	 4.40485005697999E-04 
2274	 8.32284177363256E-04 
2275	 0.00407600207739 
2276	 2.66778691120641E-03 
2277	 7.18683169648656E-04 
2278	 2.7856228785062E-04 
2279	-5.93931207435199E-03 
2280	-6.28002600510917E-03 
2281	 3.28054729141757E-04 
2282	 4.50848992272558E-03 
2283	 5.51997354053963E-03 
2284	 6.18920662538568E-03 
2285	 3.00590777458332E-03 
2286	 1.26918952827781E-03 
2287	 7.43653537271433E-04 
2288	-1.00112416585803E-03 
2289	-1.28008811489602E-03 
2290	-1.97513001620732E-03 
2291	-5.29902113351363E-03 
2292	-8.89881817538352E-03 
2293	-7.94607061145486E-03 
2294	-7.84919735276753E-03 
2295	-6.20912926975497E-03 
2296	 7.83406177852794E-05 
2297	-1.18300452656005E-03 
2298	-4.03151659492774E-03 
2299	-4.17700267698514E-03 
2300	-8.77572221048513E-03 
2301	-0.011298981126733 
2302	-9.74507116860995E-03 
2303	-8.25605450361256E-03 
2304	-4.24616657306342E-03 
2305	 1.08635998248347E-03 
2306	 1.62262729177038E-03 
2307	-2.50118584661009E-03 
2308	-4.7298168935698E-03 
2309	-2.43663231743153E-03 
2310	 2.33124337385467E-04 
2311	 8.16270230268119E-04 
2312	 2.54971904697035E-03 
2313	 2.61413018715143E-03 
2314	-1.84254772460609E-04 
2315	 1.06302249113245E-03 
2316	-2.33522280655443E-04 
2317	-4.08105195013829E-03 
2318	-7.25109023072123E-04 
2319	 3.51575111103286E-03 
2320	 6.55401369118927E-03 
2321	 6.20798899030991E-03 
2322	-3.84728550120247E-04 
2323	-8.52072346591976E-03 
2324	-1.46620705386192E-02 
2325	-1.49235289982192E-02 
2326	-9.67958411399637E-03 
2327	-5.96223034732068E-03 
2328	-2.75796960136456E-03 
2329	 7.52451300525671E-03 
2330	 8.53926380985994E-03 
2331	 5.88354939592787E-04 
2332	-4.35618328503105E-04 
2333	-4.04586494514924E-03 
2334	-7.52481457436787E-03 
2335	-3.73154718838722E-03 
2336	 3.14451734534912E-03 
2337	 2.3077087525106E-03 
2338	-5.7570954250007E-03 
2339	-7.93038135621722E-03 
2340	-1.03842339851073E-02 
2341	-9.47751528805008E-03 
2342	-3.95353672185331E-03 
2343	-8.53534739291708E-03 
2344	-1.48304526007161E-02 
2345	-1.65506093525661E-02 
2346	-1.84414894517298E-02 
2347	-1.90671251191661E-02 
2348	-1.79589100899588E-02 
2349	-1.29766413989422E-02 
2350	-5.77879502572232E-03 
2351	 1.34715325832023E-03 
2352	 4.84371436269365E-03 
2353	 7.80655767156189E-04 
2354	-3.25148232408455E-03 
2355	-1.03528244405151E-02 
2356	-1.67688524806082E-02 
2357	-1.62499362828331E-02 
2358	-1.99616271700792E-02 
2359	-0.022715289252293 
2360	-0.016646042458904 
2361	-7.94584887179336E-03 
2362	-8.82465112714766E-03 
2363	-0.019338027717768 
2364	-2.87139931762912E-02 
2365	-3.52327332674911E-02 
2366	-2.94323651370122E-02 
2367	-1.38581986243161E-02 
2368	-1.77820406566572E-02 
2369	-1.76940084177787E-02 
2370	-5.15047762744035E-03 
2371	-9.91892190540187E-03 
2372	-4.44948615750264E-03 
2373	-7.48270057099139E-05 
2374	-1.72480295108499E-02 
2375	-2.56751476262045E-02 
2376	-5.24406653839015E-03 
2377	 1.52367004472871E-02 
2378	 1.70856757084903E-02 
2379	 2.40643443231805E-02 
2380	 1.79540665366769E-02 
2381	-9.58564226557715E-04 
2382	-3.37750255085181E-02 
2383	-6.21342362647387E-02 
2384	-6.15445780351836E-02 
2385	-8.11471184280235E-02 
2386	-5.73655810325998E-02 
2387	-2.49665312195857E-02 
2388	-5.20491530409143E-02 
2389	-4.09752250374075E-02 
2390	-2.47293393244715E-02 
2391	-1.40555760435443E-02 
2392	 1.62646932725392E-02 
2393	 2.19136521734037E-02 
2394	 1.05474274349546E-02 
2395	-1.57643111478827E-02 
2396	-3.68640074782986E-02 
2397	-6.55249899285108E-02 
2398	-9.56815256899085E-02 
2399	-6.34159736151441E-02 
2400	-2.22936237692321E-02 
2401	 2.52581634662402E-02 
2402	 0.07508856774701 
2403	 2.27599172412031E-02 
2404	-6.17641500162321E-02 
2405	-0.086014927937174 
2406	-7.97825390259701E-02 
2407	-0.022950863589495 
2408	 2.81633294421057E-02 
2409	-1.19707190755339E-03 
2410	-7.30879282789998E-02 
2411	-0.169107838083011 
2412	-0.169643333196264 
2413	-0.146932220905773 
2414	-0.18894599967729 
2415	-0.14368153873096 
2416	-0.208819782963754 
2417	-0.261929432015586 
2418	-0.195972830770406 
2419	-0.107452522734735 
2420	-0.106863926843936 
2421	-0.188520289055043 
2422	-0.217908049094831 
2423	-0.225631757269937 
2424	-0.172826869637635 
2425	-9.41204463822364E-02 
2426	-0.128713740354626 
2427	-0.161353631142286 
2428	-0.232394652491242 
2429	-0.260368833081111 
2430	-0.228532047506889 
2431	-0.276956681784877 
2432	-0.285997682930298 
2433	-0.204962421154035 
2434	-0.121272344336956 
2435	-0.047318787759763 
2436	-0.11472493436444 
2437	-0.265890459603957 
2438	-0.397420593997004 
2439	-0.454310470661121 
2440	-0.496348305928184 
2441	-0.469470104662857 
2442	-0.393583660785505 
2443	-0.461891802349674 
2444	-0.412954780323551 
2445	-0.257669058225196 
2446	-0.371611297332045 
2447	-1.9096791938111 
2448	 4.80568240845796 
2449	 0.832138783000476 
2450	 0.288085154565247 
2451	 1.97936867226967E-02 
2452	 0.490949374500074 
2453	 2.44967607882845 
2454	-173.739037360813 
2455	-3.0262144804807 
2456	-1.216254146688 
2457	-0.368559996602777 
2458	 4.52297550634571E-03 
2459	-0.141731809544895 
2460	-0.475254586481206 
2461	-1.17592046176471 
2462	-2.34769194244663 
2463	-1.81166796275008 
2464	-1.15078670852523 
2465	-1.41642062527644 
2466	-7.01877039185092 
2467	 6.43965757618077 
2468	-5.66661953114755 
2469	-51.5867113055471 
2470	 0.745980559861302 
2471	 9.63992208209147E-02 
2472	 0.945605651387527 
2473	 1.03074732021389 
2474	 1.46627435377256 
2475	 2.76481417441714 
2476	 1.60799545509785 
2477	 1.05695759026467 
2478	 0.323983964105944 
2479	 4.97872045637731E-03 
2480	-6.81012810616292E-02 
2481	 1.49099375360368 
2482	 2.31019962067775 
2483	 1.60707585756628 
2484	 0.695371413455525 
2485	 0.399040908120552 
2486	 0.206276362817569 
2487	 0.576676948500295 
2488	 1.37840763516492 
2489	 1.33354658308063 
2490	 1.06969780929779 
2491	 0.777403649055281 
2492	 0.876646412172394 
2493	 0.39057740576953 
2494	 0.612851168367951 
2495	-2.48951849249528E-02 
2496	-5.63090981099684E-04 
2497	 0.829830656309148 
2498	 1.11895360526605 
2499	 2.18217522052495 
2500	-0.324563258308867 
