Wavelength	rt0722close00006.asd
350	 1.81031243996773E-02 
351	 1.77197137025924E-02 
352	 0.017847753456843 
353	 1.81600845061872E-02 
354	 1.82848240900031E-02 
355	 1.83623425633296E-02 
356	 1.86320952359189E-02 
357	 1.88645085987821E-02 
358	 1.88258916977849E-02 
359	 1.88957415284241E-02 
360	 1.91874710280713E-02 
361	 1.93770974652195E-02 
362	 1.90065997134396E-02 
363	 1.92934026956125E-02 
364	 1.95514815363705E-02 
365	 1.95139083792825E-02 
366	 1.99018177220847E-02 
367	 1.99684616913401E-02 
368	 1.99712378017511E-02 
369	 2.02392991275848E-02 
370	 0.020424565425321 
371	 2.03863141049786E-02 
372	 2.02662218580695E-02 
373	 0.020382617292819 
374	 2.09842466647363E-02 
375	 2.12522497487629E-02 
376	 2.10736780265136E-02 
377	 2.14172328511755E-02 
378	 2.20076588794775E-02 
379	 2.22411570141407E-02 
380	 2.19118934640895E-02 
381	 2.22818245044563E-02 
382	 2.22931570834236E-02 
383	 2.23977740104488E-02 
384	 2.34093816055453E-02 
385	 2.33533181806381E-02 
386	 2.33910548213068E-02 
387	 2.38863542614925E-02 
388	 2.40591248823688E-02 
389	 2.43589828921953E-02 
390	 2.45233367787298E-02 
391	 2.44756894861253E-02 
392	 2.49286304564247E-02 
393	 2.49547049534744E-02 
394	 2.50319379005802E-02 
395	 2.57742841829154E-02 
396	 2.56191267915776E-02 
397	 2.58131309039369E-02 
398	 2.64221448861688E-02 
399	 2.64431903821292E-02 
400	 2.65857114572897E-02 
401	 2.67652978469886E-02 
402	 2.68880739337505E-02 
403	 2.71306028366469E-02 
404	 2.72611662402003E-02 
405	 2.74154829395969E-02 
406	 0.027772673331505 
407	 2.79386894434734E-02 
408	 2.80997760229134E-02 
409	 2.83211320420982E-02 
410	 2.85169946846368E-02 
411	 2.87439255627345E-02 
412	 2.89807768826653E-02 
413	 2.92034144134606E-02 
414	 2.94159096969257E-02 
415	 2.95695357005915E-02 
416	 2.97833365602477E-02 
417	 3.01773796073027E-02 
418	 3.04391743997335E-02 
419	 3.07704935616947E-02 
420	 0.031158675090501 
421	 3.13388574477511E-02 
422	 0.031597524246335 
423	 0.031853733940412 
424	 3.20777071418204E-02 
425	 3.26156530340743E-02 
426	 3.30876816858529E-02 
427	 3.34405438565273E-02 
428	 3.37756302826317E-02 
429	 3.40325071411427E-02 
430	 3.44050794135002E-02 
431	 3.48946330286595E-02 
432	 3.52628541766286E-02 
433	 3.56063639081797E-02 
434	 3.59406461816412E-02 
435	 3.62943028640192E-02 
436	 3.67955152702596E-02 
437	 3.72306587342623E-02 
438	 3.76112831984942E-02 
439	 3.80573634445677E-02 
440	 3.84703021645227E-02 
441	 3.88793600730718E-02 
442	 3.92739251524264E-02 
443	 3.95630102334681E-02 
444	 0.039875321646024 
445	 4.02412609871156E-02 
446	 4.06332689501882E-02 
447	 4.09200327123019E-02 
448	 4.12694713891158E-02 
449	 0.041632052251877 
450	 4.18247669702925E-02 
451	 4.21566842860853E-02 
452	 4.24702916696507E-02 
453	 4.26601912958393E-02 
454	 4.28527181029738E-02 
455	 4.31511748469301E-02 
456	 4.34290226444299E-02 
457	 4.35478910412908E-02 
458	 4.38143267868517E-02 
459	 4.40716237792747E-02 
460	 4.42360028498194E-02 
461	 4.43294733844893E-02 
462	 4.45911098272665E-02 
463	 0.044806454763409 
464	 4.48559146526651E-02 
465	 4.51414907906149E-02 
466	 4.54072543419717E-02 
467	 4.55796673482811E-02 
468	 4.56990585663275E-02 
469	 4.59476990835929E-02 
470	 4.61286043222244E-02 
471	 0.046233142697095 
472	 4.65446537814412E-02 
473	 4.69159128457215E-02 
474	 0.047182197309122 
475	 4.72849814326293E-02 
476	 4.75418921485843E-02 
477	 4.78335280908927E-02 
478	 4.80952393540527E-02 
479	 4.83130080915468E-02 
480	 4.85579859061367E-02 
481	 4.88348925629048E-02 
482	 4.91302246641918E-02 
483	 4.94036910877133E-02 
484	 4.98075800242895E-02 
485	 0.050291548530311 
486	 5.07164719594012E-02 
487	 5.09352594845657E-02 
488	 5.12462952458919E-02 
489	 5.16591228981858E-02 
490	 5.19039148826777E-02 
491	 5.23809027921819E-02 
492	 5.28411303844052E-02 
493	 5.31126616773525E-02 
494	 5.35860832260676E-02 
495	 5.40558319161255E-02 
496	 5.45448276760163E-02 
497	 5.51468468585608E-02 
498	 5.55558998337784E-02 
499	 5.59504263716459E-02 
500	 5.64552974560908E-02 
501	 5.70365505891598E-02 
502	 5.75760356552743E-02 
503	 5.80724815039754E-02 
504	 0.058566161819514 
505	 5.90869548856143E-02 
506	 5.96181262391344E-02 
507	 6.01509872398093E-02 
508	 6.06819867616285E-02 
509	 6.11731162954453E-02 
510	 6.16782698539134E-02 
511	 6.22284617916828E-02 
512	 6.27713824398374E-02 
513	 6.33404776587562E-02 
514	 6.39455640164925E-02 
515	 6.45823574141858E-02 
516	 6.52507171130012E-02 
517	 0.065962739886898 
518	 6.66762047493129E-02 
519	 6.72897501111031E-02 
520	 6.79568893712754E-02 
521	 6.86859237523383E-02 
522	 6.94319212855742E-02 
523	 7.00726679602664E-02 
524	 7.07690862481785E-02 
525	 7.15634982057288E-02 
526	 7.24006922158948E-02 
527	 7.31535418196196E-02 
528	 7.38660076789927E-02 
529	 7.45940969280205E-02 
530	 7.53660767778528E-02 
531	 7.61774916045135E-02 
532	 0.076977105261197 
533	 7.77204733125886E-02 
534	 7.85283566432147E-02 
535	 7.93708591790024E-02 
536	 8.01977508217039E-02 
537	 8.09440695545343E-02 
538	 8.18578727396533E-02 
539	 8.27712802776322E-02 
540	 8.35428412263932E-02 
541	 8.44688302090567E-02 
542	 8.53508265863981E-02 
543	 8.61654580047187E-02 
544	 8.70008672010595E-02 
545	 8.78466844945065E-02 
546	 8.86642866197515E-02 
547	 8.94601306491224E-02 
548	 9.03435499424394E-02 
549	 9.11678792552954E-02 
550	 9.19955765890227E-02 
551	 9.29186286987825E-02 
552	 9.37332755235025E-02 
553	 9.45848229386518E-02 
554	 9.54966388600909E-02 
555	 0.096330770919076 
556	 9.71048993649495E-02 
557	 0.097921679554749 
558	 0.098824458102255 
559	 9.96264543408775E-02 
560	 0.10038565214104 
561	 0.101133969443277 
562	 0.101887000246449 
563	 0.102607705946013 
564	 0.103312070965796 
565	 0.104005918025604 
566	 0.104674004443358 
567	 0.105185786983267 
568	 0.105643389234327 
569	 0.106207498140607 
570	 0.106821471188746 
571	 0.107355727815754 
572	 0.107790060461186 
573	 0.108223003799727 
574	 0.108543812127539 
575	 0.108852399493208 
576	 0.109223769732935 
577	 0.109509904384346 
578	 0.109733781104047 
579	 0.109929160314068 
580	 0.110128856462582 
581	 0.110266981588262 
582	 0.110328417116895 
583	 0.110320456062867 
584	 0.110271882908032 
585	 0.110246861325993 
586	 0.110167446159955 
587	 0.109936893365505 
588	 0.109708765507845 
589	 0.109496337790557 
590	 0.109300040189686 
591	 0.1090958683896 
592	 0.108765425636575 
593	 0.108348338751333 
594	 0.107855370358226 
595	 0.107056096657271 
596	 0.106291805793925 
597	 0.105521256784466 
598	 0.104534024020554 
599	 0.103712560546028 
600	 0.102988430820255 
601	 0.102337169826784 
602	 0.101908078749761 
603	 0.101587141834861 
604	 0.10141434734113 
605	 0.101425912399225 
606	 0.101377959709717 
607	 0.101386195501376 
608	 0.101450768470261 
609	 0.101442954886347 
610	 0.101539219565788 
611	 0.101660245306673 
612	 0.101693433531134 
613	 0.101560294459284 
614	 0.101628061679107 
615	 0.101798207092891 
616	 0.101745948923946 
617	 0.101779302183037 
618	 0.101761732386552 
619	 0.10167441826237 
620	 0.101769535435206 
621	 0.101741850696058 
622	 0.101669429348878 
623	 0.101704087087091 
624	 0.101709245276412 
625	 0.101709563162984 
626	 0.101720760679459 
627	 0.101741842751183 
628	 0.101706660397985 
629	 0.101666439295212 
630	 0.101664581206352 
631	 0.101665165264726 
632	 0.1016509510568 
633	 0.101624913749735 
634	 0.101605865423363 
635	 0.101644488567285 
636	 0.101631532029381 
637	 0.101551624228301 
638	 0.101544635107822 
639	 0.101407745761954 
640	 0.101254849330687 
641	 0.101228400389321 
642	 0.101187814051304 
643	 0.101109389361682 
644	 0.101009203431227 
645	 0.100928305352247 
646	 0.100750891610178 
647	 0.100595749050667 
648	 0.100539612310714 
649	 0.100478027678625 
650	 0.100225122962029 
651	 9.98606982775719E-02 
652	 0.099548115448568 
653	 9.91205745921123E-02 
654	 9.86513114018872E-02 
655	 9.81127439787322E-02 
656	 9.74026032142112E-02 
657	 9.67314536879563E-02 
658	 9.62030425910284E-02 
659	 9.58278886996751E-02 
660	 9.55115464526822E-02 
661	 9.51976494634579E-02 
662	 9.49169990624413E-02 
663	 0.094747025786918 
664	 9.45519117903753E-02 
665	 9.44246379868907E-02 
666	 9.43601526579873E-02 
667	 9.41204660147006E-02 
668	 9.40100428125751E-02 
669	 9.40227102149016E-02 
670	 9.40364266845428E-02 
671	 9.39082399757303E-02 
672	 9.38932212018717E-02 
673	 0.093969783077767 
674	 9.38608742779478E-02 
675	 9.38246255380095E-02 
676	 9.38418129111686E-02 
677	 9.38338250103572E-02 
678	 9.36829151685456E-02 
679	 0.093706335979209 
680	 9.38086722876105E-02 
681	 9.37405011121975E-02 
682	 9.36387985653608E-02 
683	 9.36801694222122E-02 
684	 9.37999930535705E-02 
685	 9.36028396144272E-02 
686	 9.35441909111076E-02 
687	 9.34417572040226E-02 
688	 9.30968622663143E-02 
689	 9.29348810844458E-02 
690	 9.25614288801798E-02 
691	 0.092058857364323 
692	 9.17462857650511E-02 
693	 9.12132900875571E-02 
694	 9.05563087933932E-02 
695	 8.99126219062589E-02 
696	 0.089280675497896 
697	 8.84557382401082E-02 
698	 8.75167426199822E-02 
699	 8.66437250284258E-02 
700	 8.56540294162689E-02 
701	 8.46874897942312E-02 
702	 8.37316371207333E-02 
703	 8.26261317715616E-02 
704	 0.081505517113454 
705	 8.02784093237846E-02 
706	 7.89084723768811E-02 
707	 7.74433207761921E-02 
708	 7.59499113376717E-02 
709	 7.43724455674151E-02 
710	 7.26321254495175E-02 
711	 7.08255508054645E-02 
712	 6.89288354766275E-02 
713	 6.69827639381188E-02 
714	 6.50443322616233E-02 
715	 6.30295172964559E-02 
716	 6.08404035665229E-02 
717	 5.85887592936533E-02 
718	 5.63137356853989E-02 
719	 5.38877918185339E-02 
720	 0.051810399492457 
721	 5.00886161349451E-02 
722	 4.82523799230814E-02 
723	 4.60277752974796E-02 
724	 4.37246988027266E-02 
725	 4.17060415891745E-02 
726	 3.94317799793855E-02 
727	 3.70032696993258E-02 
728	 3.46096648433764E-02 
729	 3.21259327787572E-02 
730	 2.95598882168571E-02 
731	 2.72503788811709E-02 
732	 2.54109631642719E-02 
733	 2.38005796179308E-02 
734	 2.23849854658525E-02 
735	 2.12173380717049E-02 
736	 0.020403662128231 
737	 1.97476156921619E-02 
738	 1.92233860943165E-02 
739	 0.018827520260524 
740	 1.84294654848998E-02 
741	 1.82469549856765E-02 
742	 1.81890941555197E-02 
743	 1.80377099094278E-02 
744	 1.80158193357327E-02 
745	 1.79754989882366E-02 
746	 1.78727800500452E-02 
747	 1.78474199314005E-02 
748	 1.78741692540827E-02 
749	 1.78618410189332E-02 
750	 1.77740654052124E-02 
751	 1.78113827914799E-02 
752	 1.78653867640704E-02 
753	 1.78467644936163E-02 
754	 1.77260205009001E-02 
755	 1.78383143733206E-02 
756	 0.017931539067311 
757	 1.78810376687369E-02 
758	 1.77956517126415E-02 
759	 0.017856113700638 
760	 1.80698519039409E-02 
761	 1.81362892641954E-02 
762	 1.80961428080666E-02 
763	 1.80885856404356E-02 
764	 1.81474880813411E-02 
765	 1.82445900042676E-02 
766	 1.83257865489808E-02 
767	 1.84244603798354E-02 
768	 1.85540155544785E-02 
769	 1.87014488996476E-02 
770	 0.018792478304815 
771	 1.88502518976032E-02 
772	 1.89474161872338E-02 
773	 1.92462191413507E-02 
774	 1.94361612141593E-02 
775	 1.96031445657014E-02 
776	 1.99369765719304E-02 
777	 2.00848898164421E-02 
778	 2.02680714851929E-02 
779	 0.020550929880926 
780	 2.08090181037466E-02 
781	 2.11912210090632E-02 
782	 2.15532790846982E-02 
783	 2.18148022884148E-02 
784	 2.21580841656173E-02 
785	 2.24624078512342E-02 
786	 2.27830672575106E-02 
787	 2.31901298889711E-02 
788	 2.34966821307821E-02 
789	 2.38812224129618E-02 
790	 2.43501755103203E-02 
791	 2.47683655712918E-02 
792	 2.51682108043201E-02 
793	 2.55302877369907E-02 
794	 2.58651777885256E-02 
795	 2.62232683500737E-02 
796	 0.026674713227363 
797	 2.70936273695872E-02 
798	 2.73955773843067E-02 
799	 0.027790092229453 
800	 2.80095944385743E-02 
801	 2.81812290059039E-02 
802	 2.85811662283886E-02 
803	 2.87693319800648E-02 
804	 2.89109931070059E-02 
805	 2.90942425720295E-02 
806	 2.92571320987508E-02 
807	 2.92012327711428E-02 
808	 2.90665943599683E-02 
809	 2.90145482097687E-02 
810	 2.90840327122133E-02 
811	 2.90499345458077E-02 
812	 2.88011178172512E-02 
813	 0.028385303653543 
814	 0.028484489766827 
815	 2.79720069610029E-02 
816	 2.70341663256342E-02 
817	 2.68349118480277E-02 
818	 2.62949442465167E-02 
819	 2.56490783146247E-02 
820	 2.49938787298572E-02 
821	 2.41293241281989E-02 
822	 0.023149400947706 
823	 0.021951022119849 
824	 2.06356301708272E-02 
825	 1.97327944630052E-02 
826	 1.85407150525234E-02 
827	 0.017021815152023 
828	 1.55319524917139E-02 
829	 1.43310184235819E-02 
830	 1.33224852959771E-02 
831	 1.24494996318228E-02 
832	 1.17289412597368E-02 
833	 1.11206880714784E-02 
834	 1.07590252302182E-02 
835	 1.05439764342385E-02 
836	 1.00812923269815E-02 
837	 9.68347330366599E-03 
838	 9.37418310341005E-03 
839	 9.16292124270738E-03 
840	 9.21119237356085E-03 
841	 9.19423732330122E-03 
842	 9.00592124645412E-03 
843	 8.71217179289927E-03 
844	 8.68713134724814E-03 
845	 8.68900546236493E-03 
846	 8.58255688760931E-03 
847	 8.3470598519096E-03 
848	 8.10239441103923E-03 
849	 7.95909830247204E-03 
850	 7.82992369623502E-03 
851	 7.41838306420067E-03 
852	 7.37057591777389E-03 
853	 7.56610204159362E-03 
854	 7.67285099082555E-03 
855	 7.31340655461379E-03 
856	 7.09776307576966E-03 
857	 7.12456926649012E-03 
858	 7.26781355647616E-03 
859	 7.23030107689323E-03 
860	 7.02367309423785E-03 
861	 6.75604348978702E-03 
862	 6.59271540232282E-03 
863	 6.71207685274122E-03 
864	 6.67664983233912E-03 
865	 6.43507749103107E-03 
866	 6.3177270415371E-03 
867	 6.25944206185122E-03 
868	 6.11263434970712E-03 
869	 5.94554027450373E-03 
870	 6.09772957104756E-03 
871	 6.0644515547143E-03 
872	 5.86013337247646E-03 
873	 5.65122388984493E-03 
874	 5.66872049736011E-03 
875	 5.6532717882576E-03 
876	 5.50017405920339E-03 
877	 5.23065962858193E-03 
878	 5.07134281627251E-03 
879	 5.1492586783959E-03 
880	 5.29623362330938E-03 
881	 5.21696947177369E-03 
882	 4.78855063036325E-03 
883	 4.66012207250803E-03 
884	 4.7999278578806E-03 
885	 4.68604570674857E-03 
886	 4.60301348588975E-03 
887	 4.68059743206102E-03 
888	 4.75390098996011E-03 
889	 4.40287699755049E-03 
890	 4.22735228366771E-03 
891	 4.21477469682887E-03 
892	 4.20922102245505E-03 
893	 4.00156238841712E-03 
894	 3.83250821087636E-03 
895	 3.87314056140899E-03 
896	 4.16115069860816E-03 
897	 4.43504908432687E-03 
898	 4.1106264343092E-03 
899	 3.51592158028702E-03 
900	 3.3105098633978E-03 
901	 3.9317151668588E-03 
902	 3.76460455479563E-03 
903	 3.44455039341746E-03 
904	 4.00390603303986E-03 
905	 3.86141493982324E-03 
906	 3.30542464876463E-03 
907	 3.08677052477693E-03 
908	 3.90201437000208E-03 
909	 3.58123329740148E-03 
910	 3.16591738484245E-03 
911	 3.08014803242306E-03 
912	 2.90899918776589E-03 
913	 2.81194833524038E-03 
914	 2.9145796780438E-03 
915	 3.36964233525382E-03 
916	 4.17472335996746E-03 
917	 3.05848715326801E-03 
918	 2.44129906285331E-03 
919	 3.22077292510243E-03 
920	 3.51603305672837E-03 
921	 3.26948496990229E-03 
922	 3.14552353892813E-03 
923	 3.38611816414458E-03 
924	 2.98158239832771E-03 
925	 3.40460863259045E-03 
926	 4.06897889321715E-03 
927	 3.68331836947877E-03 
928	 8.53223790038524E-04 
929	 1.13878038712536E-03 
930	 2.80810144973987E-03 
931	 4.96857361629975E-04 
932	 1.59023754200722E-03 
933	 3.27018536372337E-03 
934	 3.72247793197233E-03 
935	 3.07556235057589E-03 
936	 3.9139671792571E-03 
937	 5.16506033848193E-03 
938	 5.25864695624843E-03 
939	 3.39869484023872E-03 
940	 7.48567535014124E-04 
941	 4.91774200548846E-03 
942	 8.96620259146541E-03 
943	 2.38019534106199E-03 
944	 1.26846177503568E-03 
945	 2.48406733594581E-03 
946	 3.63870472816078E-03 
947	 3.78260203777876E-03 
948	 2.62939282891102E-03 
949	 1.45669399458802E-03 
950	 2.13097554268862E-03 
951	 5.42586357857583E-03 
952	 5.03502137878229E-03 
953	 3.96271672206211E-03 
954	 4.61695819023549E-03 
955	 6.99825124824619E-03 
956	 2.96277379085019E-03 
957	 8.2061452370647E-04 
958	 2.27615784561659E-03 
959	 3.38455123315708E-03 
960	 2.62634246525398E-03 
961	 3.3767586912681E-03 
962	 4.69424118019122E-03 
963	 3.38827895183024E-03 
964	 3.9666277476738E-03 
965	 2.66187852985671E-03 
966	 1.00940379990113E-03 
967	 3.41476691431357E-03 
968	 3.50902083767513E-03 
969	 3.38373086704116E-03 
970	 3.46120077314892E-03 
971	 2.45874852155398E-03 
972	 3.04912313128548E-03 
973	 2.55529419520499E-03 
974	 1.28497676832899E-03 
975	 2.3404058308323E-03 
976	 1.9213150078647E-03 
977	 0.002007790535212 
978	 2.32969381777563E-03 
979	 8.49163924468719E-04 
980	 1.60144232858409E-03 
981	 2.5183127472782E-03 
982	 2.74878308646569E-03 
983	 2.82462120159486E-03 
984	 1.67712252384482E-03 
985	 1.92848076863691E-03 
986	 3.23792282535407E-03 
987	 3.12889147331511E-03 
988	 3.59645624098353E-03 
989	 3.41858388942984E-03 
990	 2.7729533788064E-03 
991	 2.77749497131192E-03 
992	 1.86572046997626E-03 
993	 2.4737465242199E-03 
994	 3.48663853459074E-03 
995	 2.05675150753634E-03 
996	 1.88803098541863E-03 
997	 8.99072612885894E-04 
998	 1.21508676958041E-03 
999	 5.34653955786089E-03 
1000	 2.6975427461739E-03 
1001	 3.79896212429952E-03 
1002	 3.50124834996353E-03 
1003	 3.45750735890173E-03 
1004	 3.82008934546823E-03 
1005	 3.80382670356179E-03 
1006	 3.49598662595749E-03 
1007	 3.42318846610355E-03 
1008	 3.31797604685501E-03 
1009	 3.11092886472477E-03 
1010	 3.32069616133025E-03 
1011	 3.2323657298056E-03 
1012	 3.1289107603211E-03 
1013	 3.05984892004438E-03 
1014	 3.03348465240891E-03 
1015	 3.00366081259906E-03 
1016	 3.14371088361831E-03 
1017	 3.53079621075597E-03 
1018	 3.56473207236685E-03 
1019	 3.52994715089069E-03 
1020	 3.40355727423219E-03 
1021	 2.91023662278011E-03 
1022	 2.71248272874727E-03 
1023	 2.77608084158458E-03 
1024	 2.7837582479135E-03 
1025	 2.93520455001167E-03 
1026	 3.12041779750765E-03 
1027	 3.09160440400399E-03 
1028	 2.82751565819984E-03 
1029	 2.85440657432362E-03 
1030	 2.85105352348238E-03 
1031	 2.94087163222195E-03 
1032	 3.28893879554742E-03 
1033	 3.47436100109988E-03 
1034	 3.84139066116763E-03 
1035	 3.75176456926327E-03 
1036	 3.20415965742838E-03 
1037	 2.96289081358699E-03 
1038	 2.52384010555669E-03 
1039	 2.16629124204436E-03 
1040	 2.32008617687597E-03 
1041	 2.66076078154456E-03 
1042	 2.64033920767037E-03 
1043	 2.38431496898526E-03 
1044	 2.62818456999779E-03 
1045	 3.02974835967839E-03 
1046	 3.11667584998796E-03 
1047	 3.44627425233403E-03 
1048	 3.58111712551727E-03 
1049	 3.26920050166126E-03 
1050	 3.23560590494527E-03 
1051	 3.48769383226368E-03 
1052	 3.52710597593812E-03 
1053	 3.42709571480987E-03 
1054	 3.31973043861448E-03 
1055	 3.04646356701185E-03 
1056	 2.9774590370589E-03 
1057	 2.98297223967998E-03 
1058	 3.0720803751707E-03 
1059	 3.04473880645422E-03 
1060	 3.10113466085414E-03 
1061	 3.12345301688525E-03 
1062	 3.06875968549189E-03 
1063	 2.96386828337521E-03 
1064	 2.80612370421844E-03 
1065	 2.81507393903317E-03 
1066	 2.76266547775562E-03 
1067	 2.79704414199386E-03 
1068	 3.19133894187392E-03 
1069	 3.29477185376821E-03 
1070	 3.15578494735093E-03 
1071	 3.14048278900621E-03 
1072	 3.22672771122979E-03 
1073	 3.07455833398148E-03 
1074	 2.94149243728337E-03 
1075	 2.79511570636154E-03 
1076	 2.7107886557816E-03 
1077	 2.45676969848528E-03 
1078	 2.46061207907041E-03 
1079	 2.71516360793109E-03 
1080	 2.85685965885351E-03 
1081	 3.15814261073382E-03 
1082	 3.20853278540756E-03 
1083	 3.09453930980465E-03 
1084	 2.99521957803715E-03 
1085	 2.49649079429175E-03 
1086	 2.48987465738473E-03 
1087	 3.1854231457665E-03 
1088	 3.24798092554641E-03 
1089	 3.08069910585106E-03 
1090	 3.03638794692838E-03 
1091	 2.92663658306069E-03 
1092	 2.14811600954701E-03 
1093	 2.14857619084014E-03 
1094	 2.9042054418526E-03 
1095	 3.00776347237609E-03 
1096	 3.04377843989077E-03 
1097	 3.05713333292079E-03 
1098	 2.55519693408156E-03 
1099	 2.56025060141636E-03 
1100	 3.13882741556343E-03 
1101	 3.23822749819489E-03 
1102	 3.30170843756123E-03 
1103	 3.36783194036029E-03 
1104	 3.22165744296027E-03 
1105	 2.6929656387222E-03 
1106	 2.80306906060996E-03 
1107	 3.24494651738184E-03 
1108	 3.4528813644275E-03 
1109	 3.54270129370437E-03 
1110	 3.63087794230014E-03 
1111	 3.44852563630253E-03 
1112	 3.4362251789731E-03 
1113	 3.63759423274397E-03 
1114	 3.82521963366489E-03 
1115	 3.83187693610033E-03 
1116	 3.72601213722241E-03 
1117	 3.68349651394611E-03 
1118	 4.19472121706489E-03 
1119	 5.34994864206932E-03 
1120	 5.93204561914194E-03 
1121	 8.59128102024881E-03 
1122	 5.89730959824371E-03 
1123	 1.7246239815876E-03 
1124	 6.98012630291698E-03 
1125	 1.15251928708436E-02 
1126	 9.65279208651191E-03 
1127	 6.06137077846229E-03 
1128	 3.14867321506899E-03 
1129	 2.55345819836973E-03 
1130	 3.32866753380232E-03 
1131	 3.67570755152113E-03 
1132	 5.04094475796046E-03 
1133	 5.12446709447156E-03 
1134	 4.64972715605935E-03 
1135	 4.73134079633239E-03 
1136	 4.73212058138316E-03 
1137	 5.02809721020296E-03 
1138	 5.90319943307379E-03 
1139	 5.68898270473121E-03 
1140	 3.53979777544456E-03 
1141	 2.85657093513433E-03 
1142	 3.42837922153812E-03 
1143	 3.14985948387535E-03 
1144	 5.07734939160899E-03 
1145	 7.8604130741316E-03 
1146	 5.19689886807318E-03 
1147	 2.20536223883115E-03 
1148	 2.89002108734353E-03 
1149	 3.13150765369851E-03 
1150	 3.36569075478785E-03 
1151	 6.19346188075875E-03 
1152	 6.04367117047144E-03 
1153	 3.02258032487668E-03 
1154	 2.93584193036651E-03 
1155	 3.67855740305217E-03 
1156	 4.15672841827168E-03 
1157	 3.80567927530468E-03 
1158	 3.16211303066969E-03 
1159	 2.24123665588451E-03 
1160	 1.75211764183006E-03 
1161	 2.43367365464143E-03 
1162	 2.83111087936212E-03 
1163	 2.04749775006897E-03 
1164	 1.88975672229983E-03 
1165	 2.32072394919197E-03 
1166	 2.25790117033756E-03 
1167	 2.65047218524099E-03 
1168	 3.01415763954015E-03 
1169	 2.43766093569864E-03 
1170	 2.15171856601451E-03 
1171	 2.11960154591813E-03 
1172	 2.32853658253558E-03 
1173	 2.2806879124893E-03 
1174	 2.27187019009751E-03 
1175	 0.002352814379901 
1176	 2.01933066514476E-03 
1177	 1.99327734205382E-03 
1178	 2.35880186655219E-03 
1179	 2.32679180721757E-03 
1180	 2.30500199157525E-03 
1181	 2.3708986450955E-03 
1182	 2.0833284781696E-03 
1183	 2.12154006223158E-03 
1184	 2.58316144224641E-03 
1185	 2.71586665479621E-03 
1186	 2.46018337513756E-03 
1187	 2.32598979729274E-03 
1188	 2.50100991581453E-03 
1189	 2.57883252553203E-03 
1190	 2.50718559076323E-03 
1191	 2.55140281906593E-03 
1192	 2.55522824221037E-03 
1193	 2.30444612679022E-03 
1194	 2.12463652887507E-03 
1195	 2.44305497623702E-03 
1196	 2.47831048783869E-03 
1197	 2.10482190764133E-03 
1198	 2.14675851856392E-03 
1199	 2.19359870226229E-03 
1200	 2.10412606755733E-03 
1201	 2.40868437282495E-03 
1202	 2.53602589406289E-03 
1203	 2.30672529462532E-03 
1204	 2.2416115308245E-03 
1205	 2.37359007277254E-03 
1206	 2.42931395434999E-03 
1207	 2.20105352131256E-03 
1208	 2.11803616205761E-03 
1209	 2.26938322830587E-03 
1210	 2.11717075093805E-03 
1211	 1.92884081120656E-03 
1212	 2.0031124158476E-03 
1213	 2.03365464563231E-03 
1214	 2.01648408283347E-03 
1215	 2.02946374198177E-03 
1216	 2.1916502660241E-03 
1217	 2.11852984810055E-03 
1218	 2.03219795166877E-03 
1219	 2.23683315437202E-03 
1220	 2.41086703639684E-03 
1221	 2.47802644483303E-03 
1222	 2.50877503690262E-03 
1223	 2.35524448266733E-03 
1224	 2.17677769034012E-03 
1225	 2.22783228803328E-03 
1226	 2.36346786841094E-03 
1227	 2.31661049839303E-03 
1228	 2.22812619420138E-03 
1229	 2.29225607742507E-03 
1230	 2.25953807822337E-03 
1231	 2.15634343339481E-03 
1232	 2.18020669128218E-03 
1233	 2.13404757713635E-03 
1234	 2.04643866392872E-03 
1235	 2.08090470808535E-03 
1236	 2.30190152920126E-03 
1237	 2.27582987726203E-03 
1238	 2.15116682646372E-03 
1239	 2.19931098882738E-03 
1240	 2.22138108063186E-03 
1241	 2.06695594254486E-03 
1242	 2.2959750463926E-03 
1243	 2.64105815674764E-03 
1244	 2.50413549689827E-03 
1245	 2.34108417885219E-03 
1246	 2.53249445017114E-03 
1247	 2.46778160257931E-03 
1248	 2.19983975628484E-03 
1249	 2.32555940844735E-03 
1250	 2.32290028368002E-03 
1251	 2.0010306224862E-03 
1252	 2.02550405402796E-03 
1253	 2.31092923063603E-03 
1254	 2.32448990133621E-03 
1255	 2.18032798478344E-03 
1256	 2.22356082580339E-03 
1257	 2.40349033792378E-03 
1258	 2.39614651285791E-03 
1259	 2.36442220862342E-03 
1260	 2.38150099496173E-03 
1261	 2.23621211657304E-03 
1262	 2.18880984167952E-03 
1263	 2.1905635245432E-03 
1264	 2.43429764177322E-03 
1265	 2.48575748279341E-03 
1266	 2.20754283159447E-03 
1267	 2.0301147800921E-03 
1268	 0.002059672025557 
1269	 2.01537628047574E-03 
1270	 2.04238040786462E-03 
1271	 2.29348390050204E-03 
1272	 2.30668112392805E-03 
1273	 2.14971525736378E-03 
1274	 2.28909542972031E-03 
1275	 2.41965810305702E-03 
1276	 2.46600501494378E-03 
1277	 2.44833851459263E-03 
1278	 2.3371626282412E-03 
1279	 2.33427637926704E-03 
1280	 2.26181428489349E-03 
1281	 2.19017480550313E-03 
1282	 0.002339777750439 
1283	 2.32077634035888E-03 
1284	 1.99827356066767E-03 
1285	 2.03378600264924E-03 
1286	 2.36434401099081E-03 
1287	 2.36745216313865E-03 
1288	 2.39248265383224E-03 
1289	 2.34318296598632E-03 
1290	 1.98520279709547E-03 
1291	 1.80465846190733E-03 
1292	 2.01530720851403E-03 
1293	 1.95742577375905E-03 
1294	 1.80010262070861E-03 
1295	 0.001771106084849 
1296	 1.7687269039069E-03 
1297	 2.03374825121722E-03 
1298	 2.35487541268407E-03 
1299	 2.33574703574864E-03 
1300	 2.07284143529048E-03 
1301	 1.85534780644896E-03 
1302	 1.97758494827056E-03 
1303	 2.18622864582082E-03 
1304	 2.1649489505637E-03 
1305	 2.31128703678867E-03 
1306	 2.46454789357415E-03 
1307	 2.35365729096338E-03 
1308	 2.29390046687488E-03 
1309	 2.55260108629504E-03 
1310	 2.62757371051741E-03 
1311	 2.23610546976947E-03 
1312	 2.28666241030693E-03 
1313	 2.88727670230423E-03 
1314	 3.02558636451953E-03 
1315	 3.03917642997549E-03 
1316	 2.97484912035812E-03 
1317	 2.47785810524305E-03 
1318	 2.21543168841815E-03 
1319	 2.14333052624134E-03 
1320	 2.05717275143283E-03 
1321	 2.15403895721946E-03 
1322	 1.97223072178135E-03 
1323	 2.07743224470056E-03 
1324	 2.20023296791736E-03 
1325	 2.18258528490022E-03 
1326	 2.55831278651949E-03 
1327	 3.00872491994079E-03 
1328	 2.92631376447435E-03 
1329	 2.64442235105235E-03 
1330	 2.28505398532176E-03 
1331	 2.03582871975536E-03 
1332	 1.75605545167228E-03 
1333	 1.49268245913323E-03 
1334	 2.23086799996575E-03 
1335	 2.43069952601068E-03 
1336	 2.00259005141538E-03 
1337	 1.95172855978717E-03 
1338	 2.6914861837768E-03 
1339	 2.72908192344046E-03 
1340	 1.83045218468064E-03 
1341	 2.17131710380901E-03 
1342	 3.72166356846005E-03 
1343	 3.46595036647612E-03 
1344	 1.98150302772406E-03 
1345	 2.63402603591161E-03 
1346	 3.37657847798328E-03 
1347	 2.70510455728735E-03 
1348	 5.17286633645263E-03 
1349	 7.91197088158502E-03 
1350	 3.5996380721024E-03 
1351	 3.37906319628169E-03 
1352	 2.06525025082419E-02 
1353	 2.99226603878151E-02 
1354	 2.03772435375552E-02 
1355	 1.97340967193331E-02 
1356	 1.77908041381376E-02 
1357	 1.47815840006331E-02 
1358	 6.60559538508728E-02 
1359	 0.155277832770647 
1360	 0.201980254331111 
1361	 0.150282630552511 
1362	 0.210003585331589 
1363	 0.442303191438553 
1364	 0.450366362104154 
1365	 0.3298722844756 
1366	 0.403200413682721 
1367	 0.425941290824024 
1368	 0.377140527202424 
1369	 0.31011158218225 
1370	 0.376946427880139 
1371	 0.350576142351346 
1372	 0.270454189216934 
1373	 0.416544389082096 
1374	 0.37115611505905 
1375	-3.99966994354522E-02 
1376	-5.64270539849323E-03 
1377	 0.81599878367574 
1378	 0.762151274293585 
1379	 0.100013672304854 
1380	 0.18253158672486 
1381	 5.25390626325551E-02 
1382	-5.75382370402468E-02 
1383	 0.628711671261956 
1384	 1.05188621682566 
1385	 0.45189826239359 
1386	 0.365912735505575 
1387	 1.07162114005445 
1388	 1.02729557735945 
1389	 0.253319198350828 
1390	 0.196822718789116 
1391	 0.381017373035171 
1392	 0.303640331529279 
1393	 0.455890936816598 
1394	 1.09213025063091 
1395	 0.547545203902787 
1396	 0.346145663838157 
1397	 0.391217027331356 
1398	 0.406965828522879 
1399	 0.194817530695643 
1400	 0.243340936087382 
1401	 0.720594506638543 
1402	 0.663179479400849 
1403	 0.655534520750187 
1404	 0.724639141192768 
1405	 0.64021083424755 
1406	 0.431064079486355 
1407	 0.320529039286807 
1408	 9.07348686266807E-02 
1409	 0.102812036106074 
1410	 0.266953925889705 
1411	 0.227926288212569 
1412	 0.189495779987754 
1413	 0.212358776857043 
1414	 0.204927884954347 
1415	 0.13881159132563 
1416	 7.73822202893547E-02 
1417	 9.23707507895469E-02 
1418	 9.86748405491183E-02 
1419	 6.66713219074396E-02 
1420	 0.062162332544329 
1421	 8.04364870870019E-02 
1422	 9.99273989989131E-02 
1423	 6.84692789797705E-02 
1424	 0.028278687113274 
1425	 0.028842957984658 
1426	 1.37247385290436E-02 
1427	 6.76492979153531E-03 
1428	 0.037142676829998 
1429	 4.37177612371815E-02 
1430	 2.17512284389263E-02 
1431	 1.68301717147964E-02 
1432	 2.78528503909999E-02 
1433	 2.56046453558662E-02 
1434	 1.29080083963389E-02 
1435	 1.21092558598631E-02 
1436	 9.5315263550852E-03 
1437	 1.06990638818123E-02 
1438	 3.30967339247121E-02 
1439	 3.52158248457774E-02 
1440	 2.02007180069279E-02 
1441	 2.17398928825186E-02 
1442	 0.020443775460563 
1443	 1.07884006680842E-02 
1444	 1.09101055465997E-02 
1445	 1.50430270709948E-02 
1446	 1.01098003159722E-02 
1447	 4.48654729832852E-03 
1448	 5.18950528707914E-03 
1449	 5.79325096303974E-03 
1450	 7.53298127083623E-03 
1451	 1.07956354463598E-02 
1452	 1.10144673538487E-02 
1453	 8.7148702127967E-03 
1454	 6.73702543105816E-03 
1455	 2.94078347174708E-03 
1456	 2.46491853616597E-03 
1457	 3.03399729451774E-03 
1458	 3.00468259647555E-03 
1459	 3.92129721942122E-03 
1460	 4.34954060581985E-03 
1461	 4.47849125319799E-03 
1462	 3.97288148921907E-03 
1463	 2.85168491659262E-03 
1464	 2.85344741890765E-03 
1465	 2.58892016929686E-03 
1466	 2.73939690454681E-03 
1467	 4.91878024072268E-03 
1468	 5.59438194981415E-03 
1469	 5.09476316496021E-03 
1470	 4.44217792738165E-03 
1471	 2.6265972164555E-03 
1472	 2.55844806943956E-03 
1473	 3.57131400826375E-03 
1474	 3.81501741699367E-03 
1475	 4.98426174994112E-03 
1476	 4.55872342688639E-03 
1477	 2.31047133092893E-03 
1478	 1.78107504634009E-03 
1479	 1.40320582282064E-03 
1480	 1.53834511798903E-03 
1481	 2.65286733087471E-03 
1482	 3.02267692655543E-03 
1483	 3.49676182748577E-03 
1484	 3.56500502463807E-03 
1485	 2.90970494336801E-03 
1486	 3.05297030386871E-03 
1487	 3.89527779935351E-03 
1488	 3.57888654016174E-03 
1489	 2.80190009914386E-03 
1490	 2.69947746913116E-03 
1491	 2.22184792048587E-03 
1492	 2.01895109942964E-03 
1493	 2.38506582620435E-03 
1494	 0.002583707995697 
1495	 2.76337839024609E-03 
1496	 2.80253964841111E-03 
1497	 2.98093016232158E-03 
1498	 2.85752859846584E-03 
1499	 2.07633898819761E-03 
1500	 1.94966415304756E-03 
1501	 2.26247002803396E-03 
1502	 2.29558273345634E-03 
1503	 2.51356347581058E-03 
1504	 2.63065947784297E-03 
1505	 2.54867040522678E-03 
1506	 2.29577443137693E-03 
1507	 2.36250271027022E-03 
1508	 2.45748442703223E-03 
1509	 2.27403165424458E-03 
1510	 2.12380014721557E-03 
1511	 1.97144538664512E-03 
1512	 1.8655477715549E-03 
1513	 1.84243432200711E-03 
1514	 1.71015087091568E-03 
1515	 1.78051958521982E-03 
1516	 2.05936153425797E-03 
1517	 2.08981088851262E-03 
1518	 1.97343627310222E-03 
1519	 1.89780300378392E-03 
1520	 1.69131613655597E-03 
1521	 1.56280870647166E-03 
1522	 1.78252853652148E-03 
1523	 1.88624555225036E-03 
1524	 1.68451518536811E-03 
1525	 1.6519629347862E-03 
1526	 1.81468534845888E-03 
1527	 0.001758367055092 
1528	 1.7020962920706E-03 
1529	 1.87424858224137E-03 
1530	 1.98630537747672E-03 
1531	 2.02694967379029E-03 
1532	 2.10992857603823E-03 
1533	 0.002180217140559 
1534	 2.07793738953058E-03 
1535	 1.93688576603758E-03 
1536	 1.99920585020931E-03 
1537	 1.98794301138484E-03 
1538	 1.81165377938702E-03 
1539	 1.85950682999278E-03 
1540	 2.02810188722615E-03 
1541	 2.0509382276407E-03 
1542	 1.9631676011376E-03 
1543	 1.87707211264147E-03 
1544	 2.0319434976953E-03 
1545	 2.13096715769035E-03 
1546	 1.9245832272018E-03 
1547	 1.85435115997271E-03 
1548	 2.05118942083332E-03 
1549	 2.19942554838593E-03 
1550	 2.11243726578395E-03 
1551	 1.94294847132777E-03 
1552	 1.81557355064118E-03 
1553	 1.62049612846059E-03 
1554	 1.57491402255215E-03 
1555	 1.86052184422887E-03 
1556	 1.89459513641186E-03 
1557	 1.70261061490406E-03 
1558	 1.78204022724005E-03 
1559	 1.79191400947269E-03 
1560	 1.59180394440443E-03 
1561	 1.51680815199012E-03 
1562	 1.71980602224778E-03 
1563	 1.9605972346821E-03 
1564	 2.03873366968828E-03 
1565	 2.12674695160107E-03 
1566	 2.17481547661666E-03 
1567	 1.89055342077229E-03 
1568	 1.64357657070016E-03 
1569	 1.88344152802978E-03 
1570	 2.00515349018774E-03 
1571	 1.93768591904115E-03 
1572	 2.0388817967488E-03 
1573	 1.94399699160251E-03 
1574	 1.68676471992934E-03 
1575	 1.58728821903678E-03 
1576	 1.64576868159621E-03 
1577	 0.001719140356702 
1578	 1.76316867963093E-03 
1579	 1.83088894697793E-03 
1580	 1.85364690369791E-03 
1581	 1.76594828098455E-03 
1582	 1.63624822266211E-03 
1583	 1.53320436860972E-03 
1584	 1.64076820799514E-03 
1585	 1.87380357606443E-03 
1586	 1.83178030261953E-03 
1587	 1.78799045322767E-03 
1588	 1.98200441521626E-03 
1589	 1.9597238318913E-03 
1590	 1.68922259251631E-03 
1591	 1.71343954422551E-03 
1592	 2.05626862764525E-03 
1593	 2.10221645851339E-03 
1594	 1.80928966509039E-03 
1595	 1.72382609736974E-03 
1596	 1.69407630838985E-03 
1597	 1.48017562911001E-03 
1598	 1.59830325398726E-03 
1599	 1.91684921052257E-03 
1600	 1.88094837063225E-03 
1601	 1.7985234409092E-03 
1602	 1.9005200037301E-03 
1603	 1.93057422972102E-03 
1604	 1.88396481131487E-03 
1605	 1.76099357286949E-03 
1606	 1.79315494821507E-03 
1607	 2.20415075565058E-03 
1608	 2.15287948733169E-03 
1609	 1.69222384875337E-03 
1610	 1.76356824227176E-03 
1611	 1.86839929545942E-03 
1612	 1.72730647536458E-03 
1613	 1.9221041941987E-03 
1614	 2.30730512218039E-03 
1615	 2.10688908435998E-03 
1616	 1.51447183278124E-03 
1617	 1.42225414468626E-03 
1618	 1.65936382290287E-03 
1619	 1.77341880556224E-03 
1620	 1.69037473546558E-03 
1621	 1.58477812371087E-03 
1622	 1.49269362940978E-03 
1623	 1.36378160053481E-03 
1624	 1.65071570369204E-03 
1625	 2.13085632160581E-03 
1626	 1.95998489872089E-03 
1627	 1.52404799918792E-03 
1628	 1.75503129307418E-03 
1629	 2.12363183023939E-03 
1630	 2.13621845642163E-03 
1631	 2.25080066498867E-03 
1632	 2.19550380574383E-03 
1633	 1.84498044251529E-03 
1634	 1.79058962025673E-03 
1635	 2.00999601188501E-03 
1636	 2.1734009324093E-03 
1637	 2.11349750478045E-03 
1638	 1.76649654070245E-03 
1639	 1.60305325468655E-03 
1640	 1.82134040653617E-03 
1641	 2.03523451102732E-03 
1642	 2.26443019266062E-03 
1643	 2.29528091847967E-03 
1644	 2.04629323266787E-03 
1645	 2.07117668829208E-03 
1646	 2.07582817431629E-03 
1647	 1.94209493966178E-03 
1648	 2.00233702871013E-03 
1649	 1.9252164718285E-03 
1650	 1.87756460194943E-03 
1651	 2.14534751665817E-03 
1652	 2.21688604281388E-03 
1653	 1.96431523726707E-03 
1654	 1.90912623090235E-03 
1655	 1.91180026210513E-03 
1656	 1.95855689105788E-03 
1657	 2.07417923944684E-03 
1658	 2.06513083959312E-03 
1659	 2.15514903884523E-03 
1660	 2.21052392176419E-03 
1661	 2.16295678047145E-03 
1662	 2.02836888000695E-03 
1663	 1.70977087360953E-03 
1664	 1.84033213012279E-03 
1665	 2.13408235248419E-03 
1666	 2.14833205518363E-03 
1667	 2.52123746373796E-03 
1668	 2.08696483710051E-03 
1669	 1.65856060963994E-03 
1670	 1.87819059066627E-03 
1671	 2.03970489687936E-03 
1672	 1.83314430136569E-03 
1673	 1.79966655497502E-03 
1674	 0.002061629562469 
1675	 2.09197560649738E-03 
1676	 2.09989735644528E-03 
1677	 2.20241732929088E-03 
1678	 1.82667877250781E-03 
1679	 1.51041823886701E-03 
1680	 1.87233691774606E-03 
1681	 2.1078502147657E-03 
1682	 2.00547774802303E-03 
1683	 2.1944698135425E-03 
1684	 2.30958652338285E-03 
1685	 2.08225645771302E-03 
1686	 2.0701086438306E-03 
1687	 2.04954852511666E-03 
1688	 1.83229235961628E-03 
1689	 1.99521309164605E-03 
1690	 2.51041985982342E-03 
1691	 2.73582330246871E-03 
1692	 2.3607488522329E-03 
1693	 2.1330438491976E-03 
1694	 2.21459527205925E-03 
1695	 1.96671567973915E-03 
1696	 1.83109167681157E-03 
1697	 2.0118282462902E-03 
1698	 1.92979123084433E-03 
1699	 1.98709277317055E-03 
1700	 2.68416995140749E-03 
1701	 2.69317869751907E-03 
1702	 2.08787261294354E-03 
1703	 2.19540283579163E-03 
1704	 2.15625693255014E-03 
1705	 2.22572249416877E-03 
1706	 2.85883223718369E-03 
1707	 2.76205120225388E-03 
1708	 2.32981457390132E-03 
1709	 2.37278508687024E-03 
1710	 2.51618387009425E-03 
1711	 2.57422444553082E-03 
1712	 2.51084829741174E-03 
1713	 2.19372928341305E-03 
1714	 2.10107239065586E-03 
1715	 2.08174092577827E-03 
1716	 2.00453780406152E-03 
1717	 1.95021435110066E-03 
1718	 2.1997004361379E-03 
1719	 2.2810723789493E-03 
1720	 2.25656775965778E-03 
1721	 2.61086818710144E-03 
1722	 2.49544005599088E-03 
1723	 2.10217742466029E-03 
1724	 2.1599218725255E-03 
1725	 0.001908853054878 
1726	 1.67512311605499E-03 
1727	 1.89983740540209E-03 
1728	 1.78317982249976E-03 
1729	 1.91078336608401E-03 
1730	 2.64271303859164E-03 
1731	 2.80548131999252E-03 
1732	 2.63950008011098E-03 
1733	 2.56720813099618E-03 
1734	 2.10300830014825E-03 
1735	 1.62948874096398E-03 
1736	 1.46094554435814E-03 
1737	 1.79576225675302E-03 
1738	 2.22978303214647E-03 
1739	 2.26364138971526E-03 
1740	 2.69364673069762E-03 
1741	 2.84083804693189E-03 
1742	 2.10652723637324E-03 
1743	 1.96504293510663E-03 
1744	 2.52271495493578E-03 
1745	 2.62018501273992E-03 
1746	 2.80284448958918E-03 
1747	 2.89359375089066E-03 
1748	 2.3602495058501E-03 
1749	 2.1757835628005E-03 
1750	 2.11742709275295E-03 
1751	 2.24537292981663E-03 
1752	 2.74887155617247E-03 
1753	 2.87074126624255E-03 
1754	 3.14713509897503E-03 
1755	 3.34361911593386E-03 
1756	 2.97719942484974E-03 
1757	 2.88664067440739E-03 
1758	 2.75353323905016E-03 
1759	 2.01232098098782E-03 
1760	 2.17757901075851E-03 
1761	 2.48477007424388E-03 
1762	 2.18347885478683E-03 
1763	 2.37075121217549E-03 
1764	 2.42489911490273E-03 
1765	 2.52274694953149E-03 
1766	 3.19924350860702E-03 
1767	 3.3610375063651E-03 
1768	 3.42738357280428E-03 
1769	 3.21582803641419E-03 
1770	 2.87153877274392E-03 
1771	 3.29200799586434E-03 
1772	 3.43753068407029E-03 
1773	 3.60307681327022E-03 
1774	 4.29991596048844E-03 
1775	 3.67568219666683E-03 
1776	 3.41512678390866E-03 
1777	 3.28274067562777E-03 
1778	 3.13734580959512E-03 
1779	 3.47887894762203E-03 
1780	 3.39132550191568E-03 
1781	 2.41682154896447E-03 
1782	 2.57728191351074E-03 
1783	 3.42889882719528E-03 
1784	 3.37767519185048E-03 
1785	 3.62308990657635E-03 
1786	 4.21143141707314E-03 
1787	 4.05118134707539E-03 
1788	 4.37169841372182E-03 
1789	 6.36191918593689E-03 
1790	 4.47509152216411E-03 
1791	 4.19980287013193E-03 
1792	 5.62825245242961E-03 
1793	 5.97466235406585E-03 
1794	 7.5974154316089E-03 
1795	 7.59147291268259E-03 
1796	 2.3824687239229E-03 
1797	 2.40147195521013E-03 
1798	 8.31651048346447E-03 
1799	 9.74967954019822E-03 
1800	 1.40315257660337E-02 
1801	 0.019054726011195 
1802	 1.48738908310283E-02 
1803	 2.16808440704501E-02 
1804	 5.98060297646434E-02 
1805	 0.069991792865298 
1806	 5.33448903284787E-02 
1807	 5.09552787419865E-02 
1808	-1.47288791033433E-02 
1809	-3.25796402070457E-02 
1810	 5.95678112135052E-02 
1811	 0.077940558047158 
1812	 5.96315535698687E-02 
1813	 0.120802532648891 
1814	 0.155289020407931 
1815	 0.211690382865222 
1816	 0.455334395656943 
1817	 0.381874017313768 
1818	 0.254894730594871 
1819	 0.207466467925131 
1820	 0.294044231024717 
1821	-1.20517436980917 
1822	-2.49543014132673 
1823	 5.26745052537695E-02 
1824	 0.205668565749048 
1825	 0.801515311669 
1826	 0.95481043478367 
1827	 0.891885518806569 
1828	 0.843822536101036 
1829	 0.353721298407673 
1830	 0.32695798353833 
1831	 3.98422451950144 
1832	 3.4867697042153 
1833	-1.04272511895202 
1834	-6.17079326779942 
1835	 1.47511224996189 
1836	 1.45115706252625 
1837	-2.79693271308824 
1838	 45.1268986595531 
1839	 0.9099709314074 
1840	-0.184113286928192 
1841	-0.520144971311825 
1842	-0.191844050092898 
1843	-0.19195344347659 
1844	 0.013130769275819 
1845	 0.114173707589426 
1846	 3.51990851418021E-02 
1847	-0.65895673062164 
1848	 2.30619793718485 
1849	 1.41467286385949 
1850	 71.0697861975309 
1851	-1.5671875781221 
1852	-0.550126225360402 
1853	 0.123106517684925 
1854	 0.235923037254177 
1855	-1.38086252401953 
1856	-0.34707336052586 
1857	-0.73549946352592 
1858	-1.00407233422296 
1859	-1.81308862675475 
1860	-0.893219603761088 
1861	-0.473450848712143 
1862	-0.654789440325827 
1863	-0.408021287608287 
1864	-0.185184294773542 
1865	-0.141034805800774 
1866	-0.308553589406194 
1867	-0.24811667168837 
1868	 1.69269000665837 
1869	-11.007678415949 
1870	-1.11337592044885 
1871	-0.318855826727977 
1872	 0.259635339202083 
1873	 0.218739336771732 
1874	 0.39807052259562 
1875	 0.55829466786214 
1876	 0.670287010427844 
1877	 0.710797911514125 
1878	 0.565036154440871 
1879	 0.601062531765007 
1880	 0.410404078707255 
1881	-0.587478770446302 
1882	-0.810145539851585 
1883	-0.489894546944575 
1884	-0.691429920284997 
1885	-0.785935304004786 
1886	-0.430996135123897 
1887	-0.320604528783398 
1888	-0.443688976975471 
1889	-0.738107618830088 
1890	-0.524535976999451 
1891	-0.250853456309584 
1892	 0.157510068761264 
1893	 7.97958075306278E-02 
1894	 9.83302731304225E-02 
1895	 0.764545956082048 
1896	 2.85297965140305 
1897	-0.049647800470811 
1898	-0.137744259582123 
1899	 0.26472714362926 
1900	 0.333979761351076 
1901	 5.68937557908693E-02 
1902	 1.13705496045497E-02 
1903	 0.365902226242571 
1904	 9.21537898411716E-03 
1905	 0.105406135797885 
1906	-0.404900408284533 
1907	 0.379324848894988 
1908	 39.2561510998901 
1909	 0.836099030311053 
1910	 0.26204643452571 
1911	 1.47828887888256 
1912	 3.86653908622659 
1913	 4.8106143549198 
1914	 5.01174537325929 
1915	 5.36604128262616 
1916	 2.95316086527907 
1917	 3.05930512565338 
1918	 19.3658413158542 
1919	-1.25182683989498 
1920	-0.45051298689857 
1921	-2.23089343307185 
1922	 2.20045427725358 
1923	 2.14903661313142 
1924	 1.03237507101003 
1925	-0.667183458282072 
1926	-2.06658688731557 
1927	 0.909963657156744 
1928	 1.01483178438247 
1929	 0.282365052260558 
1930	-4.65738856453394 
1931	 1.12039286517258 
1932	-8.77404018196692E-02 
1933	-5.48155861710849E-02 
1934	-0.18451662151425 
1935	-0.056753332094264 
1936	 2.29910214625446E-02 
1937	-8.88433007788514E-02 
1938	-0.101083294150071 
1939	-3.75305233691842E-02 
1940	 3.47215239535202E-02 
1941	 0.104266462888297 
1942	 0.163005325426893 
1943	 0.136873622253028 
1944	 0.037697739743925 
1945	-2.22365286780217E-02 
1946	-0.041255593182249 
1947	-5.14529437877732E-02 
1948	-1.57248571257061E-02 
1949	-2.73718417124997E-03 
1950	 2.97722088559947E-02 
1951	 8.88585772511351E-02 
1952	 9.49897388371994E-02 
1953	 7.90331358748907E-02 
1954	 6.46389559634315E-02 
1955	 4.10975428820535E-02 
1956	 5.2614455117784E-03 
1957	 0.00367775306984 
1958	 7.7922077956497E-03 
1959	 5.7252843030926E-04 
1960	 3.92111759013555E-03 
1961	 3.96769829491011E-03 
1962	 1.13750920115099E-04 
1963	 3.63881144393518E-03 
1964	 1.18541886185961E-03 
1965	-1.27443211790431E-03 
1966	-5.21411361251327E-04 
1967	 2.79603977642328E-03 
1968	 2.44574327135528E-03 
1969	 5.27832668973881E-04 
1970	-3.01387369551844E-04 
1971	-5.52999560787018E-04 
1972	-7.49304207149375E-04 
1973	-5.61420022884976E-04 
1974	 1.59341147513206E-04 
1975	-3.12142973138798E-04 
1976	-1.11643062162972E-03 
1977	 1.0913887371259E-03 
1978	 3.81612015188214E-03 
1979	 4.08322921620345E-03 
1980	 3.16350158961683E-03 
1981	 2.30489507483876E-03 
1982	 8.89820155443906E-04 
1983	-9.74333517729775E-04 
1984	-7.20746532497003E-04 
1985	 2.7969382095915E-04 
1986	 1.21530021881986E-04 
1987	-2.50940858262753E-04 
1988	-8.06159579228264E-04 
1989	-1.58242997731273E-04 
1990	 1.64341855842055E-03 
1991	 1.88389211434836E-03 
1992	 2.04576785085209E-03 
1993	 1.83882081294452E-03 
1994	 1.47761561554651E-03 
1995	-4.0210395197452E-04 
1996	 5.63433884039263E-04 
1997	 2.56792012172079E-03 
1998	 3.56775083605431E-03 
1999	 5.18902464465222E-03 
2000	 5.82665440202332E-03 
2001	 4.36751328330224E-03 
2002	 3.03260692241312E-04 
2003	-3.52028343793757E-03 
2004	-3.76869575542221E-03 
2005	-4.52662546604901E-03 
2006	-3.30457123288627E-03 
2007	 6.72325326049815E-04 
2008	 1.87657252517637E-03 
2009	 1.87819808187452E-03 
2010	 1.20381994325981E-03 
2011	 7.12057680864969E-04 
2012	-1.89053736991734E-03 
2013	-3.00607170662537E-03 
2014	-7.43896969867004E-04 
2015	 2.02169307282323E-03 
2016	 3.42956204663375E-03 
2017	 2.75785523561878E-03 
2018	 5.16313004015646E-04 
2019	-2.98076994353701E-04 
2020	 2.0941202632182E-04 
2021	 8.60784417850123E-04 
2022	 1.43195242950155E-03 
2023	 2.30596211442239E-03 
2024	 2.43383311908891E-03 
2025	 1.61351774885758E-03 
2026	 1.48950094903881E-03 
2027	 1.64716693712404E-03 
2028	 1.51929770856889E-03 
2029	 1.41594467672687E-03 
2030	 1.86432335068243E-03 
2031	 1.48269022567234E-03 
2032	 1.2599523091329E-03 
2033	 5.64335795354134E-04 
2034	-5.65463433563033E-04 
2035	 9.48049290112475E-04 
2036	 1.68749748823457E-03 
2037	 8.14325170104309E-04 
2038	 1.66191784134599E-03 
2039	 1.92832473800635E-03 
2040	 6.003643527062E-04 
2041	 4.62974127492076E-04 
2042	 1.87150980616173E-03 
2043	 2.07617485159057E-03 
2044	 1.84600343795315E-03 
2045	 1.17868067035619E-03 
2046	 4.19308651404805E-04 
2047	 5.26078717575177E-04 
2048	 1.29454192052215E-03 
2049	 1.43581484487112E-03 
2050	 1.3600014586775E-03 
2051	 1.19251214713434E-03 
2052	 9.29708242146126E-04 
2053	 1.64720630649653E-03 
2054	 1.8416174821764E-03 
2055	 1.69706649403707E-03 
2056	 1.6216824835986E-03 
2057	 7.32221235640927E-05 
2058	-3.57082371590891E-04 
2059	 5.18165843402112E-04 
2060	 4.5177420675289E-04 
2061	-2.74213019936896E-04 
2062	-6.40751340394505E-05 
2063	 1.56589156265345E-06 
2064	 1.43249029590519E-04 
2065	-1.25022841006228E-04 
2066	 4.17928413636659E-04 
2067	 1.86498880320066E-03 
2068	 1.49625163706031E-03 
2069	 1.23288662098958E-03 
2070	 1.96443968832497E-03 
2071	 1.51871127673878E-03 
2072	 1.62562553600361E-03 
2073	 1.60081843406978E-03 
2074	 1.91478560561569E-03 
2075	 1.47899005297307E-03 
2076	 1.36194443067833E-04 
2077	 1.91548010384762E-04 
2078	 9.94969617019542E-04 
2079	 1.14820345978927E-03 
2080	 1.45484892035383E-03 
2081	 2.01294145339816E-03 
2082	 2.06939971114982E-03 
2083	 1.98387279737728E-03 
2084	 1.79623908979941E-03 
2085	 1.39895509436291E-03 
2086	 6.40714051304966E-04 
2087	 3.89657916212171E-04 
2088	 6.97539772010021E-04 
2089	 5.30581928572531E-04 
2090	-7.63433703204052E-05 
2091	-2.39543631773314E-04 
2092	-1.61262084132638E-05 
2093	 8.05896680001213E-04 
2094	 8.38922444641614E-04 
2095	 6.34764159316367E-04 
2096	 8.53578717645707E-04 
2097	 1.20225008393229E-03 
2098	 1.0652689899135E-03 
2099	 1.0021476874054E-03 
2100	 1.00208658567307E-03 
2101	 9.61291166366411E-04 
2102	 4.55019140195104E-04 
2103	 7.47469070751193E-04 
2104	 1.78496174750897E-03 
2105	 2.42822838023986E-03 
2106	 2.84114066441989E-03 
2107	 2.85032956239788E-03 
2108	 2.26600878702373E-03 
2109	 1.7998324654796E-03 
2110	 1.16486923466543E-03 
2111	 7.0592795866843E-04 
2112	 8.52016266565159E-04 
2113	 8.22865139216534E-04 
2114	 2.74992342541054E-04 
2115	 2.93929530977101E-04 
2116	 1.17024052218131E-03 
2117	 1.45645438673141E-03 
2118	 1.4120887435721E-03 
2119	 1.68183462192048E-03 
2120	 2.38151568137725E-03 
2121	 1.80310979612913E-03 
2122	 1.17372093431629E-03 
2123	 1.70102204297968E-03 
2124	 1.59333248439917E-03 
2125	 1.70945952633418E-03 
2126	 2.0356962722376E-03 
2127	 1.29019469509611E-03 
2128	 1.74021440076194E-03 
2129	 2.0543569376614E-03 
2130	 1.81657923272326E-03 
2131	 2.40219212224839E-03 
2132	 1.69743116932359E-03 
2133	 1.01992911216387E-03 
2134	 8.31279288996448E-04 
2135	 1.31296611563675E-03 
2136	 1.06207545295438E-03 
2137	 5.47824366623725E-04 
2138	 6.44025901594207E-04 
2139	 1.16231819290959E-03 
2140	 9.94160938983721E-04 
2141	 4.98653127894195E-04 
2142	 2.62052175971443E-04 
2143	-7.06398905951701E-04 
2144	-7.18968324754534E-04 
2145	 2.88661125024583E-04 
2146	 6.17785885530795E-04 
2147	 6.46490405343355E-04 
2148	 8.95225354882492E-04 
2149	-3.93526001439079E-05 
2150	 3.02902712434226E-04 
2151	 1.11369294478417E-03 
2152	-4.47422577030512E-06 
2153	 1.15675893900013E-03 
2154	 3.25489301232022E-03 
2155	 3.38042879990233E-03 
2156	 3.29057912023832E-03 
2157	 3.0014746422649E-03 
2158	 1.27209510321773E-03 
2159	 7.31676948747716E-04 
2160	 5.87862469558575E-04 
2161	 7.5404426120505E-04 
2162	 1.4932006652266E-03 
2163	 1.56102197594394E-03 
2164	 1.25372928506022E-03 
2165	 1.97003055792959E-03 
2166	 4.15245886479511E-03 
2167	 4.07977487904642E-03 
2168	 2.94758692600017E-03 
2169	 2.43794381768348E-03 
2170	 9.6756636817913E-04 
2171	-1.2057916226216E-03 
2172	-1.6861438633445E-03 
2173	 2.55923814784284E-04 
2174	 1.06178404816397E-03 
2175	 1.96333558409724E-04 
2176	 8.88368728605767E-04 
2177	 1.21211519139994E-03 
2178	 4.48852807625064E-04 
2179	 6.13582455154182E-04 
2180	 5.8373481518873E-04 
2181	-3.57464390839873E-04 
2182	-2.6264752758667E-04 
2183	 1.03256505515588E-03 
2184	 3.32780354402627E-04 
2185	-6.53218343825342E-04 
2186	-7.2268057304117E-04 
2187	-1.26050954353729E-03 
2188	-6.90842856099647E-04 
2189	 2.26521522518795E-03 
2190	 2.7121680561605E-03 
2191	 2.09082242381996E-03 
2192	 2.28461238489015E-03 
2193	 1.32151224981242E-03 
2194	 1.42104365062079E-03 
2195	 3.57920031038973E-03 
2196	 3.63108887368991E-03 
2197	 1.6012090080651E-03 
2198	 1.11474441312037E-03 
2199	 3.12180819856082E-04 
2200	 8.36683469716328E-04 
2201	 1.37471065028617E-03 
2202	 2.57396381564367E-03 
2203	 3.31810426277546E-03 
2204	 2.3362722527194E-03 
2205	 1.05112400917743E-03 
2206	 1.41069271415853E-03 
2207	 1.43451407594525E-03 
2208	 6.34012864434645E-04 
2209	 2.0472601180396E-03 
2210	 2.98956607222302E-03 
2211	 3.25785009267232E-03 
2212	 4.46247722126709E-03 
2213	 3.90110962972302E-03 
2214	 3.24357742065686E-03 
2215	 3.32460989205975E-03 
2216	 2.58377881873638E-03 
2217	 2.48117293346194E-03 
2218	 2.86372794167425E-03 
2219	 3.45914982449818E-03 
2220	 4.98766109383474E-03 
2221	 4.94593333975841E-03 
2222	 5.47131212455576E-03 
2223	 4.9084170211753E-03 
2224	 7.37344204435161E-04 
2225	-1.48107194825783E-04 
2226	 7.1608851565133E-04 
2227	 3.86155408369025E-04 
2228	 1.48575783235379E-03 
2229	 1.94844186592907E-03 
2230	 7.38044915725743E-04 
2231	 7.66680355459369E-04 
2232	 2.09838512727015E-03 
2233	 2.42538292991613E-03 
2234	 3.13220884606115E-03 
2235	 2.37103595178337E-03 
2236	 1.17815605966543E-03 
2237	 3.41859886975657E-04 
2238	-1.06827753258082E-03 
2239	-1.59763210071005E-03 
2240	-2.41359977302922E-03 
2241	-3.39131223071226E-03 
2242	-9.55655737117568E-04 
2243	 2.94775112352166E-03 
2244	 4.7466902645643E-03 
2245	 5.59879049349908E-03 
2246	 4.52582131294814E-03 
2247	 2.00526301765232E-03 
2248	 5.07710212033659E-04 
2249	 1.70375175274121E-04 
2250	 1.89831796086396E-04 
2251	-2.49499620066865E-03 
2252	-4.37675957134205E-03 
2253	-2.47092958882535E-03 
2254	-2.95505436965217E-03 
2255	-0.003321035980631 
2256	-9.46334755157632E-04 
2257	-1.64186613084209E-03 
2258	-4.63435458646101E-04 
2259	 2.2377840781438E-03 
2260	 1.7923384598386E-03 
2261	-9.80778728763757E-04 
2262	-1.7349245951941E-03 
2263	-4.29440741973095E-03 
2264	-4.20047548373965E-03 
2265	-7.66645852323679E-04 
2266	-7.37056512418953E-05 
2267	-6.13549860976499E-04 
2268	-8.75307196758361E-04 
2269	-1.4535718995384E-03 
2270	-0.001594877554641 
2271	-1.44126643020769E-03 
2272	-5.8805994028625E-04 
2273	 1.16783981496939E-03 
2274	-3.13613106236035E-04 
2275	-3.67089246930974E-03 
2276	-3.62110182554564E-03 
2277	-4.0869498179433E-03 
2278	-3.66290812076431E-03 
2279	 1.20820838504196E-03 
2280	 1.34298944524613E-03 
2281	-2.37241361335392E-03 
2282	-4.1183734282248E-03 
2283	-5.59608882323052E-03 
2284	-6.54781061538602E-03 
2285	-5.1037889687509E-03 
2286	-3.75361276375365E-03 
2287	-2.71917908709301E-03 
2288	-1.36521271833471E-03 
2289	-1.34602617641971E-03 
2290	-1.00708938164079E-03 
2291	-2.16707615456357E-03 
2292	-3.97563054197521E-03 
2293	-3.4288001965784E-03 
2294	-3.8570117160513E-03 
2295	-1.93385331174457E-03 
2296	 1.53351675480766E-03 
2297	 8.90158687217042E-04 
2298	-2.73745764753694E-03 
2299	-4.97322168153639E-03 
2300	-5.52482547322611E-03 
2301	-7.09296565385259E-03 
2302	-6.32697442561062E-03 
2303	-4.15560185884771E-03 
2304	-4.04696410691677E-03 
2305	-3.94252970361864E-03 
2306	-2.76597272883885E-03 
2307	-3.18201020931497E-03 
2308	-4.19118187015523E-03 
2309	-8.58986641276393E-04 
2310	 2.72186564053242E-03 
2311	 2.06089394821332E-03 
2312	 1.03714455382379E-03 
2313	 2.86427003087964E-03 
2314	 5.01027181210948E-03 
2315	 6.17769663337931E-03 
2316	 9.89105944387642E-03 
2317	 9.76667949056928E-03 
2318	 5.94732517189764E-03 
2319	 7.01295926129028E-03 
2320	 7.06389481688362E-03 
2321	 4.60565118725707E-03 
2322	 2.67529479993576E-03 
2323	 2.55420899015233E-03 
2324	 3.27116927605326E-03 
2325	 3.19994487732774E-03 
2326	 2.79299873349261E-03 
2327	-2.47198781238878E-04 
2328	-6.90063802365238E-04 
2329	 2.88573109183274E-03 
2330	 5.89725621395983E-03 
2331	 8.42606896294634E-03 
2332	 7.89971241354192E-03 
2333	 4.89191662674077E-03 
2334	 2.41246144776016E-03 
2335	 1.54485001182637E-03 
2336	-1.78913471924275E-03 
2337	-4.52733711798464E-03 
2338	-4.63984584251444E-03 
2339	-1.38015609658711E-02 
2340	-1.50562071840005E-02 
2341	-5.13964629308334E-03 
2342	-3.41407876249191E-03 
2343	 5.57756994908416E-04 
2344	 5.86934897331042E-03 
2345	 5.38401662263359E-04 
2346	-7.22523860073571E-03 
2347	-7.6682488977749E-03 
2348	-8.45058204841716E-03 
2349	-1.39564583317116E-02 
2350	-1.24356447216471E-02 
2351	-7.77214592942128E-03 
2352	-5.81026614178058E-03 
2353	-1.15174247626139E-03 
2354	-3.00948321941522E-03 
2355	-6.90137705457911E-03 
2356	-9.12617107363503E-03 
2357	-1.45397946247932E-02 
2358	-1.07996775416666E-02 
2359	 1.2761540711495E-03 
2360	 6.2412202303538E-03 
2361	 8.48536865733632E-03 
2362	 6.38681494591278E-03 
2363	-9.26485541901565E-03 
2364	-2.22795547750165E-02 
2365	-2.66694002241287E-02 
2366	-0.023402552142422 
2367	-2.36041184289522E-02 
2368	-2.71580258495983E-02 
2369	-2.27398510382102E-02 
2370	-3.10985038760348E-02 
2371	-3.37132269036694E-02 
2372	-0.032041512314764 
2373	-3.95464650543145E-02 
2374	-4.06648438367756E-02 
2375	-4.08046103038846E-02 
2376	-2.74068820160344E-02 
2377	-2.78680341161803E-02 
2378	-5.09061853849236E-02 
2379	-4.08949385003582E-02 
2380	-1.49123804098306E-02 
2381	-1.23872394912083E-02 
2382	-1.41622631156226E-02 
2383	 4.5418875063605E-03 
2384	 1.16749426374729E-02 
2385	-9.34359763905785E-03 
2386	 5.20687226137628E-04 
2387	-1.34147944355322E-02 
2388	-6.95317120003295E-02 
2389	-8.21415722691508E-02 
2390	-9.44013488694667E-02 
2391	-0.105296207358548 
2392	-7.57629914345739E-02 
2393	-0.047987376879206 
2394	-1.37606043100914E-02 
2395	 1.53588194773955E-02 
2396	 3.67545066059562E-03 
2397	 2.14056144160491E-03 
2398	 1.60734950428071E-02 
2399	 1.61245369832858E-02 
2400	-2.21547334358112E-02 
2401	-6.66312524630555E-02 
2402	-5.80363414243731E-02 
2403	-3.54399266443181E-02 
2404	 7.7657220759639E-03 
2405	 4.66703029291778E-02 
2406	 2.13944537793374E-02 
2407	-4.13043342126088E-03 
2408	-3.29180356040687E-03 
2409	 1.78358459210589E-02 
2410	 4.24398001144004E-02 
2411	 3.72585806180086E-02 
2412	 2.69486734468015E-02 
2413	 1.16078295301085E-02 
2414	 1.75946184452642E-02 
2415	-5.58814285891485E-02 
2416	-0.204823205950319 
2417	-0.219786442242101 
2418	-0.240974090181315 
2419	-0.147458411981125 
2420	 0.057532856869296 
2421	 4.61093769308137E-02 
2422	-4.58991270347021E-02 
2423	-4.46868249766725E-02 
2424	-5.77752914118887E-02 
2425	-0.106559015208638 
2426	-8.45413878419277E-02 
2427	-0.041001690232464 
2428	-6.26804497788921E-02 
2429	-5.26902584406272E-02 
2430	-3.27889776707158E-02 
2431	-9.45537811938811E-02 
2432	-0.157468399023588 
2433	-0.149948367235673 
2434	-0.154458100741829 
2435	-0.19832371903351 
2436	-0.215162080689275 
2437	-0.244341951582671 
2438	-0.217462458625571 
2439	 3.49909088917055E-02 
2440	 0.178338112296496 
2441	 0.148627023071769 
2442	 0.168892626265343 
2443	 5.48932697010264E-02 
2444	-0.151771382738975 
2445	-0.27641397084649 
2446	-0.312593060744806 
2447	-9.63023344862822E-02 
2448	-8.67826964324213E-02 
2449	-9.67079596578648E-02 
2450	-0.179398029589768 
2451	-0.550895564898112 
2452	-0.708276430806056 
2453	-0.619543704344609 
2454	-0.409272968842339 
2455	-0.270737613467575 
2456	-5.95625304869251E-02 
2457	-0.269078711985481 
2458	-0.189236473387883 
2459	 5.18208290814317E-02 
2460	-0.108687083384972 
2461	-3.12835476386889E-02 
2462	 0.20847430385186 
2463	 8.46306564738551E-02 
2464	 0.184135647573697 
2465	-2.00925412500296E-02 
2466	-0.282074650009666 
2467	-0.327289221380174 
2468	-0.541857310503282 
2469	-0.229140525898692 
2470	-0.512996343444568 
2471	-0.675699779100252 
2472	-0.231419052600707 
2473	-0.141265627588477 
2474	 1.45636192267894E-02 
2475	-0.28526005760619 
2476	-0.794854035621387 
2477	-0.808705943067745 
2478	-1.43116938287063 
2479	-1.89542346902147 
2480	-32.2282932645661 
2481	 3.61527921268584 
2482	 1.26449716767577 
2483	 0.729110450688227 
2484	 1.08236380956906 
2485	 1.08183167137943 
2486	 1.58384981398274 
2487	-15.1631265701215 
2488	 2.86443146174814 
2489	 1.65501186840485 
2490	 4.16292975117664 
2491	 1.06095917727197 
2492	-7.30224872683545 
2493	 7.76720720105288 
2494	-2.63633512607323 
2495	-0.281563972380592 
2496	 0.409786457955484 
2497	 0.577440294311352 
2498	 0.544179233487302 
2499	 0.561320777177322 
2500	 0.816432643026366 
