Wavelength	rt0722east_far00002.asd
350	 1.53251525706352E-02 
351	 0.014602448192466 
352	 1.39349509192166E-02 
353	 1.42022471430341E-02 
354	 1.53000405657094E-02 
355	 1.55601521902516E-02 
356	 1.51298999761165E-02 
357	 1.48549909151709E-02 
358	 1.53519296485905E-02 
359	 1.52528259296091E-02 
360	 1.48939496347994E-02 
361	 1.47353465058899E-02 
362	 1.51427893418577E-02 
363	 0.015129602834483 
364	 1.50789756498787E-02 
365	 1.52328793988493E-02 
366	 1.53602990497251E-02 
367	 1.55033563321535E-02 
368	 1.55549036173706E-02 
369	 1.55030736310992E-02 
370	 1.57538697595841E-02 
371	 1.62409922583883E-02 
372	 1.64932190797452E-02 
373	 1.60357253266518E-02 
374	 1.64439501149791E-02 
375	 1.66243228994797E-02 
376	 0.016310798687221 
377	 1.67088418860057E-02 
378	 1.72259246776176E-02 
379	 1.73599307531227E-02 
380	 1.70320176017586E-02 
381	 1.73436748796223E-02 
382	 1.77896708508868E-02 
383	 1.79403865774986E-02 
384	 1.76330111712623E-02 
385	 0.018202031088048 
386	 1.85380746323436E-02 
387	 1.84560177816225E-02 
388	 1.89586343751105E-02 
389	 1.90786402287955E-02 
390	 0.018976772061209 
391	 1.90812457325244E-02 
392	 1.99871310413716E-02 
393	 2.03738426976482E-02 
394	 2.03328547747915E-02 
395	 2.04231051082521E-02 
396	 2.04473213016357E-02 
397	 2.05331579244462E-02 
398	 2.06793281434849E-02 
399	 2.07663303792923E-02 
400	 2.06713396367936E-02 
401	 2.08376515356992E-02 
402	 0.021356603747469 
403	 2.13767985831023E-02 
404	 2.13565254208781E-02 
405	 2.15078245723206E-02 
406	 2.18669730068626E-02 
407	 2.20230239592147E-02 
408	 2.20674525066399E-02 
409	 2.21652211358265E-02 
410	 2.24918442594722E-02 
411	 2.26535704368445E-02 
412	 2.28097464800764E-02 
413	 2.30845050184461E-02 
414	 2.32686349900122E-02 
415	 2.34772513848339E-02 
416	 2.37093282831922E-02 
417	 2.39192802192922E-02 
418	 2.40811948739696E-02 
419	 0.024251624818412 
420	 2.44870196579819E-02 
421	 2.48311392950733E-02 
422	 2.51116767893619E-02 
423	 2.52894901315839E-02 
424	 2.54177451011945E-02 
425	 2.57050246478209E-02 
426	 2.60250466395473E-02 
427	 2.63833485021546E-02 
428	 2.68150065725611E-02 
429	 2.71224667479374E-02 
430	 2.74224980302251E-02 
431	 2.77490820046451E-02 
432	 2.80072543638929E-02 
433	 2.82654061754837E-02 
434	 2.85564428005259E-02 
435	 2.88801765336652E-02 
436	 2.91541702431382E-02 
437	 2.95542965401445E-02 
438	 0.02998872130011 
439	 3.02510766643085E-02 
440	 3.05297750894528E-02 
441	 3.08515488003132E-02 
442	 3.11952978875921E-02 
443	 3.14966643653956E-02 
444	 3.18459866090938E-02 
445	 3.22057169370503E-02 
446	 3.25084145992352E-02 
447	 3.27072479991853E-02 
448	 3.29535528804573E-02 
449	 3.32638421080473E-02 
450	 3.35494272242824E-02 
451	 3.37591520175391E-02 
452	 3.40202162396445E-02 
453	 3.43464904933115E-02 
454	 3.44564648520846E-02 
455	 3.46658293758888E-02 
456	 3.49186542434581E-02 
457	 3.50823126592727E-02 
458	 3.53870839986726E-02 
459	 3.56521641806824E-02 
460	 3.58081596638815E-02 
461	 3.59193738066368E-02 
462	 3.60322402017554E-02 
463	 3.61865399101239E-02 
464	 3.63870134302296E-02 
465	 3.65568442344875E-02 
466	 3.67531821560975E-02 
467	 3.69781753891515E-02 
468	 3.72137761073998E-02 
469	 3.75148182792397E-02 
470	 3.77141871678434E-02 
471	 3.78032199857116E-02 
472	 3.80032775876027E-02 
473	 3.82175007598058E-02 
474	 3.84562054011901E-02 
475	 3.87216125415912E-02 
476	 3.88954392386225E-02 
477	 3.91028407728907E-02 
478	 3.93472894745828E-02 
479	 3.95567038517173E-02 
480	 3.98268513528075E-02 
481	 4.00943921046106E-02 
482	 4.03308272100461E-02 
483	 0.040616993082523 
484	 4.09310377383849E-02 
485	 4.12575790513782E-02 
486	 0.041585972600162 
487	 4.19372977846518E-02 
488	 4.22467475241027E-02 
489	 4.25325667146275E-02 
490	 4.28905327974747E-02 
491	 0.043209368930283 
492	 0.043560065504364 
493	 4.39786330504633E-02 
494	 4.43130521295708E-02 
495	 4.46811873523715E-02 
496	 4.50836690345506E-02 
497	 4.54753364623521E-02 
498	 4.59587586373094E-02 
499	 0.046394059667895 
500	 4.67696380787397E-02 
501	 4.73083925707586E-02 
502	 0.047737870444862 
503	 4.81260276815318E-02 
504	 4.86044274032211E-02 
505	 4.91499562231833E-02 
506	 4.95818966736213E-02 
507	 4.99316139011571E-02 
508	 5.03880318116813E-02 
509	 5.08057887822307E-02 
510	 0.051206668225978 
511	 5.16558398120259E-02 
512	 5.22835048357369E-02 
513	 5.28287718507263E-02 
514	 5.32846693698407E-02 
515	 5.37591367103233E-02 
516	 5.42992282758565E-02 
517	 5.48902314519084E-02 
518	 5.54994156420063E-02 
519	 5.60865713622189E-02 
520	 5.67881501311115E-02 
521	 5.74164190327865E-02 
522	 5.78556688473226E-02 
523	 0.058473925352488 
524	 5.90840997526145E-02 
525	 5.96478203134892E-02 
526	 6.02345500280564E-02 
527	 0.060800743012007 
528	 6.14311023081995E-02 
529	 6.21361368783997E-02 
530	 6.27618990390924E-02 
531	 6.32957747610587E-02 
532	 6.38923310996543E-02 
533	 6.46816835814235E-02 
534	 6.52323146702017E-02 
535	 6.58176553939768E-02 
536	 6.65244966558818E-02 
537	 6.71757418021152E-02 
538	 0.067868035152345 
539	 6.85733458757583E-02 
540	 6.92468342154465E-02 
541	 6.98857855960043E-02 
542	 7.05013009994351E-02 
543	 7.11223515706503E-02 
544	 7.17846590663142E-02 
545	 7.24513509873649E-02 
546	 7.31181694253155E-02 
547	 7.37761618154956E-02 
548	 7.43954311330617E-02 
549	 7.50575236120381E-02 
550	 7.57155790525762E-02 
551	 7.63109104580811E-02 
552	 7.69942122953311E-02 
553	 7.76472558018623E-02 
554	 7.82591993877835E-02 
555	 7.89499070467477E-02 
556	 7.95802202652154E-02 
557	 8.01732819381491E-02 
558	 8.07865597816116E-02 
559	 8.14888022361389E-02 
560	 8.20864845357475E-02 
561	 8.26121970823437E-02 
562	 8.32259696935354E-02 
563	 8.37733142832533E-02 
564	 8.42800161241963E-02 
565	 8.47612126367415E-02 
566	 8.51660678058064E-02 
567	 8.55283195402956E-02 
568	 0.08593250133988 
569	 8.64236148936896E-02 
570	 8.67378247310266E-02 
571	 8.69847133761817E-02 
572	 8.72383636937085E-02 
573	 8.75060578355601E-02 
574	 8.77810144691865E-02 
575	 8.80124713849391E-02 
576	 8.81663702274057E-02 
577	 8.82983980501315E-02 
578	 8.84082162498568E-02 
579	 8.84500973872079E-02 
580	 8.83746671658617E-02 
581	 8.83879517104585E-02 
582	 8.83425693869819E-02 
583	 8.81692052336263E-02 
584	 8.80293486370982E-02 
585	 8.77081812842552E-02 
586	 8.73892146097999E-02 
587	 8.72890079576954E-02 
588	 8.69100531664499E-02 
589	 8.65339869787298E-02 
590	 0.086213256328695 
591	 8.56878039501291E-02 
592	 8.52563584859304E-02 
593	 8.47911708129521E-02 
594	 8.41442326155283E-02 
595	 8.33425868941655E-02 
596	 8.24284759289212E-02 
597	 8.14486251328274E-02 
598	 8.04520467441367E-02 
599	 0.079414290053127 
600	 7.84970825721861E-02 
601	 7.78124181671972E-02 
602	 0.077353160811719 
603	 7.70388877579429E-02 
604	 0.076808652077448 
605	 7.66425155214849E-02 
606	 7.66762784852778E-02 
607	 0.076686428529305 
608	 7.66183326249531E-02 
609	 7.66088747155452E-02 
610	 7.66719065807763E-02 
611	 7.67238131041491E-02 
612	 0.07669790293033 
613	 7.66321904260329E-02 
614	 7.66389850635311E-02 
615	 7.66656038816235E-02 
616	 7.65928481328417E-02 
617	 7.66567096904081E-02 
618	 7.66414722670009E-02 
619	 7.64828154342212E-02 
620	 7.64270031571941E-02 
621	 7.64985050853928E-02 
622	 7.65502484747243E-02 
623	 7.64433420863873E-02 
624	 7.64210497248861E-02 
625	 7.63096647791082E-02 
626	 7.61686504055167E-02 
627	 7.62670720439372E-02 
628	 7.61927594290546E-02 
629	 7.61052471813726E-02 
630	 7.61435300730101E-02 
631	 0.076105715433381 
632	 7.59831123823747E-02 
633	 7.58633305645966E-02 
634	 0.075855994250892 
635	 7.58123361038077E-02 
636	 7.57385470023607E-02 
637	 0.075643017106564 
638	 7.55132143676826E-02 
639	 7.53628999079228E-02 
640	 7.52214763979054E-02 
641	 7.51032133359421E-02 
642	 7.49445527615591E-02 
643	 7.47418415519023E-02 
644	 0.074540647693987 
645	 7.44219557328814E-02 
646	 7.43237991989429E-02 
647	 7.41858160721138E-02 
648	 7.39684141561376E-02 
649	 7.36597685543604E-02 
650	 7.33966550271232E-02 
651	 7.31419612195142E-02 
652	 7.28049695429638E-02 
653	 7.23898494492496E-02 
654	 7.18832954660315E-02 
655	 7.12575048331376E-02 
656	 7.05588235990597E-02 
657	 7.00171206184116E-02 
658	 6.96119095594579E-02 
659	 6.92514893715225E-02 
660	 6.88351249976488E-02 
661	 6.85312455346587E-02 
662	 6.83348379258955E-02 
663	 6.81373539918562E-02 
664	 6.79327693840708E-02 
665	 6.77739025164835E-02 
666	 6.76749325503558E-02 
667	 6.75683385979687E-02 
668	 6.75310396927097E-02 
669	 6.75115156719881E-02 
670	 6.74407822754036E-02 
671	 6.73912727796318E-02 
672	 0.067309344016634 
673	 6.71742102686391E-02 
674	 6.70094065475238E-02 
675	 6.70120458634008E-02 
676	 6.70054529209313E-02 
677	 6.68701199694156E-02 
678	 6.68104112720679E-02 
679	 6.68000112622386E-02 
680	 6.67764601531101E-02 
681	 6.66797552768583E-02 
682	 6.66236996120888E-02 
683	 6.66453367799331E-02 
684	 6.66674865783067E-02 
685	 6.64594182151235E-02 
686	 6.63625223705054E-02 
687	 6.62008817186104E-02 
688	 6.58141995843435E-02 
689	 6.56084882100421E-02 
690	 6.53295219634757E-02 
691	 6.49341463610465E-02 
692	 6.44938166984697E-02 
693	 6.39850928299676E-02 
694	 0.063383643065415 
695	 6.27037733615914E-02 
696	 6.19308804768957E-02 
697	 6.11532606649843E-02 
698	 6.03729117955035E-02 
699	 5.95936728834658E-02 
700	 5.86600211985725E-02 
701	 0.057650008533301 
702	 5.66372229739966E-02 
703	 5.56350892922553E-02 
704	 5.45657838567604E-02 
705	 5.34182993927867E-02 
706	 5.22212313444087E-02 
707	 5.09768500160573E-02 
708	 4.96432740553012E-02 
709	 4.82297665971375E-02 
710	 0.046749036906102 
711	 4.51146133580441E-02 
712	 4.34081460682671E-02 
713	 0.041733393344076 
714	 4.01567957463811E-02 
715	 3.85821677215293E-02 
716	 3.68615996517227E-02 
717	 3.50383788764501E-02 
718	 3.32497738888253E-02 
719	 3.14683392327104E-02 
720	 2.98785576421866E-02 
721	 2.83404826519433E-02 
722	 2.69845950114715E-02 
723	 2.54185231170715E-02 
724	 2.37489240718761E-02 
725	 2.22766055384708E-02 
726	 2.09926371377838E-02 
727	 1.95874859431029E-02 
728	 1.79080334456109E-02 
729	 1.63595057609501E-02 
730	 1.47690864534762E-02 
731	 1.33501940088783E-02 
732	 1.23013139192644E-02 
733	 1.14451514356796E-02 
734	 1.07721397437202E-02 
735	 1.02554327566796E-02 
736	 9.79809081393673E-03 
737	 9.48528943037047E-03 
738	 9.23035426178759E-03 
739	 8.98055784698893E-03 
740	 8.89781651527917E-03 
741	 8.76608714771342E-03 
742	 0.008604934737617 
743	 8.54218459383238E-03 
744	 8.48710566099119E-03 
745	 8.48647879600457E-03 
746	 8.51528181000313E-03 
747	 8.43800554040243E-03 
748	 8.46131547402102E-03 
749	 8.44388137488163E-03 
750	 8.29216304185501E-03 
751	 8.36382667322305E-03 
752	 8.42893613100019E-03 
753	 8.42465957041275E-03 
754	 8.38530946775193E-03 
755	 8.30544747426986E-03 
756	 8.21822119236281E-03 
757	 8.18799580400969E-03 
758	 8.37738144863829E-03 
759	 8.43992763930576E-03 
760	 8.39662412304052E-03 
761	 8.50518909760933E-03 
762	 8.52517763908342E-03 
763	 8.50586681857649E-03 
764	 8.4822111695129E-03 
765	 8.47783069953144E-03 
766	 8.51104931448009E-03 
767	 8.50460670361495E-03 
768	 8.51836269095238E-03 
769	 8.73447359644336E-03 
770	 8.8121008602179E-03 
771	 8.78039845293792E-03 
772	 8.75528334316413E-03 
773	 8.85892470801202E-03 
774	 9.02304170181838E-03 
775	 9.1760545702234E-03 
776	 9.25990054161489E-03 
777	 9.29767248817603E-03 
778	 9.40868167907589E-03 
779	 9.58276749926354E-03 
780	 9.68660453175988E-03 
781	 9.95051315280171E-03 
782	 1.01281621875006E-02 
783	 1.01224946023232E-02 
784	 1.03732659272723E-02 
785	 1.05146075880041E-02 
786	 1.06370195861851E-02 
787	 1.09009042860418E-02 
788	 1.09371539101025E-02 
789	 1.10370901782103E-02 
790	 1.12904600932119E-02 
791	 1.15813287070866E-02 
792	 1.17561987583267E-02 
793	 0.011944421148048 
794	 1.22206129655337E-02 
795	 1.24978714818786E-02 
796	 1.26872035737059E-02 
797	 1.27885551359504E-02 
798	 1.28813366500688E-02 
799	 1.31844853670347E-02 
800	 1.34115675785326E-02 
801	 1.35679222017979E-02 
802	 1.37979031669915E-02 
803	 1.38815581629492E-02 
804	 1.39688207251227E-02 
805	 1.40905750744123E-02 
806	 1.41170700265856E-02 
807	 1.40438160862537E-02 
808	 1.40052773691175E-02 
809	 1.40542693681363E-02 
810	 1.39555692868776E-02 
811	 1.38407609789241E-02 
812	 1.36498370220145E-02 
813	 1.33150038776052E-02 
814	 1.32067098852942E-02 
815	 1.30521888366134E-02 
816	 1.27790362128609E-02 
817	 1.25226259468915E-02 
818	 1.23046890545144E-02 
819	 1.20349802667728E-02 
820	 1.16711025305162E-02 
821	 0.011254408791613 
822	 1.07187981723797E-02 
823	 1.01434029166859E-02 
824	 9.58701564288015E-03 
825	 8.88749172711111E-03 
826	 8.32305133766494E-03 
827	 7.85186968066333E-03 
828	 7.33197540902629E-03 
829	 6.66399242122635E-03 
830	 6.16744065572157E-03 
831	 5.8566897196726E-03 
832	 5.54223901593484E-03 
833	 5.42252395842587E-03 
834	 5.31990713039991E-03 
835	 5.13085187598961E-03 
836	 4.90680241447471E-03 
837	 4.85113729581701E-03 
838	 4.76954577338757E-03 
839	 4.54454000134246E-03 
840	 4.4747590096901E-03 
841	 4.47910242509665E-03 
842	 4.53342690045351E-03 
843	 4.57021265372067E-03 
844	 4.24423698508083E-03 
845	 4.20615316158676E-03 
846	 4.35335541131548E-03 
847	 4.1347937107464E-03 
848	 4.18637907688563E-03 
849	 4.30824719878652E-03 
850	 4.33064512718898E-03 
851	 4.25229869984567E-03 
852	 4.08184839503416E-03 
853	 4.02697039466396E-03 
854	 4.13653720965537E-03 
855	 4.05511070234119E-03 
856	 3.95732631406369E-03 
857	 3.89458569548506E-03 
858	 3.84658660656143E-03 
859	 3.63839573192691E-03 
860	 3.67397752132523E-03 
861	 3.8212498850151E-03 
862	 3.74095466242996E-03 
863	 3.68757872241828E-03 
864	 3.68962329469996E-03 
865	 3.70589301804706E-03 
866	 3.65575245345959E-03 
867	 3.63148650017921E-03 
868	 3.59152265166911E-03 
869	 3.54852534408268E-03 
870	 3.6020085966849E-03 
871	 3.66063050509992E-03 
872	 3.59944618555485E-03 
873	 3.43528590822887E-03 
874	 3.50787293590216E-03 
875	 3.51169808820551E-03 
876	 3.42723764221567E-03 
877	 3.32265211304791E-03 
878	 3.22529647311199E-03 
879	 3.12211574472475E-03 
880	 3.20106414841178E-03 
881	 3.56553633693167E-03 
882	 3.40831120358487E-03 
883	 3.15623287666743E-03 
884	 3.04294486270093E-03 
885	 3.07674559401927E-03 
886	 3.19589928000206E-03 
887	 3.11544579418382E-03 
888	 2.90708698566808E-03 
889	 3.0200646043215E-03 
890	 2.95999597688926E-03 
891	 2.78437161870694E-03 
892	 2.68231105147284E-03 
893	 2.89923991157045E-03 
894	 3.10071495001259E-03 
895	 2.9895434377473E-03 
896	 2.59378715676805E-03 
897	 2.87962269781796E-03 
898	 2.9293404907889E-03 
899	 2.83494324729605E-03 
900	 2.93979631600537E-03 
901	 3.08967306461788E-03 
902	 2.89193883116297E-03 
903	 2.74449449977521E-03 
904	 3.05727717971019E-03 
905	 2.71107630947393E-03 
906	 2.71623280216158E-03 
907	 2.88325118460206E-03 
908	 2.30666632437849E-03 
909	 2.15246497254396E-03 
910	 2.60593972463805E-03 
911	 3.03169539520425E-03 
912	 2.46203841159479E-03 
913	 2.82668116384493E-03 
914	 3.14634633317483E-03 
915	 2.86859554727179E-03 
916	 2.42390275624855E-03 
917	 2.30261940411408E-03 
918	 2.24070143703971E-03 
919	 2.17004361238752E-03 
920	 2.41926371230473E-03 
921	 2.80259907883594E-03 
922	 2.83718374962753E-03 
923	 2.29385160365794E-03 
924	 1.56393421725839E-03 
925	 2.0782821088004E-03 
926	 2.95128969452041E-03 
927	 2.84768110887731E-03 
928	 1.9784218205763E-03 
929	 1.96026865292204E-03 
930	 1.93612326048107E-03 
931	 2.11035698467717E-04 
932	 2.41802237646578E-03 
933	-6.63700536308642E-04 
934	-5.2077490371211E-03 
935	-1.85489290806357E-03 
936	 4.24009703642429E-03 
937	 2.62290969117329E-03 
938	-5.94979594094899E-04 
939	 0.001525575486518 
940	-4.28065103277758E-04 
941	 1.1498693663992E-03 
942	 2.9595585982834E-03 
943	-1.45488068311469E-03 
944	-1.37254330617237E-03 
945	 9.42147061205815E-04 
946	 2.05480850268362E-03 
947	 3.70803932933282E-04 
948	 4.18640815854225E-03 
949	 3.43918237829247E-03 
950	 8.49328341978709E-05 
951	 1.99106798743815E-03 
952	 9.19633212055147E-04 
953	 7.14643014310017E-04 
954	 1.95531269148028E-03 
955	 2.6841159954117E-03 
956	 4.20491444999575E-03 
957	 3.10350110658703E-03 
958	 1.30256349914686E-03 
959	 3.10615117189569E-03 
960	 2.47796152996697E-03 
961	 1.57178893289974E-03 
962	 1.22115544518644E-03 
963	 8.80621871586855E-04 
964	 1.26049527406127E-03 
965	 1.53232759865956E-03 
966	 2.12854660545698E-03 
967	 3.86895341543866E-03 
968	 2.99881381791477E-03 
969	 2.30423398507057E-03 
970	 2.46109147450319E-03 
971	 1.99696532867429E-03 
972	 1.57533563340198E-03 
973	 1.22473650027984E-03 
974	 1.1222164892042E-03 
975	 1.49403947353735E-03 
976	 1.42287471843509E-03 
977	 1.42094502564301E-03 
978	 1.76712486462101E-03 
979	 2.33522674045815E-03 
980	 3.00943584400591E-03 
981	 2.96915919021274E-03 
982	 2.32744392169282E-03 
983	 1.91481428056107E-03 
984	 1.47759363324967E-03 
985	 2.71717493004901E-03 
986	 4.05318792333696E-03 
987	 2.38952738309356E-03 
988	 3.41308178204117E-03 
989	 3.39063032135555E-03 
990	 1.98743475323098E-03 
991	 1.82668369342037E-03 
992	 2.73094226505724E-03 
993	 1.94190797300114E-03 
994	 9.26020334271618E-04 
995	 2.9064315940814E-03 
996	 2.09831514836006E-03 
997	 1.79318428164912E-03 
998	 2.34804144680228E-03 
999	 2.08567890429519E-03 
1000	 1.38093279200661E-03 
1001	 2.7380357595639E-03 
1002	 2.36143898269732E-03 
1003	 2.14395309053761E-03 
1004	 1.97330556773896E-03 
1005	 1.81775327740821E-03 
1006	 1.55499469959767E-03 
1007	 1.21151724187215E-03 
1008	 1.42729417007974E-03 
1009	 1.64961318936169E-03 
1010	 1.82233036576034E-03 
1011	 2.63688634511064E-03 
1012	 3.04221964832353E-03 
1013	 3.1611795915322E-03 
1014	 3.25123375839552E-03 
1015	 3.1802044773521E-03 
1016	 3.07722407804717E-03 
1017	 2.79515301360271E-03 
1018	 2.64427574478926E-03 
1019	 2.53954748867284E-03 
1020	 2.39371853380434E-03 
1021	 1.97086804290806E-03 
1022	 2.17019655754621E-03 
1023	 2.76554356657085E-03 
1024	 2.77711098015523E-03 
1025	 2.70143198598008E-03 
1026	 2.65025416474263E-03 
1027	 2.57165691491837E-03 
1028	 1.9746385268712E-03 
1029	 2.01007789793258E-03 
1030	 2.68508499997593E-03 
1031	 2.73633248933226E-03 
1032	 2.70948929607454E-03 
1033	 2.48564887744745E-03 
1034	 1.65853282688542E-03 
1035	 1.46557658869113E-03 
1036	 1.39517468611819E-03 
1037	 1.49538309087818E-03 
1038	 2.29956591681308E-03 
1039	 2.53273382448435E-03 
1040	 2.53922708658616E-03 
1041	 2.74735523757128E-03 
1042	 2.59514728625449E-03 
1043	 0.001967602006939 
1044	 1.94817594159523E-03 
1045	 2.06793807470528E-03 
1046	 2.09382446751459E-03 
1047	 2.40714589664558E-03 
1048	 2.53819896160526E-03 
1049	 2.43528705532211E-03 
1050	 2.47474514705142E-03 
1051	 2.77514822473123E-03 
1052	 2.76813267005868E-03 
1053	 2.46559876867635E-03 
1054	 2.36433804963838E-03 
1055	 2.04601709987158E-03 
1056	 2.01415886350257E-03 
1057	 2.16474480811838E-03 
1058	 0.002726687021694 
1059	 2.79138712796849E-03 
1060	 2.91005973539627E-03 
1061	 2.75399452939962E-03 
1062	 2.01298463831488E-03 
1063	 1.88289863803958E-03 
1064	 1.93353892657903E-03 
1065	 1.99066931243734E-03 
1066	 2.41926809357177E-03 
1067	 2.58439113528181E-03 
1068	 2.59280749657485E-03 
1069	 2.63960987152461E-03 
1070	 2.60895458910223E-03 
1071	 2.64716867209217E-03 
1072	 2.7768982393412E-03 
1073	 2.89563845174893E-03 
1074	 2.71963321112034E-03 
1075	 2.28825449895899E-03 
1076	 2.24858028257679E-03 
1077	 2.11236729296244E-03 
1078	 2.16724973251744E-03 
1079	 2.68849164953981E-03 
1080	 2.89682893077023E-03 
1081	 2.99394141848633E-03 
1082	 2.95266308319768E-03 
1083	 2.87980414771481E-03 
1084	 2.73264580439497E-03 
1085	 2.12469928717763E-03 
1086	 2.0233662263999E-03 
1087	 2.10705539722014E-03 
1088	 2.24668172220879E-03 
1089	 2.93814080396234E-03 
1090	 3.46643396541608E-03 
1091	 3.27045291231131E-03 
1092	 2.46206300759814E-03 
1093	 2.27776768739368E-03 
1094	 1.65892965770252E-03 
1095	 1.64877067846717E-03 
1096	 2.72263407394835E-03 
1097	 2.90275447411547E-03 
1098	 2.48111578896568E-03 
1099	 2.33540827547248E-03 
1100	 1.96232234729485E-03 
1101	 1.90467554236909E-03 
1102	 2.44520335395442E-03 
1103	 2.65174129108513E-03 
1104	 3.0849162311612E-03 
1105	 2.62860684217529E-03 
1106	 2.47136142456516E-03 
1107	 1.99216094942722E-03 
1108	 1.94730599068268E-03 
1109	 2.79220719667464E-03 
1110	 2.56166735613602E-03 
1111	 1.69965795589252E-03 
1112	 1.48332867341261E-03 
1113	 2.76701466350378E-04 
1114	 2.48383443545346E-04 
1115	 3.38807157668052E-03 
1116	 3.83532717101595E-03 
1117	 1.68933073519049E-03 
1118	 1.60201181012619E-03 
1119	-3.56927167856596E-04 
1120	-6.01590213298972E-04 
1121	 5.03978950522639E-03 
1122	 0.010393594178168 
1123	 6.04941481939811E-03 
1124	 1.63457517339703E-03 
1125	-1.43928814724002E-03 
1126	-4.61799948528749E-03 
1127	-8.02448429463518E-04 
1128	 6.17931738562807E-03 
1129	 6.5368573653109E-03 
1130	 9.0152921801477E-04 
1131	 9.73868832829432E-04 
1132	 3.13095896674549E-03 
1133	 2.33242082193675E-03 
1134	 1.35955784329799E-03 
1135	 1.67147165194621E-03 
1136	 1.40433559976315E-05 
1137	-3.87248188966502E-04 
1138	 3.00848756608702E-04 
1139	 3.32875663416307E-03 
1140	 2.97278525284864E-03 
1141	 2.27327966272798E-03 
1142	 2.73328591979043E-03 
1143	 1.59744042873611E-03 
1144	 1.77308727268476E-03 
1145	 2.55255914980201E-03 
1146	 1.81138731293298E-03 
1147	 1.53224775236777E-03 
1148	 1.32003108050323E-03 
1149	 1.4218931833628E-03 
1150	 1.79279918779193E-03 
1151	 2.89966258800285E-03 
1152	 2.92179566185775E-03 
1153	 2.57830852556022E-03 
1154	 2.33775011391952E-03 
1155	 1.68485555072517E-03 
1156	 1.67810245970973E-03 
1157	 1.91161599919256E-03 
1158	 2.13834979521275E-03 
1159	 2.46592420988572E-03 
1160	 2.25133014008558E-03 
1161	 1.88656378246767E-03 
1162	 1.8942356775355E-03 
1163	 1.52454897127198E-03 
1164	 1.14010682995358E-03 
1165	 1.60804066119307E-03 
1166	 1.92874852957473E-03 
1167	 1.55910945414532E-03 
1168	 1.85845072704592E-03 
1169	 2.2256032722587E-03 
1170	 1.78553872090061E-03 
1171	 1.63024914431744E-03 
1172	 1.83876001801015E-03 
1173	 1.85930191122143E-03 
1174	 1.51780102362388E-03 
1175	 1.69338497122927E-03 
1176	 2.09766533661084E-03 
1177	 2.13125104140852E-03 
1178	 1.95615035022444E-03 
1179	 1.8064442524587E-03 
1180	 1.8247014539834E-03 
1181	 1.79418908978102E-03 
1182	 1.87240391185201E-03 
1183	 2.13878794627885E-03 
1184	 1.83433434633103E-03 
1185	 1.31682195830354E-03 
1186	 1.40766459944038E-03 
1187	 1.58770255379819E-03 
1188	 1.73796087109552E-03 
1189	 2.07558447604329E-03 
1190	 2.08051141372139E-03 
1191	 1.90154679014429E-03 
1192	 1.89724667596833E-03 
1193	 1.97964283773392E-03 
1194	 2.09750624236303E-03 
1195	 2.00317999948885E-03 
1196	 1.91319495907126E-03 
1197	 2.04166572898626E-03 
1198	 2.18384459182834E-03 
1199	 2.2190368557268E-03 
1200	 2.06969686312355E-03 
1201	 1.69261355279805E-03 
1202	 1.45789051025141E-03 
1203	 1.64664014037332E-03 
1204	 1.9428646465235E-03 
1205	 1.78008493797609E-03 
1206	 0.001327010586423 
1207	 1.35257769743912E-03 
1208	 0.001777439045264 
1209	 1.98391258314948E-03 
1210	 1.91308778400082E-03 
1211	 1.89495433452349E-03 
1212	 1.91038789340168E-03 
1213	 1.81061818197819E-03 
1214	 1.72917643109884E-03 
1215	 1.90298308234185E-03 
1216	 2.00989819893048E-03 
1217	 1.95530495502599E-03 
1218	 1.87723537173165E-03 
1219	 2.01596189719709E-03 
1220	 2.24093785456804E-03 
1221	 2.09853397789867E-03 
1222	 1.93926878782366E-03 
1223	 1.98357477365427E-03 
1224	 2.03678298154256E-03 
1225	 2.03079022300897E-03 
1226	 1.92501018061757E-03 
1227	 1.98481931122636E-03 
1228	 2.05850849466293E-03 
1229	 2.00850822654815E-03 
1230	 2.1158459301313E-03 
1231	 2.16374094631054E-03 
1232	 1.95771152881842E-03 
1233	 1.80393553542104E-03 
1234	 1.89132633475758E-03 
1235	 1.88477155427637E-03 
1236	 1.99038006926462E-03 
1237	 1.98646848881192E-03 
1238	 1.9240343954748E-03 
1239	 1.70372099921194E-03 
1240	 1.57913375223465E-03 
1241	 1.75395207959589E-03 
1242	 1.77286501943851E-03 
1243	 1.51137697408772E-03 
1244	 1.47442410894177E-03 
1245	 1.70279414015666E-03 
1246	 1.93879672245382E-03 
1247	 2.06931080662879E-03 
1248	 2.0021747074198E-03 
1249	 1.75817958172008E-03 
1250	 1.67321337802435E-03 
1251	 1.92141059264496E-03 
1252	 2.07967739277641E-03 
1253	 2.01543611493598E-03 
1254	 1.94108542518262E-03 
1255	 1.89115210749189E-03 
1256	 1.90026744676755E-03 
1257	 2.25568125948756E-03 
1258	 2.3089071320729E-03 
1259	 2.04817839127084E-03 
1260	 2.03697260318886E-03 
1261	 2.17336864912924E-03 
1262	 2.14555341180067E-03 
1263	 2.12095218845304E-03 
1264	 0.002080051970836 
1265	 1.93782242469495E-03 
1266	 1.78743974457178E-03 
1267	 1.83506700398358E-03 
1268	 2.09644286571112E-03 
1269	 2.04277596181851E-03 
1270	 1.80002002065428E-03 
1271	 1.82778228543416E-03 
1272	 1.86956563221316E-03 
1273	 1.92244904240302E-03 
1274	 2.10632063126497E-03 
1275	 2.05097698658349E-03 
1276	 1.84940342715841E-03 
1277	 1.93714427361166E-03 
1278	 2.05382661176426E-03 
1279	 1.95338227482191E-03 
1280	 1.96386475758481E-03 
1281	 2.02542789574723E-03 
1282	 2.00896876020711E-03 
1283	 1.97349293122948E-03 
1284	 2.13181363810496E-03 
1285	 2.13115785417422E-03 
1286	 1.81315056950617E-03 
1287	 1.76244883932988E-03 
1288	 1.97293849909745E-03 
1289	 1.97224548196481E-03 
1290	 1.84160234533092E-03 
1291	 1.90908534576655E-03 
1292	 1.90828481825216E-03 
1293	 1.98004076932552E-03 
1294	 2.35962144837632E-03 
1295	 2.4585970076902E-03 
1296	 2.18846009229918E-03 
1297	 2.01552084743157E-03 
1298	 1.90413021864686E-03 
1299	 1.72073650373202E-03 
1300	 1.81794668822263E-03 
1301	 2.09251609893466E-03 
1302	 2.12816185266195E-03 
1303	 2.06211178704288E-03 
1304	 2.11940296373294E-03 
1305	 2.01910247300041E-03 
1306	 2.02905699573152E-03 
1307	 1.99692716457583E-03 
1308	 2.03592513815487E-03 
1309	 2.23987991746295E-03 
1310	 2.29173187415069E-03 
1311	 2.11259869746896E-03 
1312	 2.09070037778577E-03 
1313	 2.38451667843499E-03 
1314	 2.29833419918572E-03 
1315	 1.62457400605593E-03 
1316	 1.69254432835903E-03 
1317	 2.22175369980808E-03 
1318	 2.27508848287521E-03 
1319	 2.66651640857269E-03 
1320	 2.83471531879997E-03 
1321	 2.36694566379825E-03 
1322	 2.04417273685359E-03 
1323	 2.30802649975918E-03 
1324	 2.69573095854331E-03 
1325	 2.53907680064341E-03 
1326	 2.17065336292573E-03 
1327	 2.61699386171271E-03 
1328	 2.95396816488619E-03 
1329	 2.55969849931041E-03 
1330	 2.11272485343398E-03 
1331	 1.47915952708144E-03 
1332	 1.4581297015696E-03 
1333	 2.25228223112653E-03 
1334	 2.50060641334589E-03 
1335	 2.67463502515568E-03 
1336	 1.80225979824021E-03 
1337	 1.66089497154723E-03 
1338	 2.34171880238369E-03 
1339	 2.29599603269649E-03 
1340	 1.37625562633523E-03 
1341	 1.45342804195012E-03 
1342	 2.30458485726087E-03 
1343	 2.4933691550818E-03 
1344	 3.04478043952747E-03 
1345	 3.33232634593167E-03 
1346	 2.11326783374098E-03 
1347	 1.31811150239046E-03 
1348	 9.67790521745224E-04 
1349	 1.33065393481575E-03 
1350	 3.73274233152853E-03 
1351	 3.93080590983138E-03 
1352	 2.47178485666879E-03 
1353	 4.00670276537414E-03 
1354	 4.07702635101603E-03 
1355	-6.4956875860004E-04 
1356	-0.026509091615125 
1357	-4.19030904252016E-02 
1358	-6.38278919632263E-03 
1359	-6.27191271191891E-03 
1360	 6.62875311435205E-03 
1361	 6.36429184495826E-02 
1362	 9.82406228036712E-02 
1363	 2.69284417130042E-02 
1364	-0.12476052347821 
1365	-6.43264101546952E-02 
1366	 4.25688666058133E-02 
1367	-0.167198542833309 
1368	-0.200198366192454 
1369	-6.98656132230077E-02 
1370	 0.06062142810221 
1371	 0.337702983321663 
1372	 0.350074052051845 
1373	 0.401483513485027 
1374	 0.448697997741604 
1375	 3.61716561048092E-02 
1376	 1.27457940935261E-02 
1377	 0.454218695696689 
1378	 0.404951196529321 
1379	 7.45587461014455E-02 
1380	-2.90180146264583E-02 
1381	-0.420366317556578 
1382	-0.525290482064179 
1383	-0.254367168192949 
1384	-0.235846522599188 
1385	-0.370511053353534 
1386	-0.271036230210377 
1387	-1.93516838007653E-02 
1388	 3.52498844786504E-02 
1389	 0.141501295829484 
1390	 0.179823062006135 
1391	 1.54974793845538E-02 
1392	-0.064301481443957 
1393	 6.84735203721065E-02 
1394	 0.29030591451819 
1395	 0.290778670584328 
1396	 0.115135454329405 
1397	 6.74572087044008E-02 
1398	 4.16810596292471E-02 
1399	-8.55347548431564E-03 
1400	 4.41892362430945E-02 
1401	 1.26814674953741E-02 
1402	-8.40961879620347E-02 
1403	-3.28157948556097E-02 
1404	 0.157120355847371 
1405	 0.203200063389295 
1406	 0.130893494039031 
1407	 5.25403692977909E-02 
1408	-3.09762492602741E-02 
1409	-3.33142727773047E-03 
1410	 6.68452250920785E-02 
1411	 5.56646572305236E-02 
1412	 6.37376342530968E-02 
1413	 5.48337108707092E-02 
1414	-2.36635106888871E-02 
1415	-3.86784636507938E-02 
1416	-2.01632803086784E-02 
1417	-3.03690479183974E-03 
1418	 4.05649589685529E-02 
1419	 2.57950863276083E-02 
1420	-9.69148449387756E-03 
1421	-3.80699011967214E-03 
1422	 1.80162295333172E-03 
1423	-5.77266823274193E-03 
1424	-7.85314227195528E-03 
1425	-1.65868299097641E-03 
1426	 2.91339058717082E-03 
1427	-3.29722925034869E-03 
1428	-9.9932800089645E-03 
1429	-4.68459461774821E-03 
1430	 8.21740905592053E-04 
1431	-1.47362218747451E-03 
1432	-4.44034079614019E-03 
1433	 2.86834242196615E-03 
1434	 1.74071369900947E-02 
1435	 1.38145822000033E-02 
1436	 3.75610177809655E-03 
1437	 1.08508584741135E-02 
1438	 8.48123619298108E-04 
1439	-1.88208934061292E-02 
1440	-4.92800380584728E-03 
1441	 7.25215564013876E-03 
1442	 7.37121797598179E-03 
1443	 4.61987568805898E-03 
1444	-4.94736176340947E-03 
1445	-6.97873846630128E-03 
1446	-5.42710098097469E-03 
1447	-4.96017152219165E-03 
1448	 7.47596487044825E-04 
1449	 2.35642956618579E-03 
1450	 5.77685966630092E-04 
1451	 7.8040199447682E-04 
1452	 1.05943310779647E-03 
1453	 9.21651434551527E-04 
1454	-1.29493289352043E-04 
1455	-1.96443496764302E-03 
1456	-2.26995891294323E-04 
1457	 2.72545960467926E-03 
1458	 2.31666005857673E-03 
1459	 3.11260118504491E-03 
1460	 3.25571738626612E-03 
1461	-5.01470100775795E-04 
1462	-1.03131124972827E-03 
1463	 1.86632289250513E-03 
1464	 2.77501043550159E-03 
1465	 3.01985443957731E-03 
1466	 2.37623655468212E-03 
1467	 8.67997243113515E-04 
1468	 5.4086594644857E-04 
1469	-6.80372245159957E-04 
1470	-5.92874479340498E-04 
1471	 1.93084916021751E-03 
1472	 2.19083546959639E-03 
1473	 1.3642490103779E-03 
1474	 8.72173689672652E-04 
1475	-4.39495488548201E-04 
1476	-1.37857439152509E-04 
1477	 1.90493428588466E-03 
1478	 1.09461291083166E-03 
1479	-1.71673692238653E-03 
1480	-1.2928822929759E-03 
1481	-4.13791468080088E-04 
1482	-2.7438815942732E-04 
1483	 1.8271610573638E-03 
1484	 2.52330022791792E-03 
1485	 1.52876610501636E-03 
1486	 1.12316752595515E-03 
1487	 7.88959689627682E-04 
1488	 9.37977354934026E-04 
1489	 1.28186293807728E-03 
1490	 1.13157093218428E-03 
1491	 1.22202333422491E-03 
1492	 1.33913874480518E-03 
1493	 8.9987378856233E-04 
1494	 8.66357307339336E-04 
1495	 1.41675353480889E-03 
1496	 1.47337174375336E-03 
1497	 1.20297758838155E-03 
1498	 1.1954635510403E-03 
1499	 1.23769059200367E-03 
1500	 1.19193831915816E-03 
1501	 1.21765288343266E-03 
1502	 1.22780503365263E-03 
1503	 1.16050300306233E-03 
1504	 1.07760656865006E-03 
1505	 1.05238406923747E-03 
1506	 9.12172411551178E-04 
1507	 9.94043771105775E-04 
1508	 9.70513533474245E-04 
1509	 1.11395946315997E-03 
1510	 1.50423555690442E-03 
1511	 1.33022594452574E-03 
1512	 1.05121935890869E-03 
1513	 1.08253920412993E-03 
1514	 1.17026667284843E-03 
1515	 1.36465621672227E-03 
1516	 1.38755423860926E-03 
1517	 1.23830438253972E-03 
1518	 1.12599959920269E-03 
1519	 1.10279502841663E-03 
1520	 1.29330367830404E-03 
1521	 1.48199560237044E-03 
1522	 1.4013140265713E-03 
1523	 1.28149278148805E-03 
1524	 1.33604319411306E-03 
1525	 1.33344627641666E-03 
1526	 1.35580097940991E-03 
1527	 1.59439928636165E-03 
1528	 1.70983641029673E-03 
1529	 1.5571195314332E-03 
1530	 1.47332272692329E-03 
1531	 1.55595445135049E-03 
1532	 1.59264257855518E-03 
1533	 1.59852253483554E-03 
1534	 1.47007016658625E-03 
1535	 1.35164170225842E-03 
1536	 1.30640807235443E-03 
1537	 8.60642230698197E-04 
1538	 6.67939206746778E-04 
1539	 1.01610389065747E-03 
1540	 1.09982007280073E-03 
1541	 1.21792052870567E-03 
1542	 1.57831517348261E-03 
1543	 1.5727007273245E-03 
1544	 1.26191810520021E-03 
1545	 1.16633538416631E-03 
1546	 1.26815443983944E-03 
1547	 1.37789266555279E-03 
1548	 1.45079224294549E-03 
1549	 1.49786258443662E-03 
1550	 1.56282216044745E-03 
1551	 1.47817539687762E-03 
1552	 1.40503310468685E-03 
1553	 1.46151476167444E-03 
1554	 1.45327921133266E-03 
1555	 1.41117467693976E-03 
1556	 1.28700609986213E-03 
1557	 1.24421548752816E-03 
1558	 1.41502379558837E-03 
1559	 1.55475349425934E-03 
1560	 1.56009871594249E-03 
1561	 1.47264887364136E-03 
1562	 1.45900517450713E-03 
1563	 1.57657050386546E-03 
1564	 1.62930523355798E-03 
1565	 1.36446701133784E-03 
1566	 1.20819935884404E-03 
1567	 1.53046942954507E-03 
1568	 1.62851817031599E-03 
1569	 1.62679767750249E-03 
1570	 1.79035020486589E-03 
1571	 1.50184273667709E-03 
1572	 0.001156662902244 
1573	 1.2275111734497E-03 
1574	 1.34097826534009E-03 
1575	 1.29203988821386E-03 
1576	 1.21280634657718E-03 
1577	 1.28056860595614E-03 
1578	 1.32617248028263E-03 
1579	 1.29322599659766E-03 
1580	 1.18643233018818E-03 
1581	 9.09136524055021E-04 
1582	 9.46252939635526E-04 
1583	 1.35927121990262E-03 
1584	 1.41194135693479E-03 
1585	 1.26182469878866E-03 
1586	 1.41315817868078E-03 
1587	 1.5350062592657E-03 
1588	 1.50531986097992E-03 
1589	 1.45496923782151E-03 
1590	 1.36853755072849E-03 
1591	 1.20500706706494E-03 
1592	 1.08745743257656E-03 
1593	 1.51993411115432E-03 
1594	 1.94665204531999E-03 
1595	 1.76697471213949E-03 
1596	 1.72111894185953E-03 
1597	 1.57747372713155E-03 
1598	 1.15085276974328E-03 
1599	 1.01825335289841E-03 
1600	 1.03125768961405E-03 
1601	 1.24705517528827E-03 
1602	 1.43006413396741E-03 
1603	 1.31663611387337E-03 
1604	 1.30875830689242E-03 
1605	 1.22932230718061E-03 
1606	 1.10091890650514E-03 
1607	 1.42268333162698E-03 
1608	 1.65690989007824E-03 
1609	 1.48820667143425E-03 
1610	 1.49035438656794E-03 
1611	 1.52472380979102E-03 
1612	 1.44592806280678E-03 
1613	 1.5890949866332E-03 
1614	 1.73968080407726E-03 
1615	 1.60246796535842E-03 
1616	 1.48038726206911E-03 
1617	 1.54904730704345E-03 
1618	 1.52072336261599E-03 
1619	 1.3708571510203E-03 
1620	 1.41358197564718E-03 
1621	 1.57092221546581E-03 
1622	 1.62933456392193E-03 
1623	 1.64650539875015E-03 
1624	 1.58148451262253E-03 
1625	 1.30041707264692E-03 
1626	 1.05195214363807E-03 
1627	 1.33937578308993E-03 
1628	 1.66476086996076E-03 
1629	 1.51416374375773E-03 
1630	 1.51086855488739E-03 
1631	 1.65204964619244E-03 
1632	 1.58318771896803E-03 
1633	 1.5151356558444E-03 
1634	 1.43683008696174E-03 
1635	 1.20484441316004E-03 
1636	 1.1564241614731E-03 
1637	 1.61547094234985E-03 
1638	 1.89912441125611E-03 
1639	 1.44456538111639E-03 
1640	 1.00715837272321E-03 
1641	 9.89694546276699E-04 
1642	 1.06180753113973E-03 
1643	 1.36417221922873E-03 
1644	 1.6084985038045E-03 
1645	 1.53199879620227E-03 
1646	 1.51137664009656E-03 
1647	 1.57483141555079E-03 
1648	 1.75898724653537E-03 
1649	 1.81917687228855E-03 
1650	 1.45782006944645E-03 
1651	 1.25043762001858E-03 
1652	 1.39368882847592E-03 
1653	 1.19003346585326E-03 
1654	 1.17071335263279E-03 
1655	 1.37556208197984E-03 
1656	 1.40006358454229E-03 
1657	 1.42414001879247E-03 
1658	 1.46492507823082E-03 
1659	 1.39349218506274E-03 
1660	 1.41169111808728E-03 
1661	 1.58731561625244E-03 
1662	 1.51811938512631E-03 
1663	 1.27070834562096E-03 
1664	 1.35932882352023E-03 
1665	 1.56306567072915E-03 
1666	 1.52239753775315E-03 
1667	 1.48610743390874E-03 
1668	 1.33568030611465E-03 
1669	 1.24232721804267E-03 
1670	 1.2701228048373E-03 
1671	 1.58827198010998E-03 
1672	 1.71791130669901E-03 
1673	 1.46511515557146E-03 
1674	 1.06268544138136E-03 
1675	 1.20733770156351E-03 
1676	 1.75008005511829E-03 
1677	 1.55851675982183E-03 
1678	 1.24290714256372E-03 
1679	 1.37609139930913E-03 
1680	 1.10682147845205E-03 
1681	 9.81291147217035E-04 
1682	 1.58512424339025E-03 
1683	 1.70945919574688E-03 
1684	 1.2541220404012E-03 
1685	 1.22544506480487E-03 
1686	 1.20784544646258E-03 
1687	 1.15740483438004E-03 
1688	 1.61066997812423E-03 
1689	 1.78703130463934E-03 
1690	 1.57849952191519E-03 
1691	 1.51355920430608E-03 
1692	 1.18075204689032E-03 
1693	 1.08542650812055E-03 
1694	 1.65684087442601E-03 
1695	 1.81366498485283E-03 
1696	 1.50214456406414E-03 
1697	 1.42623787415686E-03 
1698	 1.44510354818741E-03 
1699	 1.62527396418306E-03 
1700	 2.01380769339283E-03 
1701	 1.92261474155355E-03 
1702	 1.64818680588175E-03 
1703	 1.71606027180716E-03 
1704	 1.46143505152884E-03 
1705	 1.24494802432364E-03 
1706	 1.45381188248145E-03 
1707	 1.28454383013474E-03 
1708	 1.45320106695427E-03 
1709	 2.02938791674502E-03 
1710	 1.94941771010282E-03 
1711	 1.79855585023808E-03 
1712	 1.47572080401242E-03 
1713	 1.37748098175367E-03 
1714	 1.57094163598047E-03 
1715	 1.33262615638873E-03 
1716	 1.43783732147594E-03 
1717	 1.87178609765856E-03 
1718	 1.46962194515801E-03 
1719	 1.14950870981849E-03 
1720	 1.34297529381195E-03 
1721	 1.23460503592525E-03 
1722	 1.19740531789681E-03 
1723	 1.70851749763243E-03 
1724	 2.00425275586529E-03 
1725	 1.53655913560526E-03 
1726	 1.08909867455145E-03 
1727	 1.44736994937054E-03 
1728	 1.32611125882489E-03 
1729	 9.08794571180031E-04 
1730	 1.26199856828576E-03 
1731	 7.854774673656E-04 
1732	 7.71089855775742E-04 
1733	 2.06803392323728E-03 
1734	 2.27446191851199E-03 
1735	 2.13518221033944E-03 
1736	 2.1351361400727E-03 
1737	 1.50340580407947E-03 
1738	 1.08801789290671E-03 
1739	 1.42155177920541E-03 
1740	 1.62150188277669E-03 
1741	 1.36068341334566E-03 
1742	 1.83687485346022E-03 
1743	 2.12564742505274E-03 
1744	 1.13561324237745E-03 
1745	 6.92701356933446E-04 
1746	 6.38977029563429E-04 
1747	 7.28126349762015E-04 
1748	 2.49145384120442E-03 
1749	 2.88660234483011E-03 
1750	 1.90343656771658E-03 
1751	 1.79633351164619E-03 
1752	 1.44061335085146E-03 
1753	 1.26232674343213E-03 
1754	 1.9043617324926E-03 
1755	 2.18316297629375E-03 
1756	 2.18436745017906E-03 
1757	 1.99073682749787E-03 
1758	 2.09814326016001E-03 
1759	 1.86253519292577E-03 
1760	 1.07185082762111E-03 
1761	 1.08827027347614E-03 
1762	 9.53153374373574E-04 
1763	 8.34996992128093E-04 
1764	 1.73529451727704E-03 
1765	 1.36251659172338E-03 
1766	 1.15467167547634E-03 
1767	 2.02424983194042E-03 
1768	 8.40638402635146E-04 
1769	 3.06102594824551E-04 
1770	 1.10222567061313E-03 
1771	 5.04072812620511E-04 
1772	 1.4872650972078E-03 
1773	 3.26972454137049E-03 
1774	 2.49772022636673E-03 
1775	 5.14808198241184E-04 
1776	 5.63543812725314E-05 
1777	 1.24176173578296E-04 
1778	 7.21800315193308E-05 
1779	 1.51124180816852E-03 
1780	 1.68829315345536E-03 
1781	 1.64391082980153E-04 
1782	-1.41639135028635E-04 
1783	-2.21144251083613E-04 
1784	 6.09216125487747E-05 
1785	 1.5520359293583E-03 
1786	 1.68292597573908E-03 
1787	 1.08123389712291E-03 
1788	 1.14709041776525E-03 
1789	 6.6360173470466E-04 
1790	-1.58438189996343E-03 
1791	-2.7991368060397E-04 
1792	 3.52442863500681E-03 
1793	 3.44405226792519E-03 
1794	 9.60121819355246E-04 
1795	-9.74051826021589E-04 
1796	-4.28762673616221E-03 
1797	-1.35690282275175E-03 
1798	 1.08728180289329E-02 
1799	 1.88308708900627E-02 
1800	 9.68319681859237E-03 
1801	 5.66501247515553E-03 
1802	-1.70098984811826E-04 
1803	-4.73675672076769E-03 
1804	-6.50633627005187E-03 
1805	-8.65761803068718E-03 
1806	-4.76760929807044E-04 
1807	-2.17557297669533E-03 
1808	-1.75975662566418E-02 
1809	-6.09781961790027E-03 
1810	 0.019742013607401 
1811	 2.09192225371506E-02 
1812	 0.059837600576191 
1813	 4.11926299088576E-02 
1814	-0.124438505038088 
1815	-0.219763606086914 
1816	-0.263128785963382 
1817	-0.316525352885657 
1818	-0.398748498196032 
1819	-0.139261503528564 
1820	-9.53831371726138E-02 
1821	 0.229787047970328 
1822	 0.366548673427122 
1823	-3.91682252000297E-02 
1824	-7.70189040714056E-02 
1825	 9.43250305978199E-02 
1826	 0.159083666887127 
1827	 0.976206830442056 
1828	 1.74137336873802 
1829	 0.306995078890812 
1830	 0.166509767817915 
1831	-1.98224372417426 
1832	-1.74953716684453 
1833	 2.15704944250426 
1834	-35.8881980437972 
1835	-1.91449682886913 
1836	-2.00157451660264 
1837	-1.00638485372144 
1838	-0.659003101935483 
1839	-0.72066534162354 
1840	-2.37717474424218 
1841	-1.49760964353262 
1842	 0.419635333020526 
1843	 0.802337696786696 
1844	 2.92648168343518 
1845	 4.00044403158609 
1846	 6155.39268317352 
1847	-9.71563442435634 
1848	 10.0747363312668 
1849	 5.05313624428612 
1850	 5.30046504807313 
1851	 1.39634299518051 
1852	 0.225338511331413 
1853	-7.12440453079042E-03 
1854	-0.107381886274774 
1855	 0.522637008107249 
1856	 1.44683682558333 
1857	-15.1523292584676 
1858	-4.864411947955 
1859	-19.2207406937245 
1860	-4.24110381505784 
1861	-1.13793452590849 
1862	 3.96390350479064E-02 
1863	 0.121042882129986 
1864	-5.45347680773296E-02 
1865	-9.73819144662897E-02 
1866	-0.248763555044256 
1867	-0.116165645541019 
1868	 4.86562144209109E-02 
1869	 0.186113415708343 
1870	 0.821609710360082 
1871	-3.3847317681744 
1872	-0.832123399118035 
1873	-0.681928174303617 
1874	-0.920782558799093 
1875	 0.287926234479596 
1876	 0.369428592389572 
1877	-0.781838430184655 
1878	-0.611069405798752 
1879	 2.31102771216821E-02 
1880	-7.13484160667411E-02 
1881	 1.0433771360869 
1882	 0.755147284520171 
1883	 1.9844575124147 
1884	-4.86278766778827 
1885	-3.71084479385945 
1886	-10.5469940826596 
1887	 0.261188170698493 
1888	-9.46934484109006E-02 
1889	-0.24876702254697 
1890	-0.987308190283968 
1891	-1.27432837541588 
1892	 4.91449096975083 
1893	-0.224778191595658 
1894	-0.483354774678821 
1895	-2.86932332568214 
1896	 3.14680896150561 
1897	 0.577637870868555 
1898	-0.777692810128363 
1899	 9.51181206338395 
1900	 4.18741679331883 
1901	 7.05977372948159 
1902	 18.5778973411463 
1903	 0.434441714599532 
1904	 1.07158863639542 
1905	 0.153272605635934 
1906	-3.09926310106115 
1907	-272.146597673127 
1908	 4.44769500446474 
1909	 3.26273556605776 
1910	 19.4849886282391 
1911	-0.953751145712769 
1912	-1.02145147591191 
1913	-0.659055121067848 
1914	 0.101601363300243 
1915	 0.264346361595325 
1916	 0.56712640160802 
1917	 1.12281125769289 
1918	 3.02987304698125E-02 
1919	-14.4245930031017 
1920	-37.4747038628865 
1921	-2.93084728883795 
1922	-1.42797501351655 
1923	-0.481031365164147 
1924	-0.113816407066601 
1925	 0.464396785221113 
1926	 0.667167040689872 
1927	 0.083427954208458 
1928	-1.81282569987591 
1929	 1.68019631197929 
1930	 2.44658049580761 
1931	 1.06628871282412 
1932	-8.64270186514114E-03 
1933	-0.242980802513595 
1934	-0.348913774016048 
1935	-9.43075296537831E-03 
1936	 0.200115027147201 
1937	 0.218768303893274 
1938	 0.303650013758833 
1939	 0.302250862109937 
1940	 0.215007677714041 
1941	 0.145622254453433 
1942	 0.118614120742288 
1943	 7.52667797825789E-02 
1944	 6.87302989666892E-03 
1945	-3.58565090526893E-02 
1946	-2.30323294297391E-02 
1947	-1.25158201273351E-02 
1948	-1.35676787657858E-02 
1949	 1.53811187211739E-02 
1950	 3.33317245279097E-02 
1951	 2.56408699224729E-02 
1952	 2.15887289903293E-02 
1953	 1.99373612766773E-02 
1954	 3.94010269431472E-03 
1955	-3.72148307028609E-04 
1956	 6.89399981373082E-03 
1957	 3.8772625969347E-03 
1958	 2.35241566040152E-04 
1959	 2.25566298206223E-03 
1960	 5.78342318214675E-03 
1961	 5.91081902155954E-03 
1962	 5.31874969652916E-03 
1963	 3.49560517964897E-03 
1964	 9.64941865151561E-04 
1965	 1.82367933221431E-04 
1966	 2.22728282154325E-04 
1967	 1.85871594672062E-03 
1968	 2.34434871767475E-03 
1969	 1.71906481072634E-03 
1970	 7.91191879121882E-04 
1971	-5.00034063640319E-04 
1972	 1.35536212306373E-03 
1973	 2.90753204522968E-03 
1974	 3.96176199156201E-04 
1975	 5.43342847866164E-04 
1976	 1.58217173335289E-03 
1977	-1.7301145517996E-04 
1978	 3.33057985052295E-04 
1979	 8.90001813297425E-04 
1980	 2.09700901198301E-03 
1981	 8.13005321643686E-04 
1982	 2.42050458686792E-04 
1983	 1.41983720892994E-03 
1984	 3.05106960829998E-03 
1985	 2.29379847846484E-03 
1986	 1.62679453497297E-03 
1987	 2.40417674299697E-03 
1988	 2.43051922376916E-03 
1989	 2.48670782851236E-03 
1990	 2.97196935725607E-03 
1991	 2.32853529639087E-03 
1992	 7.61802576299583E-04 
1993	 5.20007979545393E-04 
1994	 6.93265315893369E-04 
1995	 2.14962756416859E-03 
1996	 3.5873300071642E-03 
1997	 4.3177720087462E-03 
1998	 3.4675956281445E-03 
1999	 2.82502936366623E-03 
2000	 2.50006849647188E-03 
2001	 4.29159320596091E-03 
2002	 6.45249989940849E-03 
2003	 4.65715395058581E-03 
2004	 5.26757847418049E-03 
2005	 1.9667335789815E-03 
2006	-1.36039217986246E-03 
2007	 2.51073504434428E-03 
2008	 2.21499350410088E-03 
2009	 2.16401867352242E-03 
2010	 2.94902444884851E-03 
2011	 2.57639915745296E-03 
2012	 8.70023053059874E-05 
2013	 0.000870627399495 
2014	-4.71889976869671E-04 
2015	-2.10062576360253E-04 
2016	 2.32544381102263E-03 
2017	 3.49979134296891E-03 
2018	 1.55452096274136E-03 
2019	 1.36662538792264E-03 
2020	 1.9725039301306E-03 
2021	 1.62824806964938E-04 
2022	-2.90990868613293E-04 
2023	-2.64170989618924E-04 
2024	-7.5560399577493E-04 
2025	-3.13006758084756E-03 
2026	-3.06872181545748E-03 
2027	-1.94333834790799E-03 
2028	-9.23670100811054E-04 
2029	 4.81557361350512E-04 
2030	 1.42386516308334E-03 
2031	 6.20977225276907E-04 
2032	 5.40571095049429E-04 
2033	 4.75423626320745E-04 
2034	-9.05959495175199E-05 
2035	 6.37008928916288E-04 
2036	 0.001014284260458 
2037	 6.27074187955062E-04 
2038	 7.19093418775482E-04 
2039	 9.08142749090302E-04 
2040	 1.43353790677792E-03 
2041	 1.19252156867169E-03 
2042	 3.44444168553214E-04 
2043	 4.44747598137916E-04 
2044	 6.99160641979656E-04 
2045	 3.80640366823931E-04 
2046	 9.76457650682934E-04 
2047	 1.67893136376849E-03 
2048	 1.17212772150094E-03 
2049	 8.71174380315375E-04 
2050	 7.22826207648327E-04 
2051	 3.37278188604656E-05 
2052	-7.4672449447068E-04 
2053	-9.05352039612577E-04 
2054	-7.77694799573342E-04 
2055	-1.19667892125712E-04 
2056	 4.3667427038933E-04 
2057	 1.17055158682957E-03 
2058	 1.51981897224943E-03 
2059	 1.71347131294229E-03 
2060	 1.90223947437657E-03 
2061	 2.12218278136383E-03 
2062	 1.85001212258939E-03 
2063	 1.43888794777266E-03 
2064	 2.1038415766874E-03 
2065	 2.35069836152551E-03 
2066	 2.31130577967591E-03 
2067	 1.98082128483614E-03 
2068	 1.07616266628929E-03 
2069	-1.44548045629274E-04 
2070	-7.58001095500862E-04 
2071	-5.83364365664073E-05 
2072	 7.39857796817521E-05 
2073	 1.18325049979348E-04 
2074	 1.61444657683529E-04 
2075	 6.15172184952551E-04 
2076	 1.21694570798081E-03 
2077	 1.59332809481211E-03 
2078	 2.36198325459269E-03 
2079	 2.75609215772983E-03 
2080	 3.12041573593746E-03 
2081	 2.2357169583026E-03 
2082	 1.53389996632696E-03 
2083	 1.12801514970693E-03 
2084	 2.32201051524419E-04 
2085	-2.55539226006226E-06 
2086	 1.14148219235281E-03 
2087	 1.70868120051241E-03 
2088	 1.66981160471934E-03 
2089	 2.19532533808762E-03 
2090	 1.67215697060832E-03 
2091	 9.76252634657192E-04 
2092	 1.00467581767007E-03 
2093	 1.61025899552591E-03 
2094	 1.53277975974446E-03 
2095	 1.54034412036012E-03 
2096	 1.62877398749838E-03 
2097	 1.48277855469087E-03 
2098	 1.42292736228775E-03 
2099	 1.73766325173556E-03 
2100	 1.55528571130855E-03 
2101	 1.35133525285566E-03 
2102	 7.76152050452087E-04 
2103	-6.08113781781607E-05 
2104	-2.88132142858806E-05 
2105	 6.24492067558412E-04 
2106	 1.17940337402763E-03 
2107	 1.2772361519145E-03 
2108	 7.49132889859552E-04 
2109	 6.32510318980315E-04 
2110	 5.7826882133171E-04 
2111	 5.17746964809231E-04 
2112	 8.90587672812013E-04 
2113	 1.04549381696659E-03 
2114	 3.24269444984337E-04 
2115	 5.08379745520432E-04 
2116	 1.62234515663758E-03 
2117	 2.05483751659821E-03 
2118	 0.00237946141398 
2119	 2.62631284215736E-03 
2120	 2.74024336684376E-03 
2121	 2.56585402681202E-03 
2122	 1.84287628585804E-03 
2123	 1.12522024802018E-03 
2124	 1.22209210985959E-03 
2125	 1.46610758872988E-03 
2126	 6.24371962556702E-04 
2127	 3.33732435136936E-04 
2128	 3.31376474995354E-04 
2129	-4.13617620369267E-04 
2130	 4.26414153732943E-04 
2131	 1.38283461742624E-03 
2132	 7.96999553977382E-04 
2133	 9.01048359427852E-04 
2134	 8.42937482094558E-04 
2135	 1.13108189637081E-03 
2136	 9.44711294438833E-04 
2137	-1.34918471924032E-04 
2138	-3.34995931167731E-04 
2139	 4.48516190018575E-05 
2140	 2.14825335247624E-04 
2141	 1.25524594345161E-03 
2142	 1.52970318110712E-03 
2143	 1.32923093453623E-03 
2144	 4.69705960054119E-04 
2145	 5.32579068085284E-04 
2146	-2.99182693822437E-04 
2147	-1.26267598832365E-03 
2148	-3.72433075564756E-04 
2149	 1.96960660651611E-04 
2150	 3.60891623134772E-04 
2151	 1.69175373076448E-03 
2152	 1.53756058126022E-03 
2153	 7.23378170647651E-04 
2154	 1.09998196174622E-03 
2155	 1.18638375262086E-03 
2156	 7.10777020318865E-04 
2157	 3.36424318039762E-04 
2158	-4.1454292721681E-04 
2159	-1.37333784803841E-04 
2160	 6.48039312630715E-04 
2161	 1.04728596360374E-03 
2162	 2.09094384286463E-03 
2163	 2.50195239383138E-03 
2164	 2.42889662442549E-03 
2165	 2.38794857737666E-03 
2166	 2.12669357846079E-03 
2167	 2.01832735518099E-03 
2168	 1.68940689968691E-03 
2169	 1.32062445152592E-03 
2170	 8.45183984618187E-04 
2171	 1.28940722124594E-03 
2172	 1.35620865446533E-03 
2173	 5.93534940608557E-04 
2174	 1.33188188576368E-03 
2175	 1.69334338963215E-03 
2176	 1.06130931671889E-03 
2177	 2.25728687789417E-03 
2178	 2.69965802274346E-03 
2179	 1.98462808974221E-03 
2180	 2.68283678832561E-03 
2181	 3.06607155471516E-03 
2182	 1.88397264537812E-03 
2183	 9.49706808603297E-04 
2184	-5.2613709230995E-04 
2185	-2.92397522574942E-03 
2186	-2.92214828702286E-03 
2187	-8.60569932286742E-05 
2188	 1.88009187084192E-04 
2189	 8.44949254292346E-04 
2190	 1.19913551282487E-03 
2191	-7.94640554332796E-04 
2192	-1.18635577646261E-03 
2193	-3.33651624313056E-04 
2194	 6.03646366684589E-05 
2195	 7.43060027291939E-04 
2196	 1.09639971082634E-03 
2197	 2.05526415977168E-03 
2198	 1.96394084304181E-03 
2199	 4.96160339402788E-04 
2200	-5.08448849874788E-04 
2201	 8.94564233625543E-04 
2202	 1.49156874683771E-03 
2203	-1.08674251311947E-03 
2204	-2.05941938935424E-03 
2205	-1.33804146927682E-03 
2206	-1.12889281990548E-03 
2207	 1.71036466177335E-03 
2208	 3.58308485744149E-03 
2209	 1.41047085797679E-03 
2210	 7.79314594830724E-04 
2211	 3.21905633276402E-04 
2212	 2.83644270600269E-04 
2213	 2.46339150286503E-03 
2214	 1.87949104237879E-03 
2215	 1.16564054535576E-03 
2216	 2.59271547486304E-03 
2217	 2.52168154839973E-03 
2218	 1.03729232733161E-03 
2219	-2.23672932875273E-04 
2220	-1.92914593215716E-03 
2221	-2.84151345518269E-03 
2222	-4.3406083891623E-03 
2223	-4.72078490544231E-03 
2224	-3.54058449549453E-03 
2225	-2.89168098560457E-03 
2226	-2.11849564723256E-03 
2227	-1.29713038892792E-03 
2228	-5.39707882985762E-04 
2229	 5.13863098147999E-04 
2230	 2.80018700065935E-03 
2231	 3.29370320637051E-03 
2232	 1.95064438852468E-03 
2233	 2.4804112327338E-03 
2234	 3.56014126172917E-03 
2235	 3.20720775445702E-03 
2236	 3.10448589757164E-03 
2237	 4.99185713028396E-03 
2238	 4.88433462344762E-03 
2239	 2.28546611089802E-03 
2240	 1.21785303167521E-03 
2241	 8.88885243332236E-04 
2242	 3.54622917009465E-04 
2243	 8.66095170457913E-05 
2244	 6.61187369336789E-04 
2245	 1.17595116866783E-03 
2246	 5.86110332208804E-04 
2247	 1.03801042154267E-03 
2248	 2.00598329489909E-03 
2249	 1.48506059777532E-03 
2250	 1.17857392341282E-03 
2251	 1.9993592496033E-03 
2252	 1.3355239281297E-03 
2253	 1.97692895300243E-04 
2254	-4.36606268295357E-04 
2255	-1.40902637425191E-03 
2256	-1.44774432049514E-03 
2257	-7.85989325975552E-04 
2258	-9.36710214834816E-04 
2259	-2.67561102125961E-03 
2260	-1.86656582965585E-03 
2261	 1.47558264951231E-03 
2262	 1.91492790692255E-03 
2263	 2.81800461499645E-03 
2264	 3.42600284514095E-03 
2265	 8.68403467161836E-04 
2266	-5.60751516783422E-04 
2267	-7.8054317065667E-04 
2268	-8.99755100291759E-04 
2269	-1.72509991858709E-03 
2270	-1.00006823923713E-03 
2271	 1.91698877495552E-03 
2272	 3.3854894672783E-03 
2273	 3.97306322137438E-03 
2274	 5.70185627588383E-03 
2275	 9.10987518347126E-03 
2276	 8.95154696846827E-03 
2277	 6.57757208306439E-03 
2278	 5.93941051918875E-03 
2279	 3.77071358240112E-03 
2280	 2.98008327529098E-03 
2281	 4.80393966033519E-03 
2282	 5.40759774901102E-03 
2283	 2.83347514009909E-03 
2284	-1.46561122643653E-03 
2285	-3.93138612778567E-03 
2286	-5.32012377609629E-03 
2287	-5.47303972408815E-03 
2288	-2.60043009988725E-03 
2289	-2.06559984491048E-03 
2290	-2.01584934430302E-03 
2291	 1.35572818129294E-03 
2292	 1.28573287911707E-03 
2293	-8.77470694431547E-04 
2294	 7.74800526097677E-04 
2295	 1.43896138689067E-03 
2296	 9.46862724256962E-04 
2297	 3.39319315583372E-03 
2298	 3.81062644917944E-03 
2299	 2.41583311020537E-03 
2300	 3.33991766972758E-03 
2301	 3.58893763628415E-03 
2302	 2.90173628084441E-03 
2303	 2.16741257298836E-04 
2304	-3.76794344110309E-03 
2305	-4.55902099428998E-03 
2306	-4.49265099567054E-03 
2307	-2.86182473484616E-03 
2308	-1.41529939187159E-03 
2309	-2.0656361573318E-03 
2310	-1.14892857792461E-03 
2311	-2.80903992950319E-03 
2312	-5.56465095701709E-03 
2313	-4.48482767869679E-03 
2314	-4.50350276749577E-03 
2315	-3.16886813932803E-03 
2316	 2.35134321991671E-03 
2317	 5.06716702055936E-03 
2318	 2.41526231564211E-03 
2319	-7.65939464322939E-04 
2320	-1.94837084623863E-03 
2321	-5.23919246640628E-03 
2322	-5.02834862509056E-03 
2323	-7.4757595143768E-04 
2324	-3.60950280498002E-03 
2325	-6.77454397490287E-03 
2326	-3.60382427241446E-03 
2327	-2.26999084659729E-03 
2328	-1.88281931059113E-03 
2329	 3.8778353409234E-03 
2330	 8.09485678249586E-03 
2331	 5.57681640958992E-03 
2332	 6.40140569461531E-03 
2333	 6.62668330292902E-03 
2334	-4.1279036136604E-04 
2335	-3.45831710276914E-03 
2336	-6.31724825642352E-03 
2337	-6.79265265141683E-03 
2338	-1.50584315915478E-03 
2339	-3.4786256307068E-03 
2340	-5.98830033197793E-04 
2341	 8.2357345038874E-03 
2342	 5.53743234200597E-03 
2343	-7.07960619260037E-04 
2344	-1.19101528896975E-03 
2345	-5.08905432797795E-03 
2346	-7.70796874644535E-03 
2347	 1.30693489044125E-03 
2348	 1.09147570562811E-03 
2349	-5.8365049147236E-03 
2350	-7.18022625478795E-03 
2351	-1.10631138450095E-02 
2352	-0.012023033726762 
2353	-9.74157945768166E-03 
2354	-0.011643072966769 
2355	-8.72061023129483E-03 
2356	 6.25720613531714E-03 
2357	 3.5546871799729E-03 
2358	-3.6566439012702E-03 
2359	 9.35974418285827E-04 
2360	-5.25314765386941E-03 
2361	-2.12471345186205E-04 
2362	 1.33219771608538E-02 
2363	 0.013797045541685 
2364	 8.67634763599837E-03 
2365	 8.49836280571416E-03 
2366	 2.05090560609899E-02 
2367	 2.23565732123983E-02 
2368	 1.36201769595368E-02 
2369	 2.72841351155132E-03 
2370	-0.025872821592381 
2371	-3.53080731683522E-02 
2372	-2.70015071938002E-02 
2373	-2.16641162884734E-02 
2374	-1.33487824886962E-02 
2375	-2.46619173220759E-02 
2376	-2.58266011801629E-02 
2377	-0.018240991283495 
2378	-1.43481029587505E-02 
2379	 2.07043800030421E-03 
2380	 1.40477728165954E-02 
2381	 2.88242906668479E-02 
2382	 1.65569861727612E-02 
2383	 0.010457388570734 
2384	 2.03489228610775E-02 
2385	-3.05522547299414E-02 
2386	-6.14023682893992E-02 
2387	-4.39043281845303E-02 
2388	-2.03059296393962E-02 
2389	 1.25492317751696E-02 
2390	 2.08322176588497E-02 
2391	 1.03918559123389E-02 
2392	-1.91733957333373E-02 
2393	-2.87860785718606E-02 
2394	 1.24013593738079E-02 
2395	 3.71172383033355E-02 
2396	 3.20038551569949E-02 
2397	 3.18570287387306E-02 
2398	 2.04127065396291E-02 
2399	 3.35127010532023E-03 
2400	 1.51529223110928E-02 
2401	 3.46722059603457E-02 
2402	 3.79519201777543E-02 
2403	 6.16162942905748E-02 
2404	 0.068084801533509 
2405	 4.37822466364793E-02 
2406	 3.46959024585661E-02 
2407	-2.7872948575635E-03 
2408	-4.71652536110608E-02 
2409	-4.67616261993913E-02 
2410	-3.63654990809986E-02 
2411	-3.69942446280732E-03 
2412	 3.52270345346624E-02 
2413	-2.33060274250755E-03 
2414	-3.24799573862997E-02 
2415	-6.48878287429062E-02 
2416	-0.137554713235838 
2417	-5.91864584155864E-02 
2418	-3.55622588109159E-02 
2419	-9.99817843010553E-02 
2420	-6.39654765629695E-02 
2421	-8.63315687564797E-02 
2422	-0.138752474046983 
2423	-0.142913517817138 
2424	-0.105363650239332 
2425	-8.73600108766159E-02 
2426	-0.100061017877937 
2427	-7.45241904108093E-02 
2428	-0.128392290385024 
2429	-0.165732207957398 
2430	-0.09097700654698 
2431	-3.00597728981388E-02 
2432	-5.96866722376099E-02 
2433	-0.167202365104601 
2434	-0.219430627344614 
2435	-0.239464542906823 
2436	-9.30304582827147E-02 
2437	 0.106268852634507 
2438	 7.17493306317542E-02 
2439	-5.87145320911636E-02 
2440	-0.173183552858063 
2441	-0.277079579667777 
2442	-0.161218411184634 
2443	-4.09901426636178E-02 
2444	 8.22805307597877E-02 
2445	 0.363596188708559 
2446	 0.28924925743626 
2447	-0.435546891964358 
2448	 2.75313661269651 
2449	 1.7664518177953 
2450	 1.15004339115203 
2451	 0.357686519129126 
2452	 0.120997662930088 
2453	-0.390499154367767 
2454	-5.09478545305587 
2455	-0.923786734183489 
2456	-0.631160121562176 
2457	-0.521135327269121 
2458	-0.602986364320186 
2459	-0.568444944666397 
2460	-0.331300349985494 
2461	-0.48259726512166 
2462	-0.488751479688487 
2463	-0.101302484827482 
2464	-0.175854705087331 
2465	-0.650856917820801 
2466	-6.52032850640428 
2467	 9.64927423083605 
2468	-8.69132403800201 
2469	-46.3638809128293 
2470	-0.659341411731585 
2471	-0.79567538383414 
2472	 0.48647970534368 
2473	 0.392150603713799 
2474	 0.177053962013878 
2475	 0.125320997465212 
2476	-0.163887918163766 
2477	-1.35528058271307 
2478	-1.31134977674916 
2479	-0.44990300717232 
2480	-0.995699574643096 
2481	-0.439546223207125 
2482	 1.00974329570663 
2483	 0.512456710712699 
2484	 0.219960356848636 
2485	 0.228817107164686 
2486	 5.90903830862545E-02 
2487	 5.34636891914156E-02 
2488	 0.106133058425585 
2489	 0.206879378549563 
2490	 0.457879762986499 
2491	 0.405987469446591 
2492	 0.676479979288931 
2493	 0.910594282793097 
2494	 1.3645268840256 
2495	 0.40758523949854 
2496	 0.240827743513754 
2497	 0.809963612959633 
2498	 0.116501133167823 
2499	-0.288678852024603 
2500	 4.20307589575442E-02 
