Wavelength	rt0722east_far00001.asd
350	 1.76876853386339E-02 
351	 1.70415690938345E-02 
352	 1.70147441851916E-02 
353	 1.72361604569635E-02 
354	 1.73503969327125E-02 
355	 1.77098756069002E-02 
356	 1.74514681518219E-02 
357	 1.72325134318033E-02 
358	 1.77570558031788E-02 
359	 1.78938149636808E-02 
360	 1.75469734707045E-02 
361	 1.72408912815897E-02 
362	 1.77182287918314E-02 
363	 1.78054628169215E-02 
364	 1.76201868266298E-02 
365	 1.74762954539999E-02 
366	 1.77261695352062E-02 
367	 1.76669684744422E-02 
368	 1.75813922185763E-02 
369	 1.78722873119096E-02 
370	 1.84368026212099E-02 
371	 1.88196750081773E-02 
372	 1.88027183258237E-02 
373	 0.01842953117106 
374	 1.84017859751122E-02 
375	 1.86078953754971E-02 
376	 1.88336695802797E-02 
377	 1.88730461152911E-02 
378	 1.92825375852525E-02 
379	 1.94063326226958E-02 
380	 1.89182618947949E-02 
381	 1.93876088389241E-02 
382	 1.96601734844174E-02 
383	 0.019542954145203 
384	 1.94268377170278E-02 
385	 2.01567673237083E-02 
386	 2.05628507880029E-02 
387	 2.04414799939762E-02 
388	 2.07999013478122E-02 
389	 2.11253439177538E-02 
390	 2.11396947903105E-02 
391	 2.09770181507414E-02 
392	 2.16835278432259E-02 
393	 2.19179528090185E-02 
394	 2.18765947769908E-02 
395	 2.21671386200844E-02 
396	 2.22557889427346E-02 
397	 2.21825635741674E-02 
398	 2.21908377190352E-02 
399	 2.26063059963566E-02 
400	 0.022522615619042 
401	 2.24787676651603E-02 
402	 2.28249894732832E-02 
403	 2.30259491455708E-02 
404	 2.30784005626444E-02 
405	 2.31000219002802E-02 
406	 2.32428522299452E-02 
407	 2.34944129097122E-02 
408	 2.37129887667863E-02 
409	 2.38428637439615E-02 
410	 2.39238540465424E-02 
411	 2.39817092647513E-02 
412	 2.41938566363482E-02 
413	 2.45689092012264E-02 
414	 2.46543874201622E-02 
415	 2.48775366433106E-02 
416	 2.51639279290361E-02 
417	 2.52954070518265E-02 
418	 2.55045873199603E-02 
419	 2.57114286372559E-02 
420	 2.58748262887291E-02 
421	 2.60216614490845E-02 
422	 2.62949973456079E-02 
423	 2.65846906528226E-02 
424	 2.67832917627823E-02 
425	 2.69305008289652E-02 
426	 0.027151862832424 
427	 2.75216631498404E-02 
428	 2.80244171353767E-02 
429	 2.82954982770909E-02 
430	 2.85755360003733E-02 
431	 0.028925318510548 
432	 0.029132396659808 
433	 2.94113747531198E-02 
434	 2.97238865489191E-02 
435	 3.00053409869145E-02 
436	 3.02667800347862E-02 
437	 3.07054814565065E-02 
438	 3.11837503458898E-02 
439	 3.14191509236567E-02 
440	 3.16140774297763E-02 
441	 3.18873677976094E-02 
442	 3.22465140030139E-02 
443	 3.25551662961745E-02 
444	 0.032852441461326 
445	 3.31459780470785E-02 
446	 3.34286288273893E-02 
447	 3.36507641503347E-02 
448	 0.033935772079136 
449	 3.42741683692001E-02 
450	 3.45546699849623E-02 
451	 3.47042672652989E-02 
452	 3.49341196133819E-02 
453	 3.52936244805431E-02 
454	 0.035414850471147 
455	 3.55893500322652E-02 
456	 0.035786027624406 
457	 3.59051884697355E-02 
458	 0.036116224372887 
459	 3.63449916618653E-02 
460	 3.65337405370466E-02 
461	 3.66584598828156E-02 
462	 0.03681920816879 
463	 3.70034908633377E-02 
464	 3.71843775358762E-02 
465	 3.73577809674918E-02 
466	 3.75923645557609E-02 
467	 0.037840244227165 
468	 3.80139077909175E-02 
469	 0.038210743074272 
470	 3.83453168989992E-02 
471	 3.84352701051051E-02 
472	 3.86516745146521E-02 
473	 3.88950217590881E-02 
474	 3.91183992616055E-02 
475	 3.93065890014356E-02 
476	 3.94999625384811E-02 
477	 3.97394037382881E-02 
478	 4.00051034218476E-02 
479	 4.02395108591142E-02 
480	 4.04582705456011E-02 
481	 4.07053094488619E-02 
482	 0.040988356680829 
483	 0.041229891055436 
484	 4.15087706779638E-02 
485	 4.18413356059712E-02 
486	 4.22076794918412E-02 
487	 4.25515885652988E-02 
488	 0.042802196704084 
489	 4.30296289857699E-02 
490	 4.34223851171382E-02 
491	 4.37306408414973E-02 
492	 4.40565840922828E-02 
493	 4.44821981486094E-02 
494	 4.48556562290238E-02 
495	 4.52014536778817E-02 
496	 4.55696208971149E-02 
497	 4.60100600436941E-02 
498	 4.64265524097464E-02 
499	 4.67930134577782E-02 
500	 4.71433813211257E-02 
501	 4.75863117304898E-02 
502	 4.81169673356216E-02 
503	 4.86215095145836E-02 
504	 4.90247365248218E-02 
505	 4.95510484092817E-02 
506	 4.99279732964971E-02 
507	 5.02027465704784E-02 
508	 5.06669151616247E-02 
509	 5.11789187691133E-02 
510	 5.16233720982488E-02 
511	 5.20044207088812E-02 
512	 5.26190693774538E-02 
513	 5.30946377105223E-02 
514	 5.34854287349258E-02 
515	 5.40060701340942E-02 
516	 0.0545714115641 
517	 5.51696322184651E-02 
518	 5.57743245887857E-02 
519	 5.63417995380914E-02 
520	 5.69436410021373E-02 
521	 5.74778734828079E-02 
522	 5.79064293242269E-02 
523	 5.85276984632917E-02 
524	 5.91794794211237E-02 
525	 5.97949768844189E-02 
526	 6.03822816700184E-02 
527	 6.09212360487568E-02 
528	 6.15197179054025E-02 
529	 6.21983064436814E-02 
530	 6.27822003185966E-02 
531	 6.33273109886624E-02 
532	 6.39191851142485E-02 
533	 0.064612839976149 
534	 6.51935193038359E-02 
535	 6.58191108097101E-02 
536	 6.65149589686009E-02 
537	 0.067128743916293 
538	 6.78020815384903E-02 
539	 6.84597324057331E-02 
540	 6.90408799249178E-02 
541	 6.97051642729111E-02 
542	 7.03408415268132E-02 
543	 7.09618024755909E-02 
544	 7.16495320253998E-02 
545	 7.22820482806736E-02 
546	 7.29023733471154E-02 
547	 7.35378432778622E-02 
548	 7.41447879889143E-02 
549	 7.47512414979447E-02 
550	 0.075358013667765 
551	 7.59676417063642E-02 
552	 7.66422877581347E-02 
553	 7.72749984027906E-02 
554	 0.07786372651328 
555	 7.85281269770761E-02 
556	 7.91536212421459E-02 
557	 0.079743974749926 
558	 8.03408688614485E-02 
559	 8.10521411781167E-02 
560	 8.16190371036484E-02 
561	 0.0820644290752 
562	 8.25845923835837E-02 
563	 8.31398646591062E-02 
564	 8.36573235751278E-02 
565	 8.40875076291389E-02 
566	 8.44300874896924E-02 
567	 8.48069551176741E-02 
568	 8.52387059495867E-02 
569	 8.56770432648124E-02 
570	 8.59678671442767E-02 
571	 8.62201999922861E-02 
572	 8.64944982267226E-02 
573	 8.67770477855942E-02 
574	 8.69981744035186E-02 
575	 0.087198763750604 
576	 8.74065441287599E-02 
577	 8.75286847357597E-02 
578	 0.087576623402317 
579	 8.75693529085771E-02 
580	 8.75377026123016E-02 
581	 8.75630993639218E-02 
582	 0.087500657928069 
583	 8.73006157015582E-02 
584	 8.71385646161498E-02 
585	 8.68873295326387E-02 
586	 8.66244269610813E-02 
587	 8.64450364463535E-02 
588	 0.086127742055455 
589	 8.56902747534447E-02 
590	 8.52359624676743E-02 
591	 8.48878590736536E-02 
592	 8.45084304889194E-02 
593	 8.40158796274639E-02 
594	 8.33660158160667E-02 
595	 8.25432034296983E-02 
596	 8.16799634599525E-02 
597	 8.07873671191525E-02 
598	 7.98114949988582E-02 
599	 7.87339777662587E-02 
600	 7.78360928411797E-02 
601	 7.72451333107883E-02 
602	 7.67659977237974E-02 
603	 7.64508520247353E-02 
604	 7.62677895557908E-02 
605	 7.61724412652224E-02 
606	 0.07618279725986 
607	 7.61516430650538E-02 
608	 7.60688156652893E-02 
609	 7.60699394100209E-02 
610	 7.61091156677433E-02 
611	 7.61274896304716E-02 
612	 7.60927406147239E-02 
613	 7.60525812610742E-02 
614	 7.60633569429103E-02 
615	 7.60798507291031E-02 
616	 7.60205111581109E-02 
617	 7.60730912247962E-02 
618	 0.076018548059866 
619	 0.075832821338151 
620	 7.58733188167379E-02 
621	 7.59066192809454E-02 
622	 0.075901957511062 
623	 7.58850224304962E-02 
624	 7.58544185424149E-02 
625	 7.57420574943382E-02 
626	 0.07562893813387 
627	 7.57183116625236E-02 
628	 7.56860671533498E-02 
629	 7.55918414424151E-02 
630	 7.55345864768603E-02 
631	 7.55274870983082E-02 
632	 7.53510190423586E-02 
633	 7.51585221290196E-02 
634	 0.075213207657023 
635	 7.51026709606688E-02 
636	 7.49617363785633E-02 
637	 7.48862932802792E-02 
638	 7.48419740148237E-02 
639	 7.47608151160162E-02 
640	 7.46079598802902E-02 
641	 7.44014620760286E-02 
642	 7.43009894776821E-02 
643	 7.41660726378596E-02 
644	 7.39694350536407E-02 
645	 7.37851639295004E-02 
646	 7.36640178859381E-02 
647	 7.35456711571051E-02 
648	 7.33626641258137E-02 
649	 7.30806866335829E-02 
650	 7.27346145479202E-02 
651	 7.23897171415732E-02 
652	 7.21063568203752E-02 
653	 7.17734171486318E-02 
654	 7.12629859636789E-02 
655	 7.05856803945934E-02 
656	 7.00343548934745E-02 
657	 6.95569820506419E-02 
658	 6.90961921805203E-02 
659	 6.86342194705964E-02 
660	 6.83325635103356E-02 
661	 6.80102533352362E-02 
662	 6.77199860283638E-02 
663	 6.76359046439509E-02 
664	 6.75175021467781E-02 
665	 6.73629510054727E-02 
666	 6.72033420208517E-02 
667	 6.70694913265609E-02 
668	 6.70010790322256E-02 
669	 6.69415523041716E-02 
670	 6.68391939704748E-02 
671	 6.68526236519176E-02 
672	 6.67984145363079E-02 
673	 6.66480065699902E-02 
674	 6.65324621624818E-02 
675	 6.65211743199415E-02 
676	 6.65384802554219E-02 
677	 6.64980944556908E-02 
678	 6.63558529694681E-02 
679	 6.62517110417885E-02 
680	 6.61943162856629E-02 
681	 6.61395092230488E-02 
682	 6.61602184120103E-02 
683	 6.61607465402204E-02 
684	 6.60926089076111E-02 
685	 6.59779686006011E-02 
686	 6.59507886635161E-02 
687	 6.57921698431707E-02 
688	 6.53794094773253E-02 
689	 6.52048607360221E-02 
690	 6.49546420343322E-02 
691	 6.45399996707701E-02 
692	 6.40142645896414E-02 
693	 6.35720660977477E-02 
694	 6.30701714751542E-02 
695	 6.24237861462235E-02 
696	 6.16444984085794E-02 
697	 6.09111297359105E-02 
698	 6.01528726005281E-02 
699	 0.059305628835859 
700	 5.84667549853651E-02 
701	 5.75098553394815E-02 
702	 5.64877365237148E-02 
703	 5.55457605247094E-02 
704	 5.44585980579367E-02 
705	 5.33839984496687E-02 
706	 5.23798856430789E-02 
707	 5.10757454197067E-02 
708	 4.97126429797473E-02 
709	 4.83104869946546E-02 
710	 4.68216612311513E-02 
711	 4.52738478310891E-02 
712	 4.36898279596353E-02 
713	 4.20992002212021E-02 
714	 4.04947201594946E-02 
715	 3.89242249601744E-02 
716	 3.72490185826988E-02 
717	 3.54799505975572E-02 
718	 3.37072544326834E-02 
719	 3.18974376900679E-02 
720	 3.03134279873709E-02 
721	 2.88647086892772E-02 
722	 2.75044165041107E-02 
723	 0.026053515662513 
724	 2.45962869151463E-02 
725	 2.30568173726377E-02 
726	 2.16230038394148E-02 
727	 2.02079949272168E-02 
728	 1.86967055121356E-02 
729	 1.69750719182956E-02 
730	 1.53698494234828E-02 
731	 1.40699483176361E-02 
732	 1.30412125030352E-02 
733	 1.22346846094821E-02 
734	 1.15173573670732E-02 
735	 0.010861952369178 
736	 1.03560991033311E-02 
737	 9.96784983271416E-03 
738	 9.69543668219721E-03 
739	 9.5342448782032E-03 
740	 9.44261495950512E-03 
741	 9.36425688824521E-03 
742	 9.27400895820165E-03 
743	 9.17178298170616E-03 
744	 9.09421820529227E-03 
745	 9.03581435691872E-03 
746	 9.01253886207593E-03 
747	 9.07376990688293E-03 
748	 9.14225958931737E-03 
749	 9.13426210391778E-03 
750	 9.0343630466258E-03 
751	 9.0395715501621E-03 
752	 9.03016640497549E-03 
753	 9.00105768641891E-03 
754	 9.00123011844262E-03 
755	 8.97465420646178E-03 
756	 8.88348545270476E-03 
757	 8.79800991509029E-03 
758	 9.00199761172972E-03 
759	 9.1077712078014E-03 
760	 9.03593745740886E-03 
761	 9.01581095427319E-03 
762	 9.04139865379192E-03 
763	 8.98799976989976E-03 
764	 9.00320715468837E-03 
765	 9.19232013789123E-03 
766	 9.19978542426393E-03 
767	 9.19159029006581E-03 
768	 9.23444589189448E-03 
769	 9.29609055027369E-03 
770	 9.29677311816035E-03 
771	 9.3250140647277E-03 
772	 9.43993836570599E-03 
773	 9.52365160992828E-03 
774	 9.65653125663134E-03 
775	 9.80882666220452E-03 
776	 9.91035089622625E-03 
777	 9.93904621541778E-03 
778	 1.00291370809924E-02 
779	 1.01791982778827E-02 
780	 1.02547217314746E-02 
781	 1.05031527340339E-02 
782	 1.06956415815476E-02 
783	 1.07265280073324E-02 
784	 1.09625121695164E-02 
785	 1.12043522337849E-02 
786	 1.13734067005535E-02 
787	 1.14546814165118E-02 
788	 1.15412792946602E-02 
789	 1.17102862179687E-02 
790	 1.19757445513426E-02 
791	 1.22882962950645E-02 
792	 1.25253312182713E-02 
793	 1.27318124607441E-02 
794	 1.29378022832273E-02 
795	 1.30977874158105E-02 
796	 1.32627708633824E-02 
797	 1.34039932754483E-02 
798	 1.35345449890013E-02 
799	 1.38883119308021E-02 
800	 1.40612091572461E-02 
801	 1.41529356758227E-02 
802	 1.44760545112799E-02 
803	 1.45644941740812E-02 
804	 1.46168760269799E-02 
805	 1.47081634003623E-02 
806	 1.47201853193903E-02 
807	 1.47990959515548E-02 
808	 1.47894884374772E-02 
809	 1.46231323385626E-02 
810	 1.46199609744334E-02 
811	 1.45120709401195E-02 
812	 1.42990125984852E-02 
813	 0.014099888104252 
814	 1.39950001503281E-02 
815	 1.38992551743114E-02 
816	 1.36680170035083E-02 
817	 0.013200657942211 
818	 1.28520646629411E-02 
819	 1.25578219606134E-02 
820	 1.22446029583329E-02 
821	 1.19153202290034E-02 
822	 1.14718369558816E-02 
823	 0.010868182611743 
824	 1.01569710242908E-02 
825	 9.41460061388874E-03 
826	 8.88522790656908E-03 
827	 8.42186190514154E-03 
828	 7.81235272444933E-03 
829	 7.30287031480334E-03 
830	 6.95522668572066E-03 
831	 6.62025985652722E-03 
832	 6.09217937993527E-03 
833	 5.95026380961877E-03 
834	 5.91180383853548E-03 
835	 5.77156665496501E-03 
836	 5.57158875048516E-03 
837	 5.33108010976365E-03 
838	 5.14883448240154E-03 
839	 5.08337956573951E-03 
840	 5.07855462837495E-03 
841	 4.91368021674788E-03 
842	 4.84049901880662E-03 
843	 5.08248033125179E-03 
844	 4.84402852619939E-03 
845	 4.83335495942687E-03 
846	 5.00501569428271E-03 
847	 4.83045616440214E-03 
848	 4.74779729513527E-03 
849	 4.70430132447777E-03 
850	 4.6867706020779E-03 
851	 4.78347187893765E-03 
852	 4.68171009386564E-03 
853	 4.56551762985678E-03 
854	 4.58836209237271E-03 
855	 4.60796089001515E-03 
856	 4.49513458838511E-03 
857	 4.33617466995668E-03 
858	 4.26599053024803E-03 
859	 4.35117534485893E-03 
860	 4.46010158224417E-03 
861	 4.4335288587222E-03 
862	 4.18334197730338E-03 
863	 4.03952786851252E-03 
864	 4.09478772263715E-03 
865	 4.20906531935893E-03 
866	 4.08634867756549E-03 
867	 3.94515834688607E-03 
868	 3.9535208411101E-03 
869	 4.08909100566777E-03 
870	 4.10910819531075E-03 
871	 4.06116750008364E-03 
872	 4.05402300931052E-03 
873	 4.10574787398706E-03 
874	 3.99026353389551E-03 
875	 4.00473395529722E-03 
876	 4.02697296656864E-03 
877	 3.86722530624164E-03 
878	 3.57299825177375E-03 
879	 3.42506337107764E-03 
880	 3.56789329980052E-03 
881	 3.92414611084693E-03 
882	 3.78378413731542E-03 
883	 3.68572866616788E-03 
884	 3.64949009529633E-03 
885	 3.34359236461983E-03 
886	 3.40761202432431E-03 
887	 3.4997191344241E-03 
888	 3.4565042686248E-03 
889	 3.44919230499373E-03 
890	 3.62119908236928E-03 
891	 3.64403898936989E-03 
892	 3.39441908602667E-03 
893	 3.30760036115586E-03 
894	 3.2254510386765E-03 
895	 3.10446617843301E-03 
896	 2.9997694539485E-03 
897	 3.18925159783678E-03 
898	 3.19280449145732E-03 
899	 3.0815799459079E-03 
900	 3.14326462026348E-03 
901	 3.64311109630849E-03 
902	 3.49860496024936E-03 
903	 3.22316126638766E-03 
904	 3.57178805949238E-03 
905	 3.2557981595395E-03 
906	 2.94380815803466E-03 
907	 2.9245590883875E-03 
908	 3.09379247962204E-03 
909	 2.92194737901736E-03 
910	 3.44060545451903E-03 
911	 4.12757498663292E-03 
912	 3.31540491193238E-03 
913	 3.23102162422391E-03 
914	 3.15333461169769E-03 
915	 2.96908527060204E-03 
916	 3.46452285793005E-03 
917	 2.62634470919708E-03 
918	 2.38953857738486E-03 
919	 3.24627044244911E-03 
920	 3.21467819660173E-03 
921	 3.19534405839184E-03 
922	 2.91286982628416E-03 
923	 2.38035028782797E-03 
924	 2.64087420418108E-03 
925	 3.22901754898544E-03 
926	 3.50342455962434E-03 
927	 3.01924448937011E-03 
928	 2.43435715403453E-03 
929	 2.94600129298339E-03 
930	 3.05292005626345E-03 
931	 7.53248762981166E-04 
932	 4.95499494176849E-03 
933	 5.14964536379781E-03 
934	 8.72281999391359E-04 
935	-1.570786328821E-04 
936	 6.27631895125681E-03 
937	 7.97943358603363E-03 
938	 6.39981855559934E-03 
939	 5.92442404389739E-03 
940	 4.1982131142865E-03 
941	 4.37762059573424E-03 
942	 4.03163224117764E-03 
943	 1.30560154914734E-04 
944	 4.07489985270107E-03 
945	 7.84702220104245E-03 
946	 6.49981613106415E-03 
947	 1.14885382219813E-03 
948	 6.04331687918697E-03 
949	 6.83253756078734E-03 
950	 3.1312362277911E-03 
951	 2.82882486675424E-03 
952	 1.10088658279106E-04 
953	 9.37023815268703E-04 
954	 3.96694796305187E-03 
955	 3.71163808534649E-03 
956	 5.10158155065529E-03 
957	 5.43156434929397E-03 
958	 4.83447274076287E-03 
959	 5.19860274940676E-03 
960	 3.67381639681093E-03 
961	 2.95322363444217E-03 
962	 3.1355784480397E-03 
963	 2.61759702195928E-03 
964	 3.64283043181599E-03 
965	 4.19143249025534E-03 
966	 3.61744355203429E-03 
967	 2.61885081873908E-03 
968	 2.12726593032465E-03 
969	 2.46164773573922E-03 
970	 3.0142671806116E-03 
971	 2.66749744265142E-03 
972	 2.15449050997353E-03 
973	 1.68530193596166E-03 
974	 1.55971845481705E-03 
975	 2.05485058344808E-03 
976	 2.50754998369781E-03 
977	 1.99775058554736E-03 
978	 1.53192700670667E-03 
979	 3.07431320705415E-03 
980	 3.62959780742711E-03 
981	 3.39944372456008E-03 
982	 3.05347531772389E-03 
983	 3.1296540891459E-03 
984	 2.44258873621964E-03 
985	 2.49130002077565E-03 
986	 2.99694601010413E-03 
987	 2.65447444540445E-03 
988	 4.97474926881863E-03 
989	 4.37122169951628E-03 
990	 1.40167422736316E-03 
991	 1.25330960715638E-03 
992	 3.05503136520579E-03 
993	 3.48952612448039E-03 
994	 2.41963323556111E-03 
995	 2.02929698403189E-03 
996	 2.42572628505512E-03 
997	 2.72997345918115E-03 
998	 2.69916790852642E-03 
999	 2.7769129041558E-03 
1000	 4.43932177543563E-03 
1001	 2.92277767495384E-03 
1002	 2.8582552883309E-03 
1003	 2.81203467719897E-03 
1004	 2.67215572403712E-03 
1005	 2.65862140129417E-03 
1006	 2.62944821002329E-03 
1007	 2.93073680583533E-03 
1008	 3.06728961780329E-03 
1009	 2.93968477756471E-03 
1010	 2.81332150340891E-03 
1011	 2.76671960229436E-03 
1012	 3.12353036206459E-03 
1013	 3.55456626091626E-03 
1014	 3.75831060744788E-03 
1015	 4.1551570500266E-03 
1016	 4.0884106585178E-03 
1017	 3.45617441794976E-03 
1018	 3.23317420325925E-03 
1019	 3.01463704104665E-03 
1020	 2.82737174610228E-03 
1021	 2.64338757571226E-03 
1022	 2.79503281985165E-03 
1023	 2.70916759958533E-03 
1024	 2.53036397009787E-03 
1025	 2.83769919683128E-03 
1026	 2.66072168697602E-03 
1027	 2.66099819224357E-03 
1028	 2.78221405560503E-03 
1029	 2.81022265818778E-03 
1030	 2.82854596123394E-03 
1031	 2.69084490034154E-03 
1032	 2.2038498412983E-03 
1033	 2.23168882296755E-03 
1034	 2.37035264340371E-03 
1035	 0.002587482618734 
1036	 3.47495656627368E-03 
1037	 3.77370654479674E-03 
1038	 3.73944916083139E-03 
1039	 3.69376415747266E-03 
1040	 3.59501783178778E-03 
1041	 3.12068166460942E-03 
1042	 2.90474340005674E-03 
1043	 2.67952618685291E-03 
1044	 2.61039990364352E-03 
1045	 2.63291471692345E-03 
1046	 2.66649499219537E-03 
1047	 2.89576649825361E-03 
1048	 2.93372850820079E-03 
1049	 2.87826125929021E-03 
1050	 2.83672066970868E-03 
1051	 2.54790787228961E-03 
1052	 2.59085078999463E-03 
1053	 2.97034868878621E-03 
1054	 3.09895666390589E-03 
1055	 3.30047187775039E-03 
1056	 3.47676149954524E-03 
1057	 3.57166757342818E-03 
1058	 3.48817832406969E-03 
1059	 3.34407486634456E-03 
1060	 3.21798494891884E-03 
1061	 2.99605459320068E-03 
1062	 2.28316476392016E-03 
1063	 2.2727838405226E-03 
1064	 2.72872487757064E-03 
1065	 2.89806661783634E-03 
1066	 0.003490011074548 
1067	 3.59034157605617E-03 
1068	 3.07394426424834E-03 
1069	 2.96768791328245E-03 
1070	 2.98227202887499E-03 
1071	 2.88198589162253E-03 
1072	 3.02824947717414E-03 
1073	 2.83770138635268E-03 
1074	 2.82273010292633E-03 
1075	 2.64961619003199E-03 
1076	 2.66632207432977E-03 
1077	 2.93643957788381E-03 
1078	 2.94360431632011E-03 
1079	 2.78838174152483E-03 
1080	 2.76667528186788E-03 
1081	 2.74690278352208E-03 
1082	 2.69561469881463E-03 
1083	 2.68666431516768E-03 
1084	 2.6887516718173E-03 
1085	 2.59802371822399E-03 
1086	 2.5919804785486E-03 
1087	 2.76541255483335E-03 
1088	 2.80895148577592E-03 
1089	 2.80055084748455E-03 
1090	 2.7186085765351E-03 
1091	 2.74872212027202E-03 
1092	 2.73435946475698E-03 
1093	 2.81687401969093E-03 
1094	 3.19132057426524E-03 
1095	 3.16308207430646E-03 
1096	 2.72010887505089E-03 
1097	 2.82132935370306E-03 
1098	 3.01419217252469E-03 
1099	 3.16072233554668E-03 
1100	 4.18371341447389E-03 
1101	 4.21196207207493E-03 
1102	 2.9527169548837E-03 
1103	 2.66467646739854E-03 
1104	 2.63363985012728E-03 
1105	 2.09486678433562E-03 
1106	 2.61373222536038E-03 
1107	 3.53578700883523E-03 
1108	 3.08370516342619E-03 
1109	 2.89669496526029E-03 
1110	 2.75537336036413E-03 
1111	 1.9094638579637E-03 
1112	 2.26228584275433E-03 
1113	 4.28473170579897E-03 
1114	 4.8232209272812E-03 
1115	 5.69665137294356E-03 
1116	 5.73105077909396E-03 
1117	 2.56460032462131E-03 
1118	 1.54959779681984E-03 
1119	 1.33758029233679E-03 
1120	 1.86074609479261E-03 
1121	 6.29367938342755E-03 
1122	 8.48764869490332E-03 
1123	 8.52211883130012E-03 
1124	 1.04058155589486E-02 
1125	 1.08228378833581E-02 
1126	 8.16131291026302E-03 
1127	 7.79155467256337E-03 
1128	 1.06676743292065E-02 
1129	 9.60729065181108E-03 
1130	 4.76060090885592E-03 
1131	 5.6307839963966E-03 
1132	 9.49810774719951E-03 
1133	 7.99099784073829E-03 
1134	 6.87320062213216E-03 
1135	 6.41510971842223E-03 
1136	 1.38009039713025E-03 
1137	 3.43321213628531E-04 
1138	 2.52059255822181E-03 
1139	 4.32594877111609E-03 
1140	 2.7179733020099E-03 
1141	 2.49851514611153E-03 
1142	 2.73550854321335E-03 
1143	 2.33075268225909E-03 
1144	 4.42310183322256E-03 
1145	 6.74485677778745E-03 
1146	 5.68836053031027E-03 
1147	 4.1386894746035E-03 
1148	 2.78488392193125E-03 
1149	 9.05002077909494E-04 
1150	 8.8276278897843E-04 
1151	 3.16477989767001E-03 
1152	 3.35574857253557E-03 
1153	 3.06342169647636E-03 
1154	 3.35606771732515E-03 
1155	 3.66744682381587E-03 
1156	 3.19277905713199E-03 
1157	 2.97747497805676E-03 
1158	 3.25165517339935E-03 
1159	 3.03884483909741E-03 
1160	 2.82547417724277E-03 
1161	 3.38384138072048E-03 
1162	 3.24234363439834E-03 
1163	 2.37979944060472E-03 
1164	 2.19863932310009E-03 
1165	 2.4915398850553E-03 
1166	 2.58697079444776E-03 
1167	 2.63356752076633E-03 
1168	 2.80531721271776E-03 
1169	 2.52952661405422E-03 
1170	 2.03350199759424E-03 
1171	 2.01708533545885E-03 
1172	 2.82007577757463E-03 
1173	 0.002805741525789 
1174	 2.42521649192093E-03 
1175	 2.29068298273396E-03 
1176	 2.50412575804253E-03 
1177	 2.20121179923723E-03 
1178	 2.20483463057845E-03 
1179	 2.85498238826886E-03 
1180	 2.68956856654696E-03 
1181	 2.17222694731426E-03 
1182	 2.36328278595151E-03 
1183	 2.53024865661784E-03 
1184	 2.44697305394009E-03 
1185	 2.56492606663888E-03 
1186	 2.65304488632442E-03 
1187	 2.57328430407472E-03 
1188	 2.42250556862511E-03 
1189	 2.2340364412707E-03 
1190	 2.33422817305506E-03 
1191	 2.40895488657713E-03 
1192	 2.38552856135873E-03 
1193	 2.33429403135455E-03 
1194	 2.74735072399642E-03 
1195	 2.93935947262249E-03 
1196	 2.66006959442593E-03 
1197	 2.51263419030585E-03 
1198	 2.41438832832955E-03 
1199	 2.19763456750727E-03 
1200	 2.12676168527923E-03 
1201	 2.36074754566232E-03 
1202	 2.54888578966517E-03 
1203	 2.49996695164915E-03 
1204	 2.53026789452772E-03 
1205	 2.48160782032988E-03 
1206	 2.2841688803497E-03 
1207	 2.30745180518444E-03 
1208	 2.33300128595759E-03 
1209	 2.28026497466075E-03 
1210	 2.45768529124247E-03 
1211	 2.50004475816701E-03 
1212	 2.41174994286212E-03 
1213	 2.56084192769347E-03 
1214	 2.5643745119304E-03 
1215	 2.4879215905329E-03 
1216	 2.28979798501772E-03 
1217	 2.16666591380671E-03 
1218	 2.15344791960709E-03 
1219	 2.4355820500866E-03 
1220	 2.73204588214343E-03 
1221	 2.75417827305367E-03 
1222	 2.66597222811901E-03 
1223	 2.56083077118829E-03 
1224	 2.2957424595395E-03 
1225	 2.15800405941704E-03 
1226	 2.46959064377717E-03 
1227	 2.53862312082779E-03 
1228	 2.26222354371503E-03 
1229	 2.34886506250293E-03 
1230	 2.51355589571817E-03 
1231	 2.44021296223502E-03 
1232	 2.46415342257016E-03 
1233	 2.55954255720907E-03 
1234	 2.47969863804435E-03 
1235	 2.47816119254281E-03 
1236	 2.58673140176333E-03 
1237	 2.62693769796748E-03 
1238	 2.72366080070367E-03 
1239	 2.54950080339824E-03 
1240	 2.43555652540478E-03 
1241	 2.41264890111017E-03 
1242	 2.38261563070981E-03 
1243	 2.47955669613124E-03 
1244	 2.5494256570627E-03 
1245	 2.34672185260787E-03 
1246	 2.1651640193306E-03 
1247	 2.26411709772977E-03 
1248	 2.41602929990025E-03 
1249	 2.49630649850726E-03 
1250	 2.61864255466874E-03 
1251	 2.60768787720638E-03 
1252	 2.4446057413746E-03 
1253	 2.52003834745068E-03 
1254	 2.68374389729505E-03 
1255	 2.67389086202422E-03 
1256	 2.60565944982662E-03 
1257	 2.34711193151797E-03 
1258	 2.30403306631943E-03 
1259	 2.41793574407215E-03 
1260	 2.37651528237665E-03 
1261	 2.20112435097415E-03 
1262	 2.24645532588476E-03 
1263	 2.28001463300746E-03 
1264	 2.41763398754155E-03 
1265	 2.6143437129092E-03 
1266	 2.89937802090501E-03 
1267	 2.84546097049885E-03 
1268	 2.51484030597992E-03 
1269	 2.40785441853444E-03 
1270	 2.39904929807428E-03 
1271	 2.48449813464133E-03 
1272	 2.69864822738151E-03 
1273	 2.53037165025901E-03 
1274	 2.54632645645174E-03 
1275	 2.93184148197594E-03 
1276	 2.75365099461472E-03 
1277	 2.63015537030493E-03 
1278	 2.77689938192761E-03 
1279	 2.47942429357856E-03 
1280	 2.20870163131555E-03 
1281	 2.1844797854713E-03 
1282	 2.4912159689166E-03 
1283	 2.46653175389707E-03 
1284	 2.26847936458314E-03 
1285	 2.28983580586673E-03 
1286	 2.45100536940563E-03 
1287	 2.34819517675218E-03 
1288	 2.09244304247019E-03 
1289	 2.20154476374757E-03 
1290	 2.36710808184744E-03 
1291	 2.33464642833783E-03 
1292	 2.61568833226185E-03 
1293	 2.96961924075112E-03 
1294	 2.92630929456677E-03 
1295	 2.66842891823916E-03 
1296	 2.47941251505501E-03 
1297	 2.55683341757294E-03 
1298	 2.44409035841638E-03 
1299	 2.15323160440724E-03 
1300	 2.38317279752581E-03 
1301	 2.65025875315591E-03 
1302	 2.59989340860767E-03 
1303	 2.59017097460051E-03 
1304	 2.52176920965581E-03 
1305	 2.45553378299589E-03 
1306	 2.35725285143391E-03 
1307	 2.47835734390429E-03 
1308	 2.64421629244347E-03 
1309	 2.80387688162788E-03 
1310	 2.66237247185134E-03 
1311	 2.42244156028491E-03 
1312	 2.55248646184989E-03 
1313	 2.51604427750757E-03 
1314	 2.4595107541934E-03 
1315	 3.0181494410676E-03 
1316	 3.30495268972328E-03 
1317	 3.00832881052639E-03 
1318	 2.93986712191321E-03 
1319	 3.30511484273998E-03 
1320	 3.3119839330429E-03 
1321	 2.98466893439194E-03 
1322	 2.80655028613625E-03 
1323	 2.37928995015727E-03 
1324	 1.9049323990071E-03 
1325	 1.95626356322559E-03 
1326	 1.91480318360074E-03 
1327	 2.23351582111016E-03 
1328	 2.38735892368205E-03 
1329	 1.77592936492158E-03 
1330	 1.74960348552555E-03 
1331	 1.9096583462982E-03 
1332	 1.66876643646071E-03 
1333	 2.17736333202498E-03 
1334	 2.71179582316507E-03 
1335	 2.91265362863055E-03 
1336	 2.96533766366703E-03 
1337	 3.18112406522521E-03 
1338	 0.003316552311561 
1339	 2.99763356152473E-03 
1340	 2.13763932969133E-03 
1341	 2.04222735620549E-03 
1342	 1.84267604862736E-03 
1343	 1.77679275553199E-03 
1344	 3.07643072110882E-03 
1345	 3.84232660558973E-03 
1346	 3.98510174069744E-03 
1347	 4.39159113858224E-03 
1348	 5.59277835947439E-03 
1349	 5.34120389268512E-03 
1350	-1.45129379244028E-03 
1351	-8.32070876235461E-04 
1352	 1.80418668841515E-02 
1353	 2.43585686115095E-02 
1354	 1.07490232563167E-02 
1355	 3.23745608364646E-02 
1356	 7.78286201336106E-02 
1357	 9.28406436305319E-02 
1358	 0.135152307115812 
1359	 0.202878929395672 
1360	 0.234822012527809 
1361	 0.195102841704246 
1362	 0.107065658316942 
1363	 0.115065216415709 
1364	 0.121583958829162 
1365	 1.63563890588675E-02 
1366	 5.84529051475638E-02 
1367	 0.331327705862312 
1368	 0.41482042834147 
1369	 8.36687039188987E-02 
1370	 4.52297738093985E-02 
1371	 0.451665467878045 
1372	 0.435456691347982 
1373	 0.255131456277165 
1374	 0.149777339915391 
1375	-0.129573001470616 
1376	-9.20346171818527E-02 
1377	 0.105952289086406 
1378	 0.119465307258844 
1379	 0.324911370344601 
1380	 0.321076288322338 
1381	-9.53916095645957E-02 
1382	-0.102698481012455 
1383	 0.220318929742323 
1384	 0.218750150133949 
1385	 5.75167252495117E-02 
1386	 0.139462115120498 
1387	 0.276165137262057 
1388	 0.242258506516507 
1389	 0.221352584874031 
1390	 0.386676226586917 
1391	 0.644107272454373 
1392	 0.542355742620442 
1393	 0.519974414041277 
1394	 0.547251876592421 
1395	 0.369204504407951 
1396	 0.288128836622906 
1397	 0.40617878652265 
1398	 0.453949812341979 
1399	 0.437092312666346 
1400	 0.382222983543216 
1401	 0.170572833934206 
1402	 0.198171234710994 
1403	 0.239966368015129 
1404	 0.241433002799925 
1405	 0.207492335144137 
1406	 0.2799747030081 
1407	 0.294826668453926 
1408	 0.235343340761529 
1409	 7.70590968594082E-02 
1410	-6.88756337035291E-02 
1411	 0.011010634524039 
1412	 0.162445315726256 
1413	 0.104449771544007 
1414	 0.119487112914925 
1415	 0.164254873547258 
1416	 2.92881080423266E-02 
1417	 7.48899542797092E-03 
1418	 0.181577123147399 
1419	 0.186010782588455 
1420	 8.56433864158533E-02 
1421	 5.17006281331744E-02 
1422	 3.83370781650765E-02 
1423	 2.79475718282664E-02 
1424	 4.1597863478432E-03 
1425	 7.77279524290364E-03 
1426	 3.96865417160299E-02 
1427	 3.64638876579385E-02 
1428	 2.60104949471526E-02 
1429	 2.09429111681082E-02 
1430	 7.26991918643358E-06 
1431	-1.02383974503581E-02 
1432	-1.58547669202922E-02 
1433	-1.36886677558371E-02 
1434	-3.16347342649717E-03 
1435	 1.71933843097664E-03 
1436	 1.63232952512079E-02 
1437	 0.019603535781287 
1438	-8.47399092595304E-04 
1439	 1.31844819552798E-03 
1440	 1.73144120518793E-02 
1441	 2.15338438531623E-02 
1442	 2.20214743337654E-02 
1443	 2.26532315102511E-02 
1444	 2.08245784991491E-02 
1445	 1.34583462818096E-02 
1446	 5.76067822062738E-03 
1447	 7.4262602667445E-03 
1448	 6.67753800045502E-03 
1449	-1.79154388621506E-03 
1450	-1.35637722664378E-03 
1451	 3.39612693307763E-03 
1452	 4.40699668851642E-03 
1453	 4.47579296072128E-03 
1454	 3.46076766713946E-03 
1455	 7.72030991492504E-04 
1456	 1.17945176310915E-03 
1457	 1.91890304983628E-03 
1458	 2.23149094531522E-03 
1459	 4.26855033791982E-03 
1460	 4.5625271313942E-03 
1461	 3.36436438463969E-03 
1462	 2.68394368985636E-03 
1463	 1.75172776898312E-03 
1464	 1.88591965798988E-03 
1465	 2.08273464570964E-03 
1466	 2.20162056260477E-03 
1467	 4.10239642759913E-03 
1468	 4.56479153999317E-03 
1469	 2.74009459735157E-03 
1470	 2.93983449365836E-03 
1471	 5.25690436065538E-03 
1472	 4.46604256205421E-03 
1473	 1.60513579882239E-03 
1474	 2.17596120920792E-03 
1475	 3.01348389606209E-03 
1476	 3.21768058150617E-03 
1477	 6.04570545505009E-03 
1478	 5.99945369168439E-03 
1479	 2.90027062375721E-03 
1480	 2.51628829805725E-03 
1481	 3.01908911895923E-03 
1482	 2.67593042074414E-03 
1483	 2.99282738580799E-03 
1484	 2.73122398116932E-03 
1485	 1.59525625413849E-03 
1486	 1.18422574496097E-03 
1487	 7.95681356122836E-04 
1488	 9.88345732314096E-04 
1489	 1.80137581266092E-03 
1490	 2.05773366253068E-03 
1491	 2.17946089362262E-03 
1492	 2.45810043007093E-03 
1493	 2.80151496191753E-03 
1494	 2.61524146856042E-03 
1495	 2.36388431033282E-03 
1496	 2.32267368908684E-03 
1497	 1.84949273852297E-03 
1498	 1.68949682891941E-03 
1499	 2.05479264938053E-03 
1500	 2.04107244309235E-03 
1501	 1.68528890594111E-03 
1502	 1.67239173691194E-03 
1503	 1.89098810037227E-03 
1504	 1.83058141529266E-03 
1505	 1.59838318678372E-03 
1506	 1.68067252477562E-03 
1507	 1.95317494730693E-03 
1508	 1.79774794248242E-03 
1509	 1.6966804098391E-03 
1510	 2.06522066919173E-03 
1511	 2.02975732066007E-03 
1512	 1.72454772426373E-03 
1513	 1.64078788412966E-03 
1514	 1.54727062774259E-03 
1515	 1.54685005619127E-03 
1516	 1.50794069375161E-03 
1517	 1.50389538581528E-03 
1518	 1.57919382732411E-03 
1519	 1.59588630349834E-03 
1520	 1.72647548360482E-03 
1521	 1.67482989126248E-03 
1522	 1.5238604671121E-03 
1523	 1.48299608027626E-03 
1524	 1.40785456339722E-03 
1525	 1.56196904055472E-03 
1526	 1.78572431688217E-03 
1527	 1.55056103652876E-03 
1528	 1.30897243053446E-03 
1529	 1.46682495647416E-03 
1530	 1.45898744342279E-03 
1531	 1.41078164265702E-03 
1532	 1.52359779643513E-03 
1533	 1.4215348516629E-03 
1534	 1.49142906365195E-03 
1535	 1.88425865321039E-03 
1536	 2.02583163714485E-03 
1537	 1.90728443656218E-03 
1538	 0.001860726162763 
1539	 1.93221957680162E-03 
1540	 1.97978940093002E-03 
1541	 1.83631538992758E-03 
1542	 1.70073480454272E-03 
1543	 1.67472421650701E-03 
1544	 1.62034440381311E-03 
1545	 1.7051675915257E-03 
1546	 1.71527691703307E-03 
1547	 1.58074093310655E-03 
1548	 1.65864216414998E-03 
1549	 1.81926756237299E-03 
1550	 1.89351536278231E-03 
1551	 1.85356299365194E-03 
1552	 1.76425400995742E-03 
1553	 1.67159770603171E-03 
1554	 1.67759068909244E-03 
1555	 1.78006642453824E-03 
1556	 1.79918991746854E-03 
1557	 1.79341244297158E-03 
1558	 1.79502406393126E-03 
1559	 1.95687240537285E-03 
1560	 2.07018069619353E-03 
1561	 1.93069776959874E-03 
1562	 1.91249121669133E-03 
1563	 1.88377661157127E-03 
1564	 1.77487114144696E-03 
1565	 1.85709718927447E-03 
1566	 1.9988459836375E-03 
1567	 1.98095767489137E-03 
1568	 1.76039247734216E-03 
1569	 1.59856809570879E-03 
1570	 1.63405218428635E-03 
1571	 2.02860971336542E-03 
1572	 2.48417320307897E-03 
1573	 2.31944428901302E-03 
1574	 2.07627566096235E-03 
1575	 2.07714704170546E-03 
1576	 1.93886482094849E-03 
1577	 1.83250766264005E-03 
1578	 1.93777343480762E-03 
1579	 1.87851003093264E-03 
1580	 1.61039343526093E-03 
1581	 1.63031028709723E-03 
1582	 1.8475641091407E-03 
1583	 1.90323392068176E-03 
1584	 1.80888854409647E-03 
1585	 1.70583139493356E-03 
1586	 1.69693314896803E-03 
1587	 1.70570585361711E-03 
1588	 1.68652831989822E-03 
1589	 1.67480662000527E-03 
1590	 1.6504775151797E-03 
1591	 1.75541617417411E-03 
1592	 1.88034197268025E-03 
1593	 1.90109066260904E-03 
1594	 1.88980552290753E-03 
1595	 1.82402956856922E-03 
1596	 1.81376769166612E-03 
1597	 1.80928099977941E-03 
1598	 1.8794221605435E-03 
1599	 2.01056546383565E-03 
1600	 1.97136288757617E-03 
1601	 2.02108929265761E-03 
1602	 1.9494672827053E-03 
1603	 1.68154704854502E-03 
1604	 1.72379246319964E-03 
1605	 1.71836953118991E-03 
1606	 1.75285427308049E-03 
1607	 2.13509120762025E-03 
1608	 0.002168863393886 
1609	 1.94326016251186E-03 
1610	 1.93370274644311E-03 
1611	 1.78414788664338E-03 
1612	 1.71041800603002E-03 
1613	 2.01606641415974E-03 
1614	 2.09027499301129E-03 
1615	 1.89774611289616E-03 
1616	 1.94267460757266E-03 
1617	 2.10692873074318E-03 
1618	 2.08535568127194E-03 
1619	 2.03958382371737E-03 
1620	 2.08232841307173E-03 
1621	 2.03402112525838E-03 
1622	 2.09344560159424E-03 
1623	 2.34794828694151E-03 
1624	 2.33537314023345E-03 
1625	 2.01522027721918E-03 
1626	 1.78055344735335E-03 
1627	 1.89910370090306E-03 
1628	 1.97231678001513E-03 
1629	 1.5885300551858E-03 
1630	 1.5221266758863E-03 
1631	 1.81547541138037E-03 
1632	 1.84854762758162E-03 
1633	 1.89257888837253E-03 
1634	 2.03526771249045E-03 
1635	 2.06263824384939E-03 
1636	 2.01262155690706E-03 
1637	 2.11837062595445E-03 
1638	 2.17229012802802E-03 
1639	 2.0467725566351E-03 
1640	 2.10028548844714E-03 
1641	 2.25733381185617E-03 
1642	 2.34530650102218E-03 
1643	 2.24048423357164E-03 
1644	 2.15566702843674E-03 
1645	 2.21313618663532E-03 
1646	 2.04627208024496E-03 
1647	 1.93575449734671E-03 
1648	 2.0238114448326E-03 
1649	 2.02773377170031E-03 
1650	 2.11162536205052E-03 
1651	 2.35487110558957E-03 
1652	 2.24173295038914E-03 
1653	 2.03746371495726E-03 
1654	 2.11426973752355E-03 
1655	 2.23483633657977E-03 
1656	 2.10219019957499E-03 
1657	 2.00572109881635E-03 
1658	 1.96597855316733E-03 
1659	 1.71910609297951E-03 
1660	 1.75688985761996E-03 
1661	 2.09802009949996E-03 
1662	 2.15284635771062E-03 
1663	 2.17928542619058E-03 
1664	 2.2684704983403E-03 
1665	 2.21725745573643E-03 
1666	 1.96932050228048E-03 
1667	 1.69186158874929E-03 
1668	 1.52527654954209E-03 
1669	 1.4960020381601E-03 
1670	 1.85657276502679E-03 
1671	 1.91228767809156E-03 
1672	 1.65084568769512E-03 
1673	 1.62785940230359E-03 
1674	 1.71509639906848E-03 
1675	 1.80643261662733E-03 
1676	 1.95346121144906E-03 
1677	 2.14645433845115E-03 
1678	 2.32854369054737E-03 
1679	 1.99546511120053E-03 
1680	 1.57842164612191E-03 
1681	 1.79820167889518E-03 
1682	 2.00791830908174E-03 
1683	 2.18332518585278E-03 
1684	 2.62939968462017E-03 
1685	 2.40894251178437E-03 
1686	 1.53680634441788E-03 
1687	 1.47769685833832E-03 
1688	 1.80006318282764E-03 
1689	 1.68312580943023E-03 
1690	 1.79204036685868E-03 
1691	 1.81823218173927E-03 
1692	 1.64036660298218E-03 
1693	 1.67365408359586E-03 
1694	 0.002033163595323 
1695	 2.29737527162087E-03 
1696	 2.04725162402842E-03 
1697	 1.89831659790018E-03 
1698	 1.87853906949079E-03 
1699	 2.04728329233178E-03 
1700	 2.47442455379907E-03 
1701	 2.42809900911243E-03 
1702	 1.8982765416828E-03 
1703	 1.46064008298262E-03 
1704	 1.21677232171705E-03 
1705	 1.35347744438191E-03 
1706	 1.95704724616868E-03 
1707	 1.94495543481129E-03 
1708	 1.47136861293449E-03 
1709	 1.58242781340801E-03 
1710	 1.56351248568718E-03 
1711	 1.62198957780191E-03 
1712	 2.18985599434289E-03 
1713	 1.80090178990301E-03 
1714	 1.80014842846246E-03 
1715	 2.06688397340716E-03 
1716	 2.03581907907796E-03 
1717	 2.24268928927365E-03 
1718	 2.2167408825851E-03 
1719	 2.09186096696889E-03 
1720	 2.20015849821014E-03 
1721	 1.83122345104715E-03 
1722	 1.58759698078027E-03 
1723	 1.84520106914587E-03 
1724	 2.02556107267175E-03 
1725	 2.28054154663452E-03 
1726	 2.59085630027924E-03 
1727	 2.47879761628066E-03 
1728	 1.78313412528831E-03 
1729	 1.49217335978011E-03 
1730	 1.99798084407628E-03 
1731	 2.08502006023939E-03 
1732	 1.92946577549277E-03 
1733	 2.44770810314408E-03 
1734	 2.49014595276887E-03 
1735	 1.93855319081446E-03 
1736	 2.16778179099848E-03 
1737	 2.18394133428848E-03 
1738	 1.90647250407592E-03 
1739	 2.45712952919439E-03 
1740	 2.47215350749815E-03 
1741	 2.11770685366112E-03 
1742	 2.42632255774145E-03 
1743	 1.80183649564037E-03 
1744	 1.33118662225756E-03 
1745	 2.26550715841507E-03 
1746	 2.68799090510765E-03 
1747	 2.3976900086269E-03 
1748	 7.70853473035333E-04 
1749	 6.21800626145815E-04 
1750	 1.24901298258352E-03 
1751	 1.36826908270245E-03 
1752	 3.11176344480653E-03 
1753	 3.47086448800292E-03 
1754	 1.24523694616766E-03 
1755	 9.85817331990204E-04 
1756	 2.01456580687136E-03 
1757	 1.81299882351886E-03 
1758	 2.59103062400273E-03 
1759	 2.54247785174945E-03 
1760	 1.12842908045397E-03 
1761	 1.2723127474873E-03 
1762	 2.05388334033288E-03 
1763	 2.69000268107967E-03 
1764	 3.39882954324005E-03 
1765	 2.78668127967993E-03 
1766	 1.96051619977328E-03 
1767	 1.51860103051811E-03 
1768	 9.7731294566321E-04 
1769	 2.01230149267398E-03 
1770	 3.20150589733878E-03 
1771	 2.44242207364519E-03 
1772	 2.85403843971195E-03 
1773	 3.23491957682811E-03 
1774	 1.42950364960768E-03 
1775	 1.99196211450391E-03 
1776	 2.34367521881813E-03 
1777	 2.66065570209009E-03 
1778	 2.57075379879202E-03 
1779	 2.12951420988546E-03 
1780	 2.15064325613292E-03 
1781	 1.77468039689354E-03 
1782	 1.62632749135089E-03 
1783	 2.27012380315479E-03 
1784	 2.30651677929629E-03 
1785	 1.6571446604705E-03 
1786	 1.72985564473896E-03 
1787	 2.39133704222742E-03 
1788	 2.80598928297705E-03 
1789	 3.20882102359244E-03 
1790	 2.85095170940097E-03 
1791	 4.84241386330294E-03 
1792	 5.29594525868543E-03 
1793	 1.73795656730637E-03 
1794	 8.55770234306024E-04 
1795	-1.05211953603838E-03 
1796	 9.27209433018704E-04 
1797	 1.00782613527828E-02 
1798	 1.21550497626907E-02 
1799	 0.017032172203155 
1800	 9.74197248682083E-03 
1801	 6.47277658020676E-03 
1802	 4.61808374687307E-04 
1803	 2.18864000153126E-03 
1804	 3.03120004725134E-02 
1805	 4.50465955952916E-02 
1806	 6.59847835186411E-02 
1807	 7.59167326091634E-02 
1808	 1.19066309924295E-02 
1809	 7.03522026350883E-04 
1810	 4.51302112815908E-02 
1811	 0.067683600730126 
1812	 0.165274576316869 
1813	 0.190618186906689 
1814	 5.56130926680343E-02 
1815	 6.90968678600352E-02 
1816	 0.16163547701798 
1817	 0.20018238651188 
1818	 0.237023280273879 
1819	 3.84473843660829E-02 
1820	 1.03827402523174E-02 
1821	 0.454021603613584 
1822	 0.463783298581842 
1823	 9.89872382779169E-02 
1824	 0.112989743434512 
1825	 7.21497898512217E-02 
1826	 7.60080253117401E-02 
1827	 2.21010469589283 
1828	 3.43324306426728 
1829	 0.388308450393012 
1830	 0.140293024464307 
1831	-2.98958251220653 
1832	-2.16695692357713 
1833	 2.65146236481855 
1834	-55.2526230579498 
1835	-1.49310690412684 
1836	-1.7119446089889 
1837	-2.36048376072949 
1838	-2.52837518017794 
1839	-5.93026076183045 
1840	 10.5106810502523 
1841	 1.71410107506478 
1842	 0.201087882526292 
1843	-8.11694414949314E-02 
1844	 0.153221388252982 
1845	 0.712842383941977 
1846	 4562.59638687942 
1847	-7.35204943044067 
1848	 8.56514606898202 
1849	 2.03529923975518 
1850	 7.09569854343423E-02 
1851	-0.936618395573656 
1852	-0.975135384472262 
1853	-0.874468158780006 
1854	-0.548646059318036 
1855	 0.854270857805378 
1856	 2.06157867173172 
1857	-19.422568556175 
1858	-7.1765368380322 
1859	-20.9107826816475 
1860	-3.56806372371168 
1861	-3.66112511928146 
1862	-0.586295207425901 
1863	 6.78167593144949E-02 
1864	 0.131058450217694 
1865	 6.39441763449811E-02 
1866	-0.269619606632786 
1867	-0.562220031034361 
1868	-0.63699492594187 
1869	-0.725708561540598 
1870	-0.921697653778868 
1871	 3.18320159850258 
1872	 1.5095284318131 
1873	 0.612881612323538 
1874	-1.04348254809239 
1875	-0.073529739901853 
1876	-0.120059682860656 
1877	-0.888239772485072 
1878	-1.45492467902219 
1879	-0.261460488664051 
1880	-5.03097845323363E-02 
1881	 1.29339651557344 
1882	-0.671063219964125 
1883	-2.25483836398915 
1884	 4.33287675530987 
1885	 0.777669852947139 
1886	 2.146212318461 
1887	-1.2463885998696 
1888	-0.696744703985908 
1889	-0.386263462819198 
1890	 0.718507866381908 
1891	 1.10789288645884 
1892	-12.5839116301152 
1893	-0.809555866350341 
1894	-0.414844457994036 
1895	 1.03885853939049 
1896	-0.475597279499726 
1897	 0.795399691559866 
1898	 2.50863459913145 
1899	-15.0482945326694 
1900	-5.13024678448048 
1901	-3.30316350619187 
1902	-3.8837439788239 
1903	-0.598499921158643 
1904	-1.05951745171481 
1905	-0.753267992767286 
1906	-2.72568718305366 
1907	-386.097997056078 
1908	 6.13909015567095 
1909	 2.62311060236719 
1910	 27.7969122196547 
1911	-1.37331947233777 
1912	 5.46465180906452E-02 
1913	 0.170557264285861 
1914	-0.263283359220792 
1915	-0.258450809880528 
1916	-0.356572886084637 
1917	-0.266960659999437 
1918	 0.538633198211124 
1919	 7.75405760781184 
1920	 13.9881131859122 
1921	 0.4859168124001 
1922	-0.569422665909397 
1923	-0.45484481226131 
1924	-6.72124430982736E-02 
1925	 0.127713687089029 
1926	 0.252045359419276 
1927	 0.819227970635608 
1928	 1.75863167902061 
1929	 0.63315153616587 
1930	 1.32582637184802 
1931	 0.94819955712781 
1932	 0.55094185658637 
1933	 0.411736337311097 
1934	 0.452438476646 
1935	 0.395755263822557 
1936	 0.210109836846415 
1937	 0.342850819661247 
1938	 0.466491415630716 
1939	 0.359854005619519 
1940	 0.218342797422251 
1941	 0.214419371846881 
1942	 9.45870003785302E-02 
1943	-1.68627175161663E-02 
1944	-3.62928479373325E-02 
1945	-5.64321083355065E-02 
1946	-1.92974308223524E-02 
1947	-1.92080868956149E-02 
1948	-3.95666078283827E-02 
1949	 1.52230673873221E-02 
1950	 3.92358906066028E-02 
1951	 2.49658723391957E-02 
1952	 1.76729265494409E-02 
1953	 1.51017846252108E-02 
1954	 1.03810225779456E-02 
1955	 1.11924363311071E-02 
1956	 7.9626686451808E-03 
1957	 1.94563486570332E-02 
1958	 8.50982289904996E-03 
1959	-6.01128239360473E-03 
1960	 4.61255430663101E-03 
1961	 7.80854628637057E-03 
1962	 8.38277930727646E-03 
1963	 9.51620368963819E-03 
1964	 6.16403711712733E-03 
1965	 4.76852493834336E-03 
1966	 4.60580460540609E-03 
1967	 6.38801894269971E-03 
1968	 5.38269248189362E-03 
1969	 3.29350546943806E-03 
1970	 3.71838056990469E-03 
1971	 5.07455848592601E-03 
1972	 6.11707392489138E-03 
1973	 6.99783028519451E-03 
1974	 6.87275629545913E-03 
1975	 6.39408024875248E-03 
1976	 6.52756386832814E-03 
1977	 5.52298019879973E-03 
1978	 4.42515209566517E-03 
1979	 3.61446238958279E-03 
1980	 2.16113008372506E-03 
1981	 9.84189637468101E-05 
1982	 7.54471205543564E-04 
1983	 1.88990881510605E-03 
1984	 9.92679655130126E-04 
1985	 1.02606695411329E-03 
1986	 2.07364287628113E-03 
1987	 2.18735051606259E-03 
1988	 2.9549713591959E-03 
1989	 3.52812458694019E-03 
1990	 2.07726206818798E-03 
1991	 9.35638790794927E-04 
1992	-2.05907762740335E-04 
1993	-1.04872401564175E-03 
1994	-9.5516130394514E-04 
1995	 4.70215347501252E-04 
1996	 6.40976649819657E-04 
1997	 9.53556410880697E-04 
1998	 2.23164583888805E-03 
1999	 2.09158807560829E-03 
2000	 2.62343900515083E-04 
2001	-2.78567111576568E-04 
2002	 1.24910696675493E-03 
2003	-5.36908435205939E-04 
2004	-1.61076898782673E-03 
2005	-1.05182955063052E-03 
2006	-2.44051616849368E-03 
2007	-1.66495935264104E-03 
2008	-1.66250454520018E-03 
2009	-1.96609591896862E-03 
2010	-3.13095992139698E-03 
2011	-2.87547417581595E-03 
2012	-3.10472130324663E-03 
2013	-1.29351818271188E-03 
2014	 8.21704781901125E-04 
2015	 1.14579947628594E-03 
2016	-5.49894671563522E-04 
2017	-3.80177211400208E-04 
2018	-4.00231954562976E-04 
2019	-3.09435545809365E-03 
2020	-2.33891700321195E-03 
2021	-1.30760591695179E-03 
2022	-2.4340979247535E-03 
2023	-1.57111053220051E-03 
2024	-9.69433919598148E-04 
2025	-1.60251498213155E-03 
2026	-1.09403508565474E-03 
2027	 5.18348365326477E-04 
2028	 1.6008279103395E-03 
2029	 1.80560688183637E-03 
2030	 2.43563373783546E-03 
2031	 2.46573035535869E-03 
2032	 2.38842281793165E-03 
2033	 2.35483215127347E-03 
2034	 1.48976257751553E-03 
2035	 7.87095294301284E-04 
2036	 7.62476029495826E-04 
2037	 6.11150120102581E-04 
2038	 7.34634800149446E-04 
2039	 1.0068146143904E-03 
2040	 1.45219115344131E-03 
2041	 1.50904761507523E-03 
2042	 1.67471634070741E-03 
2043	 1.61232804955271E-03 
2044	 1.05132417671301E-03 
2045	 8.76421668023058E-04 
2046	 7.58312794856388E-04 
2047	 7.76601516594724E-04 
2048	 8.45829833392716E-04 
2049	 2.6928507622544E-04 
2050	-1.64482511624367E-04 
2051	 5.90604467177646E-04 
2052	 2.22432407641097E-03 
2053	 3.3336699980832E-03 
2054	 3.78114722738884E-03 
2055	 3.44989950251585E-03 
2056	 2.75471296439738E-03 
2057	 1.08148134782272E-05 
2058	-1.18085752703261E-04 
2059	 1.31722335209406E-03 
2060	 1.41926253809829E-03 
2061	 1.83798485878833E-03 
2062	 2.5648570995913E-03 
2063	 2.4376616109813E-03 
2064	 2.31555249967976E-03 
2065	 2.33662433427285E-03 
2066	 1.67784015751224E-03 
2067	 8.003084983102E-04 
2068	 1.33677517781753E-04 
2069	 1.03910177134357E-03 
2070	 2.07193979258346E-03 
2071	 1.58186159816684E-03 
2072	 1.07963418607273E-03 
2073	 4.93952014269641E-04 
2074	-9.98814125167536E-04 
2075	-1.42311857550657E-03 
2076	-1.71610312813789E-03 
2077	-1.39214152109459E-03 
2078	 8.49349793150565E-05 
2079	 4.43914402096854E-04 
2080	 4.35728273113243E-04 
2081	 1.27640146949189E-03 
2082	 1.61030376978179E-03 
2083	 5.52260895597971E-04 
2084	 6.40347635046689E-04 
2085	 6.62417539192883E-04 
2086	-8.43019137698888E-04 
2087	-5.53204882056132E-04 
2088	 3.55808304691764E-04 
2089	 5.28749361932401E-04 
2090	 1.53568434394052E-03 
2091	 1.97891635824565E-03 
2092	 2.10158041798011E-03 
2093	 1.6645767340633E-03 
2094	 1.40288283481704E-03 
2095	 6.57576139831198E-04 
2096	 5.79264831818196E-04 
2097	 1.20097559051512E-03 
2098	 1.06291690410382E-03 
2099	 9.69150225936733E-04 
2100	 1.93211574760998E-04 
2101	 1.40469325569028E-04 
2102	-1.24425577940031E-04 
2103	-3.19206131761095E-04 
2104	 9.02092772194502E-04 
2105	 1.7657516161473E-03 
2106	 1.34462909856677E-03 
2107	 9.54635027407493E-04 
2108	 0.001603015034373 
2109	 1.8836216422941E-03 
2110	 1.32952343120329E-03 
2111	 1.77381975231628E-03 
2112	 2.17410506318424E-03 
2113	 1.80004235483662E-03 
2114	 5.80331519884402E-04 
2115	 2.02259223656897E-04 
2116	-7.43249038570319E-04 
2117	-5.74930316738749E-04 
2118	 1.18633475242968E-03 
2119	 1.72501867558207E-03 
2120	 2.39278835832302E-03 
2121	 2.38377397569511E-03 
2122	 1.45692222904601E-03 
2123	 9.0717714667472E-04 
2124	 9.4584875995398E-04 
2125	 5.68962257524136E-04 
2126	 6.2714395100574E-04 
2127	 1.18610984577884E-03 
2128	 1.07588743511376E-03 
2129	 1.09704409876216E-03 
2130	 1.87330621818516E-03 
2131	 2.49867877915001E-03 
2132	 2.73535624879262E-03 
2133	 3.01817773515805E-03 
2134	 3.03929422319132E-03 
2135	 2.0108200925272E-03 
2136	 1.78813084605965E-03 
2137	 2.29130493083628E-03 
2138	 2.12739243884244E-03 
2139	 1.56604052318445E-03 
2140	 1.17921170103392E-03 
2141	 4.05523189962837E-04 
2142	 4.10934845558606E-04 
2143	 7.54031701304055E-04 
2144	 1.77861668170337E-03 
2145	 2.21030595862326E-03 
2146	 1.2384270742563E-03 
2147	 1.13482408030442E-03 
2148	 1.16321986430921E-03 
2149	 1.83102696905592E-03 
2150	 2.84267694010215E-03 
2151	 2.4811679752702E-03 
2152	 1.96717146920768E-03 
2153	 1.47150942185381E-03 
2154	 2.21556062563794E-03 
2155	 3.07278576803699E-03 
2156	 2.87109382396968E-03 
2157	 3.13199326493939E-03 
2158	 2.91761037916929E-03 
2159	 2.88855314522008E-03 
2160	 3.86598263833254E-03 
2161	 3.84743300078192E-03 
2162	 3.09673134020305E-03 
2163	 2.78739114044633E-03 
2164	 1.72201529855339E-03 
2165	 9.29647479249034E-04 
2166	 3.57034829327529E-04 
2167	 2.94502854881669E-04 
2168	 1.0041588418512E-03 
2169	 1.15800854139549E-03 
2170	 1.65376355508658E-03 
2171	 1.52106281351801E-03 
2172	 3.74820677403095E-04 
2173	-3.21805847119647E-04 
2174	-3.53844097830252E-04 
2175	-4.61603005853492E-04 
2176	-4.01999030820186E-04 
2177	 1.75192301535275E-04 
2178	-2.31979780569216E-04 
2179	-4.23251324878477E-04 
2180	 8.94583536295309E-04 
2181	 7.89678416985049E-04 
2182	 1.22683877435984E-03 
2183	 2.06353002314205E-03 
2184	 9.95456079143943E-04 
2185	 9.30462108189225E-04 
2186	 8.18386803334315E-04 
2187	 1.25710343659574E-04 
2188	 9.86104357954122E-04 
2189	 3.74634823726289E-03 
2190	 4.52351906871374E-03 
2191	 5.85657229417379E-03 
2192	 5.85018637761547E-03 
2193	 3.03243451968901E-03 
2194	 1.99303060017858E-03 
2195	 1.09896917480336E-03 
2196	 1.05256246415212E-03 
2197	 2.99216400885989E-03 
2198	 2.90915731714826E-03 
2199	 1.43506855784354E-03 
2200	 1.73727823710758E-03 
2201	 2.80322557650156E-03 
2202	 2.87790695437915E-03 
2203	 3.16994856081769E-03 
2204	 3.14124791199928E-03 
2205	 2.7940487469928E-03 
2206	 3.32346487826806E-03 
2207	 3.90249291151058E-03 
2208	 4.02313931711363E-03 
2209	 3.01927917709914E-03 
2210	 9.80860606432753E-04 
2211	 9.08790021465695E-05 
2212	 1.46025399003829E-03 
2213	 1.99453289414334E-03 
2214	 1.65471411970862E-03 
2215	 1.54467130245749E-03 
2216	 3.46698244392712E-04 
2217	-1.64140451743281E-04 
2218	-8.71614249288311E-04 
2219	-1.19080757994805E-03 
2220	-8.44301814719687E-04 
2221	-5.03966051363724E-04 
2222	-8.30425152731229E-04 
2223	-1.33524215925795E-04 
2224	 1.65643210921975E-03 
2225	 2.69953259063223E-03 
2226	 5.28749181316427E-03 
2227	 5.49400335185245E-03 
2228	 2.87050160696165E-03 
2229	 2.43802011705246E-03 
2230	 1.87657213622851E-03 
2231	 1.2441019362677E-03 
2232	 2.19558237901479E-03 
2233	 2.55578742323033E-03 
2234	 2.6103396866309E-03 
2235	 1.00918915747029E-03 
2236	 3.49275005153655E-04 
2237	 1.23753686023354E-04 
2238	-1.57016708810294E-03 
2239	-1.68380150857935E-03 
2240	-1.70950167208692E-04 
2241	-3.93855787687194E-05 
2242	 5.10920827107563E-04 
2243	 1.0431731235201E-03 
2244	 7.84731550539574E-05 
2245	 1.76783631930336E-04 
2246	 3.97877193966014E-04 
2247	 3.7829118279127E-04 
2248	-1.30653572657445E-04 
2249	-3.25078678779457E-04 
2250	 9.3224456538977E-04 
2251	-9.82743406673619E-04 
2252	-2.91606371741579E-03 
2253	-2.79364501070693E-03 
2254	-4.07420589463087E-03 
2255	-2.71888185407339E-03 
2256	 3.12057700633862E-04 
2257	 8.24958786468455E-04 
2258	 1.82821038557381E-03 
2259	 2.43761475360077E-03 
2260	 1.09934218280428E-03 
2261	-2.67354300229879E-03 
2262	-2.97887530924111E-03 
2263	-3.69779906833427E-03 
2264	-3.89470416161527E-03 
2265	-1.40695937088784E-03 
2266	-3.38134656899479E-04 
2267	 3.41585512660503E-04 
2268	 2.48986007741326E-04 
2269	-4.91762002095077E-04 
2270	 7.23599938143725E-05 
2271	 7.750044371014E-04 
2272	 4.16703313914489E-04 
2273	 4.46278450499365E-04 
2274	 1.75425409871714E-04 
2275	-2.36485590246429E-03 
2276	-3.41224852678918E-03 
2277	-2.5725637611957E-03 
2278	-1.24714230286723E-03 
2279	 8.75541062341744E-05 
2280	 1.33913309342363E-03 
2281	 4.33535358323376E-03 
2282	 4.80525778046594E-03 
2283	 2.9303890749949E-03 
2284	 1.49913130852233E-03 
2285	 5.37254973994911E-05 
2286	-2.00861367411244E-04 
2287	-2.56224221082736E-03 
2288	-1.82167835558305E-03 
2289	 6.15955490839667E-04 
2290	-9.26026588534654E-04 
2291	 1.49541824290164E-03 
2292	 3.25336146798927E-03 
2293	 8.97162679932386E-04 
2294	 5.8913729568704E-04 
2295	 7.52763216178296E-04 
2296	 1.4695757056996E-03 
2297	 9.56540526462618E-04 
2298	-1.77400751986917E-03 
2299	-4.57744950858321E-03 
2300	-5.48824028418542E-03 
2301	-1.7271329118348E-03 
2302	 2.5187172037035E-03 
2303	 4.00442424540825E-03 
2304	 5.43742469844119E-03 
2305	 5.41133835065681E-03 
2306	 3.7052616460065E-03 
2307	 6.05640318200305E-03 
2308	 6.08856666059877E-03 
2309	-4.90412556077594E-04 
2310	-5.26318230715412E-03 
2311	-0.008896031739753 
2312	-9.96986824893615E-03 
2313	-4.92655907380367E-03 
2314	-1.50303219300944E-04 
2315	-5.23640706223541E-04 
2316	-1.0367088541475E-03 
2317	-2.97783582150789E-03 
2318	-8.46759232512792E-03 
2319	-6.56393344609984E-03 
2320	-8.40479200778672E-04 
2321	 3.71537823337722E-03 
2322	 4.50379451496746E-03 
2323	-1.79348406688332E-03 
2324	-3.22665061600554E-03 
2325	-2.33813348509434E-03 
2326	-1.84237638092194E-03 
2327	 3.30610240851631E-03 
2328	 2.64386161109804E-03 
2329	-4.90909894213022E-03 
2330	-5.74445082129824E-03 
2331	 4.64997063217125E-04 
2332	 1.00914961006507E-03 
2333	 2.83414357480206E-03 
2334	 1.00754922297182E-02 
2335	 9.08081854286589E-03 
2336	 5.24478444421516E-03 
2337	 5.91724905198312E-03 
2338	 3.5663456513883E-03 
2339	-3.79454583788366E-03 
2340	-1.13150302588204E-02 
2341	-1.29254586912639E-02 
2342	-8.42230196325263E-03 
2343	-9.08875020453247E-04 
2344	 8.54800925271106E-03 
2345	 1.22461847260254E-02 
2346	 8.9662870708154E-03 
2347	-4.9131606034349E-04 
2348	-6.1142180492128E-03 
2349	-7.01379724959453E-03 
2350	-1.23435438472702E-02 
2351	-3.69490170238178E-03 
2352	 3.68569693192528E-03 
2353	 0.010412115207332 
2354	 2.84320268311643E-02 
2355	 2.63752362942827E-02 
2356	 2.35240323782784E-02 
2357	 2.61722779875717E-02 
2358	 2.36149997023719E-02 
2359	 2.53524255007466E-02 
2360	 2.07746842112637E-02 
2361	 1.75848998288936E-02 
2362	 1.16568401905833E-02 
2363	-3.31728778868358E-03 
2364	-4.48546213514909E-03 
2365	-1.88485726208039E-03 
2366	-4.30334765937536E-03 
2367	-5.42632832160506E-03 
2368	-1.67381344225738E-02 
2369	-1.81790549060559E-02 
2370	-2.05734631760231E-02 
2371	-2.35475806635599E-02 
2372	 2.98422466756542E-03 
2373	 5.94687977720054E-03 
2374	-3.81650194578474E-03 
2375	 8.80037294863974E-03 
2376	 1.66153522251231E-03 
2377	-7.99184291208529E-03 
2378	-2.09528401177236E-02 
2379	-5.07161063379977E-02 
2380	-5.39855875881485E-02 
2381	-5.19619622237978E-02 
2382	-3.67609069899964E-02 
2383	 1.55720369780787E-02 
2384	 3.88690728440655E-02 
2385	 3.94917714683654E-02 
2386	 5.37957197939635E-02 
2387	 4.08793700735529E-02 
2388	 1.48527894400367E-03 
2389	 2.09536731277056E-02 
2390	 4.35100305931038E-02 
2391	 1.46072683258305E-02 
2392	 4.32833811747116E-02 
2393	 3.87123776185268E-02 
2394	-1.48539884449388E-02 
2395	 2.11440647522169E-03 
2396	 3.22522706517196E-03 
2397	-1.37808119251417E-02 
2398	-3.59264440679663E-03 
2399	-2.62601294174926E-02 
2400	-6.67343363863418E-02 
2401	-8.36075961639871E-02 
2402	-8.38737881022849E-02 
2403	-5.45983973413934E-02 
2404	-2.63244912135269E-02 
2405	-3.20989688724939E-02 
2406	-2.88003998104028E-03 
2407	 4.41859330290683E-02 
2408	 6.00653662100113E-02 
2409	 7.83912951169572E-02 
2410	 8.30419933307044E-02 
2411	 3.33895321913513E-02 
2412	 1.81284434451657E-02 
2413	 7.51090576766317E-02 
2414	 5.56148583443181E-02 
2415	 6.71084915160682E-02 
2416	 6.74897576481976E-02 
2417	 2.08691344242025E-02 
2418	 5.29798176723668E-02 
2419	 4.37235755606845E-02 
2420	-1.30553912012362E-02 
2421	-7.67793068870192E-02 
2422	-8.30818767750859E-02 
2423	-9.31305152867468E-02 
2424	-0.112429004143679 
2425	-8.27002484401645E-02 
2426	-9.45370088635332E-02 
2427	-8.55393397495801E-02 
2428	-4.69672575259223E-02 
2429	-5.56759448261551E-02 
2430	-0.111666468551335 
2431	-9.90214183908687E-02 
2432	-5.00975033497252E-02 
2433	 3.11519779292949E-02 
2434	 0.191370523094285 
2435	 0.192608104492202 
2436	 0.108682447263987 
2437	 0.127103643064331 
2438	 6.80985932136591E-02 
2439	-6.17319596930993E-02 
2440	-8.03983169047985E-02 
2441	-0.140680143698557 
2442	-0.131347915768581 
2443	 5.72645292491331E-02 
2444	 0.315018963000247 
2445	 0.504999554434468 
2446	 0.460240327641901 
2447	 1.63721478614332 
2448	-2.8911451532436 
2449	-0.175013288543645 
2450	-0.227561958845283 
2451	-1.57552375171441 
2452	-1.47349144141038 
2453	-0.303167981648424 
2454	-57.161729910735 
2455	-1.78880567825858 
2456	-1.13616049479611 
2457	-0.493437035284203 
2458	-0.262961505865862 
2459	-0.351954685277661 
2460	-0.304083873569969 
2461	-0.574467796861937 
2462	-1.02852619649091 
2463	-0.352711440667178 
2464	 0.459366723669229 
2465	 0.593527055313736 
2466	 1.32382886905813 
2467	 0.928864506471188 
2468	-9.246443189867 
2469	-168.798212029796 
2470	 6.97491912545234 
2471	 2.40399234230334 
2472	 0.426328324912567 
2473	-7.81679455488572E-02 
2474	-0.283483971762962 
2475	 3.44237342029703E-02 
2476	 7.03089154081529E-02 
2477	 4.41138494512727E-02 
2478	-2.75089717223106E-02 
2479	-6.95717034485847E-02 
2480	 0.772682728791975 
2481	 1.53902838596484 
2482	 0.498874736592195 
2483	 0.338754637778886 
2484	-0.129559152855428 
2485	-0.231623770290095 
2486	-0.144841006860853 
2487	-0.196835488608779 
2488	-0.42728563176252 
2489	-0.4656335395598 
2490	-0.621726112685493 
2491	-0.971899958111784 
2492	-0.60192790616708 
2493	 0.431387780934083 
2494	 0.676575130777305 
2495	-0.168410397273703 
2496	-0.113700135678848 
2497	-0.117374379203682 
2498	-0.150679014447333 
2499	 0.262844554543193 
2500	-0.336418766324637 
