Wavelength	rt0722east_far00000.asd
350	 1.91619924415858E-02 
351	 1.90953725693588E-02 
352	 1.89765988034255E-02 
353	 1.91013926188181E-02 
354	 1.95380024051958E-02 
355	 1.99306586757024E-02 
356	 1.95864104951646E-02 
357	 1.91403694223814E-02 
358	 1.93791376352844E-02 
359	 1.98702844216691E-02 
360	 1.97786878472504E-02 
361	 1.92538544632915E-02 
362	 1.90922948189086E-02 
363	 0.019321860222206 
364	 1.95802609942241E-02 
365	 0.019571528803736 
366	 1.91574181993154E-02 
367	 1.94973295833507E-02 
368	 1.98847809244741E-02 
369	 1.96069471371521E-02 
370	 0.019767613527308 
371	 2.00305299956254E-02 
372	 0.020058394430933 
373	 0.019672830795562 
374	 1.99714910273078E-02 
375	 2.02028381229377E-02 
376	 2.01588479334264E-02 
377	 2.06157009721039E-02 
378	 2.09504777835645E-02 
379	 2.06174249919401E-02 
380	 1.97524337907701E-02 
381	 2.04329285078642E-02 
382	 0.020994399362302 
383	 2.11534543482459E-02 
384	 2.13420272648186E-02 
385	 2.18319381131996E-02 
386	 2.20647367940363E-02 
387	 0.021946635335008 
388	 2.19629036029526E-02 
389	 2.21519672414692E-02 
390	 2.23681953892479E-02 
391	 2.25643860373429E-02 
392	 2.30777447841976E-02 
393	 2.33745141731591E-02 
394	 2.33719239799735E-02 
395	 2.32622277222477E-02 
396	 2.36061111306513E-02 
397	 2.37239417641991E-02 
398	 0.023552709917227 
399	 2.35898159128274E-02 
400	 2.36717697919995E-02 
401	 2.38091528849034E-02 
402	 2.40023942621709E-02 
403	 2.41907119343572E-02 
404	 0.024274431290884 
405	 2.43921773174504E-02 
406	 2.46905900895289E-02 
407	 2.48332864035303E-02 
408	 2.48273977430483E-02 
409	 2.48627945629241E-02 
410	 2.52428484374766E-02 
411	 2.53567962472627E-02 
412	 2.54706777052035E-02 
413	 2.57846453259801E-02 
414	 2.59509461447986E-02 
415	 2.61617897453466E-02 
416	 2.63641841985698E-02 
417	 2.64488374691844E-02 
418	 2.65643141905713E-02 
419	 2.67488860864476E-02 
420	 2.69922613655237E-02 
421	 2.72444967215517E-02 
422	 2.75537394808377E-02 
423	 2.77965837570227E-02 
424	 2.79316285221623E-02 
425	 2.82373090576731E-02 
426	 2.85071061676858E-02 
427	 2.87623274766607E-02 
428	 2.91116350408846E-02 
429	 2.94593652890306E-02 
430	 2.98124201044987E-02 
431	 3.01169870631206E-02 
432	 3.02454322391822E-02 
433	 3.05492641811135E-02 
434	 3.08601957225191E-02 
435	 3.10360444939541E-02 
436	 3.13577061445979E-02 
437	 3.18050238117547E-02 
438	 3.22309139784512E-02 
439	 3.24592346486618E-02 
440	 3.27230837278865E-02 
441	 3.30572840702157E-02 
442	 3.34256128171842E-02 
443	 3.37251697632793E-02 
444	 3.40088577427981E-02 
445	 0.034306094827392 
446	 3.46237005545731E-02 
447	 0.034916260434327 
448	 3.51232961911733E-02 
449	 3.53197936614609E-02 
450	 3.56577918564985E-02 
451	 3.59207661893621E-02 
452	 3.61622265530831E-02 
453	 3.64136875760165E-02 
454	 3.65721023335727E-02 
455	 3.67827468571677E-02 
456	 0.036984898220918 
457	 3.71015240530988E-02 
458	 3.73952632663645E-02 
459	 3.76441113627212E-02 
460	 3.77658088232256E-02 
461	 3.78470176183643E-02 
462	 0.03800278061477 
463	 3.82192737042189E-02 
464	 3.84378708218522E-02 
465	 3.85548524721098E-02 
466	 3.87514508176701E-02 
467	 3.89998252794304E-02 
468	 3.91877761556752E-02 
469	 0.039433041385742 
470	 3.95930207574351E-02 
471	 3.96974047048414E-02 
472	 4.00291147739476E-02 
473	 4.02548426208773E-02 
474	 4.03815797524143E-02 
475	 4.05257371417051E-02 
476	 4.08567271890289E-02 
477	 4.11126004043925E-02 
478	 4.12584918610888E-02 
479	 4.14295356429106E-02 
480	 4.17284046794458E-02 
481	 4.20178954989107E-02 
482	 4.22351702429551E-02 
483	 4.25332830141473E-02 
484	 4.28543991225947E-02 
485	 4.31758064962803E-02 
486	 0.04349798601834 
487	 4.39041993970201E-02 
488	 0.044191661431195 
489	 4.43968038959372E-02 
490	 0.044785144103171 
491	 4.51990445372399E-02 
492	 4.55755905337327E-02 
493	 4.59070127393362E-02 
494	 4.62915748862251E-02 
495	 4.66632452743894E-02 
496	 4.70515086633901E-02 
497	 4.75175945388263E-02 
498	 4.79583818896662E-02 
499	 4.83839210270568E-02 
500	 4.88122171911167E-02 
501	 4.92522527331648E-02 
502	 4.97538132069015E-02 
503	 5.02642387574538E-02 
504	 0.050724832912323 
505	 5.11789368911457E-02 
506	 5.15989567919401E-02 
507	 5.20200399017893E-02 
508	 5.25159451783595E-02 
509	 0.052965829540648 
510	 5.33473890785348E-02 
511	 0.053735633501531 
512	 5.44233146664478E-02 
513	 5.49672675127382E-02 
514	 5.54272293003605E-02 
515	 5.60361651253405E-02 
516	 5.65697815629577E-02 
517	 5.70900354915188E-02 
518	 0.057666997610781 
519	 5.83486231796484E-02 
520	 5.90385257462939E-02 
521	 5.96501256459993E-02 
522	 6.01678493597885E-02 
523	 6.07706157477429E-02 
524	 6.13811298897951E-02 
525	 6.19964050522039E-02 
526	 6.26606806022946E-02 
527	 6.32891974986593E-02 
528	 6.39115152175676E-02 
529	 6.45381085281001E-02 
530	 6.51049409473483E-02 
531	 6.56895148563294E-02 
532	 6.63634553958533E-02 
533	 6.71369290277767E-02 
534	 6.77102569993494E-02 
535	 6.82757274362834E-02 
536	 6.89223497621689E-02 
537	 0.069581342751341 
538	 7.02908120486403E-02 
539	 7.10328873672167E-02 
540	 7.17616969202403E-02 
541	 7.23908944936328E-02 
542	 7.29784159422924E-02 
543	 7.35968387196842E-02 
544	 7.43109373900755E-02 
545	 7.49920740650173E-02 
546	 7.56849250528002E-02 
547	 7.63916123325205E-02 
548	 7.69836441503959E-02 
549	 7.76017022402877E-02 
550	 0.078251354420007 
551	 7.88990902068821E-02 
552	 0.079577246068785 
553	 8.02445013619549E-02 
554	 8.08828578925466E-02 
555	 0.081501720934974 
556	 8.21295186916819E-02 
557	 8.27784937983814E-02 
558	 0.083442218049666 
559	 8.41068771834341E-02 
560	 8.46929234911632E-02 
561	 8.52157296084218E-02 
562	 8.57532229318255E-02 
563	 0.086321578084155 
564	 8.68432806675437E-02 
565	 8.72790661090069E-02 
566	 8.76882194500379E-02 
567	 0.08805496540986 
568	 8.84368735953014E-02 
569	 8.88787889833738E-02 
570	 8.92229361309727E-02 
571	 8.95188562835944E-02 
572	 8.97923037924968E-02 
573	 9.00297481895064E-02 
574	 9.03257888428837E-02 
575	 0.090586914436404 
576	 0.090723315824481 
577	 9.08051597538742E-02 
578	 0.090880269908248 
579	 0.090927605794857 
580	 9.08913304403505E-02 
581	 9.08506985289569E-02 
582	 9.07397116619041E-02 
583	 9.05489892505248E-02 
584	 9.04142643592443E-02 
585	 9.01192330175224E-02 
586	 8.97702179829446E-02 
587	 8.95360059289304E-02 
588	 8.92168503952473E-02 
589	 8.88537282197476E-02 
590	 8.84632221464172E-02 
591	 8.79945134582495E-02 
592	 8.75264316182632E-02 
593	 8.70087972096848E-02 
594	 8.63632491821968E-02 
595	 8.54631237035999E-02 
596	 8.45187292531675E-02 
597	 8.35603624652186E-02 
598	 8.25251214636521E-02 
599	 8.14467745174155E-02 
600	 8.05585001062837E-02 
601	 7.99359655490432E-02 
602	 7.93404835896303E-02 
603	 7.89889027384774E-02 
604	 7.87928286116328E-02 
605	 7.86176005845139E-02 
606	 0.078618092437214 
607	 7.86269674876378E-02 
608	 7.85857828190039E-02 
609	 0.078565073212041 
610	 7.86062249611983E-02 
611	 7.86358151259936E-02 
612	 7.85969578523258E-02 
613	 7.85588235776922E-02 
614	 7.84730709002677E-02 
615	 7.84077038058946E-02 
616	 7.84726229810236E-02 
617	 7.85414665899317E-02 
618	 7.85021328307057E-02 
619	 0.07836353022127 
620	 7.83151486060327E-02 
621	 7.83258949618956E-02 
622	 7.83354667955661E-02 
623	 7.82885342279587E-02 
624	 7.82481822642108E-02 
625	 7.81102294153926E-02 
626	 7.79725825045958E-02 
627	 7.81012486164403E-02 
628	 7.80383402382527E-02 
629	 7.79393878624164E-02 
630	 7.79472472116761E-02 
631	 7.78502612535686E-02 
632	 7.77067302734503E-02 
633	 7.76095192560626E-02 
634	 7.76274807134468E-02 
635	 7.74887221058134E-02 
636	 7.73408194469617E-02 
637	 7.72595567809549E-02 
638	 7.71614562187699E-02 
639	 7.69665633939623E-02 
640	 7.67881448854698E-02 
641	 7.67255139743947E-02 
642	 7.65626896880968E-02 
643	 7.63899242112817E-02 
644	 0.076229029457428 
645	 7.60443581647024E-02 
646	 0.075853216561848 
647	 7.56762691330144E-02 
648	 7.55031366141042E-02 
649	 7.52399528558848E-02 
650	 7.49838038095791E-02 
651	 7.46749816460772E-02 
652	 7.42386657085224E-02 
653	 7.38473994453938E-02 
654	 7.33160626547713E-02 
655	 7.26029694669269E-02 
656	 7.19918328467034E-02 
657	 0.071421100447549 
658	 0.070939004146158 
659	 7.05543791741586E-02 
660	 7.01463795958538E-02 
661	 6.98207980010219E-02 
662	 6.95604791175817E-02 
663	 6.92931711942583E-02 
664	 6.91771302701681E-02 
665	 6.90519430597862E-02 
666	 6.88541374046077E-02 
667	 6.87651243016881E-02 
668	 6.87085254817667E-02 
669	 6.86717734511057E-02 
670	 6.86454131909758E-02 
671	 6.85475375712352E-02 
672	 6.84604961570156E-02 
673	 0.068376262508216 
674	 6.82074260633895E-02 
675	 6.81572316399214E-02 
676	 6.81443984236873E-02 
677	 6.80764190943859E-02 
678	 0.067970105882472 
679	 6.78884308559498E-02 
680	 6.78452961399765E-02 
681	 6.78244932855625E-02 
682	 6.77896047558749E-02 
683	 6.78110596457605E-02 
684	 6.78515970383097E-02 
685	 6.77124033838134E-02 
686	 0.067610425799651 
687	 6.74488821300213E-02 
688	 6.71515617311516E-02 
689	 6.69961493956112E-02 
690	 6.66807544283906E-02 
691	 6.62239761752306E-02 
692	 6.58149814389114E-02 
693	 6.53293790659881E-02 
694	 0.064749092457561 
695	 6.41061928541445E-02 
696	 6.34056672966095E-02 
697	 6.26523313761398E-02 
698	 6.18115984767035E-02 
699	 6.09154017191137E-02 
700	 6.00660059089274E-02 
701	 5.90673312774874E-02 
702	 5.79881075699345E-02 
703	 5.70500433259621E-02 
704	 5.59519616309215E-02 
705	 5.47880075815316E-02 
706	 5.36400011190505E-02 
707	 5.23392902763363E-02 
708	 0.050983123748945 
709	 4.95398432351877E-02 
710	 4.79611755093189E-02 
711	 4.63687048864719E-02 
712	 4.47033554997395E-02 
713	 4.29843571846718E-02 
714	 4.12782123961837E-02 
715	 3.97226590452893E-02 
716	 3.80337347809892E-02 
717	 3.60900507025606E-02 
718	 3.42854758369226E-02 
719	 3.24683850600599E-02 
720	 0.030852133218878 
721	 2.93496324129554E-02 
722	 2.80070809740255E-02 
723	 2.64587795427697E-02 
724	 2.48037309880828E-02 
725	 2.32868824211635E-02 
726	 2.19073132684164E-02 
727	 2.04396181666288E-02 
728	 1.87657852147333E-02 
729	 1.71258833953863E-02 
730	 1.55410514742055E-02 
731	 1.41992302792494E-02 
732	 1.31790576653919E-02 
733	 1.22811297092562E-02 
734	 0.011515393454443 
735	 1.09238562032026E-02 
736	 1.05400031368277E-02 
737	 1.01326681797226E-02 
738	 9.82931864922552E-03 
739	 9.73874854056453E-03 
740	 9.63165566238821E-03 
741	 9.51312178069732E-03 
742	 9.37450388760995E-03 
743	 9.21617604921783E-03 
744	 9.13489841124196E-03 
745	 9.11192463773602E-03 
746	 9.12330143841172E-03 
747	 9.15629711613331E-03 
748	 9.14266252062849E-03 
749	 9.09960767695761E-03 
750	 9.06083196848329E-03 
751	 9.0188650501241E-03 
752	 9.05355925778676E-03 
753	 0.00908777051746 
754	 8.99319152415856E-03 
755	 8.98950832911022E-03 
756	 8.9519212933045E-03 
757	 8.86995765664613E-03 
758	 8.97547740860494E-03 
759	 9.06198362516056E-03 
760	 9.10427674959134E-03 
761	 9.13596772752698E-03 
762	 9.01242765632381E-03 
763	 9.01771783685298E-03 
764	 9.09416500043717E-03 
765	 9.10597450973506E-03 
766	 9.12339105993383E-03 
767	 9.1214239264414E-03 
768	 9.14449670611399E-03 
769	 9.30168692808286E-03 
770	 9.34940863339415E-03 
771	 9.32757919550828E-03 
772	 9.33834640174155E-03 
773	 9.48301886438236E-03 
774	 9.65076791595239E-03 
775	 9.79957440572674E-03 
776	 0.00991071602357 
777	 9.88735499967647E-03 
778	 9.93914448858788E-03 
779	 1.01066412654842E-02 
780	 1.02465486841715E-02 
781	 1.05317775389289E-02 
782	 1.07097275466968E-02 
783	 1.06917807999238E-02 
784	 1.09308865015114E-02 
785	 1.10826026818026E-02 
786	 1.12132828918789E-02 
787	 1.14516239562746E-02 
788	 1.14465464379478E-02 
789	 1.15999305198826E-02 
790	 1.19430431097257E-02 
791	 1.21898771864495E-02 
792	 1.24057323730424E-02 
793	 0.012608012828057 
794	 1.28307277717826E-02 
795	 1.31363164170972E-02 
796	 1.32546369383023E-02 
797	 1.32903075875925E-02 
798	 1.34301687707154E-02 
799	 1.37422010371196E-02 
800	 0.013966128112303 
801	 0.014107282886671 
802	 1.43121623701026E-02 
803	 0.014477064376722 
804	 1.45775001247085E-02 
805	 1.46126800567306E-02 
806	 1.46027605873489E-02 
807	 0.014681319124591 
808	 1.47030730080584E-02 
809	 1.45681095451741E-02 
810	 1.44338763655432E-02 
811	 1.43843720081411E-02 
812	 0.014348786128151 
813	 0.014189205918827 
814	 1.39207103131334E-02 
815	 0.013657906641086 
816	 1.33716131258039E-02 
817	 1.29569383503324E-02 
818	 0.012825721185815 
819	 1.25852592017162E-02 
820	 1.21134944392843E-02 
821	 1.17133072157281E-02 
822	 1.11692086565969E-02 
823	 1.05958019893784E-02 
824	 1.00955715242123E-02 
825	 9.49399989066479E-03 
826	 8.92158676162385E-03 
827	 8.29846065506677E-03 
828	 7.57347993838617E-03 
829	 7.04971066868994E-03 
830	 6.69417561343171E-03 
831	 6.4121258298835E-03 
832	 6.1057887243123E-03 
833	 5.82620961303728E-03 
834	 5.64453012783495E-03 
835	 5.5067545975881E-03 
836	 5.21183349746104E-03 
837	 5.04754353201777E-03 
838	 4.98253435019943E-03 
839	 4.94858751730038E-03 
840	 4.99310765395773E-03 
841	 4.90639232144639E-03 
842	 4.8197953483636E-03 
843	 4.88340599074636E-03 
844	 4.66704182821444E-03 
845	 4.69842361140983E-03 
846	 4.81426773336388E-03 
847	 4.48095509993672E-03 
848	 4.57840358052498E-03 
849	 4.68202829797051E-03 
850	 4.58249163826913E-03 
851	 4.53184728205413E-03 
852	 4.43808196598793E-03 
853	 4.35917580885597E-03 
854	 4.37625230919875E-03 
855	 4.57606790945843E-03 
856	 4.34075924061363E-03 
857	 4.07110462241709E-03 
858	 4.1941017671388E-03 
859	 4.16204150882743E-03 
860	 4.19171530083022E-03 
861	 4.14261128927244E-03 
862	 3.83278082468101E-03 
863	 3.96432098288104E-03 
864	 4.00487484759432E-03 
865	 3.86819968563166E-03 
866	 3.91199332544205E-03 
867	 3.80278866190373E-03 
868	 3.79057048844282E-03 
869	 3.9099082544919E-03 
870	 3.83685233620234E-03 
871	 3.8369698078808E-03 
872	 3.82167070866405E-03 
873	 3.74009028941125E-03 
874	 3.7930688166362E-03 
875	 3.80615897069332E-03 
876	 3.73183241978416E-03 
877	 3.57728165517735E-03 
878	 3.3630747847124E-03 
879	 3.2648408443036E-03 
880	 3.37792833844666E-03 
881	 3.64058941310714E-03 
882	 3.50154531574702E-03 
883	 3.3271858526279E-03 
884	 3.25778658260439E-03 
885	 3.22478918068118E-03 
886	 3.31020840037701E-03 
887	 3.29637161780769E-03 
888	 3.17978233517862E-03 
889	 3.21142270165687E-03 
890	 3.1330920823171E-03 
891	 3.11731695522262E-03 
892	 3.28483901550215E-03 
893	 3.51110525464873E-03 
894	 3.43791918183067E-03 
895	 3.19885926205861E-03 
896	 3.07993442539988E-03 
897	 3.25754813103943E-03 
898	 3.25201320873228E-03 
899	 2.82446757272198E-03 
900	 2.27349362841458E-03 
901	 3.11774819851747E-03 
902	 3.28273632400124E-03 
903	 3.05300905119135E-03 
904	 3.32805160041538E-03 
905	 3.12009757054606E-03 
906	 2.9310262979076E-03 
907	 2.79787494510418E-03 
908	 2.44195246455486E-03 
909	 2.03761155066067E-03 
910	 2.46280600832881E-03 
911	 3.28028172877706E-03 
912	 3.06596981359704E-03 
913	 3.03625810477449E-03 
914	 3.04155264511049E-03 
915	 2.98998081538123E-03 
916	 2.99954460265632E-03 
917	 2.55544881586751E-03 
918	 2.29202689965811E-03 
919	 2.52788399355571E-03 
920	 2.96472121480153E-03 
921	 3.27081270521706E-03 
922	 2.98780040869575E-03 
923	 2.27104834134297E-03 
924	 2.56802019918792E-03 
925	 2.82618060666005E-03 
926	 2.83206089772946E-03 
927	 2.53970974087795E-03 
928	 1.57078628838659E-03 
929	 1.45652396115523E-03 
930	 1.48381635220631E-03 
931	-7.94296165193751E-06 
932	 6.21623322906461E-04 
933	-1.0888722678732E-03 
934	-3.50651137203453E-03 
935	-1.67492784956831E-03 
936	 5.01729573738256E-03 
937	 5.46230556714933E-03 
938	 2.19281970341897E-03 
939	 9.09049637005478E-04 
940	 2.46012780969993E-03 
941	 3.12174044727614E-03 
942	 1.96653026294301E-03 
943	 3.96140318421733E-04 
944	 3.56333784214616E-03 
945	 7.03770377441333E-03 
946	 6.48350766195829E-03 
947	 1.23503963705496E-03 
948	 4.06760451709823E-03 
949	 2.79687118084976E-03 
950	-6.20083443917419E-04 
951	 2.81883044590395E-03 
952	 3.02550050387947E-03 
953	 2.66032634746582E-03 
954	 2.25071924038014E-03 
955	 8.01035813685747E-04 
956	 1.19906389381766E-03 
957	 8.27143226893606E-04 
958	 4.37012087222785E-04 
959	 2.35075817465499E-03 
960	 1.49417566468832E-03 
961	 9.28703974305378E-04 
962	 1.30098121919304E-03 
963	 1.29192195959671E-03 
964	 2.24334109331578E-03 
965	 3.21866085883762E-03 
966	 3.61656958702034E-03 
967	 3.27759286638396E-03 
968	 2.11958118365332E-03 
969	 1.75612815665857E-03 
970	 1.83911914510515E-03 
971	 6.73947447969705E-04 
972	 7.46527311696275E-04 
973	 1.55253964765116E-03 
974	 2.29263695167729E-03 
975	 2.28683700277666E-03 
976	 1.18271903528201E-03 
977	 7.45878061454694E-04 
978	 1.58392605979635E-03 
979	 2.75389294820885E-03 
980	 1.87640397184187E-03 
981	 9.46299304341105E-04 
982	 9.95316750751741E-04 
983	 1.63211242247681E-03 
984	 1.21533226111729E-03 
985	 1.60486369007585E-03 
986	 2.35013237578277E-03 
987	 1.56793449452646E-03 
988	 2.51460501530256E-03 
989	 3.41488307539796E-03 
990	 2.90589056539304E-03 
991	 1.1097964921739E-03 
992	 2.7330648298991E-03 
993	 3.07422872296849E-03 
994	 1.97728814379459E-03 
995	 2.47610872565317E-03 
996	 2.63112534739094E-03 
997	 2.52281340595995E-03 
998	 2.22571562937541E-03 
999	 1.82378580482508E-03 
1000	 1.78801932163379E-03 
1001	 2.7361294475186E-03 
1002	 2.85049531027438E-03 
1003	 2.91061775203532E-03 
1004	 3.09296071234134E-03 
1005	 3.18181605607237E-03 
1006	 3.33649167625609E-03 
1007	 3.32363338228206E-03 
1008	 3.14572285887924E-03 
1009	 2.70181147518716E-03 
1010	 2.21475178024444E-03 
1011	 2.09947555847773E-03 
1012	 2.39729599606487E-03 
1013	 2.47080974307903E-03 
1014	 2.61312774950784E-03 
1015	 3.15216967563674E-03 
1016	 3.14244241460932E-03 
1017	 2.54667526620541E-03 
1018	 2.54086785787069E-03 
1019	 2.78934244604188E-03 
1020	 2.65176033707709E-03 
1021	 2.57296133607927E-03 
1022	 2.54907870339941E-03 
1023	 1.88904810045313E-03 
1024	 1.36325167051307E-03 
1025	 1.71273069823219E-03 
1026	 2.24220245163211E-03 
1027	 2.40741716881561E-03 
1028	 2.80035331809379E-03 
1029	 2.80460307691704E-03 
1030	 2.18056418869009E-03 
1031	 2.19224352232772E-03 
1032	 2.57860699469601E-03 
1033	 2.65951596235547E-03 
1034	 2.77726790111834E-03 
1035	 2.84768531984382E-03 
1036	 2.69615119967629E-03 
1037	 2.68477603769291E-03 
1038	 2.86352370955137E-03 
1039	 2.8684011289411E-03 
1040	 3.20061524376737E-03 
1041	 3.26442030933842E-03 
1042	 3.09489953991613E-03 
1043	 2.78607446961934E-03 
1044	 2.6526085071081E-03 
1045	 2.14302217489925E-03 
1046	 2.08342827529507E-03 
1047	 2.51087295205692E-03 
1048	 2.61862465853985E-03 
1049	 2.76408417947342E-03 
1050	 2.74660368958836E-03 
1051	 2.45739071970303E-03 
1052	 2.41251228623339E-03 
1053	 2.32811876194792E-03 
1054	 2.36222586748995E-03 
1055	 2.8953056604901E-03 
1056	 2.98241044719014E-03 
1057	 2.89155416543666E-03 
1058	 2.54455458183572E-03 
1059	 2.47896632973582E-03 
1060	 2.14590193085772E-03 
1061	 2.21625696177435E-03 
1062	 2.90304937689118E-03 
1063	 2.93048398824551E-03 
1064	 2.70587626880971E-03 
1065	 2.5798327583646E-03 
1066	 2.05886580326494E-03 
1067	 1.9108265191388E-03 
1068	 1.96654382764921E-03 
1069	 2.11026274595683E-03 
1070	 2.67170390525868E-03 
1071	 2.83052509084677E-03 
1072	 2.83855555021417E-03 
1073	 2.86415829092677E-03 
1074	 2.87394556307964E-03 
1075	 2.56399670393478E-03 
1076	 2.60012364128102E-03 
1077	 3.04921657838644E-03 
1078	 2.97913505029496E-03 
1079	 2.55193968563581E-03 
1080	 2.50719873360163E-03 
1081	 2.47191831230726E-03 
1082	 2.42074277253636E-03 
1083	 2.72779489891296E-03 
1084	 2.72660262137919E-03 
1085	 2.19381561820497E-03 
1086	 2.06746040149807E-03 
1087	 2.23980849265933E-03 
1088	 2.24961650196378E-03 
1089	 2.26210730110099E-03 
1090	 0.002503342872812 
1091	 2.54236809606233E-03 
1092	 2.34517035578847E-03 
1093	 2.24724377991122E-03 
1094	 2.12687699237873E-03 
1095	 2.19328746220982E-03 
1096	 2.36449500495734E-03 
1097	 2.46547444420437E-03 
1098	 2.91071968458174E-03 
1099	 2.89685466915745E-03 
1100	 2.27314703247863E-03 
1101	 2.06728631797407E-03 
1102	 1.82521769593736E-03 
1103	 1.79063182377028E-03 
1104	 2.20594432640746E-03 
1105	 2.43122120141427E-03 
1106	 2.59971919658102E-03 
1107	 2.65831496128293E-03 
1108	 2.42798117272077E-03 
1109	 2.70507819980408E-03 
1110	 2.79280505655529E-03 
1111	 2.87406062083039E-03 
1112	 2.96401846576701E-03 
1113	 3.19991688601703E-03 
1114	 3.18948537621489E-03 
1115	 2.85219316388735E-03 
1116	 2.78825677543909E-03 
1117	 2.4595452593415E-03 
1118	 2.58003738092579E-03 
1119	 4.42423106105303E-03 
1120	 5.09211608577784E-03 
1121	 5.07395315270915E-03 
1122	 3.58527132500321E-03 
1123	 5.0523706647487E-03 
1124	 6.50835151238143E-03 
1125	 6.77881431186703E-03 
1126	 6.43599818615809E-03 
1127	 2.80112045712777E-03 
1128	 6.83886376441513E-04 
1129	-1.13084400848994E-04 
1130	 2.17000207780174E-03 
1131	 1.66678658850973E-03 
1132	-4.76967847960025E-04 
1133	-8.3046723566027E-04 
1134	-3.77394835678482E-04 
1135	-3.05979105452785E-04 
1136	 1.8472889134291E-05 
1137	 4.554134047919E-04 
1138	 6.57978454275464E-04 
1139	 9.03972250429042E-04 
1140	 1.55796246670355E-03 
1141	 1.04912691581138E-03 
1142	 1.42172929289955E-03 
1143	 2.86561561225085E-03 
1144	 1.93509968358402E-03 
1145	 1.64125916283273E-03 
1146	 3.67186266191804E-03 
1147	 1.50455898101116E-03 
1148	-1.02479275252863E-03 
1149	 1.52380153490656E-03 
1150	 1.61176612360021E-03 
1151	-1.11345113166769E-03 
1152	-6.16894056803962E-04 
1153	 2.72525590792556E-03 
1154	 2.18468067080638E-03 
1155	 2.18739080193197E-04 
1156	 2.86955785199632E-04 
1157	 6.59088953133816E-04 
1158	 8.72893790474062E-04 
1159	 2.42668882330364E-03 
1160	 2.97771888075667E-03 
1161	 2.10914546049308E-03 
1162	 1.49020181616186E-03 
1163	 9.67416321249556E-04 
1164	 1.3734224326699E-03 
1165	 2.37564592769788E-03 
1166	 2.46380066441485E-03 
1167	 1.98855254700046E-03 
1168	 2.10012638256609E-03 
1169	 2.40856862342011E-03 
1170	 2.08129905479012E-03 
1171	 1.90573791420457E-03 
1172	 1.99533419780645E-03 
1173	 1.98222981651068E-03 
1174	 1.62185462154685E-03 
1175	 1.61976803562315E-03 
1176	 2.12979472701405E-03 
1177	 2.05860018161552E-03 
1178	 1.7798948324463E-03 
1179	 1.91478914938117E-03 
1180	 1.82094706747156E-03 
1181	 1.74513943774841E-03 
1182	 2.05041375387624E-03 
1183	 1.95043044848478E-03 
1184	 1.72983655521941E-03 
1185	 2.06082109957739E-03 
1186	 2.09432465972617E-03 
1187	 1.8841208223508E-03 
1188	 1.97747583959596E-03 
1189	 1.96770076673631E-03 
1190	 1.7680626984478E-03 
1191	 1.83625365662801E-03 
1192	 1.98763337197382E-03 
1193	 2.36314806717991E-03 
1194	 2.27411434650116E-03 
1195	 2.11328159542863E-03 
1196	 2.12209935827223E-03 
1197	 1.94200905154637E-03 
1198	 1.79506177229986E-03 
1199	 1.81928680821676E-03 
1200	 1.86218643618438E-03 
1201	 1.78852130199671E-03 
1202	 1.84568330679352E-03 
1203	 2.10538369818452E-03 
1204	 2.21467148235743E-03 
1205	 2.17351845697932E-03 
1206	 2.01348115513919E-03 
1207	 1.83949604266166E-03 
1208	 1.74642567416318E-03 
1209	 1.74916148236685E-03 
1210	 1.74041113048138E-03 
1211	 1.78364971771452E-03 
1212	 2.00398449205455E-03 
1213	 1.99620455564149E-03 
1214	 2.00148715753743E-03 
1215	 2.03848582772771E-03 
1216	 2.16119741148484E-03 
1217	 1.93150874707636E-03 
1218	 1.79619416310953E-03 
1219	 1.96093397288518E-03 
1220	 1.89680544484985E-03 
1221	 1.82573457935464E-03 
1222	 2.13983540821505E-03 
1223	 2.18404855312296E-03 
1224	 1.91892485408394E-03 
1225	 1.94785589937056E-03 
1226	 1.81222209612016E-03 
1227	 1.66165646420527E-03 
1228	 1.99713843276704E-03 
1229	 2.20186436710986E-03 
1230	 1.88769262551601E-03 
1231	 1.63793522572164E-03 
1232	 1.85520984567115E-03 
1233	 1.97331435950567E-03 
1234	 1.9738362394762E-03 
1235	 2.00929830321425E-03 
1236	 1.96586922975142E-03 
1237	 1.9365714279043E-03 
1238	 1.78351082586268E-03 
1239	 2.03466252579155E-03 
1240	 2.13463431296917E-03 
1241	 1.92740796367216E-03 
1242	 1.7556344528033E-03 
1243	 1.82659509070415E-03 
1244	 2.01715268864993E-03 
1245	 2.12988993407018E-03 
1246	 2.09587267996469E-03 
1247	 1.88117800506358E-03 
1248	 1.71539873220807E-03 
1249	 1.84178003132551E-03 
1250	 1.98358948209569E-03 
1251	 2.0086249461316E-03 
1252	 2.12374018694547E-03 
1253	 2.29823822059419E-03 
1254	 2.39383023453306E-03 
1255	 2.47423212180985E-03 
1256	 2.48193348422099E-03 
1257	 2.33484492298569E-03 
1258	 2.24292971279771E-03 
1259	 2.0058028177467E-03 
1260	 1.97111424694671E-03 
1261	 2.3058680477935E-03 
1262	 2.28285889623736E-03 
1263	 2.08535553105003E-03 
1264	 1.95910282034659E-03 
1265	 2.17166785472606E-03 
1266	 2.04428833094756E-03 
1267	 1.99815426176623E-03 
1268	 2.37979413739756E-03 
1269	 2.45655542470357E-03 
1270	 2.12867276961685E-03 
1271	 1.9543225557347E-03 
1272	 2.06783339618158E-03 
1273	 2.1438991776025E-03 
1274	 2.07373465788376E-03 
1275	 2.02659596331454E-03 
1276	 2.16393810601913E-03 
1277	 2.28433118752216E-03 
1278	 2.03182472633933E-03 
1279	 1.91023452380542E-03 
1280	 2.05366209178543E-03 
1281	 2.02626972371887E-03 
1282	 1.86565763145438E-03 
1283	 1.90763026692183E-03 
1284	 2.02313915362499E-03 
1285	 1.98174470894386E-03 
1286	 1.92903284524407E-03 
1287	 1.92802658531933E-03 
1288	 1.85826390405778E-03 
1289	 1.85182431024058E-03 
1290	 1.91306950611652E-03 
1291	 2.0595507632472E-03 
1292	 1.90383729613677E-03 
1293	 1.81362376353847E-03 
1294	 2.10566615322187E-03 
1295	 2.23363748619528E-03 
1296	 2.18426671229908E-03 
1297	 2.26785202816232E-03 
1298	 2.23633807645495E-03 
1299	 2.12642729705649E-03 
1300	 2.0858736073274E-03 
1301	 1.95865237811948E-03 
1302	 1.81310572318342E-03 
1303	 1.77334411135793E-03 
1304	 1.83431385817512E-03 
1305	 2.03152076245901E-03 
1306	 2.08645282798265E-03 
1307	 1.86304503077563E-03 
1308	 1.80063356497551E-03 
1309	 1.81436403242493E-03 
1310	 1.90074866956151E-03 
1311	 2.19128041229459E-03 
1312	 2.19321659699954E-03 
1313	 1.91316354053794E-03 
1314	 1.93756803793848E-03 
1315	 2.02829882888765E-03 
1316	 2.03808947353489E-03 
1317	 2.31235094663721E-03 
1318	 2.45390274938012E-03 
1319	 2.22465274132042E-03 
1320	 2.20317282097436E-03 
1321	 2.30321018850426E-03 
1322	 2.58339327494958E-03 
1323	 2.29277309696721E-03 
1324	 2.27909732162795E-03 
1325	 2.64140551638837E-03 
1326	 2.24765787891796E-03 
1327	 2.06473707278046E-03 
1328	 2.28790818198185E-03 
1329	 2.1213624491023E-03 
1330	 2.23385999605277E-03 
1331	 2.44126850547232E-03 
1332	 2.44425853015061E-03 
1333	 2.59579277838004E-03 
1334	 2.78481586239444E-03 
1335	 2.72957829687001E-03 
1336	 2.9329702147047E-03 
1337	 3.08963409636532E-03 
1338	 2.73322888929242E-03 
1339	 2.67866531255801E-03 
1340	 3.34747860391472E-03 
1341	 3.33005763843382E-03 
1342	 2.44474001563867E-03 
1343	 1.97003435291117E-03 
1344	 1.24360728333876E-03 
1345	 1.50768141563005E-03 
1346	 3.96255154640695E-03 
1347	 4.02010920490803E-03 
1348	 2.25235716773428E-03 
1349	 1.5462596987446E-03 
1350	-5.50620662123587E-03 
1351	-1.09341477860954E-02 
1352	-3.64933655023708E-03 
1353	 2.68051909303729E-03 
1354	 1.52597893446227E-02 
1355	 1.97597252772265E-02 
1356	 5.31194749747014E-02 
1357	 9.55957300968681E-02 
1358	 0.035025713231718 
1359	-7.08515394109297E-02 
1360	-5.18421666536622E-02 
1361	-3.51424800164273E-02 
1362	-4.10771350346736E-02 
1363	 2.40250321923088E-03 
1364	 2.83868164404457E-02 
1365	-0.037674525379829 
1366	-0.164457486755073 
1367	-3.57329027146526E-03 
1368	 0.112744160683272 
1369	 0.183385573340599 
1370	 0.221619936042634 
1371	 0.514321307621445 
1372	 0.420539907474302 
1373	-6.63779214596295E-02 
1374	-0.187680546599037 
1375	-0.184790585213091 
1376	-0.153615232106008 
1377	 4.88670461767426E-02 
1378	 0.19272791381756 
1379	 0.413252269225624 
1380	 0.339301268574557 
1381	-5.61924984403199E-02 
1382	-7.46001669510783E-02 
1383	-5.21394577934589E-02 
1384	-1.89513670338709E-02 
1385	 0.4946445382973 
1386	 0.687852750582434 
1387	 0.497760755767142 
1388	 0.3765160510732 
1389	-2.22936457328914E-02 
1390	 5.20458274486954E-04 
1391	 0.26787456646467 
1392	 0.422047015398767 
1393	 0.592864160680405 
1394	 0.578923512902521 
1395	 0.581784839241031 
1396	 0.561442578531714 
1397	 0.508313427651969 
1398	 0.387044417719672 
1399	 4.05736609907705E-02 
1400	-0.317972077520506 
1401	 7.69944995350607E-02 
1402	 0.258296295334437 
1403	 8.76259924680893E-02 
1404	 4.79876608011514E-03 
1405	 7.05691611144155E-02 
1406	 0.240043977711813 
1407	 0.161567263715224 
1408	 0.153277755791772 
1409	 0.182223021773763 
1410	 8.01992929083668E-02 
1411	 6.52378473806421E-02 
1412	 0.215891029382449 
1413	 0.207006334485219 
1414	 5.17866787998159E-02 
1415	 1.56805267990134E-02 
1416	 1.45981316128459E-02 
1417	 2.08059059091531E-02 
1418	 6.14456055592096E-02 
1419	 5.27985502236685E-02 
1420	 2.86559421016572E-02 
1421	 2.44371973766654E-02 
1422	 0.02372287884888 
1423	 8.29980166048885E-03 
1424	-1.44133974659605E-02 
1425	-1.25076705700439E-02 
1426	-1.30683147682273E-02 
1427	-9.77689658361262E-03 
1428	 1.61836128576131E-02 
1429	 2.08881928646475E-02 
1430	 7.16616950630256E-03 
1431	 7.48170376822182E-03 
1432	 1.37603962326168E-02 
1433	 0.011344044517307 
1434	 4.87011469597922E-03 
1435	 8.9874509117839E-03 
1436	 1.80748385356704E-02 
1437	 2.12496761575988E-02 
1438	 1.37048133900272E-02 
1439	 5.30642570118875E-03 
1440	-3.07907291873866E-03 
1441	-7.05814861923183E-03 
1442	-3.37768500461461E-03 
1443	-2.21393909833012E-03 
1444	 5.83575189471621E-04 
1445	 4.71840153561872E-03 
1446	 1.21185806701333E-03 
1447	-5.91851066656143E-04 
1448	 3.12437094870681E-03 
1449	 0.001858002078814 
1450	 2.72887429789033E-04 
1451	 3.17976637377105E-03 
1452	 4.29330709572022E-03 
1453	 2.03017007957484E-03 
1454	 1.17077423910476E-03 
1455	 2.22741068586748E-03 
1456	 3.59967012236386E-03 
1457	 4.07007653491386E-03 
1458	 3.17112525927065E-03 
1459	 3.43048752502093E-03 
1460	 3.33215652430227E-03 
1461	 8.61912786773973E-04 
1462	-1.36554327181806E-04 
1463	 5.62864929448599E-04 
1464	 6.00628256093189E-04 
1465	-5.864664628088E-04 
1466	-5.47999256140701E-04 
1467	 1.77412307051735E-03 
1468	 1.46414390560643E-03 
1469	-2.08847155221509E-03 
1470	-7.30776587645469E-04 
1471	 4.27745727412323E-03 
1472	 3.98513827204702E-03 
1473	 2.69209362926671E-03 
1474	 3.62951646018981E-03 
1475	 3.03760848355114E-03 
1476	 1.46010781647916E-03 
1477	 1.19789448559128E-03 
1478	 1.68453821995188E-03 
1479	 7.75382508901129E-04 
1480	-3.63384602571496E-04 
1481	-1.43377242609086E-04 
1482	 5.73107998138285E-04 
1483	-2.09749865037063E-04 
1484	-2.58766259698784E-04 
1485	 1.86791385812845E-03 
1486	 2.3195608326547E-03 
1487	 1.30418044687388E-03 
1488	 1.17454269846596E-03 
1489	 1.45229840357559E-03 
1490	 1.37881870870838E-03 
1491	 1.07554888359457E-03 
1492	 1.07158588960826E-03 
1493	 1.31034786421494E-03 
1494	 0.001263245007277 
1495	 1.07095207856383E-03 
1496	 1.10511050762212E-03 
1497	 1.13158919555847E-03 
1498	 1.11489266387692E-03 
1499	 1.2190672778933E-03 
1500	 1.21459855970485E-03 
1501	 1.03035940171375E-03 
1502	 1.06265854960902E-03 
1503	 1.32874624335483E-03 
1504	 1.36574846527713E-03 
1505	 1.47319436917621E-03 
1506	 1.26857883607201E-03 
1507	 9.77623046531561E-04 
1508	 1.00764196106942E-03 
1509	 1.45746433381495E-03 
1510	 1.77403767250341E-03 
1511	 1.6270981668618E-03 
1512	 1.41149469311527E-03 
1513	 1.10365752966804E-03 
1514	 8.82065796578264E-04 
1515	 1.13438374536358E-03 
1516	 1.53140594222599E-03 
1517	 1.55414229900161E-03 
1518	 1.42386632614364E-03 
1519	 1.39548991600917E-03 
1520	 1.17686222854866E-03 
1521	 9.5012243741904E-04 
1522	 1.10017938607788E-03 
1523	 1.46999788007429E-03 
1524	 1.65085800330282E-03 
1525	 1.74067942160518E-03 
1526	 1.78806390434938E-03 
1527	 1.44287774788533E-03 
1528	 1.13825053446405E-03 
1529	 1.25340122861123E-03 
1530	 1.30916197129147E-03 
1531	 1.30830450051013E-03 
1532	 1.45099187400522E-03 
1533	 1.50507286438038E-03 
1534	 1.55474525559393E-03 
1535	 1.60654266859337E-03 
1536	 1.52900630637603E-03 
1537	 1.4920843012355E-03 
1538	 1.42882856405228E-03 
1539	 1.35453584049891E-03 
1540	 1.36557700854343E-03 
1541	 1.20000882471382E-03 
1542	 1.21723539422703E-03 
1543	 1.57013276352811E-03 
1544	 1.53716535205272E-03 
1545	 1.31484780550718E-03 
1546	 1.48135454415236E-03 
1547	 1.6216245971545E-03 
1548	 1.41712216768403E-03 
1549	 1.42394433659913E-03 
1550	 1.60384630480819E-03 
1551	 1.46452241420378E-03 
1552	 1.44852998838468E-03 
1553	 1.72037975451804E-03 
1554	 1.74364771676232E-03 
1555	 1.54775331433244E-03 
1556	 1.6054753359029E-03 
1557	 1.61006715093774E-03 
1558	 1.19169996374652E-03 
1559	 1.11067208908933E-03 
1560	 1.45564116118282E-03 
1561	 1.4960522029314E-03 
1562	 1.46246693874572E-03 
1563	 1.70067798049288E-03 
1564	 1.79490488043616E-03 
1565	 1.72665013545661E-03 
1566	 1.80934359452481E-03 
1567	 1.63958148364207E-03 
1568	 1.21671494417742E-03 
1569	 1.09987519156676E-03 
1570	 1.27317327615156E-03 
1571	 1.48477035162878E-03 
1572	 1.60427018481138E-03 
1573	 1.64101408740725E-03 
1574	 1.74669862981522E-03 
1575	 1.75537128031969E-03 
1576	 1.42964374009607E-03 
1577	 1.31126767225781E-03 
1578	 1.52145282317256E-03 
1579	 1.74583523057611E-03 
1580	 1.79089530130495E-03 
1581	 1.49264959352724E-03 
1582	 1.3409918984152E-03 
1583	 1.37485154347547E-03 
1584	 1.51195143674237E-03 
1585	 1.78418651803426E-03 
1586	 1.7628144491485E-03 
1587	 1.65896244652095E-03 
1588	 1.70012825283233E-03 
1589	 1.58271353466036E-03 
1590	 1.46237172721861E-03 
1591	 1.42224001284525E-03 
1592	 1.30076206584343E-03 
1593	 1.42977166187266E-03 
1594	 1.70927944475219E-03 
1595	 1.64758955151298E-03 
1596	 1.46695995950838E-03 
1597	 0.001302017224313 
1598	 1.11952014715558E-03 
1599	 1.21938269872841E-03 
1600	 1.40188046544655E-03 
1601	 1.38540470174952E-03 
1602	 1.4624632583366E-03 
1603	 1.70044473301818E-03 
1604	 1.77870911654705E-03 
1605	 1.69027776041601E-03 
1606	 1.66739167599822E-03 
1607	 1.52959178115887E-03 
1608	 1.22610782535649E-03 
1609	 1.16446658500119E-03 
1610	 1.30467386020236E-03 
1611	 1.33392136099051E-03 
1612	 1.34122541836942E-03 
1613	 1.40825671257056E-03 
1614	 1.27181713268874E-03 
1615	 1.14430323818882E-03 
1616	 1.32826642105378E-03 
1617	 1.44294357603572E-03 
1618	 1.27209864871143E-03 
1619	 9.92319930466149E-04 
1620	 1.08631542887397E-03 
1621	 1.50717032842287E-03 
1622	 1.57301773626031E-03 
1623	 1.45559647602493E-03 
1624	 1.33612837805228E-03 
1625	 9.58392179248734E-04 
1626	 1.02174345162676E-03 
1627	 1.65598329371085E-03 
1628	 1.78933545250403E-03 
1629	 1.48784386796144E-03 
1630	 1.41417497224663E-03 
1631	 1.49566176064349E-03 
1632	 1.41444090303724E-03 
1633	 1.28817880363501E-03 
1634	 1.4007924152744E-03 
1635	 1.39157891613448E-03 
1636	 1.25279267126941E-03 
1637	 1.43266703813574E-03 
1638	 1.53154813871095E-03 
1639	 1.4014625660678E-03 
1640	 1.58164113780571E-03 
1641	 1.78401868841099E-03 
1642	 1.63922662308454E-03 
1643	 1.54022721490416E-03 
1644	 1.49655053685802E-03 
1645	 1.39236361651343E-03 
1646	 1.47078218155822E-03 
1647	 1.66543814607747E-03 
1648	 1.66724111373594E-03 
1649	 1.41406260206007E-03 
1650	 1.57571999466914E-03 
1651	 2.05569729450162E-03 
1652	 1.84710029641044E-03 
1653	 1.6716771981383E-03 
1654	 1.55798537695842E-03 
1655	 9.56142847296251E-04 
1656	 8.58725332678576E-04 
1657	 1.30763995030499E-03 
1658	 1.2397472469166E-03 
1659	 9.20585044960496E-04 
1660	 9.96990651096046E-04 
1661	 1.08356954426689E-03 
1662	 1.0389631070289E-03 
1663	 1.26631795168372E-03 
1664	 1.40252876815085E-03 
1665	 1.24335913578856E-03 
1666	 1.27583755325216E-03 
1667	 1.57241936379483E-03 
1668	 1.47692714929475E-03 
1669	 1.53778953838535E-03 
1670	 2.04524876751189E-03 
1671	 1.99744342612004E-03 
1672	 1.40444890450338E-03 
1673	 1.30594188441161E-03 
1674	 1.3426748221793E-03 
1675	 1.32796678851694E-03 
1676	 1.74960743100752E-03 
1677	 1.78241002999456E-03 
1678	 1.22547600031898E-03 
1679	 9.39620751980892E-04 
1680	 1.1289451973015E-03 
1681	 1.39148807138073E-03 
1682	 1.25605917265708E-03 
1683	 1.20911167482149E-03 
1684	 1.58025650809665E-03 
1685	 1.71613412491333E-03 
1686	 1.7417992076932E-03 
1687	 1.81393074625857E-03 
1688	 1.41438529467881E-03 
1689	 1.26672706279987E-03 
1690	 1.91873478799191E-03 
1691	 2.12349083187184E-03 
1692	 1.64880514735812E-03 
1693	 1.46469186483008E-03 
1694	 1.31105248606132E-03 
1695	 1.22753613882741E-03 
1696	 1.73491801960524E-03 
1697	 1.92625837274738E-03 
1698	 1.43900370634653E-03 
1699	 1.13103880949509E-03 
1700	 1.2836743042774E-03 
1701	 1.59916690637089E-03 
1702	 1.58213673719655E-03 
1703	 1.29714761332839E-03 
1704	 1.21739562835724E-03 
1705	 1.21722588861711E-03 
1706	 1.17190112907514E-03 
1707	 1.40641559242573E-03 
1708	 1.82431685239037E-03 
1709	 0.00149567474013 
1710	 1.04805769875177E-03 
1711	 1.58269303232681E-03 
1712	 1.43225678556219E-03 
1713	 6.50587594742386E-04 
1714	 8.35728105886954E-04 
1715	 1.21911749162589E-03 
1716	 1.23838268284128E-03 
1717	 1.71810553303849E-03 
1718	 1.81315983868144E-03 
1719	 1.2671012431589E-03 
1720	 1.06405390191529E-03 
1721	 9.19549955587632E-04 
1722	 7.33215042959138E-04 
1723	 1.24357394406069E-03 
1724	 1.51528244014444E-03 
1725	 1.42159521449254E-03 
1726	 1.60951439551412E-03 
1727	 1.40715871895115E-03 
1728	 1.19678383822156E-03 
1729	 1.50554949917171E-03 
1730	 1.57522098233876E-03 
1731	 1.59910630178648E-03 
1732	 1.70770713613512E-03 
1733	 1.71452557906113E-03 
1734	 1.50461959360936E-03 
1735	 5.80568119615102E-04 
1736	 4.63638195883991E-04 
1737	 9.19718016378577E-04 
1738	 7.74169056012457E-04 
1739	 1.55090208063721E-03 
1740	 1.78932892501749E-03 
1741	 7.17868571573016E-04 
1742	 8.87531538447248E-04 
1743	 1.32398636572318E-03 
1744	 1.0829407447414E-03 
1745	 1.82701117756912E-03 
1746	 1.42382482661362E-03 
1747	 1.05653100082085E-03 
1748	 8.34158814184459E-04 
1749	 1.0191187501446E-03 
1750	 1.73160586484768E-03 
1751	 1.83325814487885E-03 
1752	 1.93979701315211E-03 
1753	 1.5933030395064E-03 
1754	 8.22595526347495E-05 
1755	 6.16560050176302E-05 
1756	 1.12728815086224E-03 
1757	 1.33512552422874E-03 
1758	 1.1197913196197E-03 
1759	 5.48487253611413E-04 
1760	 3.926080156866E-04 
1761	 9.88432958286013E-04 
1762	 1.79248501266905E-03 
1763	 1.63630132342785E-03 
1764	 1.1201761045364E-03 
1765	 1.57894256568104E-03 
1766	 1.57680302066867E-03 
1767	 1.46258069459383E-03 
1768	 2.36281237552643E-03 
1769	 2.51837850323733E-03 
1770	 1.89241752452973E-03 
1771	 1.31646651236369E-03 
1772	 4.70783257561193E-04 
1773	-2.56864831152289E-04 
1774	-1.12305417556229E-04 
1775	 1.31671905690079E-03 
1776	 1.43029819524261E-03 
1777	 1.12361710715165E-04 
1778	-8.98232001087685E-05 
1779	-4.46932307519329E-04 
1780	-6.14294038733466E-04 
1781	 2.99912700281945E-04 
1782	 1.37290278646142E-03 
1783	 3.54462168257148E-03 
1784	 3.12420991899853E-03 
1785	 9.13668440479736E-04 
1786	 5.3477553308128E-04 
1787	-1.67200967957733E-03 
1788	-2.47757473180718E-03 
1789	-1.82137146152613E-04 
1790	 2.41305805743451E-03 
1791	 3.75211095333745E-03 
1792	 4.04952812149677E-03 
1793	 2.85330279367929E-03 
1794	-1.80410910574523E-03 
1795	-6.26051315507136E-03 
1796	-5.22021688238722E-03 
1797	 9.25550031768979E-04 
1798	 1.09955362087148E-02 
1799	 1.04136401080327E-02 
1800	-1.65987497447833E-03 
1801	-4.63576606312963E-03 
1802	-1.37526762563865E-02 
1803	-1.51790262982788E-02 
1804	 2.22809841664564E-02 
1805	 2.79099572591946E-02 
1806	-1.19573770949557E-02 
1807	-2.17326610869791E-02 
1808	-4.73660019538792E-02 
1809	-5.04283298780634E-02 
1810	 6.43743511802922E-02 
1811	 0.135714415353002 
1812	 0.173060430106836 
1813	 0.130004825380427 
1814	-0.172793104916654 
1815	-0.118313722623203 
1816	 0.128660519365617 
1817	 0.181341457453049 
1818	 0.513290031883108 
1819	 0.398590148704211 
1820	 0.035324010370015 
1821	 0.22302651970163 
1822	 0.310017416964026 
1823	 0.232614135766949 
1824	 0.247854972356664 
1825	 0.488701799416291 
1826	 0.513739768409581 
1827	 0.470108477815318 
1828	-0.319672367714767 
1829	-0.586003306924692 
1830	-0.501137575244688 
1831	 0.737738398737817 
1832	 1.22513899642053 
1833	-0.557449824383927 
1834	 6.25852498395629 
1835	 0.10313406151942 
1836	 0.416497851102631 
1837	 0.910898487320708 
1838	 1.08477055103234 
1839	 3.61977623798944 
1840	-8.54988650349584 
1841	-1.65429152914238 
1842	-0.66434504821566 
1843	-0.557898588773704 
1844	-1.22635863303193 
1845	-1.74923199332606 
1846	-3689.38025146123 
1847	 5.34221634239259 
1848	-7.24825695708107 
1849	-2.34267961510389 
1850	 0.563328058574894 
1851	 0.61216028198652 
1852	-0.176713852628893 
1853	 0.12693168947723 
1854	 0.139619394543386 
1855	-0.704904165085406 
1856	-1.48885824685218 
1857	 8.84535567173867E-02 
1858	-1.45385522953222 
1859	-13.6621192922572 
1860	-4.52459343949648 
1861	-2.576277808908 
1862	 0.680077657258531 
1863	 0.572480870846838 
1864	 6.15771301640517E-02 
1865	-8.68289662700976E-03 
1866	-0.908702013247375 
1867	-1.16449858721774 
1868	-0.236377411978156 
1869	 1.74299973143603E-02 
1870	 0.368872086842241 
1871	-2.13247722364628 
1872	-2.1118514143247 
1873	-2.12980364888904 
1874	-5.98472662360212 
1875	 1.61636638872234 
1876	 1.59135982212167 
1877	-0.537736991580373 
1878	 0.146815473757691 
1879	 0.072292673570461 
1880	 0.175298623171703 
1881	 0.522396124888869 
1882	-0.738245295289943 
1883	-2.64860557124497 
1884	-2.94618613829893 
1885	-4.39376755453187 
1886	-20.6892805745263 
1887	 1.34400157572155 
1888	 0.451791636860172 
1889	 0.665765634074019 
1890	 1.08781850804303 
1891	 1.2732954046666 
1892	-14.8860542222706 
1893	-1.89945118038506 
1894	-1.1313995229386 
1895	 1.86150326157065 
1896	-1.33057258954942 
1897	-0.508951207014541 
1898	-0.245912079929539 
1899	-2.67947302962941 
1900	-1.64535617026794 
1901	-3.40134786782372 
1902	-13.1516380867993 
1903	 1.46968549557882 
1904	 0.393869208215991 
1905	-0.511394732257558 
1906	-0.969942654125538 
1907	-87.1708069879038 
1908	 0.301265148406957 
1909	-2.69401059771061 
1910	-25.5648111773855 
1911	 1.7599734567276 
1912	 0.605447375359951 
1913	 6.18318244977875E-02 
1914	-0.521014067280457 
1915	-0.63902211269068 
1916	-1.17103171111172 
1917	-1.54100992115755 
1918	-0.456353670920362 
1919	 3.15531339505704 
1920	 15.3539619057152 
1921	 1.22285884014804 
1922	 0.58365833350223 
1923	 0.32552480776728 
1924	 0.069357308718351 
1925	-3.31186363861977E-02 
1926	 4.16342583977023E-02 
1927	 0.816983668112907 
1928	 1.30133273196517 
1929	-0.829721238766415 
1930	-0.986013409418902 
1931	-0.252233253704419 
1932	-0.336137469868968 
1933	-0.883860758415052 
1934	-0.568611375301074 
1935	-0.351125510859263 
1936	-0.217826335215903 
1937	-1.58873120294976E-02 
1938	-0.191361677862865 
1939	-0.225884764750219 
1940	-0.287480114873269 
1941	-0.235460776760198 
1942	-0.27886925925548 
1943	-0.280218472560227 
1944	-0.264368953634571 
1945	-0.285136819625427 
1946	-0.259719645971258 
1947	-0.154405334764274 
1948	-0.067271376188848 
1949	-4.25907435664004E-02 
1950	-0.010018625950616 
1951	-9.46119357292261E-04 
1952	-4.3101236310505E-03 
1953	-0.035797273841448 
1954	-0.023479483227367 
1955	-2.36020963493386E-02 
1956	-3.13222582367362E-02 
1957	-1.33702691687497E-02 
1958	-1.15119264938164E-02 
1959	-1.79843748122118E-02 
1960	-1.28901962339377E-02 
1961	-9.9984608639376E-03 
1962	-1.32836068397538E-02 
1963	-8.61422535432273E-03 
1964	-2.53906411080267E-04 
1965	-6.20768157421501E-04 
1966	-1.35450448530191E-03 
1967	-2.7251348356433E-03 
1968	-1.59625731897861E-03 
1969	-1.10186521896954E-04 
1970	 5.19046952282121E-04 
1971	-4.49325859466082E-04 
1972	-1.63930782199959E-03 
1973	-3.95319302293635E-03 
1974	-5.15885997104203E-03 
1975	-3.93017553935626E-03 
1976	-2.19372057338813E-03 
1977	-1.15151772067991E-03 
1978	-1.41120941137548E-03 
1979	-1.17451524738491E-03 
1980	-3.98488494027485E-04 
1981	 1.17325326601831E-04 
1982	 1.67445808650148E-04 
1983	 1.22878519972125E-03 
1984	 1.60430102152764E-03 
1985	 1.74542427575109E-03 
1986	 8.97578232476544E-04 
1987	-1.42054738189433E-03 
1988	-2.48145261588353E-03 
1989	-3.20943667220899E-03 
1990	-3.43924167218559E-03 
1991	-1.84792840895753E-03 
1992	-1.21998006455383E-03 
1993	-1.2060942359556E-03 
1994	-1.06695898146923E-03 
1995	-9.23367526446628E-04 
1996	-2.48972944110877E-03 
1997	-3.18935865593615E-03 
1998	-1.61104683289451E-03 
1999	-1.17084150310087E-03 
2000	 1.08078352597493E-04 
2001	 1.25515592043291E-03 
2002	-3.52160386278357E-03 
2003	-4.26634068601615E-03 
2004	-2.77879478575457E-03 
2005	-6.09677039954424E-03 
2006	-5.79994908052339E-03 
2007	-3.8287900047799E-03 
2008	-2.10258137766231E-03 
2009	-1.5693936825559E-03 
2010	 1.48573928299557E-03 
2011	 3.41029600948837E-03 
2012	 3.37529104105451E-03 
2013	 2.37803988261632E-03 
2014	 2.90235463393528E-03 
2015	 2.49245407094208E-03 
2016	 1.2388427366678E-03 
2017	-1.74071668195141E-03 
2018	-1.91141433688906E-03 
2019	-2.68328585700915E-05 
2020	 3.9567365092827E-04 
2021	 1.89100389524981E-03 
2022	 3.1159437209239E-03 
2023	 2.62526845778727E-03 
2024	 2.44103943153972E-03 
2025	 2.50556948188745E-03 
2026	 2.36434723199003E-03 
2027	 1.61731604963047E-03 
2028	 1.56120678683257E-03 
2029	 1.91128871748785E-03 
2030	 1.33631634386596E-03 
2031	 1.38341189098538E-03 
2032	 1.88179987838879E-03 
2033	 1.47559826717865E-03 
2034	 8.04826482197482E-04 
2035	 4.9812826115728E-04 
2036	 3.9247213011341E-05 
2037	 4.38018751649965E-05 
2038	 1.15642264891123E-03 
2039	 1.2155480550626E-03 
2040	 3.26412338346706E-04 
2041	-7.08837635297153E-05 
2042	-9.70456189473884E-04 
2043	-1.15463335314179E-03 
2044	-8.97608505941167E-04 
2045	 1.65351722971456E-04 
2046	 4.86163136059586E-04 
2047	 3.60312954273316E-04 
2048	-4.90904430629764E-04 
2049	-2.90143565385371E-04 
2050	 7.40677451920696E-04 
2051	 4.94546317789736E-04 
2052	 1.12386430265904E-03 
2053	 9.17523435249535E-04 
2054	 1.07025739258374E-04 
2055	 8.7540023981228E-04 
2056	 9.4323316718616E-04 
2057	 9.62352242123954E-04 
2058	 1.16734702229661E-03 
2059	 6.72281151466793E-04 
2060	 7.73608718123458E-04 
2061	 1.79429184618967E-03 
2062	 2.16015296366666E-03 
2063	 1.4366406759771E-03 
2064	 1.64935976019846E-03 
2065	 5.74293250559803E-04 
2066	-1.29323053496536E-03 
2067	-1.41387490205053E-03 
2068	-9.76580444244765E-04 
2069	-6.35119180689914E-04 
2070	-1.56867968947167E-04 
2071	-2.13032718242176E-04 
2072	-2.48657398555885E-04 
2073	-8.08020886405019E-05 
2074	 3.01732028089713E-04 
2075	 7.53096154602353E-04 
2076	 1.57350954331225E-03 
2077	 1.86202144419955E-03 
2078	 2.2375791064437E-03 
2079	 2.10393982461086E-03 
2080	 1.36171715064814E-03 
2081	 6.61144782028542E-04 
2082	 3.87488922523147E-04 
2083	 1.18771514717731E-03 
2084	 2.81959829116147E-03 
2085	 3.01911648953507E-03 
2086	 2.29445867387404E-03 
2087	 1.87547746712944E-03 
2088	 1.02208129369498E-03 
2089	 5.92717446059717E-04 
2090	 1.07034276192488E-03 
2091	 9.87726762440741E-04 
2092	 7.4315214955908E-04 
2093	 3.26392440293223E-04 
2094	-1.39938397313024E-04 
2095	-1.15122930870298E-03 
2096	-1.36682812442389E-03 
2097	-1.37762941917788E-03 
2098	-9.52832627217391E-04 
2099	 2.94002192038552E-04 
2100	 1.03549235854504E-03 
2101	 1.41554318129311E-03 
2102	 1.43523959941872E-03 
2103	 1.0209053538532E-03 
2104	 5.97815796493052E-04 
2105	-7.89715854843372E-05 
2106	-3.58874633898597E-04 
2107	 5.40147506978519E-04 
2108	 1.17616099060914E-03 
2109	 1.51842738924162E-03 
2110	 1.95711007479407E-03 
2111	 1.67160098624368E-03 
2112	 6.05138137924303E-04 
2113	 1.1314432585758E-04 
2114	 2.10243663926404E-04 
2115	 2.77229163968666E-04 
2116	 3.8228020109908E-04 
2117	 3.49617435942943E-04 
2118	 2.23119314377473E-04 
2119	 2.60590058368677E-04 
2120	 7.80109973277429E-06 
2121	 4.67593742738306E-04 
2122	 9.76137662986161E-04 
2123	 4.5403162068771E-04 
2124	 8.62111128110905E-04 
2125	 1.21016498682286E-03 
2126	 6.83452003654936E-04 
2127	 1.61891750610083E-03 
2128	 1.16299160793939E-03 
2129	-7.61758459066562E-04 
2130	-8.29692129548475E-04 
2131	-2.38334786651149E-04 
2132	 5.17055669904703E-05 
2133	 4.95690634223132E-04 
2134	 9.08284973301069E-04 
2135	 1.1853182427379E-03 
2136	 9.73629004419228E-04 
2137	 8.88911717914578E-04 
2138	 6.07749029524788E-04 
2139	-8.66220225636535E-04 
2140	-1.25383269792958E-03 
2141	-8.19402324407829E-04 
2142	-8.35361937236323E-04 
2143	-6.21898427082804E-04 
2144	-5.49044542680216E-04 
2145	-9.42392587058129E-04 
2146	-1.22247186869548E-03 
2147	-0.000864265080319 
2148	-7.48454760986785E-04 
2149	-2.46250359016141E-04 
2150	 4.22690930635495E-04 
2151	 1.09566971660546E-04 
2152	 6.46071112694736E-04 
2153	 1.91637437997551E-03 
2154	 1.97702621155552E-03 
2155	 1.39376179309277E-03 
2156	 7.54176682093891E-04 
2157	 4.71600548081423E-04 
2158	-4.14129158285098E-04 
2159	-5.17281305840016E-04 
2160	 1.50185521727315E-04 
2161	 9.27121396080375E-04 
2162	 1.91438446749157E-03 
2163	 2.03631470794341E-03 
2164	 2.76641519196316E-03 
2165	 2.84604868180481E-03 
2166	 1.33573558236592E-03 
2167	 8.98496198725851E-04 
2168	 1.02459827291319E-03 
2169	 6.09660123773886E-04 
2170	-3.42715370465238E-04 
2171	 2.31393904516167E-04 
2172	-1.70436255818923E-04 
2173	-9.45629209278848E-04 
2174	-5.20778395243256E-04 
2175	-6.47487981216446E-04 
2176	-2.71251011029273E-04 
2177	 1.35365239786861E-03 
2178	 2.32376449834672E-03 
2179	 1.59722100330022E-03 
2180	 9.10895417864979E-04 
2181	 1.15009960748417E-03 
2182	 1.89935248424463E-04 
2183	-7.2888201101441E-04 
2184	-3.27886042469539E-04 
2185	-9.89812930126706E-04 
2186	-1.44531125431274E-03 
2187	-1.20689299403393E-03 
2188	-1.04927815611143E-03 
2189	-1.76924257563551E-03 
2190	-1.61963428409632E-03 
2191	-3.30735899695106E-04 
2192	 2.06546860997205E-04 
2193	 9.6815288608738E-04 
2194	 1.15109696227293E-03 
2195	 6.31797206686116E-04 
2196	 1.35972742441141E-04 
2197	-1.4584854096786E-03 
2198	-1.79148146103677E-03 
2199	-1.38471049934109E-03 
2200	-8.938341795601E-04 
2201	-5.06706135545712E-04 
2202	 1.58887528701401E-04 
2203	 3.2404899313234E-04 
2204	 7.41170563092073E-04 
2205	 7.4635728705631E-04 
2206	 1.16123466115561E-03 
2207	 1.96385876783056E-03 
2208	 8.26723366348572E-04 
2209	 1.03775466806145E-04 
2210	 8.63111801153605E-04 
2211	 2.16801077260959E-04 
2212	-5.75762789965123E-04 
2213	-2.38266946845811E-04 
2214	-2.74145938093199E-04 
2215	-2.82659551279271E-04 
2216	 1.20684166695393E-04 
2217	 1.68865535683492E-04 
2218	 1.40895859717514E-04 
2219	 6.57799706311237E-05 
2220	-9.69056412511858E-04 
2221	-3.48669105353166E-04 
2222	 2.44184944063853E-03 
2223	 1.66144270797886E-03 
2224	-5.71469849660382E-04 
2225	-8.53434727780554E-04 
2226	-3.49678358407722E-03 
2227	-3.77066645035906E-03 
2228	-3.56728270704762E-05 
2229	 1.26524121646844E-03 
2230	 2.60326157418361E-03 
2231	 2.42453448984951E-03 
2232	-6.59043471336938E-04 
2233	-1.51481070825651E-03 
2234	-2.45297259384558E-03 
2235	-2.68987630091334E-03 
2236	-1.93361652844518E-03 
2237	-7.52699024152489E-04 
2238	-3.54477089742701E-04 
2239	-3.60980574571824E-04 
2240	-6.09541740651075E-04 
2241	 4.94968381906527E-04 
2242	 1.4608418786114E-03 
2243	 8.08605499225561E-04 
2244	 7.41302440880819E-04 
2245	 7.09145377795498E-04 
2246	 4.272083712422E-04 
2247	 6.54980208035789E-04 
2248	 1.25352642664888E-03 
2249	 7.29923055167804E-04 
2250	 4.74175066717447E-05 
2251	-4.07124771418396E-04 
2252	-2.12337486154592E-03 
2253	-2.42501854346427E-03 
2254	-1.95650448794919E-03 
2255	-2.05532564423592E-03 
2256	-9.46432618814078E-04 
2257	-2.77536334363631E-04 
2258	-0.001568018139598 
2259	-2.19636334631279E-03 
2260	-3.12930665359212E-03 
2261	-5.45539563326697E-03 
2262	-6.00717390461292E-03 
2263	-6.3473062309958E-03 
2264	-5.29419122112087E-03 
2265	-1.35993190976847E-03 
2266	-5.30628639997476E-05 
2267	 1.15798203772094E-03 
2268	 2.37962421605842E-03 
2269	 1.76988048532268E-03 
2270	 1.94774375766889E-03 
2271	 4.02683161872323E-03 
2272	 3.50479290230796E-03 
2273	-8.36357605707218E-04 
2274	-1.54791399173174E-03 
2275	-1.69108068059327E-04 
2276	-1.74561217778647E-04 
2277	 2.00609481599506E-03 
2278	 2.86339083512492E-03 
2279	 1.32341917559811E-03 
2280	-9.85781384305858E-04 
2281	-4.34088477278384E-03 
2282	-6.49174820840639E-03 
2283	-7.91791839191011E-03 
2284	-7.65927029274239E-03 
2285	-4.63796436631345E-03 
2286	-3.40138022108902E-03 
2287	-2.88357528540063E-03 
2288	-1.34308680185842E-03 
2289	-2.3826606123569E-03 
2290	-4.36707488688323E-03 
2291	-7.18473471136434E-03 
2292	-8.58317623257923E-03 
2293	-6.35960728343975E-03 
2294	-5.29886625214604E-03 
2295	-4.87912943750303E-03 
2296	-4.38527825905932E-03 
2297	-6.26391379170021E-03 
2298	-6.07913728094663E-03 
2299	-3.95819165324882E-03 
2300	-2.7442127116813E-03 
2301	-2.68239793215728E-03 
2302	-3.27596251701807E-03 
2303	-1.38794797397473E-03 
2304	-8.20324360989459E-04 
2305	 1.51095617922465E-04 
2306	 4.00225921628636E-03 
2307	 3.51355378751724E-03 
2308	 1.13797706031826E-04 
2309	-3.19175506575186E-03 
2310	-6.47922700952603E-03 
2311	-9.37859329361174E-03 
2312	-8.80124923699743E-03 
2313	-6.03528500935388E-03 
2314	-7.28880042870324E-03 
2315	-5.27893201174485E-03 
2316	-1.3693313791507E-03 
2317	-5.81205451633982E-03 
2318	-9.1189302758994E-03 
2319	-6.76427586173953E-03 
2320	-8.3613902199759E-03 
2321	-6.58105783778501E-03 
2322	 9.26488256587722E-05 
2323	 3.15545694088814E-03 
2324	 6.25926166493878E-03 
2325	 4.42438390469278E-03 
2326	-2.58613366266724E-03 
2327	-7.09964336854024E-03 
2328	-1.03641087422834E-02 
2329	-9.22684177730431E-03 
2330	-3.6742448817921E-03 
2331	 1.21339913740354E-03 
2332	 4.28126717610636E-03 
2333	 3.61031255852378E-03 
2334	 8.3841376477772E-04 
2335	-3.36949602704834E-03 
2336	-6.18063957962821E-03 
2337	-2.92700745283131E-03 
2338	 1.83191120604963E-03 
2339	 3.6326478422282E-03 
2340	 8.48532159356133E-04 
2341	-6.71185046597477E-03 
2342	-1.45586668250715E-02 
2343	-1.91840539097832E-02 
2344	-2.18005151685417E-02 
2345	-1.90163207974673E-02 
2346	-1.60197998880621E-02 
2347	-1.93705819013237E-02 
2348	-2.61112308538408E-02 
2349	-3.83529281706942E-02 
2350	-4.16449214563932E-02 
2351	-2.71566698705606E-02 
2352	-1.21125164967352E-02 
2353	-1.24629036418734E-02 
2354	-0.022976438534051 
2355	-2.42832962168511E-02 
2356	-2.35246179401217E-02 
2357	-2.67294700691958E-02 
2358	-2.60536808636865E-02 
2359	-2.31991073473362E-02 
2360	-1.55488221766684E-02 
2361	-1.54151712249412E-03 
2362	 8.2052193285444E-03 
2363	 4.46084993772768E-03 
2364	-1.42442642632358E-02 
2365	-2.78730244062221E-02 
2366	-1.52572863360222E-02 
2367	-6.2382583947279E-03 
2368	-6.90058772112204E-03 
2369	-5.4932717304304E-03 
2370	-1.99051536577065E-02 
2371	-3.23720163535468E-02 
2372	-2.55901779651335E-02 
2373	-2.80794512676845E-02 
2374	-3.66208032101876E-02 
2375	-2.26976968806769E-02 
2376	-1.36870083745424E-02 
2377	-2.05283337635701E-02 
2378	-8.69370987403156E-03 
2379	-1.01654237279257E-02 
2380	-4.39885683838342E-02 
2381	-3.48634643640356E-02 
2382	 7.9880366258218E-03 
2383	 1.72541561581875E-02 
2384	 1.51210453934449E-03 
2385	-2.79375144622462E-02 
2386	-5.02761587712839E-02 
2387	-0.045157358942263 
2388	-1.47724658298654E-02 
2389	 0.01466316717809 
2390	-1.56463028216048E-03 
2391	-2.63692358482431E-02 
2392	-4.24315614101693E-02 
2393	-2.56578337206823E-02 
2394	 1.35251099870255E-02 
2395	 3.05074640430653E-03 
2396	-6.53660198459074E-03 
2397	 1.22908123138393E-02 
2398	 1.43647813044446E-03 
2399	 5.88705411033787E-03 
2400	 4.39108089518868E-02 
2401	 6.07010806402158E-02 
2402	 3.78587091668916E-02 
2403	 1.87502160614947E-02 
2404	 2.18912995967519E-02 
2405	-8.32637989501062E-03 
2406	-3.11561637970798E-02 
2407	-1.50812172571658E-02 
2408	-1.89474826301492E-02 
2409	-4.78545747554771E-03 
2410	 1.40989002765414E-02 
2411	-0.021996796828208 
2412	-4.78650088947381E-02 
2413	-5.28400875849255E-04 
2414	 2.36416908663399E-02 
2415	 7.21550672326839E-02 
2416	 0.121664225795472 
2417	 0.110212522444417 
2418	 0.13573704549132 
2419	 0.128049984989959 
2420	 0.104111610081645 
2421	-1.80931108433269E-02 
2422	-0.164647187253123 
2423	-0.179876642336735 
2424	-0.179671332297793 
2425	-0.125621323217439 
2426	-7.31243133842138E-02 
2427	-0.148604280554423 
2428	-0.216967113053332 
2429	-0.18832879187723 
2430	-0.161733695232327 
2431	-7.92282391985519E-02 
2432	-2.33270010750552E-02 
2433	-0.198443897958053 
2434	-0.282696248094034 
2435	-0.280126789588127 
2436	-0.286669027241515 
2437	-0.152441055258826 
2438	-6.03628852255635E-02 
2439	-0.169857962540409 
2440	-0.177385055595011 
2441	-0.231474362237833 
2442	-0.472106578602693 
2443	-0.531334905498084 
2444	-0.508854774290876 
2445	-0.58558263285891 
2446	-0.622279455263954 
2447	-3.46886202448666 
2448	 7.98018370806268 
2449	 0.972925532467281 
2450	 0.546782253770895 
2451	 1.38546942644008 
2452	 2.70121108395946 
2453	 4.55978416637138 
2454	-150.58333266659 
2455	-1.29083789194028 
2456	-0.137183980047763 
2457	-0.237534376433712 
2458	-0.44613147917311 
2459	-0.494832492266869 
2460	-0.354548395682384 
2461	 0.066785009727863 
2462	-7.91402185603784E-03 
2463	-0.727104805309617 
2464	-1.09707931444766 
2465	-0.995721283115571 
2466	-4.6046811586173 
2467	 2.70891322885778 
2468	-5.52791147445009E-02 
2469	-62.3053055991832 
2470	 2.08647005708212 
2471	 0.391841725999513 
2472	 0.638937674516677 
2473	 0.608075179394419 
2474	 0.684361090862353 
2475	 0.835882282396353 
2476	 1.18341687681532 
2477	 2.74732410617924 
2478	 2.30790481249141 
2479	 1.29112450538991 
2480	 2.14127626672542 
2481	 1.49926606236139 
2482	 0.381746614481112 
2483	 0.50443852327878 
2484	 6.11355687743055E-02 
2485	-8.18125427924611E-02 
2486	 0.147977133224336 
2487	 0.728748207221949 
2488	 1.26136020289079 
2489	 0.98896325803658 
2490	 0.767765738535559 
2491	 0.616420182768884 
2492	 0.533272709709418 
2493	 1.08930737488766 
2494	 1.55932063769741 
2495	 1.09657594280396 
2496	 0.469998424582642 
2497	 0.399125425897132 
2498	 0.280741999044162 
2499	-1.91110594112572 
2500	 0.817114263314979 
