Wavelength	rt0722east_far00008.asd
350	 1.59759479914834E-02 
351	 1.57651341681258E-02 
352	 1.55651686013274E-02 
353	 1.57326790879968E-02 
354	 1.62914069423103E-02 
355	 1.66492144486892E-02 
356	 1.62548290465128E-02 
357	 1.58625043147346E-02 
358	 1.62596054672396E-02 
359	 1.65617798207971E-02 
360	 1.63168287270169E-02 
361	 1.59846727584765E-02 
362	 1.64505564505469E-02 
363	 1.64079785899547E-02 
364	 1.64836711486749E-02 
365	 1.68946174407298E-02 
366	 1.68963511944664E-02 
367	 1.69469819917239E-02 
368	 1.69888408527783E-02 
369	 0.016914301099142 
370	 1.68548578189921E-02 
371	 1.72369830386458E-02 
372	 0.017578576308241 
373	 1.71295050334423E-02 
374	 1.77940205361754E-02 
375	 0.018001212990116 
376	 1.74938459922105E-02 
377	 1.82232552213773E-02 
378	 1.88652252740933E-02 
379	 1.87063174643984E-02 
380	 1.78797777674666E-02 
381	 1.85932991453256E-02 
382	 1.89809639548108E-02 
383	 1.88065433738988E-02 
384	 1.87458628587175E-02 
385	 1.97009275769267E-02 
386	 2.02668188702197E-02 
387	 0.020070648706189 
388	 2.00755261628526E-02 
389	 2.01313660657244E-02 
390	 2.00718456508055E-02 
391	 2.00553047488687E-02 
392	 2.11680623683594E-02 
393	 0.021536416867246 
394	 2.13555200697301E-02 
395	 2.14978971869827E-02 
396	 2.17845824202577E-02 
397	 2.20632056053691E-02 
398	 2.21826833155965E-02 
399	 2.20278618696388E-02 
400	 2.20074836533996E-02 
401	 0.022310354839622 
402	 2.28149930359176E-02 
403	 2.28310497823857E-02 
404	 2.27837271182404E-02 
405	 2.28981051328504E-02 
406	 2.32274734983263E-02 
407	 2.32883570234313E-02 
408	 2.34280685242114E-02 
409	 2.37407816873239E-02 
410	 2.40231290401117E-02 
411	 2.41316574973908E-02 
412	 2.43018817546867E-02 
413	 2.46570528187852E-02 
414	 2.48914628584909E-02 
415	 2.51450711476729E-02 
416	 2.53733759526358E-02 
417	 2.54911531284088E-02 
418	 2.55966868557726E-02 
419	 2.57745926461992E-02 
420	 2.60440045743827E-02 
421	 2.63562429520429E-02 
422	 2.66413576721679E-02 
423	 2.69063002283798E-02 
424	 2.71627263366996E-02 
425	 2.73574172651401E-02 
426	 2.77215009857821E-02 
427	 2.81712134217828E-02 
428	 2.84973771288386E-02 
429	 2.88298771231918E-02 
430	 2.92098772828154E-02 
431	 2.95797928517514E-02 
432	 2.97840332958418E-02 
433	 3.01125379831604E-02 
434	 3.04842998323147E-02 
435	 3.07882743202622E-02 
436	 0.031065840685531 
437	 3.14961473722579E-02 
438	 3.19512508908015E-02 
439	 3.21762080747122E-02 
440	 0.032397495331653 
441	 3.27823038836435E-02 
442	 3.32709668759066E-02 
443	 3.34867969571036E-02 
444	 3.38181378006967E-02 
445	 3.42141134854653E-02 
446	 3.45316105105733E-02 
447	 3.47536980746215E-02 
448	 3.50507566133385E-02 
449	 3.54233187289713E-02 
450	 3.57414799020859E-02 
451	 3.59399868665385E-02 
452	 0.036177371244609 
453	 3.65066681153254E-02 
454	 3.66931289020217E-02 
455	 3.69458091340636E-02 
456	 3.71996038818636E-02 
457	 3.73421682074139E-02 
458	 3.75585919376111E-02 
459	 3.77604728422678E-02 
460	 0.037913079643079 
461	 3.80514719263309E-02 
462	 3.82595091836591E-02 
463	 3.85149842743998E-02 
464	 3.87545652913188E-02 
465	 3.88548403759256E-02 
466	 3.90608488051554E-02 
467	 3.93090276548004E-02 
468	 0.039430244966692 
469	 3.97223418327901E-02 
470	 3.99301229752866E-02 
471	 4.00342298167845E-02 
472	 4.03893911842028E-02 
473	 0.040603277285448 
474	 4.07637358730468E-02 
475	 4.10136134373414E-02 
476	 4.12173054191075E-02 
477	 4.14432836581324E-02 
478	 4.16942366896853E-02 
479	 4.19339886497576E-02 
480	 4.22385275540351E-02 
481	 4.24906283691274E-02 
482	 4.26756732528607E-02 
483	 4.30390569474759E-02 
484	 4.33747852078425E-02 
485	 4.36942018044644E-02 
486	 4.40697976316089E-02 
487	 4.44585642183251E-02 
488	 4.48002786014465E-02 
489	 4.51075974208391E-02 
490	 4.54619528065977E-02 
491	 0.045857639251332 
492	 4.62580032066789E-02 
493	 4.66343782146015E-02 
494	 0.047005856088699 
495	 0.047366520832048 
496	 4.77489774458903E-02 
497	 4.81979163362234E-02 
498	 4.86857966244567E-02 
499	 4.91302841000755E-02 
500	 4.95394959373723E-02 
501	 5.00679756908529E-02 
502	 5.05180871643558E-02 
503	 5.09323965881798E-02 
504	 5.14083682083947E-02 
505	 5.19782763131881E-02 
506	 5.23991886184755E-02 
507	 5.27536711686953E-02 
508	 5.33515160435747E-02 
509	 5.37842646627447E-02 
510	 5.41092055864933E-02 
511	 5.44918709904372E-02 
512	 5.52013093957355E-02 
513	 5.57837641718351E-02 
514	 5.62488948196223E-02 
515	 5.67947195338461E-02 
516	 0.057380314379795 
517	 5.79961290009951E-02 
518	 5.86272465593329E-02 
519	 5.92558998378764E-02 
520	 5.99377337628188E-02 
521	 6.05762479832622E-02 
522	 6.11124530137138E-02 
523	 6.17095365463494E-02 
524	 6.23355642472528E-02 
525	 6.29792588028169E-02 
526	 6.36416129033351E-02 
527	 6.42631622104075E-02 
528	 6.49025791383352E-02 
529	 6.55798404878014E-02 
530	 6.62056847508039E-02 
531	 6.68570118280608E-02 
532	 6.75676215241017E-02 
533	 6.83218103266903E-02 
534	 6.89380148306076E-02 
535	 6.95469817367986E-02 
536	 7.02193553823097E-02 
537	 7.09294134948113E-02 
538	 7.16992997228682E-02 
539	 7.24454946073159E-02 
540	 7.31083591545256E-02 
541	 7.37812361167594E-02 
542	 7.44874342868078E-02 
543	 7.51969712118942E-02 
544	 7.58607715885739E-02 
545	 7.65855180502955E-02 
546	 7.73106556835199E-02 
547	 7.79936009475455E-02 
548	 7.86684640483252E-02 
549	 7.93355340640882E-02 
550	 0.080008664227104 
551	 8.07058864168708E-02 
552	 8.14421801012409E-02 
553	 8.21452612194099E-02 
554	 8.28069808977684E-02 
555	 8.34915859499783E-02 
556	 8.41777272048509E-02 
557	 8.48688108604074E-02 
558	 8.55666830305292E-02 
559	 8.62916762868397E-02 
560	 8.69171654054898E-02 
561	 8.74536183333627E-02 
562	 8.80038121052805E-02 
563	 8.86134659321777E-02 
564	 8.91771839940113E-02 
565	 8.96554426570152E-02 
566	 9.01828789814924E-02 
567	 9.06275805482838E-02 
568	 0.091023316181824 
569	 9.14425338352711E-02 
570	 0.091815480691896 
571	 9.21619003107085E-02 
572	 9.24894769125039E-02 
573	 9.27876879055162E-02 
574	 9.31217688046056E-02 
575	 9.33994638137683E-02 
576	 9.35487472855189E-02 
577	 9.36831578610123E-02 
578	 9.38129372716086E-02 
579	 0.093910594818092 
580	 9.39291698629463E-02 
581	 9.39032626431176E-02 
582	 9.38090634294911E-02 
583	 9.36513392901865E-02 
584	 9.35052875095684E-02 
585	 0.093234625271483 
586	 9.29610441017961E-02 
587	 9.28249432491049E-02 
588	 9.24966089650639E-02 
589	 9.21083255154198E-02 
590	 9.17306824631691E-02 
591	 9.13020316818608E-02 
592	 9.08320133893154E-02 
593	 9.03233563850129E-02 
594	 8.97387035715434E-02 
595	 8.88823554698003E-02 
596	 8.79456192169664E-02 
597	 8.69750488634786E-02 
598	 8.59437693100571E-02 
599	 8.48841599809526E-02 
600	 0.083998163622435 
601	 0.083361643391778 
602	 0.082798101473385 
603	 8.24535088723343E-02 
604	 8.22777807244468E-02 
605	 0.082173240273068 
606	 8.21423324125973E-02 
607	 8.20860916433945E-02 
608	 8.20254979049777E-02 
609	 8.21015668327025E-02 
610	 0.082184426640011 
611	 8.22008278492316E-02 
612	 8.21520790396972E-02 
613	 8.22195461604996E-02 
614	 0.082240242521798 
615	 8.21943168168042E-02 
616	 0.082157337590234 
617	 8.22758917819555E-02 
618	 8.22870953610811E-02 
619	 8.21152577329863E-02 
620	 8.20414484301858E-02 
621	 8.21292860385121E-02 
622	 8.21893437857521E-02 
623	 8.20401470795174E-02 
624	 8.20244826241573E-02 
625	 0.081938473555988 
626	 8.18143299495159E-02 
627	 8.19065328034109E-02 
628	 8.19052469286945E-02 
629	 8.18589898259955E-02 
630	 8.18426210811484E-02 
631	 8.18192566023793E-02 
632	 8.16927314292088E-02 
633	 8.15404129488366E-02 
634	 8.15000667736054E-02 
635	 8.14561899952991E-02 
636	 8.13727420092711E-02 
637	 8.12551784989427E-02 
638	 8.11542610653626E-02 
639	 8.10488652918386E-02 
640	 8.09353257729042E-02 
641	 8.08126648679651E-02 
642	 8.06673059856177E-02 
643	 8.05260069853116E-02 
644	 8.03952144917868E-02 
645	 8.02606031618081E-02 
646	 8.00412930392175E-02 
647	 7.98407752947843E-02 
648	 7.97071166702082E-02 
649	 7.94737929392042E-02 
650	 7.91796804022975E-02 
651	 7.88966590032185E-02 
652	 7.86691643064589E-02 
653	 7.82015423542236E-02 
654	 7.75647687190834E-02 
655	 7.68736259021679E-02 
656	 7.63514662143552E-02 
657	 0.075787651033121 
658	 7.52497251736941E-02 
659	 7.48165675119609E-02 
660	 7.44826403531011E-02 
661	 7.42140166834159E-02 
662	 7.39918898007795E-02 
663	 0.073811075087158 
664	 7.36587971212785E-02 
665	 7.35092420594482E-02 
666	 7.33565735097508E-02 
667	 7.32279314190085E-02 
668	 7.32385425204301E-02 
669	 0.073283224365151 
670	 7.32175413264564E-02 
671	 7.31117900228917E-02 
672	 7.30303602268749E-02 
673	 7.29539331323458E-02 
674	 0.072796857076036 
675	 0.072777826620499 
676	 0.072760416895497 
677	 7.26292717903574E-02 
678	 7.24825596193117E-02 
679	 7.24145525783667E-02 
680	 7.23924775356587E-02 
681	 7.23311504866193E-02 
682	 7.22722108835366E-02 
683	 7.22507395832994E-02 
684	 7.22214445360929E-02 
685	 0.072019463367871 
686	 7.18902408741993E-02 
687	 7.17185343420344E-02 
688	 7.14000599906937E-02 
689	 7.12380205832784E-02 
690	 7.08638080481774E-02 
691	 7.03139031202813E-02 
692	 6.98441677852456E-02 
693	 6.93294041075302E-02 
694	 6.87104734377141E-02 
695	 6.80108374363558E-02 
696	 6.72861476409649E-02 
697	 6.64340615361667E-02 
698	 6.55186209739502E-02 
699	 6.46621539267288E-02 
700	 6.36210236984955E-02 
701	 6.26021971297982E-02 
702	 6.16128774451081E-02 
703	 6.04675171694894E-02 
704	 5.93243976474822E-02 
705	 5.81537501062338E-02 
706	 5.69239493107798E-02 
707	 5.55692614893502E-02 
708	 5.41259647840453E-02 
709	 5.26024502586104E-02 
710	 5.10004805923305E-02 
711	 4.93394278016354E-02 
712	 4.75863170389008E-02 
713	 4.58015315469651E-02 
714	 4.40916109398794E-02 
715	 4.23085089351169E-02 
716	 4.04010338915435E-02 
717	 3.85093180645104E-02 
718	 3.65259592193818E-02 
719	 3.45517946393659E-02 
720	 3.28564571736047E-02 
721	 3.12796545231016E-02 
722	 2.98035460745221E-02 
723	 2.81252213383295E-02 
724	 2.63672280270639E-02 
725	 2.46801886540367E-02 
726	 2.32063948772833E-02 
727	 2.16483462564858E-02 
728	 1.98295727773228E-02 
729	 0.018110629526033 
730	 1.64177479291613E-02 
731	 1.49152089339946E-02 
732	 1.37089403262237E-02 
733	 1.27283097829146E-02 
734	 1.19134174497042E-02 
735	 1.12520592288181E-02 
736	 1.07570283431775E-02 
737	 0.010357241378764 
738	 0.010103036960454 
739	 9.99331982238497E-03 
740	 9.75517010536169E-03 
741	 9.61955818652777E-03 
742	 9.57559225714543E-03 
743	 9.49034136796057E-03 
744	 9.37860661411424E-03 
745	 9.33436604491937E-03 
746	 9.37550761103228E-03 
747	 9.40798588031672E-03 
748	 9.40179193548594E-03 
749	 9.35915073788768E-03 
750	 9.30165402772098E-03 
751	 9.25694447477819E-03 
752	 9.30842944233893E-03 
753	 9.36149467829139E-03 
754	 9.26070501143068E-03 
755	 9.22013502177236E-03 
756	 9.18964400647863E-03 
757	 9.16780316835858E-03 
758	 9.29548773950277E-03 
759	 9.40372456859673E-03 
760	 9.45048455574931E-03 
761	 9.44933401250488E-03 
762	 9.27953240912812E-03 
763	 9.34459798538888E-03 
764	 9.52346603672907E-03 
765	 9.57268379205804E-03 
766	 9.49082030387035E-03 
767	 9.4715824830762E-03 
768	 9.57660938438289E-03 
769	 9.75186958262843E-03 
770	 9.72583370024706E-03 
771	 9.71532522311514E-03 
772	 9.88042353441626E-03 
773	 9.94129164122264E-03 
774	 1.00490426715365E-02 
775	 1.01852411358892E-02 
776	 1.02839256875907E-02 
777	 1.04512530422693E-02 
778	 1.05487827464075E-02 
779	 1.06058304289969E-02 
780	 1.08236108296122E-02 
781	 1.10671386916797E-02 
782	 1.12654563816007E-02 
783	 1.14077546280025E-02 
784	 1.15924020697656E-02 
785	 1.17388648002245E-02 
786	 1.18759605343409E-02 
787	 1.20534082488915E-02 
788	 1.22067715129661E-02 
789	 0.012445677157213 
790	 1.27437314877372E-02 
791	 1.29728173218018E-02 
792	 1.31978204034805E-02 
793	 1.34097922080256E-02 
794	 0.013648475096106 
795	 1.40447669120674E-02 
796	 1.42231053222617E-02 
797	 1.43184970519899E-02 
798	 1.45415932842267E-02 
799	 1.48125476566649E-02 
800	 0.014984788179277 
801	 1.51469370538681E-02 
802	 1.54727582687204E-02 
803	 1.56821904849684E-02 
804	 1.57495731978333E-02 
805	 1.57192738107069E-02 
806	 1.56824812694209E-02 
807	 1.58017683876757E-02 
808	 1.58566684160025E-02 
809	 1.56934779663166E-02 
810	 1.55276937098103E-02 
811	 1.54726363990175E-02 
812	 1.54060578433067E-02 
813	 1.51448491492394E-02 
814	 1.49544096147062E-02 
815	 1.46932318234945E-02 
816	 1.43740293299047E-02 
817	 0.014123530421924 
818	 1.38034886761067E-02 
819	 0.013375147675908 
820	 1.29206811247518E-02 
821	 1.26896338241457E-02 
822	 1.20815520305589E-02 
823	 1.11735107154276E-02 
824	 1.03123571381935E-02 
825	 9.84146877662946E-03 
826	 9.40783697614203E-03 
827	 8.72894303386891E-03 
828	 7.77270321602021E-03 
829	 7.4675950487567E-03 
830	 7.1844874793013E-03 
831	 6.69345620732652E-03 
832	 6.17620871891895E-03 
833	 5.94083260689647E-03 
834	 5.89004709881836E-03 
835	 5.83269315329554E-03 
836	 5.55252137327863E-03 
837	 5.19472721329403E-03 
838	 5.04251841625976E-03 
839	 5.1914276431348E-03 
840	 5.2399714975668E-03 
841	 5.04637211879053E-03 
842	 4.85723215781926E-03 
843	 4.9267697952984E-03 
844	 4.73512003057455E-03 
845	 4.7158804739714E-03 
846	 4.81921103766888E-03 
847	 4.69675359386896E-03 
848	 4.71451135256074E-03 
849	 4.68954374009926E-03 
850	 4.59695566643599E-03 
851	 4.66811314678383E-03 
852	 4.55686954336442E-03 
853	 4.43183614779229E-03 
854	 4.48465732831575E-03 
855	 4.73604977340965E-03 
856	 4.44817700754136E-03 
857	 4.17456961137496E-03 
858	 4.4460881095543E-03 
859	 4.38114401628893E-03 
860	 4.23083200150054E-03 
861	 4.11560228273527E-03 
862	 4.06906091261461E-03 
863	 4.02735812181975E-03 
864	 3.93036408044562E-03 
865	 3.86611511756029E-03 
866	 4.00601973106256E-03 
867	 3.96966809597035E-03 
868	 3.97072871778705E-03 
869	 4.00784204527336E-03 
870	 3.72134088768974E-03 
871	 3.78176134501108E-03 
872	 3.83390609529673E-03 
873	 3.65396784690676E-03 
874	 3.82530008471928E-03 
875	 3.86953640573774E-03 
876	 3.73253949904909E-03 
877	 3.51899428612041E-03 
878	 3.35083189524363E-03 
879	 3.33183374236724E-03 
880	 3.5819729168205E-03 
881	 4.01438941728976E-03 
882	 3.51352617666707E-03 
883	 3.30821444235644E-03 
884	 3.46350692595715E-03 
885	 3.2015475541338E-03 
886	 3.40634595915023E-03 
887	 3.53022437138343E-03 
888	 3.35921567976418E-03 
889	 3.22609396809778E-03 
890	 3.05516008553034E-03 
891	 3.05042686696878E-03 
892	 3.23542845048558E-03 
893	 3.21152485089738E-03 
894	 3.29012965452456E-03 
895	 3.07289738182237E-03 
896	 2.46017511561421E-03 
897	 2.91752260632002E-03 
898	 3.15648504312794E-03 
899	 2.94322637847919E-03 
900	 2.68470423860136E-03 
901	 3.39014341905515E-03 
902	 2.95185720961274E-03 
903	 2.39489589134219E-03 
904	 3.24422898859401E-03 
905	 3.19626787558138E-03 
906	 3.06110486559901E-03 
907	 3.10441938771787E-03 
908	 3.08814622336282E-03 
909	 2.51350653321285E-03 
910	 2.85325294165832E-03 
911	 3.64408997907547E-03 
912	 2.91583212076421E-03 
913	 3.05606049909849E-03 
914	 3.16270481847091E-03 
915	 2.93533912642884E-03 
916	 3.12324492307206E-03 
917	 0.002864795126846 
918	 2.62660121504654E-03 
919	 2.80550884688565E-03 
920	 3.41240260340796E-03 
921	 2.85886375865492E-03 
922	 2.0181324314348E-03 
923	 1.90074783836548E-03 
924	 2.7602586586954E-03 
925	 3.33352780608382E-03 
926	 3.3669321016684E-03 
927	 2.83448165931187E-03 
928	 1.17207343554912E-03 
929	 7.35276646294315E-04 
930	 1.42123326657927E-03 
931	 1.68243318764278E-03 
932	 3.11438216602895E-03 
933	 8.07796502460666E-04 
934	-2.42487272363505E-03 
935	-2.96829612683677E-04 
936	 5.4988448972953E-03 
937	 6.35512191924309E-03 
938	 4.49457848502402E-03 
939	 3.90396853955168E-03 
940	 1.53888885048335E-03 
941	 1.42586863184994E-03 
942	 2.39518398530902E-03 
943	 1.33657203047039E-03 
944	 9.57605113787847E-04 
945	 2.37579396118538E-03 
946	 3.72845175813565E-03 
947	 2.61134091106562E-03 
948	 3.38512887502372E-03 
949	 1.44702203217299E-03 
950	-9.98932844077104E-04 
951	 1.04787706178696E-03 
952	 1.09713920852926E-03 
953	 9.27637641815501E-04 
954	 1.10936285585422E-03 
955	 1.2649997501735E-03 
956	 3.49578590413455E-03 
957	 3.52518292706226E-03 
958	 1.5553477919227E-03 
959	 9.14653992831379E-04 
960	 1.72521326962933E-03 
961	 2.33636910292289E-03 
962	 1.98746856290799E-03 
963	 1.13118531398377E-03 
964	 2.35722392196665E-03 
965	 3.14329072138843E-03 
966	 2.87448538841159E-03 
967	 2.54573993439894E-03 
968	 1.95279121811496E-03 
969	 2.26875546374005E-03 
970	 2.66807452120918E-03 
971	 1.12002784915669E-03 
972	 7.97967114724615E-04 
973	 1.3041781785487E-03 
974	 2.0007416725538E-03 
975	 2.4175790659686E-03 
976	 2.01765029530671E-03 
977	 2.39841727245213E-03 
978	 3.23346406205903E-03 
979	 2.78006688428468E-03 
980	 3.13872302304443E-03 
981	 2.94265171360586E-03 
982	 2.29270242229269E-03 
983	 2.49001227735403E-03 
984	 2.52769718703699E-03 
985	 3.01608223354857E-03 
986	 3.16669305017694E-03 
987	 1.71258371518139E-03 
988	 2.51327663489157E-03 
989	 3.46105219296811E-03 
990	 3.10452470205489E-03 
991	 1.57979605838132E-03 
992	 2.44529223773528E-03 
993	 2.75007025550848E-03 
994	 2.16879289118394E-03 
995	 2.29150703327832E-03 
996	 1.73170277113691E-03 
997	 1.90390113427808E-03 
998	 2.32263659928033E-03 
999	 1.75830068749535E-03 
1000	 2.47497376839163E-03 
1001	 1.49731634235125E-03 
1002	 1.6247140887123E-03 
1003	 1.76768986506968E-03 
1004	 2.07770999130599E-03 
1005	 2.26085162395751E-03 
1006	 2.37103995807876E-03 
1007	 2.35895304500019E-03 
1008	 2.37929707548146E-03 
1009	 2.46706951653426E-03 
1010	 2.64600101775986E-03 
1011	 2.64099476332661E-03 
1012	 0.002508085638654 
1013	 2.59018309599384E-03 
1014	 2.50572766775512E-03 
1015	 2.13265095792377E-03 
1016	 2.0652707408045E-03 
1017	 2.17841593222879E-03 
1018	 2.14823805190775E-03 
1019	 2.24689582311604E-03 
1020	 2.22159167578035E-03 
1021	 2.01681653380667E-03 
1022	 1.84281108445152E-03 
1023	 2.05247960756595E-03 
1024	 2.23719591768505E-03 
1025	 2.44237461467552E-03 
1026	 2.55384383899663E-03 
1027	 2.59601548866884E-03 
1028	 2.42111369868003E-03 
1029	 2.22691979253806E-03 
1030	 1.96475294379367E-03 
1031	 1.89875434193533E-03 
1032	 1.72882659612531E-03 
1033	 1.74941491440256E-03 
1034	 2.07263517711001E-03 
1035	 2.22765504850653E-03 
1036	 2.53468752701623E-03 
1037	 2.47805625938855E-03 
1038	 1.86091079671567E-03 
1039	 1.93166115388859E-03 
1040	 1.93392095906009E-03 
1041	 1.8316653504798E-03 
1042	 1.80646941048714E-03 
1043	 2.05805064115907E-03 
1044	 2.18616802456366E-03 
1045	 2.18709502661852E-03 
1046	 2.15953606986777E-03 
1047	 2.28831839871357E-03 
1048	 2.25047712268063E-03 
1049	 1.91959455198734E-03 
1050	 1.79559488484247E-03 
1051	 1.73352492283505E-03 
1052	 1.72817570838497E-03 
1053	 1.86909123602975E-03 
1054	 1.85670016878486E-03 
1055	 1.78203290502412E-03 
1056	 1.77808990249068E-03 
1057	 1.76348744281435E-03 
1058	 1.59327744446642E-03 
1059	 1.67782687745052E-03 
1060	 2.01841170189389E-03 
1061	 2.08535255432447E-03 
1062	 2.16999095787642E-03 
1063	 2.12705548982337E-03 
1064	 1.72424599999898E-03 
1065	 1.72630234601978E-03 
1066	 1.94894042110179E-03 
1067	 2.04559338737989E-03 
1068	 2.47353497698902E-03 
1069	 2.52241857634794E-03 
1070	 1.98674033321718E-03 
1071	 1.90774091247856E-03 
1072	 2.15171218908435E-03 
1073	 2.00796239557526E-03 
1074	 2.01661395676302E-03 
1075	 2.37290118692953E-03 
1076	 2.34467273061124E-03 
1077	 1.85954641868096E-03 
1078	 1.87358545776769E-03 
1079	 2.14742930769497E-03 
1080	 2.15860390470103E-03 
1081	 2.20124394343838E-03 
1082	 2.26045261454139E-03 
1083	 2.19363029677763E-03 
1084	 0.0021374613664 
1085	 2.35664957171912E-03 
1086	 2.27304091556553E-03 
1087	 1.53834941505617E-03 
1088	 1.3873040158826E-03 
1089	 1.39143059474437E-03 
1090	 1.61616709352673E-03 
1091	 1.78286003765307E-03 
1092	 2.4511949629719E-03 
1093	 2.54998443892621E-03 
1094	 2.25783750347121E-03 
1095	 2.09323554485633E-03 
1096	 1.67204221187082E-03 
1097	 1.66967864279609E-03 
1098	 1.99932948679487E-03 
1099	 2.04953323272996E-03 
1100	 2.28773132055969E-03 
1101	 2.29739936616951E-03 
1102	 1.79608198450235E-03 
1103	 1.58592235006162E-03 
1104	 1.33951394891284E-03 
1105	 1.40208503595366E-03 
1106	 1.83712428476694E-03 
1107	 2.12340811698388E-03 
1108	 2.41823621635609E-03 
1109	 3.24696970381599E-03 
1110	 3.34885069756724E-03 
1111	 2.61950113175536E-03 
1112	 2.67473030121266E-03 
1113	 2.85701358547522E-03 
1114	 2.71527494212481E-03 
1115	 3.15562775905334E-03 
1116	 3.41278817635686E-03 
1117	 2.75142865103126E-03 
1118	 2.08397020770494E-03 
1119	 1.52256888982331E-03 
1120	 9.93731410962957E-04 
1121	-7.42007670794853E-04 
1122	-1.48468064217897E-03 
1123	 1.04393816628787E-03 
1124	 2.69377749731643E-03 
1125	 5.71052986563346E-03 
1126	 1.00579780153605E-02 
1127	 7.75875265471915E-03 
1128	 4.36265812585965E-03 
1129	 4.07149893451677E-03 
1130	 3.17310795921812E-03 
1131	 1.97485805433355E-03 
1132	 2.8360013227819E-03 
1133	 3.71591136065728E-03 
1134	 3.39355262688699E-03 
1135	 3.62113211233671E-03 
1136	 5.82573825044444E-03 
1137	 5.23718091737911E-03 
1138	 2.44841530119496E-03 
1139	 1.26429959485947E-03 
1140	 0.001165513635084 
1141	 2.07051228756488E-03 
1142	 4.68659137807068E-03 
1143	 6.53958038458603E-03 
1144	 4.67519002668466E-03 
1145	 2.77834550158626E-03 
1146	 2.46076289415135E-03 
1147	 2.10684784120851E-03 
1148	 3.76444313281135E-03 
1149	 4.17866029271077E-03 
1150	 3.66493559624967E-03 
1151	 1.55209738607709E-03 
1152	 1.7355936900078E-03 
1153	 2.80985287559387E-03 
1154	 2.68481724211493E-03 
1155	 2.94696985593648E-03 
1156	 2.39677847472786E-03 
1157	 2.32980970608266E-03 
1158	 2.53310128776299E-03 
1159	 2.79639927964595E-03 
1160	 2.77680644916307E-03 
1161	 1.97717012909936E-03 
1162	 1.66788461327204E-03 
1163	 2.04086845321767E-03 
1164	 1.9726213608102E-03 
1165	 1.93448374539831E-03 
1166	 1.96570863155371E-03 
1167	 1.50677855860648E-03 
1168	 1.65160782586746E-03 
1169	 2.29429325231431E-03 
1170	 1.97419235842801E-03 
1171	 1.74753053213529E-03 
1172	 1.47953937340695E-03 
1173	 1.40267026835247E-03 
1174	 9.84036629035091E-04 
1175	 1.31164478327858E-03 
1176	 2.10174628129219E-03 
1177	 2.09767820913185E-03 
1178	 1.89278545204751E-03 
1179	 1.88781468683571E-03 
1180	 1.35356066769202E-03 
1181	 1.23825263980204E-03 
1182	 1.96428440044558E-03 
1183	 2.15941630295355E-03 
1184	 1.90859176646201E-03 
1185	 1.6855866467027E-03 
1186	 1.51309597220063E-03 
1187	 1.46436858970219E-03 
1188	 1.61638387263781E-03 
1189	 1.70015681465758E-03 
1190	 1.46811063655047E-03 
1191	 1.3630673582934E-03 
1192	 1.24383276808827E-03 
1193	 1.13041512050141E-03 
1194	 1.16471195238342E-03 
1195	 1.42774210269111E-03 
1196	 1.29733206833688E-03 
1197	 1.08163327336004E-03 
1198	 1.36044034292898E-03 
1199	 1.50433715318005E-03 
1200	 1.43800546629122E-03 
1201	 1.60621221643298E-03 
1202	 1.67664537363013E-03 
1203	 1.52990471884283E-03 
1204	 1.59098167204632E-03 
1205	 1.78141166977516E-03 
1206	 1.70309461863416E-03 
1207	 1.64268853494363E-03 
1208	 1.69023531351833E-03 
1209	 1.72516506265454E-03 
1210	 1.94520690140999E-03 
1211	 2.00527898666852E-03 
1212	 1.77943090343968E-03 
1213	 1.52522690033661E-03 
1214	 1.43589850915612E-03 
1215	 1.29786795463061E-03 
1216	 1.50412034534862E-03 
1217	 1.8706227749331E-03 
1218	 1.99056376959448E-03 
1219	 1.94071585005661E-03 
1220	 1.85565802090654E-03 
1221	 1.62428502797475E-03 
1222	 1.46240024808372E-03 
1223	 1.5217972721586E-03 
1224	 1.40012625283191E-03 
1225	 1.4341314692048E-03 
1226	 1.75718675744912E-03 
1227	 1.66805707862768E-03 
1228	 1.57541282110719E-03 
1229	 1.70322828953826E-03 
1230	 1.6100777576549E-03 
1231	 1.63858185067203E-03 
1232	 1.78373515491334E-03 
1233	 1.65207663094728E-03 
1234	 1.46129327644713E-03 
1235	 1.37792704969804E-03 
1236	 1.30199475639341E-03 
1237	 1.32510556032567E-03 
1238	 1.43981479086919E-03 
1239	 1.67240817280662E-03 
1240	 1.68610831667309E-03 
1241	 1.46461868677703E-03 
1242	 1.46550244582576E-03 
1243	 1.59002013052706E-03 
1244	 1.60594656400719E-03 
1245	 1.64814705384178E-03 
1246	 1.81013053605704E-03 
1247	 1.83703207896666E-03 
1248	 1.67347702280936E-03 
1249	 1.80441537639845E-03 
1250	 1.91098147803138E-03 
1251	 1.72051960079543E-03 
1252	 1.77911822112987E-03 
1253	 1.86999152638897E-03 
1254	 1.65449054369989E-03 
1255	 1.51845191600279E-03 
1256	 1.52814297662356E-03 
1257	 1.63511164723319E-03 
1258	 1.63145941186641E-03 
1259	 1.79398483262164E-03 
1260	 1.78674794153256E-03 
1261	 1.51027495189755E-03 
1262	 1.46607849501856E-03 
1263	 1.57017124227004E-03 
1264	 1.54361649980978E-03 
1265	 1.63026418125963E-03 
1266	 1.57975851141789E-03 
1267	 1.47000772428139E-03 
1268	 1.46992915798551E-03 
1269	 1.48692428915083E-03 
1270	 1.48084631969429E-03 
1271	 1.60800663334996E-03 
1272	 1.69653598849916E-03 
1273	 1.43804657049632E-03 
1274	 1.36282232134796E-03 
1275	 1.38016983203651E-03 
1276	 1.36989027256398E-03 
1277	 1.42003719406478E-03 
1278	 1.42295052065073E-03 
1279	 1.73747815853701E-03 
1280	 1.89501717446875E-03 
1281	 1.8821360017527E-03 
1282	 1.9431613820293E-03 
1283	 1.89766379696835E-03 
1284	 1.41029670199291E-03 
1285	 1.30169809825148E-03 
1286	 1.36605832169259E-03 
1287	 1.41894841324381E-03 
1288	 1.69258882105169E-03 
1289	 1.75770777486735E-03 
1290	 1.76863874646708E-03 
1291	 1.72628382818955E-03 
1292	 1.75623062865574E-03 
1293	 1.83306237467437E-03 
1294	 1.7383719146753E-03 
1295	 1.91070470281902E-03 
1296	 2.08675960408781E-03 
1297	 1.66624182577732E-03 
1298	 1.63261702577437E-03 
1299	 1.99819395756374E-03 
1300	 1.73473194570343E-03 
1301	 1.35018448576096E-03 
1302	 1.41425513580815E-03 
1303	 1.53053351316911E-03 
1304	 1.54732379481026E-03 
1305	 1.55800819014892E-03 
1306	 1.67407399860464E-03 
1307	 1.62970811343483E-03 
1308	 1.63457262729566E-03 
1309	 1.90719249530363E-03 
1310	 1.98677346346046E-03 
1311	 1.78162580263464E-03 
1312	 1.72985952404828E-03 
1313	 1.8951937891172E-03 
1314	 1.86701298591379E-03 
1315	 1.48565965674407E-03 
1316	 1.43694293441019E-03 
1317	 1.58248521765309E-03 
1318	 1.6060196528933E-03 
1319	 1.85507740391309E-03 
1320	 2.09625522128559E-03 
1321	 2.3659360580515E-03 
1322	 2.07518835451897E-03 
1323	 1.84895361873151E-03 
1324	 2.12867464561585E-03 
1325	 1.74878962861147E-03 
1326	 1.24915580342937E-03 
1327	 1.63273900244848E-03 
1328	 1.66505622673835E-03 
1329	 1.3473488443825E-03 
1330	 1.62828742217894E-03 
1331	 1.81498193798948E-03 
1332	 1.78185134100498E-03 
1333	 1.79071976844456E-03 
1334	 0.00163867023171 
1335	 1.82393931621995E-03 
1336	 2.11926731327043E-03 
1337	 2.09821208432122E-03 
1338	 1.9937509800094E-03 
1339	 2.63414946614814E-03 
1340	 3.89309948578086E-03 
1341	 3.5185970969735E-03 
1342	 2.33787770854254E-03 
1343	 2.5732534940004E-03 
1344	 2.16819691217703E-03 
1345	 1.3085353520043E-03 
1346	 1.92310552535373E-03 
1347	 3.59797417845625E-03 
1348	 5.39829172181265E-03 
1349	 5.34362783577385E-03 
1350	 8.13216042337283E-03 
1351	 1.12180336791958E-02 
1352	-1.18045802801143E-03 
1353	-1.08125592530698E-02 
1354	-0.015294141618379 
1355	 1.64825651048534E-02 
1356	 3.84511462894636E-02 
1357	 2.29644868922866E-04 
1358	 6.73664135699449E-03 
1359	 7.46308595273466E-02 
1360	 8.10014905981631E-02 
1361	 7.68735917878917E-02 
1362	 7.18444622163044E-02 
1363	 0.017735667409627 
1364	 2.16907858672097E-02 
1365	 9.44054903612949E-02 
1366	 5.77512782169824E-02 
1367	-7.05832143029683E-02 
1368	-0.037847997914362 
1369	 0.106120035106852 
1370	 0.04198668698192 
1371	-0.157412553249989 
1372	-7.43109504098139E-02 
1373	-5.20557379824916E-02 
1374	-0.1586653450327 
1375	-0.045551716291786 
1376	 4.46646215751203E-02 
1377	-2.52625101156675E-02 
1378	-5.97253452414006E-02 
1379	 0.176458174433949 
1380	 0.220641258399358 
1381	-0.106097065901635 
1382	-0.10932428966649 
1383	 0.276937875949491 
1384	 0.335688981965046 
1385	 0.231954207676391 
1386	 0.317812773121246 
1387	 0.394133057242668 
1388	 0.299606737002664 
1389	 0.224063104121218 
1390	 0.278473190056263 
1391	 0.184145517470516 
1392	 0.201722758634252 
1393	 0.349595511986896 
1394	 0.330276876386237 
1395	 0.46256131716937 
1396	 0.575130870438112 
1397	 0.371680722229078 
1398	 0.203516235967091 
1399	 0.325290799714705 
1400	 0.493706562454685 
1401	 0.205820090870803 
1402	 0.156925927732117 
1403	 0.239060921672005 
1404	 0.128230897753662 
1405	 0.144506812972741 
1406	 1.14606820295268 
1407	 1.05707303832529 
1408	 0.308431163471145 
1409	 5.79278778116494E-02 
1410	-0.148990738205932 
1411	-3.94835224609072E-02 
1412	 0.350856052554965 
1413	 0.316519921532872 
1414	 0.250549942059157 
1415	 0.245133713237226 
1416	 5.56603724957876E-02 
1417	-1.72552753448763E-02 
1418	 4.04794825147561E-02 
1419	 7.56805105332622E-02 
1420	 7.75404973291276E-02 
1421	 4.00197708935469E-02 
1422	 1.44163558045795E-02 
1423	 2.08072257090599E-02 
1424	 1.33079540714579E-02 
1425	-6.53298960148597E-03 
1426	-1.84166536522396E-02 
1427	-6.16064068812233E-03 
1428	 7.74475024492998E-03 
1429	 3.15311932764574E-03 
1430	 7.31033236644942E-03 
1431	 1.57966567292087E-02 
1432	 1.25566133836278E-02 
1433	 2.45870574072416E-03 
1434	-7.97332225550899E-03 
1435	-9.36019290509735E-04 
1436	 5.65193048458341E-03 
1437	 7.67825250212394E-03 
1438	 1.92928589886861E-02 
1439	 3.36265037434265E-02 
1440	 2.77328927088799E-02 
1441	 1.25412238029114E-02 
1442	 9.53301689521113E-03 
1443	 1.30832696232295E-02 
1444	 1.45930346224514E-02 
1445	 1.02041418128307E-02 
1446	 7.30564956375109E-03 
1447	 9.73826599439243E-03 
1448	 4.48677859906565E-03 
1449	-2.89174097651937E-03 
1450	-2.41960681110993E-03 
1451	-1.19456246381954E-03 
1452	 4.54603142114756E-04 
1453	 4.3062515608796E-03 
1454	 5.34065440589554E-03 
1455	 3.86656725299204E-03 
1456	 3.46593712986843E-03 
1457	 3.93725519495566E-03 
1458	 4.18545807245897E-03 
1459	 3.46437462481414E-03 
1460	 3.76203721633639E-03 
1461	 5.12803999028996E-03 
1462	 5.21578486128819E-03 
1463	 4.83692139337344E-03 
1464	 4.81587550772038E-03 
1465	 4.48429232780565E-03 
1466	 4.97698519080906E-03 
1467	 6.19132076936527E-03 
1468	 6.54494819572445E-03 
1469	 6.75965004094539E-03 
1470	 0.00665345024144 
1471	 6.91134192938776E-03 
1472	 5.76798356323684E-03 
1473	 3.17463689483799E-03 
1474	 2.40331384990528E-03 
1475	 6.63021090981767E-04 
1476	 7.90926827737869E-04 
1477	 4.35100574464019E-03 
1478	 4.23290164417262E-03 
1479	 1.23588817186877E-03 
1480	 1.75486564096901E-03 
1481	 4.22886815067051E-03 
1482	 3.50927824992264E-03 
1483	 1.78278360014539E-03 
1484	 2.51205111456968E-03 
1485	 3.44586874817313E-03 
1486	 2.63166898592873E-03 
1487	 2.09710900870259E-03 
1488	 2.59815934336741E-03 
1489	 2.28436173498447E-03 
1490	 1.77935183370805E-03 
1491	 2.56359209015926E-03 
1492	 2.83306549189598E-03 
1493	 1.90846774356846E-03 
1494	 1.46101771208153E-03 
1495	 1.56689716368924E-03 
1496	 1.68205903836241E-03 
1497	 1.68165180870841E-03 
1498	 1.58840286682473E-03 
1499	 1.69431635184724E-03 
1500	 1.65725329084701E-03 
1501	 1.27441842215868E-03 
1502	 1.13775207125375E-03 
1503	 1.16584324247226E-03 
1504	 1.2073842399467E-03 
1505	 1.33539684496681E-03 
1506	 1.45984267581026E-03 
1507	 1.33584067728861E-03 
1508	 1.01008855118975E-03 
1509	 1.0712492693877E-03 
1510	 1.23623011067923E-03 
1511	 1.17411334961775E-03 
1512	 1.34482285008951E-03 
1513	 1.40798186239176E-03 
1514	 1.1582212903512E-03 
1515	 1.11179785648602E-03 
1516	 1.2628388389833E-03 
1517	 1.37505719045354E-03 
1518	 1.35524425377433E-03 
1519	 1.16429318726813E-03 
1520	 1.19544135844101E-03 
1521	 1.45570298082224E-03 
1522	 1.29318558529395E-03 
1523	 9.65721473202608E-04 
1524	 9.85868198018965E-04 
1525	 1.14813522385952E-03 
1526	 1.18914670767601E-03 
1527	 1.16925679934764E-03 
1528	 1.28489071140624E-03 
1529	 1.27020611295841E-03 
1530	 1.18937479040922E-03 
1531	 1.40965052901123E-03 
1532	 1.45899524540582E-03 
1533	 1.14923561267969E-03 
1534	 9.96455425735248E-04 
1535	 1.27968119621928E-03 
1536	 1.53516178061711E-03 
1537	 1.39035027465229E-03 
1538	 1.31438266477089E-03 
1539	 1.39391717851706E-03 
1540	 1.3969241822097E-03 
1541	 1.33958771553126E-03 
1542	 1.25667422995704E-03 
1543	 1.21628236333747E-03 
1544	 1.14901693312758E-03 
1545	 1.2970973823798E-03 
1546	 0.001614923623934 
1547	 1.51654481929686E-03 
1548	 1.31088295568191E-03 
1549	 1.41398633426229E-03 
1550	 1.45592056023593E-03 
1551	 1.43120823014282E-03 
1552	 1.38895704920928E-03 
1553	 1.11561431888553E-03 
1554	 1.01461054064442E-03 
1555	 1.18302632709721E-03 
1556	 1.28835679775706E-03 
1557	 1.46064289229187E-03 
1558	 1.52097165330043E-03 
1559	 1.2992669231137E-03 
1560	 1.22321030721028E-03 
1561	 1.31363896873042E-03 
1562	 1.31715260895524E-03 
1563	 1.33408131542683E-03 
1564	 1.21182974966949E-03 
1565	 9.07594139852957E-04 
1566	 8.77024741132952E-04 
1567	 1.11673940174524E-03 
1568	 1.31980529218836E-03 
1569	 1.37386598682296E-03 
1570	 1.30847888237785E-03 
1571	 1.14178987224348E-03 
1572	 9.53783317980836E-04 
1573	 1.09305195150433E-03 
1574	 1.18995221139413E-03 
1575	 1.01363669062391E-03 
1576	 1.25549369222464E-03 
1577	 1.39925849640928E-03 
1578	 1.04438479757665E-03 
1579	 1.05507920310352E-03 
1580	 1.25340146169068E-03 
1581	 1.15524826573562E-03 
1582	 1.14880074153172E-03 
1583	 1.42888005691024E-03 
1584	 1.43103282210315E-03 
1585	 1.1230784746608E-03 
1586	 1.2452693687719E-03 
1587	 1.36820014443412E-03 
1588	 1.14568752773489E-03 
1589	 1.1316817310983E-03 
1590	 1.24919457216387E-03 
1591	 1.1611159165743E-03 
1592	 9.70286926020151E-04 
1593	 1.14965078558396E-03 
1594	 1.40211753909265E-03 
1595	 1.48863832511663E-03 
1596	 1.62525754125892E-03 
1597	 1.44542739935698E-03 
1598	 1.18184787611713E-03 
1599	 1.21524696415233E-03 
1600	 1.25578076044792E-03 
1601	 1.39254276947272E-03 
1602	 1.80508136265539E-03 
1603	 1.77267269115617E-03 
1604	 1.28157035011892E-03 
1605	 1.11959177462472E-03 
1606	 1.1791940437169E-03 
1607	 1.36238192230054E-03 
1608	 1.55123174376004E-03 
1609	 1.48318057594751E-03 
1610	 1.37469319679183E-03 
1611	 1.43811197644249E-03 
1612	 1.56145930982534E-03 
1613	 1.55943300123071E-03 
1614	 1.40495389727978E-03 
1615	 1.09487676309739E-03 
1616	 9.89642287223128E-04 
1617	 1.17057576857442E-03 
1618	 1.25637018392146E-03 
1619	 1.24802705317088E-03 
1620	 1.28514820582299E-03 
1621	 1.29881720955856E-03 
1622	 1.11569203217794E-03 
1623	 1.02778962293804E-03 
1624	 1.10971221022913E-03 
1625	 1.03889580546529E-03 
1626	 1.12531403012926E-03 
1627	 1.43811214933406E-03 
1628	 1.40516161111779E-03 
1629	 1.22951144010067E-03 
1630	 1.28606142666504E-03 
1631	 1.32297256118812E-03 
1632	 1.40228227531652E-03 
1633	 1.33188036191803E-03 
1634	 1.17349544838212E-03 
1635	 1.30932582146861E-03 
1636	 1.22650786980847E-03 
1637	 1.06222279616731E-03 
1638	 1.18094541726401E-03 
1639	 1.12600473528623E-03 
1640	 1.04867938481166E-03 
1641	 1.19751108857321E-03 
1642	 1.34052585154904E-03 
1643	 1.43723928706054E-03 
1644	 1.32848540272076E-03 
1645	 1.22391317080414E-03 
1646	 1.3577621741359E-03 
1647	 1.31520541931243E-03 
1648	 1.07160553496355E-03 
1649	 1.04533429007008E-03 
1650	 1.35374962357608E-03 
1651	 1.52944545889952E-03 
1652	 1.49584197080432E-03 
1653	 1.65259195737188E-03 
1654	 1.63991119057065E-03 
1655	 1.2941249830873E-03 
1656	 1.12281947695634E-03 
1657	 1.00931271659326E-03 
1658	 9.99317472266521E-04 
1659	 1.03743860866567E-03 
1660	 1.14219830735663E-03 
1661	 1.49349904853779E-03 
1662	 1.49100747545295E-03 
1663	 1.2046783897859E-03 
1664	 1.24692808820889E-03 
1665	 1.3732476494604E-03 
1666	 1.38103040478232E-03 
1667	 1.54889792944415E-03 
1668	 1.31323522417908E-03 
1669	 1.17998506209609E-03 
1670	 1.26222973945432E-03 
1671	 1.29101958532458E-03 
1672	 1.17482013640591E-03 
1673	 1.03706524147355E-03 
1674	 1.03153533269045E-03 
1675	 1.07842934187604E-03 
1676	 1.18673149751099E-03 
1677	 1.24715396138624E-03 
1678	 1.17486743817946E-03 
1679	 1.38954713521981E-03 
1680	 1.61751540204909E-03 
1681	 1.57056049704323E-03 
1682	 1.60255422081464E-03 
1683	 1.66021031806556E-03 
1684	 1.51226161699662E-03 
1685	 1.31895839855704E-03 
1686	 1.3476690019651E-03 
1687	 1.23124593095621E-03 
1688	 1.0919210552349E-03 
1689	 1.3539606244807E-03 
1690	 1.36227173275266E-03 
1691	 1.30810107900825E-03 
1692	 1.67739725914751E-03 
1693	 1.47438619165614E-03 
1694	 1.00700624821331E-03 
1695	 1.33379375748214E-03 
1696	 1.51433351965909E-03 
1697	 1.41708694990752E-03 
1698	 1.83359656714339E-03 
1699	 1.70580199326114E-03 
1700	 8.59483353016325E-04 
1701	 8.81821908277532E-04 
1702	 1.4539290894564E-03 
1703	 1.38700315202078E-03 
1704	 1.34646284896139E-03 
1705	 1.52907629873037E-03 
1706	 1.18954453651542E-03 
1707	 9.73110134479067E-04 
1708	 1.23451166860261E-03 
1709	 1.21169631201804E-03 
1710	 1.09370757746205E-03 
1711	 1.3924567035047E-03 
1712	 1.42194808159825E-03 
1713	 1.24643355601489E-03 
1714	 1.24875259743529E-03 
1715	 6.94279329198149E-04 
1716	 5.49539398356643E-04 
1717	 1.07445861156124E-03 
1718	 1.32489075689635E-03 
1719	 1.3398798418563E-03 
1720	 1.36662973989835E-03 
1721	 1.29889648745263E-03 
1722	 1.12852261127294E-03 
1723	 1.16289599604609E-03 
1724	 1.7350830097605E-03 
1725	 1.80947905300876E-03 
1726	 1.15432501590674E-03 
1727	 7.730228836211E-04 
1728	 1.00437746418013E-03 
1729	 1.64039257887597E-03 
1730	 1.96178712694271E-03 
1731	 1.63878987764745E-03 
1732	 8.93027526949926E-04 
1733	 2.71718708516833E-06 
1734	 2.71142207648948E-04 
1735	 1.49845711813388E-03 
1736	 1.73941381230554E-03 
1737	 1.61712245731163E-03 
1738	 1.66579864396222E-03 
1739	 1.0931085453504E-03 
1740	 1.05131780971918E-03 
1741	 1.49264064363839E-03 
1742	 1.16594419869498E-03 
1743	 9.64946413064151E-04 
1744	 1.36360616393328E-03 
1745	 1.35361818160598E-03 
1746	 1.48676439787589E-03 
1747	 1.6006150305804E-03 
1748	 1.46069332860364E-03 
1749	 1.20016700440655E-03 
1750	 7.19455321351507E-04 
1751	 6.96812795885629E-04 
1752	 7.55692127763097E-04 
1753	 6.88138809056654E-04 
1754	 1.01000703154285E-03 
1755	 1.13590445773842E-03 
1756	 1.04242637155342E-03 
1757	 1.1273239185354E-03 
1758	 1.24377159425657E-03 
1759	 1.58669527660115E-03 
1760	 1.50037491059571E-03 
1761	 1.6306110286159E-03 
1762	 1.29347585745923E-03 
1763	 8.8774533523393E-04 
1764	 1.92837871361448E-03 
1765	 2.13341035128422E-03 
1766	 1.54448671547744E-03 
1767	 1.8077292927461E-03 
1768	 1.02336091123617E-03 
1769	 6.37657861728902E-04 
1770	 2.45714900437947E-03 
1771	 2.48088419432846E-03 
1772	 9.98202122092812E-04 
1773	 1.55005579626284E-03 
1774	 1.2973589814123E-03 
1775	 2.27053681524784E-03 
1776	 2.90611971781662E-03 
1777	 2.4400872135298E-03 
1778	 2.01322186387641E-03 
1779	 1.04268061379913E-03 
1780	 6.96678869074716E-04 
1781	 9.10979011743211E-04 
1782	 1.43613090013315E-03 
1783	 3.07376649536813E-03 
1784	 2.80526899483201E-03 
1785	 3.89142700497818E-04 
1786	 1.53318651519685E-03 
1787	 5.2723462589533E-03 
1788	 5.12828293926397E-03 
1789	 5.58862106872928E-03 
1790	-3.69034766428044E-04 
1791	-6.00919011758273E-03 
1792	-1.55552004526419E-03 
1793	 3.91550199660759E-03 
1794	 6.2359738652513E-03 
1795	 1.13902138611023E-02 
1796	 1.02605973674933E-02 
1797	 7.0875840881778E-03 
1798	 1.32513872157083E-02 
1799	 1.83230926981944E-02 
1800	 1.71803726362369E-02 
1801	 2.03031982985144E-02 
1802	 2.49889036618308E-02 
1803	 2.44858550811747E-02 
1804	 2.47922766583833E-02 
1805	 2.48467681317874E-02 
1806	 1.03433172794786E-02 
1807	 2.9651450508017E-03 
1808	-9.99040410098696E-03 
1809	-5.87069949430601E-03 
1810	 3.80586589248256E-02 
1811	 7.13638417598078E-02 
1812	 0.173135008947693 
1813	 0.208363117772843 
1814	 7.46676637929208E-02 
1815	 9.80447614531799E-02 
1816	 0.177208696372631 
1817	 0.222780200347654 
1818	 0.31308612631993 
1819	 0.068823414188381 
1820	-3.86711310108198E-02 
1821	 0.693894589800727 
1822	 0.933142963659049 
1823	 0.934055565154362 
1824	 1.000864332813 
1825	 0.504898885702923 
1826	 0.318582440724614 
1827	 1.27473349383217 
1828	 1.3176188314306 
1829	 0.540494513405991 
1830	 0.421913843843375 
1831	-0.370787973484115 
1832	 0.466642934598372 
1833	-3.70218303500143 
1834	 84.4042362749331 
1835	 2.06008689352079 
1836	 1.9686668387271 
1837	 1.56158765433068 
1838	 1.18212281562027 
1839	-0.4853976022039 
1840	 1.90711641029736 
1841	 0.392790328295576 
1842	 0.985920170267383 
1843	 0.919408961832584 
1844	-0.496113416741424 
1845	-1.55106403076364 
1846	-4464.78023009747 
1847	 8.37993868813542 
1848	-10.4589140317921 
1849	-2.22643309236239 
1850	-2.09361289942269 
1851	-1.90804012835095 
1852	-1.98452533470133 
1853	-1.33494580876566 
1854	-1.10618634167626 
1855	-0.329311350706234 
1856	-0.170601591123936 
1857	 1.19132791442637 
1858	 1.15481345995707 
1859	 24.315203593127 
1860	 9.65462568324498 
1861	 5.42698122643431 
1862	 1.34531969983991 
1863	 0.926289698662245 
1864	 1.37516250232898 
1865	 1.33047948339427 
1866	 2.25227136806038 
1867	 2.57983512308676 
1868	 1.26795002607217 
1869	 1.29271080486548 
1870	 2.02676066969163 
1871	-8.26156212181012 
1872	-2.25205335430547 
1873	-0.93963884448017 
1874	-1.30043209245139 
1875	-0.350531476648822 
1876	-0.708764962922465 
1877	 3.51658005050081E-02 
1878	 0.109273540564603 
1879	 0.215397607374587 
1880	 0.115862858601249 
1881	-0.22416293743887 
1882	-0.211391067538463 
1883	-1.03330633656479 
1884	-2.36671984175381 
1885	-0.940572910599622 
1886	 13.8049038924164 
1887	-1.61413299661843 
1888	-0.866382062839981 
1889	-0.714930066861124 
1890	 5.32829039108842E-02 
1891	 0.330197613428958 
1892	-3.34170767831728 
1893	-0.26293641639169 
1894	-1.31697474288303 
1895	-4.16096687964188 
1896	 2.2090464057 
1897	 0.849750665607054 
1898	 1.79110181833866 
1899	 0.250691298602269 
1900	 0.850162455340354 
1901	-3.61842667252375 
1902	-13.0082792647645 
1903	 1.19120794777774 
1904	 1.17754337566642 
1905	 0.956038373404204 
1906	 0.615918405592953 
1907	-40.2271384529837 
1908	 2.12990942241068 
1909	 1.69264826672305 
1910	 19.5675868889645 
1911	-1.83146505170108 
1912	-0.440755190855231 
1913	-0.295355959205865 
1914	-0.485721977925476 
1915	-0.449479599596348 
1916	-0.461399297352156 
1917	-0.570431598518542 
1918	-0.254086090724606 
1919	 18.6326966747844 
1920	 50.9966920601562 
1921	 2.37474793812148 
1922	 0.767208497260712 
1923	 0.26685901518719 
1924	 0.477390207439829 
1925	 0.694807463767998 
1926	 0.59278892477894 
1927	 0.715385132574277 
1928	 0.502806706120123 
1929	 1.66869581131347 
1930	 1.37691221886679 
1931	-0.106658096015904 
1932	-0.363824104172511 
1933	-0.464191068609502 
1934	-0.258762202508249 
1935	-0.175057302974381 
1936	-0.26040348173903 
1937	-0.220413720148207 
1938	-0.258145559402579 
1939	-0.21360798502119 
1940	-0.156707755357269 
1941	-1.51729513336365E-02 
1942	-7.04070546630114E-02 
1943	-0.134274649162171 
1944	-9.86178594165466E-02 
1945	-0.110582797663229 
1946	-8.30527286737516E-02 
1947	 7.47585986122772E-03 
1948	 2.59786425996026E-02 
1949	 1.59170016132651E-02 
1950	 1.55578032670438E-02 
1951	-7.05541266652789E-03 
1952	-0.017822459559091 
1953	-2.94632782175964E-02 
1954	-3.12808041650227E-02 
1955	-2.21062806430412E-02 
1956	-7.75347621805466E-03 
1957	-8.07035185401618E-03 
1958	-8.83617302904105E-03 
1959	-4.9324960872679E-03 
1960	-5.87860892785575E-03 
1961	-0.004817335204209 
1962	 4.58522668556687E-04 
1963	-1.74912658154459E-05 
1964	-3.39060640761334E-04 
1965	 9.39248773364991E-04 
1966	 1.70039485559087E-03 
1967	 1.59448273654104E-03 
1968	 2.77152805676263E-03 
1969	 2.74712128637719E-03 
1970	 3.4063540298917E-03 
1971	 3.90884223816319E-03 
1972	 1.39660972228191E-03 
1973	 1.06039622291065E-03 
1974	 7.77397028310764E-04 
1975	-1.6446116713539E-03 
1976	-9.28258000526262E-04 
1977	 8.91225288743086E-04 
1978	 1.05464099578281E-03 
1979	 8.4485519139034E-04 
1980	 1.30368953648663E-03 
1981	 6.66121112356428E-04 
1982	-8.76899769445317E-04 
1983	-2.20904070027961E-03 
1984	-1.81391222196973E-03 
1985	-3.76418624065848E-05 
1986	 3.65020504262628E-04 
1987	 1.54624042804046E-03 
1988	 2.79551042310488E-03 
1989	 2.40763820272827E-03 
1990	 2.84066176188432E-03 
1991	 2.98276687484407E-03 
1992	 2.25389643439162E-03 
1993	 8.51022483477898E-04 
1994	 3.64784183268097E-06 
1995	-2.03982855229092E-03 
1996	-1.15257439242648E-03 
1997	 1.51333338753819E-03 
1998	 2.86860167119816E-03 
1999	 3.84302224972706E-03 
2000	 2.03798001272584E-03 
2001	-5.45847123445347E-05 
2002	 1.19102074360478E-03 
2003	 3.85089010340205E-03 
2004	 6.08099257723964E-03 
2005	 3.45315683459452E-03 
2006	 1.22899223240263E-03 
2007	 1.65643039420907E-03 
2008	-6.11739470131426E-04 
2009	-1.0373814482099E-03 
2010	 1.19530664086411E-03 
2011	 9.84353574342575E-04 
2012	-5.80742689522994E-04 
2013	-4.94156057075472E-04 
2014	-1.05956258784287E-03 
2015	-2.70968504730829E-03 
2016	-3.78880040940131E-03 
2017	-3.77692905055624E-03 
2018	-3.76510732722139E-03 
2019	-2.79908653252295E-03 
2020	-1.57536950783413E-03 
2021	-1.52076052537002E-03 
2022	 3.88667791763287E-05 
2023	 8.3553848523205E-04 
2024	 1.01613739693333E-03 
2025	 1.41478681196977E-03 
2026	 1.59540834389415E-03 
2027	 1.2612253240137E-03 
2028	 5.47190895681177E-04 
2029	 7.50096201379747E-04 
2030	-9.68546715860936E-05 
2031	-8.34900162664172E-04 
2032	-7.77129657609572E-04 
2033	-6.20628041483664E-04 
2034	-2.45087520384443E-04 
2035	-1.32701963462622E-04 
2036	 6.65283057437956E-05 
2037	-1.6498844538185E-05 
2038	-5.83910965270027E-04 
2039	-3.85605576218362E-04 
2040	 6.64581851093349E-04 
2041	 8.40632762547027E-04 
2042	 1.2463992382605E-03 
2043	 1.43751218387471E-03 
2044	 1.21706484313586E-03 
2045	 4.56344731185703E-04 
2046	-9.56205964989186E-05 
2047	-1.12633217886425E-03 
2048	-1.29584000002575E-03 
2049	-8.9885133777904E-04 
2050	-6.46303165313596E-04 
2051	-3.62367125409202E-04 
2052	-2.407397604435E-04 
2053	-2.88503625085372E-04 
2054	-1.30958322682597E-03 
2055	-2.19533541961592E-03 
2056	-2.56674661190441E-03 
2057	-3.95437760638692E-03 
2058	-3.99576364076158E-03 
2059	-2.12773228302412E-03 
2060	-1.36877769813507E-03 
2061	-6.26102276488149E-04 
2062	 9.14881060519653E-05 
2063	-6.47732910051687E-04 
2064	-6.48100600919607E-04 
2065	 4.21172776745246E-04 
2066	 3.3420786201379E-04 
2067	-2.55929961847172E-04 
2068	-2.7008241571688E-04 
2069	-1.44457516717683E-03 
2070	-3.06440803831517E-03 
2071	-2.23438500544619E-03 
2072	-3.98278824171103E-04 
2073	 9.10515811126134E-05 
2074	 4.81737703501338E-04 
2075	 7.2162107777239E-04 
2076	 1.03988764582586E-04 
2077	-2.50847934756137E-07 
2078	 3.70538229612654E-04 
2079	 4.72364689368809E-04 
2080	 4.54652658144161E-04 
2081	 3.83493867798324E-04 
2082	 4.86163135715432E-04 
2083	 3.57174643769704E-04 
2084	 8.93152056498619E-05 
2085	-5.85006476684177E-04 
2086	-1.42231670262532E-03 
2087	-9.72033907420186E-04 
2088	 3.50728397787827E-04 
2089	 1.10653676450511E-03 
2090	 1.42230471797354E-03 
2091	 7.90760067795536E-04 
2092	 3.28267358287813E-04 
2093	-1.0669495908644E-03 
2094	-1.29492369856025E-03 
2095	-5.87975955736386E-04 
2096	-5.55818897007594E-04 
2097	-5.58112175645207E-04 
2098	-4.91418095442042E-04 
2099	-8.6127092609118E-04 
2100	-9.32599931018177E-04 
2101	-1.99822065877354E-04 
2102	 1.00882726093255E-03 
2103	 1.06287366088778E-03 
2104	 9.9218412301011E-05 
2105	-3.15452979853625E-04 
2106	-9.56720749764316E-04 
2107	-5.26433997520122E-04 
2108	 7.27918373339189E-04 
2109	 6.73637919457308E-04 
2110	 2.47478898411424E-04 
2111	 4.0783435961409E-04 
2112	 5.42144285582544E-04 
2113	 4.25579711452794E-04 
2114	 4.42620250249323E-04 
2115	 6.73841588541311E-04 
2116	 9.2016690274864E-04 
2117	 8.92514218185408E-04 
2118	 1.29993000160948E-03 
2119	 1.21180019957252E-03 
2120	 5.65422505775861E-04 
2121	-6.94644485142729E-04 
2122	-1.14394249978779E-03 
2123	-7.68399411261049E-04 
2124	-4.95905441722076E-05 
2125	 9.46848001149289E-05 
2126	-3.11329949478752E-04 
2127	 1.09234074815542E-04 
2128	 5.70755062951962E-04 
2129	 2.36754479458099E-04 
2130	 3.93886365265854E-04 
2131	 4.57036137427965E-05 
2132	-8.55782379870052E-04 
2133	-8.85116258771461E-04 
2134	-8.49135593578691E-04 
2135	-2.13149924264678E-04 
2136	-2.26719440407983E-04 
2137	-5.20705838281927E-04 
2138	-2.57461601501686E-04 
2139	-2.04655524106242E-04 
2140	-3.58983965464971E-05 
2141	 9.62768709046932E-04 
2142	 1.26631866909054E-03 
2143	 1.00500069349837E-03 
2144	 1.21596806869265E-03 
2145	 9.27391718791117E-04 
2146	 4.96470839672509E-05 
2147	-8.02753612178293E-04 
2148	-1.26893048159131E-03 
2149	-1.03817312443399E-03 
2150	-6.61344555892863E-04 
2151	-2.31702365035152E-04 
2152	 1.39366149989646E-04 
2153	-2.28202903993873E-04 
2154	-1.58897222774859E-04 
2155	 1.33683371518454E-03 
2156	 2.47350116008375E-03 
2157	 2.89646606758354E-03 
2158	 3.7393103261968E-03 
2159	 3.94164811538701E-03 
2160	 2.90074569042194E-03 
2161	 2.11189747819503E-03 
2162	 1.38651459412832E-03 
2163	 4.77799071000781E-04 
2164	-1.76201589023362E-03 
2165	-2.05865725025792E-03 
2166	-4.89526207648102E-04 
2167	-1.01770171341199E-04 
2168	 5.77970446271291E-04 
2169	 7.92599795759243E-04 
2170	 2.7660789987524E-04 
2171	-5.28265486975104E-04 
2172	-2.25311229756585E-04 
2173	 9.29895547823968E-05 
2174	-8.42951447403489E-04 
2175	-3.83854655863523E-04 
2176	-5.15641834669215E-04 
2177	-6.82995633415439E-04 
2178	 6.15696475634279E-04 
2179	 4.19728623450857E-04 
2180	-1.01003179444491E-03 
2181	-1.61712019122819E-03 
2182	-1.49171305737197E-03 
2183	-1.93230057510306E-03 
2184	-1.55803944822102E-03 
2185	-5.26793110671709E-04 
2186	-4.35424224250291E-04 
2187	-1.7611097884986E-03 
2188	-1.50470227502566E-03 
2189	-5.63206509182404E-04 
2190	 1.05703553793994E-04 
2191	 1.79401897285205E-03 
2192	 2.02532127066945E-03 
2193	 6.17518080251189E-04 
2194	 2.09892374184714E-04 
2195	 1.52504433171488E-05 
2196	-1.8042088636554E-05 
2197	 6.4022510175301E-04 
2198	 1.33334449420398E-03 
2199	 2.40791578731872E-03 
2200	 2.10670474896466E-03 
2201	 1.22274115297918E-03 
2202	-3.44297764780653E-04 
2203	-1.66881885062664E-03 
2204	-2.23921271409651E-03 
2205	-1.09499808507965E-03 
2206	 8.61448348734279E-04 
2207	 2.40081141136749E-03 
2208	 2.7441165532959E-03 
2209	 2.48707733060336E-03 
2210	 2.00510288218434E-03 
2211	 1.47715937448376E-04 
2212	-2.18242485258703E-03 
2213	-2.95882763039425E-03 
2214	-1.51633746852636E-03 
2215	 8.54577385929887E-04 
2216	 2.58168114124605E-03 
2217	 2.6649739047167E-03 
2218	 3.47862515424329E-04 
2219	-5.80723863172159E-05 
2220	-5.14525359772505E-04 
2221	-1.41560544343335E-03 
2222	-1.48044952085438E-03 
2223	-1.96473551029169E-03 
2224	-4.23241351619081E-03 
2225	-4.17403040298571E-03 
2226	-1.99015542651611E-03 
2227	-1.30236855428528E-03 
2228	-5.82304686252186E-04 
2229	-2.43947776170261E-04 
2230	 8.67145753803915E-05 
2231	-6.20312988586294E-04 
2232	-2.79157043336926E-03 
2233	-3.40580109141465E-03 
2234	-3.85053632167569E-03 
2235	-4.89913938665935E-03 
2236	-4.33355533552524E-03 
2237	-2.82904260916371E-03 
2238	-1.61982981888655E-03 
2239	-2.3565638559555E-03 
2240	-3.8305435861046E-03 
2241	-3.74196806457742E-03 
2242	-4.27983020547192E-03 
2243	-4.66369450240468E-03 
2244	-2.89550112845039E-03 
2245	-1.48554109234488E-03 
2246	-2.01276185197568E-03 
2247	-2.09435908636586E-03 
2248	-1.05766409418051E-03 
2249	-7.69462940782698E-05 
2250	 1.2932906080474E-03 
2251	 3.01533141918059E-03 
2252	 3.67111604425694E-03 
2253	 2.62490685400212E-03 
2254	 9.24708943895551E-04 
2255	-8.13901810752097E-04 
2256	-1.90279679818949E-03 
2257	-4.07893522951442E-03 
2258	-5.7526738401347E-03 
2259	-2.65275020396192E-03 
2260	-1.45727558669832E-03 
2261	 2.73957325240154E-04 
2262	 1.76987499112659E-04 
2263	-2.24305468276336E-03 
2264	-3.15743367697573E-03 
2265	-4.18055357627177E-03 
2266	-3.9207356394558E-03 
2267	-1.40274741653377E-03 
2268	-2.47054897927642E-04 
2269	 1.33496488639944E-03 
2270	 7.02636290723737E-04 
2271	-2.89498951462504E-03 
2272	-3.29557617662961E-03 
2273	-3.49120406010911E-03 
2274	-3.50393423089146E-03 
2275	-3.98533863369755E-04 
2276	 2.52599554477054E-04 
2277	-1.43529172329571E-03 
2278	-1.95829009986515E-03 
2279	-2.87638020590213E-03 
2280	-2.12786612257871E-03 
2281	 8.34871870212828E-04 
2282	 8.26123863479208E-04 
2283	 2.54823451018596E-03 
2284	 3.62861030955513E-03 
2285	 3.94468974467248E-04 
2286	-8.42689742253814E-04 
2287	-2.00149989083369E-03 
2288	-4.24007046371046E-03 
2289	-3.80934579273675E-03 
2290	-1.25078980209459E-03 
2291	 2.12726045962385E-03 
2292	 3.38479479970676E-03 
2293	 4.29010975494937E-03 
2294	 5.09204709512879E-03 
2295	 2.8792474356326E-03 
2296	-1.98860164581873E-04 
2297	-2.45813553134798E-03 
2298	-4.1398687026718E-03 
2299	-5.03505324219311E-03 
2300	-7.02236085747797E-03 
2301	-7.72031443447093E-03 
2302	-6.1009770488101E-03 
2303	-7.36447497209465E-03 
2304	-8.34981921814116E-03 
2305	-7.12436332886224E-03 
2306	-8.69792669865018E-03 
2307	-8.91268381365728E-03 
2308	-6.00823173363606E-03 
2309	-5.19429861524869E-03 
2310	-4.7150649239559E-03 
2311	-4.11679921382362E-03 
2312	-3.42831367557975E-03 
2313	-3.58170193969985E-03 
2314	-5.0227267704995E-03 
2315	-6.64039417441382E-03 
2316	-9.55352423381377E-03 
2317	-9.4087103031003E-03 
2318	-6.71684134771106E-03 
2319	-1.99953620354284E-03 
2320	 4.67981628395001E-03 
2321	 7.68169223533603E-03 
2322	 0.007292732242368 
2323	 3.63081522524847E-03 
2324	 8.25361509604573E-05 
2325	-4.65081563570612E-03 
2326	-1.10041378593677E-02 
2327	-1.16199072071022E-02 
2328	-9.9389784658496E-03 
2329	-1.11549517089389E-02 
2330	-1.05543015297695E-02 
2331	-8.30394647070437E-03 
2332	-0.012026828616322 
2333	-1.34075082698901E-02 
2334	-6.71116889690161E-03 
2335	-4.8223335186363E-03 
2336	-4.34360300486663E-03 
2337	 4.40183602564845E-03 
2338	 8.63929121476269E-03 
2339	 6.61308067409985E-03 
2340	 6.01338696915459E-03 
2341	-4.77515237414806E-04 
2342	-9.84025454883359E-03 
2343	-0.015963214836539 
2344	-1.85220152189441E-02 
2345	-1.51888043264884E-02 
2346	-9.29016074957117E-03 
2347	-1.74761331068211E-03 
2348	 4.26487618555902E-03 
2349	 0.007088780497795 
2350	 6.78171038391068E-03 
2351	 5.14247424940586E-03 
2352	 1.09828371857162E-02 
2353	 1.14753186245607E-02 
2354	 6.71125321906278E-03 
2355	 5.90967245280734E-03 
2356	-9.46726871966032E-04 
2357	-1.37445188737527E-03 
2358	 7.69816988202003E-03 
2359	 7.45373649455578E-03 
2360	 4.38042046089003E-04 
2361	-4.70931153551073E-03 
2362	-1.54103141873873E-02 
2363	-2.31381223057295E-02 
2364	-1.35006642975925E-02 
2365	-1.23407416620044E-02 
2366	-2.79772715385875E-02 
2367	-3.31469781836409E-02 
2368	-0.03224430394878 
2369	-2.86304848902816E-02 
2370	-5.89735210443862E-05 
2371	 1.98348078104797E-02 
2372	 7.30416263708304E-03 
2373	 3.66309228546216E-03 
2374	-7.51942579808281E-03 
2375	-1.65618339194135E-02 
2376	-1.86626548211743E-04 
2377	 4.84908107020525E-03 
2378	 1.06297728779779E-02 
2379	 7.6492472427672E-03 
2380	-6.04064443344367E-03 
2381	-1.52093601209923E-02 
2382	-3.50688055868337E-02 
2383	-4.40577723252317E-02 
2384	-5.10623583892833E-02 
2385	-0.04642838033368 
2386	-6.16776332690889E-03 
2387	 3.44487041817179E-02 
2388	 3.85680890745128E-02 
2389	 1.86285189441505E-02 
2390	-9.19283004090732E-03 
2391	-5.95647698169234E-02 
2392	-8.72435890827328E-02 
2393	-0.064284363728978 
2394	-7.20026850670458E-02 
2395	-9.13691283087323E-02 
2396	-6.32134463249494E-02 
2397	-2.90554231172807E-02 
2398	-0.026348114036548 
2399	-2.20053133386765E-02 
2400	-0.025648047383461 
2401	-8.41558532590639E-02 
2402	-0.120311487673423 
2403	-0.119695939116605 
2404	-0.141291466677198 
2405	-0.160888730066487 
2406	-0.154010295473384 
2407	-0.101892691847873 
2408	-6.39932975751466E-02 
2409	-5.37838771372007E-02 
2410	-4.10153308384599E-02 
2411	-7.81442869271556E-02 
2412	-0.158417238662328 
2413	-0.160135754853979 
2414	-0.108639248748661 
2415	-0.182184267030922 
2416	-0.152119845332995 
2417	-0.187384655048374 
2418	-0.394221071436898 
2419	-0.408255802621874 
2420	-0.358250042062631 
2421	-0.35023877276796 
2422	-0.27355537383356 
2423	-0.227932402845802 
2424	-0.269511161999439 
2425	-0.27246111069438 
2426	-0.175643559763148 
2427	-0.145467610060534 
2428	-0.202075355975998 
2429	-0.197008454915489 
2430	-0.21660037052427 
2431	-0.295563739188565 
2432	-0.293179537257213 
2433	-0.344174103733201 
2434	-0.349618479483064 
2435	-0.264049410635633 
2436	-0.208968901465859 
2437	-0.112637064823296 
2438	-2.85551511069975E-02 
2439	-1.69671964132136E-02 
2440	-0.025479839885305 
2441	-0.054474546813812 
2442	-0.324323789685925 
2443	-0.652539579682632 
2444	-0.731769861042979 
2445	-0.793173249730649 
2446	-0.908370984228367 
2447	-3.23610785116608 
2448	 9.10499131704246 
2449	 3.30278080131156 
2450	 1.97934558207538 
2451	 3.04754962350889 
2452	 2.65287603625416 
2453	 2.98561375534928 
2454	-104.473386332265 
2455	-2.72705093486478 
2456	-1.4783274556826 
2457	-0.755685539628716 
2458	-0.735245527427441 
2459	-0.840276928712774 
2460	-0.548797308421703 
2461	-0.648086261894842 
2462	-0.409112840045925 
2463	 0.12409964588851 
2464	-0.254267874786255 
2465	-0.431775049235527 
2466	 0.497275914388115 
2467	-3.42130703389382E-02 
2468	-2.66353080659623 
2469	-68.4159875690562 
2470	 4.17511167261488 
2471	 1.56085001343491 
2472	 0.141537776765773 
2473	 0.25013381631141 
2474	 0.665142357195258 
2475	 1.82578897935266 
2476	 2.03495057640225 
2477	 2.43926869268787 
2478	 1.26767033677658 
2479	 0.762839765514087 
2480	 1.64571400508348 
2481	 1.25168810120344 
2482	 1.25739642142573 
2483	 1.84507354447178 
2484	 1.20189749726975 
2485	 0.825238928060445 
2486	 0.539573467725533 
2487	 0.209130806855504 
2488	 0.249552417978851 
2489	 0.657434496955877 
2490	 1.40540349733413 
2491	 2.39347320054624 
2492	 2.7718506057031 
2493	 1.75765926142166 
2494	 1.9088274611093 
2495	 0.481521366214423 
2496	 0.36806432329686 
2497	 0.556408949671072 
2498	 0.498616826589673 
2499	 1.50213342149462 
2500	-0.409243039457276 
