Wavelength	rt0722east_far00006.asd
350	 1.49240812983935E-02 
351	 1.47688592262652E-02 
352	 1.45432264263083E-02 
353	 1.46402823874295E-02 
354	 1.51502832619277E-02 
355	 1.54266182686113E-02 
356	 1.54723533874357E-02 
357	 0.015573827106703 
358	 0.015914587612426 
359	 1.58251176176417E-02 
360	 0.015596900938886 
361	 1.55673407692687E-02 
362	 1.59501210377427E-02 
363	 1.56767315550522E-02 
364	 1.55133191915804E-02 
365	 1.58270671054219E-02 
366	 1.60640854752203E-02 
367	 1.60101961065348E-02 
368	 1.59394199147766E-02 
369	 0.016138992113504 
370	 1.63845541639959E-02 
371	 0.017002273192987 
372	 1.73223018169902E-02 
373	 0.016448453945874 
374	 1.67248437688434E-02 
375	 1.71850314891022E-02 
376	 1.72044093358962E-02 
377	 1.71223906187198E-02 
378	 0.017618757267622 
379	 1.78799671820846E-02 
380	 1.74012648257715E-02 
381	 1.77430619040197E-02 
382	 1.81077409554147E-02 
383	 1.82986330934371E-02 
384	 1.84682559164894E-02 
385	 1.90786970756338E-02 
386	 1.92614236773373E-02 
387	 1.90250576125606E-02 
388	 1.94007862806812E-02 
389	 1.95020936333427E-02 
390	 1.94919218866297E-02 
391	 1.96825853875225E-02 
392	 2.02768625436951E-02 
393	 0.020718026093197 
394	 2.08985094336118E-02 
395	 2.09456747275936E-02 
396	 2.10866689287321E-02 
397	 2.13385474605591E-02 
398	 0.02155310204924 
399	 2.14854197619886E-02 
400	 2.13126673277136E-02 
401	 2.14468782433606E-02 
402	 2.19218432172336E-02 
403	 2.18832381731902E-02 
404	 2.19875685258493E-02 
405	 2.22339866095477E-02 
406	 2.24328144165742E-02 
407	 2.28249341713191E-02 
408	 2.29564731441115E-02 
409	 2.29260193787688E-02 
410	 2.33506254823326E-02 
411	 2.33660428822248E-02 
412	 2.34620247168716E-02 
413	 2.39485178319994E-02 
414	 2.41275554699373E-02 
415	 2.43915553719066E-02 
416	 2.46314906611482E-02 
417	 2.46482144744968E-02 
418	 2.49499267520438E-02 
419	 2.51814537141306E-02 
420	 2.53095643074298E-02 
421	 2.56933476530484E-02 
422	 2.60053278989192E-02 
423	 2.62221294517934E-02 
424	 0.026418522286123 
425	 2.67611346184674E-02 
426	 2.70547703182863E-02 
427	 0.027337569467614 
428	 2.77374702635055E-02 
429	 2.81667286268542E-02 
430	 2.85413460321444E-02 
431	 2.88336913362251E-02 
432	 2.90830349022821E-02 
433	 2.93789208071978E-02 
434	 2.97211434879494E-02 
435	 3.00706222842315E-02 
436	 3.03260883876322E-02 
437	 3.07698721603224E-02 
438	 3.12704466565716E-02 
439	 3.15181973040761E-02 
440	 3.18114619525362E-02 
441	 0.032147593521629 
442	 3.24870617662674E-02 
443	 3.27843384403643E-02 
444	 3.31439005578149E-02 
445	 0.033519004073243 
446	 3.38381308009763E-02 
447	 0.034096653430378 
448	 3.44434032603382E-02 
449	 3.48292411229064E-02 
450	 3.50721750112134E-02 
451	 3.52698001718956E-02 
452	 0.035542590274462 
453	 3.58851825276507E-02 
454	 3.60219206589026E-02 
455	 3.62747575049015E-02 
456	 3.65189776665998E-02 
457	 3.65746246783416E-02 
458	 3.68686803907812E-02 
459	 0.037170482762046 
460	 3.73577430440055E-02 
461	 3.74563317811656E-02 
462	 3.75720375228912E-02 
463	 3.77735008150563E-02 
464	 3.80566856693509E-02 
465	 3.82601348164362E-02 
466	 3.84448464747559E-02 
467	 3.86486075769834E-02 
468	 3.88982136144065E-02 
469	 3.92148287805771E-02 
470	 3.93818502269858E-02 
471	 3.94159442564586E-02 
472	 3.96620012587459E-02 
473	 3.99244838977974E-02 
474	 4.01965989744435E-02 
475	 4.04874808061902E-02 
476	 4.06971726257115E-02 
477	 4.08904857225002E-02 
478	 4.11294991219404E-02 
479	 4.14527677793884E-02 
480	 4.16715764129671E-02 
481	 4.19155498953082E-02 
482	 4.22511619243043E-02 
483	 4.25250584144746E-02 
484	 0.042846331552589 
485	 4.31695445501314E-02 
486	 4.34356333200663E-02 
487	 4.38184957410029E-02 
488	 4.41799600888106E-02 
489	 4.45044447510061E-02 
490	 0.044902566527663 
491	 0.04516374499491 
492	 0.045517792968377 
493	 4.60711346349548E-02 
494	 4.63635983815436E-02 
495	 4.67117400149315E-02 
496	 4.71690496736806E-02 
497	 4.76479346287188E-02 
498	 0.048061895113236 
499	 4.84871807233131E-02 
500	 4.89692436138382E-02 
501	 4.94794102153466E-02 
502	 4.99685315403636E-02 
503	 5.04323374226996E-02 
504	 5.08911474595897E-02 
505	 5.14018378926193E-02 
506	 5.17961914469951E-02 
507	 5.21472793461765E-02 
508	 5.27004623044813E-02 
509	 5.32473068816041E-02 
510	 5.36742929891826E-02 
511	 5.40302494705833E-02 
512	 5.47301922331312E-02 
513	 5.52720455329059E-02 
514	 5.56974826529881E-02 
515	 5.62525989472409E-02 
516	 5.68060641928858E-02 
517	 5.74573980617876E-02 
518	 5.81813986646749E-02 
519	 5.87892328431083E-02 
520	 5.93717180173126E-02 
521	 0.059909497218323 
522	 6.04189090368585E-02 
523	 6.11127560074974E-02 
524	 6.17755081715389E-02 
525	 6.23864255718596E-02 
526	 6.30590082867922E-02 
527	 6.36846343360562E-02 
528	 6.43372566645796E-02 
529	 6.50313903089567E-02 
530	 6.56116542581219E-02 
531	 0.066222735348466 
532	 6.69369665289281E-02 
533	 6.77438293376055E-02 
534	 6.83457577536996E-02 
535	 6.89506007715885E-02 
536	 0.069634695350449 
537	 7.02847584393734E-02 
538	 7.10004574461041E-02 
539	 7.17375680815942E-02 
540	 0.072443937933834 
541	 7.31641108880793E-02 
542	 7.38514081911308E-02 
543	 0.07451862953995 
544	 7.52159266851105E-02 
545	 0.07593844249524 
546	 7.66412480936021E-02 
547	 7.72996754425297E-02 
548	 7.79316982127873E-02 
549	 0.078618690902297 
550	 7.93184424777612E-02 
551	 7.99739549711234E-02 
552	 0.080730027856915 
553	 8.14211938404771E-02 
554	 8.20353403738004E-02 
555	 8.27444002843364E-02 
556	 8.34389846949851E-02 
557	 8.40873902752658E-02 
558	 8.47085820855338E-02 
559	 8.54667652940905E-02 
560	 8.60772756348791E-02 
561	 8.65893772768727E-02 
562	 8.72398871420729E-02 
563	 8.78217124535035E-02 
564	 8.83401530150797E-02 
565	 0.088822766464954 
566	 8.92909657384635E-02 
567	 8.96789607272408E-02 
568	 9.00687133323996E-02 
569	 0.090549672899698 
570	 9.09365609092369E-02 
571	 9.12621199550805E-02 
572	 9.15616940506079E-02 
573	 9.18567305251078E-02 
574	 9.21473977156098E-02 
575	 9.24472137003196E-02 
576	 9.27254406327826E-02 
577	 9.28083030521423E-02 
578	 0.092883358284451 
579	 9.29485028052212E-02 
580	 9.29010703159474E-02 
581	 9.29028807903523E-02 
582	 9.28281131082378E-02 
583	 9.26390845064502E-02 
584	 9.25354840167458E-02 
585	 9.22124775966056E-02 
586	 9.18486622777516E-02 
587	 9.16931899048931E-02 
588	 9.12968644068769E-02 
589	 9.08952755136522E-02 
590	 9.05693255990066E-02 
591	 9.01581146767657E-02 
592	 8.97004688290104E-02 
593	 8.92119116971845E-02 
594	 8.86450573608645E-02 
595	 8.77337442993657E-02 
596	 8.67120909767232E-02 
597	 0.085671513881801 
598	 8.46245885614815E-02 
599	 8.35769634812365E-02 
600	 8.26759617035622E-02 
601	 0.081999145931869 
602	 8.14744692148011E-02 
603	 0.081161353744549 
604	 8.09706204370532E-02 
605	 8.08058346741495E-02 
606	 8.07806930180367E-02 
607	 8.08038009553664E-02 
608	 8.08150080263822E-02 
609	 8.08003949973384E-02 
610	 0.080846528022012 
611	 8.09126598476217E-02 
612	 8.09399995533413E-02 
613	 8.09026542027292E-02 
614	 8.08111282895244E-02 
615	 8.07417974969223E-02 
616	 0.080792149460915 
617	 8.08984762492499E-02 
618	 8.08793729347288E-02 
619	 8.07212900188051E-02 
620	 8.06882635452133E-02 
621	 8.07008251206531E-02 
622	 8.07089225994686E-02 
623	 8.06793170628098E-02 
624	 8.06647605354343E-02 
625	 8.05374774618454E-02 
626	 8.03972119929016E-02 
627	 8.05376259026562E-02 
628	 8.05422599772047E-02 
629	 8.04961691211077E-02 
630	 8.04993490342643E-02 
631	 8.04296841967246E-02 
632	 8.02552805019629E-02 
633	 8.01211609607159E-02 
634	 8.01975980657625E-02 
635	 8.01339352885079E-02 
636	 8.00135480695777E-02 
637	 7.99098831426003E-02 
638	 7.98191974584573E-02 
639	 7.96818396077584E-02 
640	 7.95246913787993E-02 
641	 7.93971028441538E-02 
642	 7.93248187694804E-02 
643	 7.91913945743619E-02 
644	 7.89797690055224E-02 
645	 7.87608336695225E-02 
646	 0.078585252857737 
647	 0.078419853739694 
648	 7.82274042551655E-02 
649	 7.79972099286047E-02 
650	 7.77531806164275E-02 
651	 7.74621468133817E-02 
652	 7.70919709808822E-02 
653	 7.67078379320007E-02 
654	 7.61933015182378E-02 
655	 7.55061101732975E-02 
656	 0.074821986755407 
657	 0.074218855276894 
658	 7.37319475614267E-02 
659	 7.33429340759361E-02 
660	 7.29697040304967E-02 
661	 7.26626327816649E-02 
662	 7.24572887075876E-02 
663	 7.23634567805823E-02 
664	 7.21872261452205E-02 
665	 0.072035774870072 
666	 7.19437300921284E-02 
667	 7.17397864903842E-02 
668	 7.16572375326462E-02 
669	 0.071662350527183 
670	 7.16407413686271E-02 
671	 7.15714895969156E-02 
672	 7.14386787164549E-02 
673	 7.12883253712094E-02 
674	 7.12180726114628E-02 
675	 7.12268905846773E-02 
676	 7.12255221401926E-02 
677	 7.11402102080671E-02 
678	 7.09603509446633E-02 
679	 7.08830849431055E-02 
680	 7.08580251213055E-02 
681	 7.07548698733859E-02 
682	 7.07924332884173E-02 
683	 7.08293403439461E-02 
684	 7.07623339276736E-02 
685	 0.070563095931554 
686	 7.04223792481739E-02 
687	 7.02189524366644E-02 
688	 6.98702280117252E-02 
689	 6.97160371320826E-02 
690	 0.069460334707148 
691	 6.90260282914575E-02 
692	 6.84659858628886E-02 
693	 6.78715354305892E-02 
694	 0.067238135907332 
695	 6.65705431825724E-02 
696	 6.58348319801831E-02 
697	 0.065078530962015 
698	 6.41920382113457E-02 
699	 6.31474957649848E-02 
700	 6.22353322689395E-02 
701	 6.12513914861132E-02 
702	 6.01558340162626E-02 
703	 5.90292234256615E-02 
704	 5.79582708207055E-02 
705	 5.68323809281988E-02 
706	 5.55906955249612E-02 
707	 5.42568677102488E-02 
708	 5.28398776356277E-02 
709	 0.051334342883794 
710	 4.97313430143421E-02 
711	 0.04803319626928 
712	 4.62985443582207E-02 
713	 4.45798101420858E-02 
714	 4.28708541915084E-02 
715	 4.11776990765281E-02 
716	 0.039372681733916 
717	 3.74847233888019E-02 
718	 3.55218812042292E-02 
719	 0.033546560785898 
720	 3.18579970438446E-02 
721	 3.03203657050022E-02 
722	 2.87890140128569E-02 
723	 2.71316633599206E-02 
724	 2.55367556871161E-02 
725	 2.40069714826208E-02 
726	 2.24959431090905E-02 
727	 2.08925193053484E-02 
728	 1.91810700884952E-02 
729	 1.75638935317839E-02 
730	 1.59048084271074E-02 
731	 1.44367475403961E-02 
732	 1.33491734580293E-02 
733	 1.23481222126022E-02 
734	 1.15446694798016E-02 
735	 1.09769594002721E-02 
736	 1.05208441105643E-02 
737	 1.01592223583225E-02 
738	 9.90673145022961E-03 
739	 9.75366885099367E-03 
740	 9.56308764018667E-03 
741	 9.42405514449354E-03 
742	 9.32696124730088E-03 
743	 9.2146812319605E-03 
744	 9.10389624829845E-03 
745	 9.08152710028948E-03 
746	 9.1365253641104E-03 
747	 9.12062559690987E-03 
748	 9.14813565279478E-03 
749	 9.15943225927871E-03 
750	 9.10181677375064E-03 
751	 9.07575594751848E-03 
752	 9.13305332984387E-03 
753	 9.18884682446305E-03 
754	 9.10973629806655E-03 
755	 9.04136894331922E-03 
756	 8.95842145694232E-03 
757	 8.90081544350672E-03 
758	 9.08044663085334E-03 
759	 9.18653529661245E-03 
760	 9.1692234244112E-03 
761	 9.18389657419527E-03 
762	 9.1283715460419E-03 
763	 9.22666317751461E-03 
764	 9.3423271860502E-03 
765	 9.30925773265575E-03 
766	 9.26767195213553E-03 
767	 9.31198817991964E-03 
768	 9.42303835034191E-03 
769	 9.48276964031696E-03 
770	 9.50993952103179E-03 
771	 9.53136993330665E-03 
772	 9.57423772301366E-03 
773	 9.64918208225184E-03 
774	 9.8061285717556E-03 
775	 9.96807437086183E-03 
776	 1.00423658813402E-02 
777	 1.02035164341183E-02 
778	 1.03343903708893E-02 
779	 1.04057977923753E-02 
780	 1.05029730148467E-02 
781	 1.07552852354975E-02 
782	 1.09967773672508E-02 
783	 1.11115278036983E-02 
784	 0.011213868407731 
785	 1.13774589233323E-02 
786	 1.16123460275092E-02 
787	 1.18636200003535E-02 
788	 1.19222958714944E-02 
789	 1.20846077872605E-02 
790	 1.23818610478659E-02 
791	 1.26178981043714E-02 
792	 1.28323856891411E-02 
793	 1.30765375928167E-02 
794	 1.33579571716934E-02 
795	 1.36018433805422E-02 
796	 0.0137569691597 
797	 1.38895610050393E-02 
798	 1.40818660855419E-02 
799	 1.43262786480911E-02 
800	 1.45330079735134E-02 
801	 1.47140397575079E-02 
802	 1.49337008607977E-02 
803	 1.51470131649571E-02 
804	 1.52795205345507E-02 
805	 1.52900552090635E-02 
806	 1.51882608895611E-02 
807	 1.53743624180401E-02 
808	 1.54825651983102E-02 
809	 1.52476503313318E-02 
810	 1.50606780906387E-02 
811	 1.50468512590765E-02 
812	 1.50488940527929E-02 
813	 1.48059819020123E-02 
814	 1.44572336970783E-02 
815	 1.42765288569578E-02 
816	 1.41649735297785E-02 
817	 1.37664641575505E-02 
818	 1.34227359051711E-02 
819	 1.30403575664255E-02 
820	 1.25816789954246E-02 
821	 1.21600508176994E-02 
822	 1.16700990738535E-02 
823	 1.10944323954852E-02 
824	 1.04654603246572E-02 
825	 9.77653631001722E-03 
826	 9.15477481198732E-03 
827	 8.52567606933137E-03 
828	 7.83474407542508E-03 
829	 7.36604744683898E-03 
830	 6.96582742035254E-03 
831	 6.54801853683782E-03 
832	 6.14046724186019E-03 
833	 6.01648285443165E-03 
834	 5.99225439514395E-03 
835	 5.90789419626885E-03 
836	 5.72010925514656E-03 
837	 5.46669517985697E-03 
838	 5.29938128332686E-03 
839	 5.27350451282971E-03 
840	 5.15204795525329E-03 
841	 5.00679658045653E-03 
842	 4.95746849725132E-03 
843	 5.05843466491934E-03 
844	 4.96648684624597E-03 
845	 4.98502473234458E-03 
846	 5.00692328850926E-03 
847	 4.7274371632036E-03 
848	 4.89361743365616E-03 
849	 4.92975373480376E-03 
850	 4.68717610989682E-03 
851	 4.72430663940625E-03 
852	 4.6370772419001E-03 
853	 4.60614383850532E-03 
854	 4.73277615624388E-03 
855	 4.72274901857911E-03 
856	 4.45927686177798E-03 
857	 4.27747244480391E-03 
858	 4.4104805663938E-03 
859	 4.25543929505275E-03 
860	 4.34242390722798E-03 
861	 4.43954952663538E-03 
862	 4.12104562146058E-03 
863	 4.3370257739692E-03 
864	 4.39276357199271E-03 
865	 4.18776861971112E-03 
866	 4.21642788580655E-03 
867	 4.11289015916113E-03 
868	 4.01159892306737E-03 
869	 4.01953284940029E-03 
870	 4.11946583592394E-03 
871	 4.2148757770949E-03 
872	 4.17076552869254E-03 
873	 4.01761490889687E-03 
874	 4.17390658119554E-03 
875	 3.89425679870931E-03 
876	 3.70924041889984E-03 
877	 0.004078111611711 
878	 3.70977055687435E-03 
879	 3.45027679438501E-03 
880	 3.62905259880922E-03 
881	 4.11294039815113E-03 
882	 3.9515521379058E-03 
883	 3.72011741888472E-03 
884	 3.64439451882136E-03 
885	 3.6045703059066E-03 
886	 3.52774387052614E-03 
887	 3.52079243433875E-03 
888	 3.57866355826986E-03 
889	 3.55498902098875E-03 
890	 3.46977168856242E-03 
891	 3.54445140265285E-03 
892	 3.72274641567361E-03 
893	 3.35878563142253E-03 
894	 3.29650959368161E-03 
895	 3.28953098956833E-03 
896	 3.07812650390269E-03 
897	 3.44809096680118E-03 
898	 3.80649282740374E-03 
899	 3.62116151106106E-03 
900	 2.96035217862019E-03 
901	 3.50626949877185E-03 
902	 3.4976736717472E-03 
903	 3.19647391893943E-03 
904	 3.36304131681955E-03 
905	 3.00080787268289E-03 
906	 3.04312908111084E-03 
907	 3.35563775669885E-03 
908	 3.08555084935713E-03 
909	 2.72091122563211E-03 
910	 3.19200034128799E-03 
911	 3.83550505923303E-03 
912	 2.95506555216918E-03 
913	 3.24852872552733E-03 
914	 3.40473487419163E-03 
915	 3.03406494968125E-03 
916	 3.23804547341391E-03 
917	 2.91416458023483E-03 
918	 2.72133496281777E-03 
919	 2.97971316294817E-03 
920	 3.2532828489547E-03 
921	 2.97296326372593E-03 
922	 2.93842214336703E-03 
923	 3.48256779064347E-03 
924	 3.37429532753182E-03 
925	 3.75691410789459E-03 
926	 3.40588278739021E-03 
927	 1.52917698901636E-03 
928	 2.07193949143088E-03 
929	 2.66987448709824E-03 
930	 1.69628197226548E-03 
931	-6.37128497178648E-04 
932	 6.23002769123196E-03 
933	 4.81615306116487E-03 
934	-2.18229069015989E-03 
935	-7.06833715505241E-04 
936	 4.3982171700315E-03 
937	 4.83870733272548E-03 
938	 2.76994520131621E-03 
939	 2.40068727167913E-03 
940	 2.32156822663224E-03 
941	 4.78515250729827E-03 
942	 5.99283492833076E-03 
943	 1.30998367002179E-03 
944	 6.74852532227011E-04 
945	 4.6377888766528E-03 
946	 6.57758822527296E-03 
947	 3.72925547797159E-04 
948	 2.36494136064919E-03 
949	 2.91564540943402E-03 
950	 2.05647300443004E-03 
951	 4.87708418410776E-03 
952	 2.59331206822015E-03 
953	 2.17896638349345E-03 
954	 3.64890205932554E-03 
955	 2.58457032963453E-03 
956	 3.75125376255116E-03 
957	 2.68550206337352E-03 
958	 6.58822191358159E-04 
959	 2.1935967230565E-03 
960	 3.62533275780702E-03 
961	 2.25235335439277E-03 
962	 2.00635702945935E-04 
963	 1.60985848436336E-03 
964	 2.67491673475601E-03 
965	 2.81744200821092E-03 
966	 2.50175394092769E-03 
967	 2.63872287207162E-03 
968	 3.75658006030034E-03 
969	 2.6357724099841E-03 
970	 5.01271601437219E-04 
971	 1.74496034816245E-03 
972	 2.48439554192603E-03 
973	 2.36526037706689E-03 
974	 2.16620804910058E-03 
975	 3.03166160386994E-03 
976	 2.9844779655881E-03 
977	 1.98553600596924E-03 
978	 1.44203114068755E-03 
979	 2.93856135080098E-03 
980	 2.46674486696263E-03 
981	 2.15368590446632E-03 
982	 2.52138282076728E-03 
983	 2.43508431715428E-03 
984	 2.43045827215505E-03 
985	 3.35982253854576E-03 
986	 3.58307314388456E-03 
987	 8.395745170582E-04 
988	 2.33728608434158E-03 
989	 3.92680771563302E-03 
990	 3.31222220846915E-03 
991	 1.19960732383698E-03 
992	 1.70699401271768E-03 
993	 1.91443583467331E-03 
994	 1.64455867146034E-03 
995	 2.57705822897167E-03 
996	 2.67948944194751E-03 
997	 1.9184012467707E-03 
998	 1.9512904360294E-03 
999	 4.18125140865388E-03 
1000	 3.90846783816274E-03 
1001	 2.28117665397575E-03 
1002	 2.69263954401877E-03 
1003	 2.90969807965625E-03 
1004	 3.05973695129816E-03 
1005	 3.09045760586137E-03 
1006	 3.04657357255956E-03 
1007	 2.77641240179741E-03 
1008	 2.81785781889688E-03 
1009	 2.81957559020578E-03 
1010	 2.60176525011414E-03 
1011	 2.59015079387674E-03 
1012	 0.002497987427666 
1013	 2.13080127452296E-03 
1014	 2.14861453191552E-03 
1015	 2.60138549180641E-03 
1016	 2.72942342666999E-03 
1017	 2.79887813827612E-03 
1018	 2.97769761014402E-03 
1019	 3.31024118253658E-03 
1020	 3.3167136591596E-03 
1021	 3.07779892631352E-03 
1022	 3.09277916412365E-03 
1023	 3.22001324146847E-03 
1024	 2.60143802467993E-03 
1025	 2.46792114477528E-03 
1026	 2.42032697854722E-03 
1027	 2.36918928918102E-03 
1028	 2.1964985427279E-03 
1029	 2.43486722662552E-03 
1030	 3.02643766566757E-03 
1031	 3.28352518345849E-03 
1032	 3.64431426716355E-03 
1033	 3.74200945400057E-03 
1034	 3.65016481980712E-03 
1035	 3.50398669157165E-03 
1036	 3.10413000671501E-03 
1037	 2.88524049921486E-03 
1038	 2.61812591807336E-03 
1039	 2.42057720009711E-03 
1040	 2.22907876480114E-03 
1041	 2.29116539618601E-03 
1042	 2.5285982259963E-03 
1043	 2.99002033237442E-03 
1044	 3.21030052307313E-03 
1045	 3.82214156688076E-03 
1046	 3.75346404813001E-03 
1047	 2.97172667599031E-03 
1048	 2.75635313401805E-03 
1049	 2.34760569117466E-03 
1050	 2.29981730158407E-03 
1051	 2.84734527628869E-03 
1052	 3.08147965867305E-03 
1053	 3.60767005443792E-03 
1054	 3.58132658510249E-03 
1055	 2.86803707634816E-03 
1056	 2.5527981609075E-03 
1057	 0.002252576794475 
1058	 1.51525131738582E-03 
1059	 1.64070318586333E-03 
1060	 2.56224373698602E-03 
1061	 2.83516449411989E-03 
1062	 3.38492783777423E-03 
1063	 3.36622184961856E-03 
1064	 0.00259545558989 
1065	 2.42647991730233E-03 
1066	 2.25934051287747E-03 
1067	 2.20337068404776E-03 
1068	 2.52381823918369E-03 
1069	 2.68532837636944E-03 
1070	 2.8462313513968E-03 
1071	 2.87995005490638E-03 
1072	 2.80828846222783E-03 
1073	 2.85007055367236E-03 
1074	 2.68192243592439E-03 
1075	 2.12966424117484E-03 
1076	 2.23787325961948E-03 
1077	 2.63358741682208E-03 
1078	 2.80783796426408E-03 
1079	 3.43708036402922E-03 
1080	 3.52630464866496E-03 
1081	 3.07572327594753E-03 
1082	 2.92446402584037E-03 
1083	 2.66371141533195E-03 
1084	 2.5573444415902E-03 
1085	 2.67014905850032E-03 
1086	 2.68901430992539E-03 
1087	 2.60501291602185E-03 
1088	 2.6924736843309E-03 
1089	 3.08938683206981E-03 
1090	 3.13607559054545E-03 
1091	 3.01217316576128E-03 
1092	 2.83316988518821E-03 
1093	 2.80950944884376E-03 
1094	 2.37676571784263E-03 
1095	 2.37538788106042E-03 
1096	 2.98731560883093E-03 
1097	 3.02471626868297E-03 
1098	 2.81083020333318E-03 
1099	 2.77331711168645E-03 
1100	 2.41666982886228E-03 
1101	 2.44915043044294E-03 
1102	 3.14892137178215E-03 
1103	 3.20911752341782E-03 
1104	 2.90356780747637E-03 
1105	 2.87228354968155E-03 
1106	 2.83495754372663E-03 
1107	 2.50980320843447E-03 
1108	 2.61967906824082E-03 
1109	 3.28700288835474E-03 
1110	 3.61474584929755E-03 
1111	 0.00379708774688 
1112	 3.96518898060652E-03 
1113	 3.95043582847304E-03 
1114	 3.9763537250741E-03 
1115	 3.87747647333008E-03 
1116	 4.01483778353278E-03 
1117	 4.59790116003157E-03 
1118	 5.17292106714135E-03 
1119	 5.80316805101058E-03 
1120	 6.07624812623305E-03 
1121	 5.47527411314653E-03 
1122	 6.70654652528115E-03 
1123	 5.22915477061872E-03 
1124	 4.07893167729941E-03 
1125	 8.35790918755714E-03 
1126	 9.69830109776386E-03 
1127	 7.85289251728489E-03 
1128	 5.08113781602107E-03 
1129	 3.28555661642574E-03 
1130	-2.50367333840941E-03 
1131	-2.22372252652952E-03 
1132	 1.88154246642658E-03 
1133	 3.63952875331042E-03 
1134	 6.52120798337472E-03 
1135	 6.05802702175298E-03 
1136	 4.03372983660256E-03 
1137	 3.8548434290494E-03 
1138	 2.99204661807629E-03 
1139	 1.83028931985736E-03 
1140	 3.43853217637731E-03 
1141	 3.20686843895295E-03 
1142	 1.60210227965828E-03 
1143	 3.01619955019832E-03 
1144	 4.28607708706577E-03 
1145	 4.41830525962325E-03 
1146	 6.3438611061915E-03 
1147	 6.60132943455714E-03 
1148	 4.47419945848781E-03 
1149	 3.63743650823308E-03 
1150	 3.34426211677414E-03 
1151	 2.95072121595871E-03 
1152	 2.89845606547518E-03 
1153	 3.87751689980848E-03 
1154	 3.87556773285771E-03 
1155	 3.8328048927201E-03 
1156	 2.98912596576697E-03 
1157	 1.90471970671485E-03 
1158	 1.8384290261937E-03 
1159	 0.002159758870681 
1160	 2.29753273975147E-03 
1161	 2.76049510025377E-03 
1162	 2.77403917069066E-03 
1163	 2.10856905547089E-03 
1164	 2.24698088648673E-03 
1165	 2.63084990024496E-03 
1166	 2.4379809003176E-03 
1167	 2.50827617088594E-03 
1168	 2.49582765692887E-03 
1169	 2.07906140387049E-03 
1170	 2.25146047538323E-03 
1171	 2.36326457728916E-03 
1172	 2.60951718908493E-03 
1173	 2.50814610928904E-03 
1174	 2.31231007772194E-03 
1175	 2.21393259200334E-03 
1176	 1.93559326721461E-03 
1177	 1.80748414418161E-03 
1178	 1.97056860832273E-03 
1179	 2.14323659600671E-03 
1180	 2.12041666491318E-03 
1181	 2.18628542548723E-03 
1182	 2.3977559240541E-03 
1183	 2.35682785805656E-03 
1184	 2.25351194657994E-03 
1185	 2.45511927568789E-03 
1186	 2.42584225995431E-03 
1187	 2.24590046435222E-03 
1188	 2.43330040685935E-03 
1189	 2.46236988966739E-03 
1190	 2.31281828075091E-03 
1191	 2.19401584506638E-03 
1192	 2.21057129328585E-03 
1193	 2.17546532563506E-03 
1194	 2.35423852105483E-03 
1195	 2.2710196598182E-03 
1196	 0.001952262305495 
1197	 1.95899606056134E-03 
1198	 2.00227975414351E-03 
1199	 1.97725266958442E-03 
1200	 2.0809586019529E-03 
1201	 2.06784399050574E-03 
1202	 1.92118117180983E-03 
1203	 1.88163729961705E-03 
1204	 2.1699708765143E-03 
1205	 2.53999212223128E-03 
1206	 2.20080414040888E-03 
1207	 1.68501564626436E-03 
1208	 1.90113859225075E-03 
1209	 2.08993525364321E-03 
1210	 1.96918849630157E-03 
1211	 1.97151903620863E-03 
1212	 1.98777105071592E-03 
1213	 1.87612055323194E-03 
1214	 1.78179480428955E-03 
1215	 1.79836043794625E-03 
1216	 2.02695258181308E-03 
1217	 1.95736741614773E-03 
1218	 1.76844131029374E-03 
1219	 1.7846586669939E-03 
1220	 1.87752126761107E-03 
1221	 2.05183615089945E-03 
1222	 2.11171219415807E-03 
1223	 2.09309683690374E-03 
1224	 2.18816495776061E-03 
1225	 2.11441875746248E-03 
1226	 1.93570377777587E-03 
1227	 1.86412907225389E-03 
1228	 1.89510596823161E-03 
1229	 2.16035226234728E-03 
1230	 2.38568960593922E-03 
1231	 2.28963933887474E-03 
1232	 2.10157555237748E-03 
1233	 2.10485540485732E-03 
1234	 2.18709902915748E-03 
1235	 2.13223489065434E-03 
1236	 2.18555319743043E-03 
1237	 2.32211245726971E-03 
1238	 2.39472242845744E-03 
1239	 2.2882653389227E-03 
1240	 2.21322675807418E-03 
1241	 2.33313291391652E-03 
1242	 2.26614392516973E-03 
1243	 1.98108556812835E-03 
1244	 2.07112005876431E-03 
1245	 2.26109498377221E-03 
1246	 2.12238858017559E-03 
1247	 2.04345833534589E-03 
1248	 2.16853002682151E-03 
1249	 2.29544081207731E-03 
1250	 2.2591413393474E-03 
1251	 2.16234840768623E-03 
1252	 2.19356262776325E-03 
1253	 2.24569756321754E-03 
1254	 2.24299797685803E-03 
1255	 2.22499934041238E-03 
1256	 2.22715916314925E-03 
1257	 2.1217777534533E-03 
1258	 2.12297594484793E-03 
1259	 2.30064599204789E-03 
1260	 2.29126443080731E-03 
1261	 2.13731108369979E-03 
1262	 2.10762591605023E-03 
1263	 2.00991919607249E-03 
1264	 2.03526589709398E-03 
1265	 2.12188293753161E-03 
1266	 2.12460302853303E-03 
1267	 2.22278598643987E-03 
1268	 2.31048657782405E-03 
1269	 2.21878248512304E-03 
1270	 2.18240868310419E-03 
1271	 2.08699062390561E-03 
1272	 1.8696483607783E-03 
1273	 1.8032576353202E-03 
1274	 1.91773767627976E-03 
1275	 1.88429710031169E-03 
1276	 1.79323467266235E-03 
1277	 1.95562123770728E-03 
1278	 2.02607614704148E-03 
1279	 2.0352303494592E-03 
1280	 2.36446482496475E-03 
1281	 2.48837037610275E-03 
1282	 2.54798325671701E-03 
1283	 2.50985665207572E-03 
1284	 2.3444396068121E-03 
1285	 2.24549314816819E-03 
1286	 2.06917513309264E-03 
1287	 1.98499368196773E-03 
1288	 2.06827982681269E-03 
1289	 2.08675770225876E-03 
1290	 2.08948641847826E-03 
1291	 1.95197124464297E-03 
1292	 2.0659117021465E-03 
1293	 1.96201717193685E-03 
1294	 1.76631449768749E-03 
1295	 1.93524669651522E-03 
1296	 2.07995490924624E-03 
1297	 2.03392955559198E-03 
1298	 2.02095350119289E-03 
1299	 1.93604022549529E-03 
1300	 1.96817913404374E-03 
1301	 2.11638757833517E-03 
1302	 1.9620651501628E-03 
1303	 1.92446719116949E-03 
1304	 1.9419228092706E-03 
1305	 1.78967716770278E-03 
1306	 1.8324081848275E-03 
1307	 2.12458146220836E-03 
1308	 2.25973927242782E-03 
1309	 2.40673722450554E-03 
1310	 2.45088226535695E-03 
1311	 2.40098476271436E-03 
1312	 2.37476769935872E-03 
1313	 2.39072681326627E-03 
1314	 2.27745855960133E-03 
1315	 1.75125751285289E-03 
1316	 1.69307484170051E-03 
1317	 2.05625617486138E-03 
1318	 2.16314486691804E-03 
1319	 2.34942110358704E-03 
1320	 2.58346616546644E-03 
1321	 2.86648231918859E-03 
1322	 2.69511945877314E-03 
1323	 2.30235229715036E-03 
1324	 2.71927859200442E-03 
1325	 3.09405295147419E-03 
1326	 2.45313787921684E-03 
1327	 0.002184417513568 
1328	 2.62314074558891E-03 
1329	 2.93162532399133E-03 
1330	 3.42874848922157E-03 
1331	 3.43727037453435E-03 
1332	 2.62895706891816E-03 
1333	 2.28124601154358E-03 
1334	 2.39095377598673E-03 
1335	 2.31872274763611E-03 
1336	 3.00275868475432E-03 
1337	 3.30113603214372E-03 
1338	 3.01203406390017E-03 
1339	 3.20749964556335E-03 
1340	 4.5198022858534E-03 
1341	 4.56332715969488E-03 
1342	 2.84927833485419E-03 
1343	 2.97128440247691E-03 
1344	 4.13863067267052E-03 
1345	 3.97413922022172E-03 
1346	 5.52774518925676E-03 
1347	 6.23444915889001E-03 
1348	 2.25101466712457E-04 
1349	-2.2202386788599E-03 
1350	 4.82768227298275E-03 
1351	 6.51393138385381E-03 
1352	 2.23297022467018E-03 
1353	 4.01786427773761E-03 
1354	 7.88610513753037E-03 
1355	-4.62698397859509E-03 
1356	 0.023199234047449 
1357	 0.119681235208281 
1358	 0.196391733826754 
1359	 0.223971235307904 
1360	 0.171922668799004 
1361	 6.76767800691216E-02 
1362	 4.51117698560755E-02 
1363	 0.169782194006038 
1364	 0.257546063965325 
1365	 0.301918476463675 
1366	 0.416288728697933 
1367	 0.334334462970731 
1368	 0.257887442321234 
1369	 9.31919492172792E-02 
1370	 0.124590549827617 
1371	 0.309746104537502 
1372	 0.319910636278992 
1373	 0.456579337233834 
1374	 0.407874745223584 
1375	 7.53059301557622E-02 
1376	 4.95502280184634E-02 
1377	 0.069313466374212 
1378	 0.138974728031611 
1379	 0.338807104249934 
1380	 0.319003794515206 
1381	 0.2803606554093 
1382	 0.21959022179144 
1383	 1.83458683053292E-02 
1384	-3.86676369929294E-02 
1385	-0.145111934618519 
1386	-0.153914120924877 
1387	 8.65646823432584E-02 
1388	 0.215320608131467 
1389	 0.426112221515367 
1390	 0.367365886725526 
1391	 7.35011473423868E-02 
1392	-0.141947911542734 
1393	 6.65829322572711E-02 
1394	 0.206969687821757 
1395	 5.00783782764307E-02 
1396	 3.37649881807944E-02 
1397	 4.05412106378006E-02 
1398	-5.24164143578045E-02 
1399	 1.29565335197396E-02 
1400	 0.313334312698199 
1401	 0.418166699643902 
1402	 0.297111026812799 
1403	 0.384339650034713 
1404	 0.460361008014852 
1405	 0.498330662608434 
1406	 0.384529804109392 
1407	 0.234022619974695 
1408	 0.127387042392039 
1409	 0.142748685586998 
1410	 0.174909617939432 
1411	 0.157437170742671 
1412	 0.143709731713634 
1413	 0.22510893392101 
1414	 0.361054089786476 
1415	 0.299485319716505 
1416	 0.219938825107559 
1417	 0.198060426967003 
1418	 8.85559378183949E-02 
1419	 2.24327763051268E-02 
1420	 3.24887813724315E-02 
1421	 3.73683363733946E-02 
1422	 2.63936734362292E-02 
1423	 1.11454691114162E-02 
1424	 7.13923482133514E-03 
1425	 1.66896344311979E-02 
1426	 1.25758726121421E-02 
1427	 1.54779812640342E-02 
1428	 4.77787527479607E-02 
1429	 5.20744325458627E-02 
1430	 3.36065414598663E-02 
1431	 3.10803069450519E-02 
1432	 3.39225261686424E-02 
1433	 2.61127077826273E-02 
1434	 1.70785937662078E-02 
1435	 1.20284382938893E-02 
1436	 1.56028140470021E-03 
1437	-1.19341653185209E-02 
1438	 1.61917566669337E-04 
1439	 1.00599889842562E-02 
1440	 1.05190322396058E-02 
1441	 1.56765749290529E-02 
1442	 1.30065493284488E-02 
1443	 3.45238901218822E-03 
1444	 8.67863691557013E-04 
1445	 7.90880313867504E-03 
1446	 1.31294685618759E-02 
1447	 0.012514970975991 
1448	 0.01021785171772 
1449	 4.39060804046052E-03 
1450	-7.39085371290195E-04 
1451	-2.822540395019E-04 
1452	 2.52664095878347E-03 
1453	 6.05585092679088E-03 
1454	 5.14890828761128E-03 
1455	 1.89358365359203E-03 
1456	 2.5362943800736E-03 
1457	 3.1077055374073E-03 
1458	 2.23270600467344E-03 
1459	 3.30029180204087E-03 
1460	 3.39182194516802E-03 
1461	 5.79406194134306E-04 
1462	-1.72684537748704E-04 
1463	 1.22809898291836E-03 
1464	 1.58155251955894E-03 
1465	 5.02489239219403E-04 
1466	 7.68321935009808E-04 
1467	 3.38836410082536E-03 
1468	 3.8725915659926E-03 
1469	 1.96929007136645E-03 
1470	 3.22990290599578E-03 
1471	 7.18523762951228E-03 
1472	 6.46574703492985E-03 
1473	 4.01990526370901E-03 
1474	 4.25087704722189E-03 
1475	 0.003055366923923 
1476	 2.04769393668528E-03 
1477	 3.80029831231325E-03 
1478	 3.92393193335337E-03 
1479	 1.10294388260621E-03 
1480	 8.26764554171851E-04 
1481	 3.04591928684858E-03 
1482	 2.83491080363259E-03 
1483	 1.2265587167204E-03 
1484	 1.48523442661631E-03 
1485	 2.1068023274696E-03 
1486	 2.07644583795305E-03 
1487	 2.55756893808127E-03 
1488	 2.78096397615022E-03 
1489	 2.74895905457377E-03 
1490	 2.22288178107761E-03 
1491	 1.17310686201139E-03 
1492	 1.26825623813825E-03 
1493	 1.88652253134497E-03 
1494	 1.55781788295323E-03 
1495	 1.13534575625404E-03 
1496	 1.2812431671728E-03 
1497	 1.04960070008017E-03 
1498	 8.20756109769803E-04 
1499	 1.11275597287096E-03 
1500	 1.46898717069108E-03 
1501	 1.7987599184919E-03 
1502	 1.70677091016347E-03 
1503	 1.62596216782053E-03 
1504	 1.66970651675807E-03 
1505	 1.49641247118379E-03 
1506	 9.74547293056661E-04 
1507	 1.01457119624494E-03 
1508	 1.4802936906592E-03 
1509	 1.49702827583876E-03 
1510	 1.37346840857394E-03 
1511	 1.53966544087609E-03 
1512	 1.58903575380298E-03 
1513	 1.53692341012201E-03 
1514	 1.36806497400802E-03 
1515	 1.29792241657306E-03 
1516	 1.36891435835359E-03 
1517	 1.2466578514601E-03 
1518	 1.53574947548519E-03 
1519	 1.73642882678926E-03 
1520	 1.25999661550125E-03 
1521	 1.02246811499167E-03 
1522	 1.04661521295963E-03 
1523	 9.62157144546064E-04 
1524	 9.44548885014711E-04 
1525	 1.14649553788969E-03 
1526	 1.43099310916496E-03 
1527	 1.52375216367504E-03 
1528	 1.46351487081263E-03 
1529	 1.37843453737546E-03 
1530	 1.34232671326715E-03 
1531	 1.32288907817083E-03 
1532	 1.29164512443992E-03 
1533	 1.49522443263551E-03 
1534	 1.61099389585538E-03 
1535	 1.24153747901349E-03 
1536	 1.09742933064651E-03 
1537	 1.40645109607945E-03 
1538	 1.4284222205141E-03 
1539	 1.28902441328347E-03 
1540	 1.42204788436809E-03 
1541	 1.46370563057836E-03 
1542	 1.26347498371846E-03 
1543	 1.21365441373752E-03 
1544	 1.46305214851406E-03 
1545	 1.48102538490622E-03 
1546	 1.09317778742092E-03 
1547	 1.09475837106571E-03 
1548	 1.52099889891924E-03 
1549	 1.62407450402368E-03 
1550	 1.6033976074122E-03 
1551	 1.81480515877664E-03 
1552	 0.001815352005928 
1553	 1.51777167058093E-03 
1554	 1.39331243633782E-03 
1555	 1.42468097905783E-03 
1556	 1.42356075888122E-03 
1557	 1.59202503314828E-03 
1558	 1.7632135687669E-03 
1559	 1.64293028423825E-03 
1560	 1.52135655555104E-03 
1561	 1.5687327955471E-03 
1562	 1.50950800968213E-03 
1563	 1.43662163767743E-03 
1564	 1.5581247304501E-03 
1565	 1.45311601962042E-03 
1566	 1.29389997627466E-03 
1567	 1.51722426992351E-03 
1568	 1.57956062757002E-03 
1569	 1.35391977377354E-03 
1570	 1.45191407099868E-03 
1571	 1.67695248150032E-03 
1572	 1.52364135672729E-03 
1573	 1.53129419221412E-03 
1574	 1.70164290180864E-03 
1575	 1.49027636649111E-03 
1576	 1.26991747505397E-03 
1577	 1.1025454194551E-03 
1578	 1.07054139642798E-03 
1579	 1.3481630454808E-03 
1580	 1.56980211925665E-03 
1581	 1.72495484817978E-03 
1582	 1.77291907795162E-03 
1583	 1.66728443994715E-03 
1584	 1.54401239152528E-03 
1585	 1.47263807272385E-03 
1586	 1.47519443046356E-03 
1587	 1.45761045338057E-03 
1588	 0.001430384552517 
1589	 1.47443282602448E-03 
1590	 0.001450788983239 
1591	 1.38523369729425E-03 
1592	 1.47256470094451E-03 
1593	 1.46816627041663E-03 
1594	 1.56605148640264E-03 
1595	 1.79734228777329E-03 
1596	 1.53238316506675E-03 
1597	 1.26713436114767E-03 
1598	 1.50771788960415E-03 
1599	 1.56057684181507E-03 
1600	 1.43378169298687E-03 
1601	 1.59312029796648E-03 
1602	 1.6687605003035E-03 
1603	 1.6395328648924E-03 
1604	 1.7493753378933E-03 
1605	 1.85086520701169E-03 
1606	 1.85191169815692E-03 
1607	 1.54906796896557E-03 
1608	 1.39529108061595E-03 
1609	 1.57321158701452E-03 
1610	 1.40488593139444E-03 
1611	 1.37119110859779E-03 
1612	 1.80273142452913E-03 
1613	 1.98779150809748E-03 
1614	 1.93509390708187E-03 
1615	 1.93953681389348E-03 
1616	 1.79560624494678E-03 
1617	 1.74432502947564E-03 
1618	 1.76188570276089E-03 
1619	 1.50782929688232E-03 
1620	 1.63794334029099E-03 
1621	 1.95447258997174E-03 
1622	 1.88496013163265E-03 
1623	 2.04637005409001E-03 
1624	 2.28570921878962E-03 
1625	 2.01519114690223E-03 
1626	 1.67134849007493E-03 
1627	 1.61311348730951E-03 
1628	 1.6051514016897E-03 
1629	 1.69097561564285E-03 
1630	 1.9265242452608E-03 
1631	 1.88762208922673E-03 
1632	 1.62905744686647E-03 
1633	 1.5044262848965E-03 
1634	 1.33112032681785E-03 
1635	 1.39235733746374E-03 
1636	 1.6033117458794E-03 
1637	 1.45727227695382E-03 
1638	 1.56491151707383E-03 
1639	 1.81756500289197E-03 
1640	 1.83286994611464E-03 
1641	 1.98023658972531E-03 
1642	 1.85559876264734E-03 
1643	 1.56977190338245E-03 
1644	 1.71389031433379E-03 
1645	 1.78724829713459E-03 
1646	 1.79351998792516E-03 
1647	 2.08697267174049E-03 
1648	 1.92042375419502E-03 
1649	 1.37268804716521E-03 
1650	 1.34712199341629E-03 
1651	 1.60002575174417E-03 
1652	 1.84370594063762E-03 
1653	 1.96074180221368E-03 
1654	 1.91874785311194E-03 
1655	 1.27725096053941E-03 
1656	 1.26555424450411E-03 
1657	 1.89171492797536E-03 
1658	 1.96069327214841E-03 
1659	 1.95559964355072E-03 
1660	 1.92221737537809E-03 
1661	 1.40025815196464E-03 
1662	 1.35676387119302E-03 
1663	 1.74302131426459E-03 
1664	 1.77328225129374E-03 
1665	 1.79512444922266E-03 
1666	 1.94129138595243E-03 
1667	 2.06366008461648E-03 
1668	 1.69396238421972E-03 
1669	 1.53115510601611E-03 
1670	 1.34437470079602E-03 
1671	 0.001157204282444 
1672	 1.7117408424421E-03 
1673	 2.21381301265514E-03 
1674	 1.95798116799135E-03 
1675	 1.78187475415034E-03 
1676	 1.83253299502614E-03 
1677	 1.69637354978582E-03 
1678	 1.76220517673584E-03 
1679	 1.92776027050798E-03 
1680	 1.6468902019394E-03 
1681	 1.4696806506992E-03 
1682	 1.81583059113977E-03 
1683	 1.99987135940411E-03 
1684	 1.91566561267396E-03 
1685	 2.08679794325637E-03 
1686	 2.03544618540633E-03 
1687	 1.94274876287407E-03 
1688	 2.35623784386981E-03 
1689	 2.29448594251417E-03 
1690	 1.8388211432663E-03 
1691	 1.72674087240505E-03 
1692	 1.49645984131903E-03 
1693	 1.15863815989885E-03 
1694	 1.32320458848624E-03 
1695	 1.66491306280531E-03 
1696	 1.54363840877686E-03 
1697	 1.6484847792418E-03 
1698	 1.89965858247879E-03 
1699	 1.52502383300736E-03 
1700	 1.37599074056383E-03 
1701	 1.59061480771614E-03 
1702	 1.45533450774292E-03 
1703	 1.34168504695164E-03 
1704	 1.40637634229878E-03 
1705	 1.54269489679431E-03 
1706	 2.0102198933782E-03 
1707	 2.11887729953421E-03 
1708	 1.81975990105384E-03 
1709	 1.63070051365636E-03 
1710	 9.0793572043857E-04 
1711	 7.98458102829577E-04 
1712	 1.84410875030665E-03 
1713	 1.8889565006263E-03 
1714	 1.6748826496903E-03 
1715	 7.84666694983774E-04 
1716	 1.13069093401746E-03 
1717	 1.82129247609871E-03 
1718	 1.9967471305436E-03 
1719	 1.80949270328053E-03 
1720	 1.44563864287028E-03 
1721	 1.18776398594586E-03 
1722	 1.60140551744855E-03 
1723	 2.37724074651606E-03 
1724	 1.96904117717777E-03 
1725	 1.0818999674761E-03 
1726	 1.46611276268464E-03 
1727	 1.71738039832811E-03 
1728	 1.45055522933433E-03 
1729	 2.00306012352557E-03 
1730	 2.15317318688243E-03 
1731	 1.21524150749167E-03 
1732	 1.0705220159864E-03 
1733	 1.38312593873984E-03 
1734	 1.01551221161008E-03 
1735	 0.001531479314734 
1736	 2.40980227629287E-03 
1737	 2.06820136654957E-03 
1738	 1.7878139725984E-03 
1739	 1.54805163754544E-03 
1740	 9.92856515943089E-04 
1741	 1.21897099551405E-03 
1742	 1.49833438108347E-03 
1743	 1.47185256225293E-03 
1744	 2.0110292591662E-03 
1745	 2.09660067543096E-03 
1746	 1.45523852357304E-03 
1747	 1.67244275084087E-03 
1748	 2.10121962819125E-03 
1749	 2.06467369425296E-03 
1750	 2.48452868817002E-03 
1751	 2.48521312236004E-03 
1752	 1.38027152816285E-03 
1753	 1.09486263953573E-03 
1754	 1.43726783502729E-03 
1755	 1.59881328439078E-03 
1756	 2.09854614434666E-03 
1757	 2.40745357588797E-03 
1758	 1.87567812950792E-03 
1759	 1.59479943014056E-03 
1760	 1.85316623741405E-03 
1761	 2.17915881844891E-03 
1762	 2.58712130026636E-03 
1763	 2.81050325867566E-03 
1764	 2.21245313918407E-03 
1765	 2.08505098309042E-03 
1766	 2.78030928974695E-03 
1767	 2.89453034060586E-03 
1768	 2.63265163974326E-03 
1769	 2.22856520228781E-03 
1770	 1.71778229785223E-03 
1771	 2.02859044296079E-03 
1772	 2.60821358124809E-03 
1773	 2.53338561646892E-03 
1774	 2.7224751877223E-03 
1775	 1.90473564933658E-03 
1776	 1.50381729911125E-03 
1777	 1.56939818514255E-03 
1778	 1.41876452208709E-03 
1779	 1.32296494531644E-03 
1780	 1.92298183570699E-03 
1781	 3.29813932237689E-03 
1782	 2.96707527525296E-03 
1783	 1.70387538041638E-03 
1784	 1.38294746270877E-03 
1785	-1.9394344125648E-04 
1786	-1.93441707730334E-04 
1787	 2.47899873573174E-03 
1788	 2.82653842325246E-03 
1789	 2.26675268116475E-03 
1790	 4.05172700246326E-03 
1791	 3.28572080615728E-03 
1792	 4.08858690470139E-03 
1793	 3.65198522024323E-03 
1794	 2.28043854616989E-03 
1795	 3.68746062339269E-03 
1796	 3.2806559285602E-03 
1797	 2.62426860105912E-03 
1798	-1.16873298649928E-03 
1799	-6.7900156063277E-03 
1800	 7.3948885906673E-03 
1801	 1.26671653110842E-02 
1802	 2.36842868926532E-02 
1803	 3.20584891241087E-02 
1804	 1.67237949551475E-02 
1805	 7.09340676029536E-03 
1806	-7.33486636457689E-03 
1807	-9.94571593772582E-03 
1808	-1.65182660942244E-03 
1809	 1.08319873405962E-02 
1810	 0.120947860649876 
1811	 0.138023283662231 
1812	-1.80845764744851E-03 
1813	-7.38467375160754E-02 
1814	-0.268974138048282 
1815	-0.384498120760524 
1816	-0.346503359747869 
1817	-0.207934116610644 
1818	-0.150346350165105 
1819	-0.308392263851453 
1820	-0.236159588641867 
1821	-0.208076608724651 
1822	-0.282187593116601 
1823	-0.157416720654896 
1824	-0.208535449038761 
1825	-0.88164833738695 
1826	-0.99590424432116 
1827	-0.561316223729968 
1828	 0.3452265112318 
1829	 0.695032383627068 
1830	 0.594130962636926 
1831	 4.6643430112531 
1832	 2.62907552649511 
1833	 5.08466966900131 
1834	-108.275210968918 
1835	-1.16470459932432 
1836	-0.949407697221618 
1837	-6.30236372459121E-02 
1838	-8.03416456742868E-02 
1839	-1.35487780642516 
1840	 12.5748917041833 
1841	 3.74270526342971 
1842	 1.4509446884035 
1843	 1.48410625804757 
1844	 1.43770937530103 
1845	 0.272533600371607 
1846	 2323.11688356292 
1847	-1.68136036687206 
1848	-5.99002166849798 
1849	-4.21927879404905 
1850	-4.94644117770179 
1851	-4.24189513457859 
1852	-3.08134672078175 
1853	-1.26492061836393 
1854	-0.878924366990012 
1855	-0.19413346064963 
1856	 0.582743191491092 
1857	-1.36057563009522 
1858	-0.128597148933332 
1859	 1.34007445497018 
1860	 0.278682691185792 
1861	 2.23553792370775 
1862	 1.07288438688431 
1863	 0.232824467615526 
1864	-0.135679322318191 
1865	-1.50330910371657E-02 
1866	 9.90949982239882E-02 
1867	 0.226058239410939 
1868	 0.852626948107122 
1869	 0.833081181764458 
1870	 0.222607187955393 
1871	 2.50172130359486 
1872	 1.1939763133616 
1873	 0.679761225541207 
1874	 0.965868399756541 
1875	-0.198628328532436 
1876	-1.36688758611676E-03 
1877	 0.587775456907141 
1878	 0.456662788198812 
1879	-0.946692789803733 
1880	-0.766410751362525 
1881	-0.449855356957237 
1882	-0.802019008661219 
1883	-1.55051883157908 
1884	 12.1987395202687 
1885	 1.52485372614119 
1886	-23.7911736804679 
1887	 2.86685081180818 
1888	 2.11829543354745 
1889	 1.94037241418869 
1890	 0.44274364228716 
1891	 3.59440950769002E-02 
1892	 4.01455123888953 
1893	 0.288031969211751 
1894	 0.246802909444213 
1895	 3.04291871900297E-02 
1896	 0.40433073108818 
1897	-9.03733887653522E-02 
1898	-1.49930034167731 
1899	 9.1506234502937 
1900	 1.26936843603934 
1901	-4.0271968985422 
1902	-17.7068071876661 
1903	 3.60563139807446 
1904	 2.61122593494046 
1905	 2.16175657884341 
1906	 5.47022643955542 
1907	 332.790187973904 
1908	-3.26442044182135 
1909	-0.139712140533562 
1910	 22.2151302812908 
1911	-1.88908513318038 
1912	 0.156304452836432 
1913	 0.558540614183151 
1914	 1.38449469999017 
1915	 1.320151108847 
1916	 0.721703370014806 
1917	-0.313432615720893 
1918	-0.384080561495553 
1919	 4.12464912792843 
1920	 25.3650456943254 
1921	 1.80160637453647 
1922	 0.93305881372328 
1923	 0.30870491698912 
1924	 0.160218422763751 
1925	 0.633902365034363 
1926	 1.23146201427748 
1927	 3.33584335654407 
1928	 8.53388435288463 
1929	-4.6220530677133 
1930	-1.25849218996432 
1931	 0.349527878605587 
1932	 0.48968488124308 
1933	 0.775315848626199 
1934	 0.171692532613522 
1935	-0.147852831026429 
1936	-5.43869815630442E-02 
1937	-0.147042368518428 
1938	-0.101860286032788 
1939	-2.49410770013107E-02 
1940	 0.117618510715055 
1941	 0.127971360985954 
1942	 0.118045777638399 
1943	 8.71518907439735E-02 
1944	 5.90658401731732E-02 
1945	 6.49684122460075E-02 
1946	 0.104996998368999 
1947	 0.089495996166328 
1948	 6.87253565510935E-02 
1949	 0.065036645639133 
1950	 3.38339111304077E-02 
1951	 3.98903831662248E-02 
1952	 4.00315612270647E-02 
1953	 0.047829580286944 
1954	 3.75610424789904E-02 
1955	 3.24228697844867E-02 
1956	 7.06016136043172E-03 
1957	-9.47711863883912E-03 
1958	-1.62243587799162E-03 
1959	 3.23868995070984E-03 
1960	 7.96230716601368E-03 
1961	 1.39041347166585E-02 
1962	 6.11081781711666E-03 
1963	-5.30784452219815E-03 
1964	-8.30756704535454E-03 
1965	-7.17183686751034E-03 
1966	-7.01903809543025E-03 
1967	-6.60703602806912E-03 
1968	-2.38647306538866E-03 
1969	 4.89451518993813E-04 
1970	-2.17799384584278E-03 
1971	-1.57322946926595E-03 
1972	-1.22633614332745E-03 
1973	-2.31586320601487E-03 
1974	 2.88674836477821E-04 
1975	 2.2095869629776E-03 
1976	 2.85118361275256E-03 
1977	 3.28103214595786E-03 
1978	 2.1197744501853E-03 
1979	 1.38489473128586E-03 
1980	 6.00515060953971E-05 
1981	-2.80934142900119E-04 
1982	-1.17512483546121E-04 
1983	-1.52624161853076E-04 
1984	-8.3451684309303E-04 
1985	-1.05940203244215E-03 
1986	-1.79013205944062E-03 
1987	-2.4931189664997E-03 
1988	-1.4886646210002E-03 
1989	-7.28287376171636E-04 
1990	-3.18430719907765E-04 
1991	 6.47065046059772E-04 
1992	 9.31911001024392E-04 
1993	-3.37851870147779E-04 
1994	-7.47623038894632E-04 
1995	-1.40387887313099E-03 
1996	-9.54634093826036E-04 
1997	-1.58995855385328E-04 
1998	 1.27975913473488E-03 
1999	 3.30221671626269E-03 
2000	 4.03461331662478E-03 
2001	 1.68369677764427E-03 
2002	-2.03653788427671E-04 
2003	-1.00444749455377E-03 
2004	-1.43670135919009E-03 
2005	-1.05712601008887E-03 
2006	-2.09394090763542E-03 
2007	-2.05745034341449E-03 
2008	-7.35229438047726E-04 
2009	-4.32671405596073E-04 
2010	 9.94368331808248E-04 
2011	 2.3735912362419E-03 
2012	 3.99118701751044E-03 
2013	 2.68288444952633E-03 
2014	 1.72669235393399E-03 
2015	 2.33983612607573E-03 
2016	 5.91700458664567E-04 
2017	-4.94814390448598E-04 
2018	-1.58317970279646E-03 
2019	-2.34243106845983E-03 
2020	-1.7320172566142E-03 
2021	-2.21768267837939E-03 
2022	-1.09084388960721E-03 
2023	 1.4799834292011E-03 
2024	 2.15147963999392E-03 
2025	 1.99159202275227E-03 
2026	 2.33560943738661E-03 
2027	 2.52870886812367E-03 
2028	 2.20269275618163E-03 
2029	 0.001616978476707 
2030	 2.35943464559443E-03 
2031	 2.11651933552165E-03 
2032	 5.46633735507169E-04 
2033	 3.42128861539199E-04 
2034	-8.60248444619927E-06 
2035	-6.92918573720881E-04 
2036	-4.92070676731553E-04 
2037	 1.98128329763356E-04 
2038	 8.45912733847393E-04 
2039	 8.97921082302712E-04 
2040	 6.30830325330255E-04 
2041	 7.3280588060001E-04 
2042	 3.75925442155651E-04 
2043	 4.14516225051104E-04 
2044	 9.04384480102863E-04 
2045	 1.94287163791011E-03 
2046	 2.4008348637166E-03 
2047	 1.19289053165156E-03 
2048	 1.06573662639597E-03 
2049	 1.67057033276809E-03 
2050	 1.90117405159056E-03 
2051	 3.50847190693208E-03 
2052	 4.32901733584448E-03 
2053	 4.43867147872228E-03 
2054	 3.97266243375035E-03 
2055	 2.56153237375399E-03 
2056	 2.15111151233904E-03 
2057	 2.18413030809372E-03 
2058	 1.66067908910719E-03 
2059	 1.38723118164691E-03 
2060	 1.15519522320533E-03 
2061	 5.18956976056312E-04 
2062	 8.51525968530129E-05 
2063	 5.64200075341435E-04 
2064	 9.79936761058394E-04 
2065	-2.04993008803026E-04 
2066	-6.76730686718001E-04 
2067	-6.01583951964556E-04 
2068	-5.64809885058116E-04 
2069	 1.31826951762888E-03 
2070	 2.41440918497525E-03 
2071	 1.5117104204522E-03 
2072	 6.41882952842877E-04 
2073	 2.10736676892223E-04 
2074	-6.56467411082418E-04 
2075	-8.64801490554813E-04 
2076	-3.93625544208488E-05 
2077	-3.77478207217949E-05 
2078	-8.53884787326175E-04 
2079	-7.59740377226399E-04 
2080	-3.60892701096777E-04 
2081	-1.44945009855381E-04 
2082	 4.71553712927136E-04 
2083	 1.72453405189386E-03 
2084	 2.24591426959552E-03 
2085	 2.07689390592258E-03 
2086	 1.95662230819403E-03 
2087	 1.09147587153668E-03 
2088	 7.88517415660855E-04 
2089	 1.40359708724159E-03 
2090	 4.62574290343994E-04 
2091	-2.16925018715121E-04 
2092	-2.57749526351695E-04 
2093	-8.15443768763537E-04 
2094	-8.94756144794331E-04 
2095	 5.38157463234387E-04 
2096	 1.00278543636621E-03 
2097	 4.94965244480469E-04 
2098	 4.31496992194194E-04 
2099	 4.63576993174727E-04 
2100	 1.0566409634048E-03 
2101	 1.78964230569968E-04 
2102	 8.3349991986709E-04 
2103	 2.27870029006626E-03 
2104	 1.79198595097474E-03 
2105	 2.23009985831599E-03 
2106	 2.39231738959881E-03 
2107	 1.61292252117068E-03 
2108	 1.15533726729515E-03 
2109	 7.42438538056302E-04 
2110	 1.19679567291178E-03 
2111	 1.36181546227527E-03 
2112	 1.21459984941344E-03 
2113	 9.37528359669555E-04 
2114	 2.87247086086135E-04 
2115	-9.34065412180927E-05 
2116	-7.7551379213216E-04 
2117	-6.57364371064868E-04 
2118	 2.54130441877648E-04 
2119	 6.01736879802871E-04 
2120	 9.44879441737789E-04 
2121	 1.62840442158969E-03 
2122	 1.70158393236877E-03 
2123	 1.51237267444483E-03 
2124	 1.26145959695016E-03 
2125	 5.40306349650254E-04 
2126	-5.89889728028414E-05 
2127	 3.40801381296323E-04 
2128	 7.27435943876257E-04 
2129	 7.20322646708844E-04 
2130	 7.08620239484409E-04 
2131	 4.74503460852749E-05 
2132	-5.43507088182113E-05 
2133	 1.03102375119217E-03 
2134	 9.78308942347186E-04 
2135	 3.42301539461374E-04 
2136	 1.6339622768995E-04 
2137	-7.65943065051391E-04 
2138	-6.84387806197475E-04 
2139	 1.09829216015419E-03 
2140	 1.38623066024249E-03 
2141	 8.65845245918998E-04 
2142	 7.83711595624129E-04 
2143	-7.73660045012966E-05 
2144	-1.31111460889607E-04 
2145	 9.84858137629508E-04 
2146	 1.76726213585432E-03 
2147	 1.44038714728781E-03 
2148	 5.53166211526921E-04 
2149	-1.25159880398145E-04 
2150	 2.15650760304072E-04 
2151	 3.32013420992852E-04 
2152	 2.70820546970805E-04 
2153	 8.06057036627348E-04 
2154	 2.13063703352858E-04 
2155	-1.01474834690245E-03 
2156	-7.77721571156282E-04 
2157	-3.4222109009274E-04 
2158	 1.27254164313507E-04 
2159	 1.0369081466406E-04 
2160	 3.70292297783124E-04 
2161	 6.3508585682207E-04 
2162	 2.83136984929051E-04 
2163	 1.58824453969507E-04 
2164	 9.27161394934282E-04 
2165	 1.38789349751483E-03 
2166	 7.99545333572691E-04 
2167	 8.89839340280232E-04 
2168	 2.60957324649925E-03 
2169	 2.9249183456713E-03 
2170	 2.72269122279289E-03 
2171	 1.51252982142563E-03 
2172	 1.16408364334673E-03 
2173	 1.0311462713968E-03 
2174	 3.11902082872383E-04 
2175	 1.10991584540363E-04 
2176	 5.36688839552707E-04 
2177	 3.01476941729747E-04 
2178	 1.36857381490687E-03 
2179	 2.92034783050916E-03 
2180	 3.25189970909928E-03 
2181	 2.53151264982149E-03 
2182	 5.66316394648662E-04 
2183	-1.71600938604602E-04 
2184	-8.37600603776477E-04 
2185	-2.07159660955146E-03 
2186	-1.78139596498976E-03 
2187	 7.32950315803361E-04 
2188	 1.57778527685373E-03 
2189	 2.55805810952148E-03 
2190	 2.7767521257261E-03 
2191	 1.6390066806646E-03 
2192	 1.18967828611752E-03 
2193	 1.07990472724383E-03 
2194	 6.74417966304263E-04 
2195	 1.75122313298813E-04 
2196	-3.29412206802162E-04 
2197	-2.11497591562303E-03 
2198	-1.95192635636561E-03 
2199	-2.65326132354788E-04 
2200	 9.46854330006594E-04 
2201	 2.97469268530998E-03 
2202	 4.87624262655321E-03 
2203	 4.3236433951104E-03 
2204	 4.39643410068809E-03 
2205	 3.54112562904955E-03 
2206	 1.91648349783195E-03 
2207	 1.4342567264497E-03 
2208	 9.41250803925695E-04 
2209	 7.29408563796546E-04 
2210	-5.65803199540389E-04 
2211	-1.8086366557015E-03 
2212	-2.24418368920509E-03 
2213	-1.50410218245968E-03 
2214	 1.64810543146081E-03 
2215	 3.85474095692935E-03 
2216	 3.4748967251974E-03 
2217	 2.5532861341319E-03 
2218	-1.19395844982536E-03 
2219	-1.94997172919666E-03 
2220	-2.48611000534574E-03 
2221	-2.26109056754166E-03 
2222	 0.001171699118736 
2223	 1.0667349078532E-03 
2224	-1.65528465178813E-03 
2225	-1.52443839361566E-03 
2226	-1.30949477890817E-03 
2227	-2.19897437498445E-03 
2228	-1.92519447538652E-03 
2229	-1.58413477319232E-03 
2230	-2.88616188523504E-03 
2231	-2.70369663213993E-03 
2232	-6.65891711386045E-04 
2233	 5.92206486353965E-04 
2234	 2.33083486675333E-03 
2235	 2.12409073178547E-03 
2236	 1.71161561270239E-03 
2237	 2.25209741469832E-03 
2238	 1.8563511008554E-03 
2239	 2.29144737402702E-03 
2240	 4.46532392080328E-03 
2241	 4.72392162226604E-03 
2242	 1.83625819319871E-03 
2243	 3.59801157770131E-05 
2244	-1.41732133521315E-03 
2245	-3.69093782591815E-03 
2246	-4.15294703818263E-03 
2247	-3.76668436061031E-03 
2248	-2.51352418538617E-03 
2249	 7.171902050403E-04 
2250	 1.64489935332554E-03 
2251	 4.68633923238469E-04 
2252	-4.94834077464326E-04 
2253	-2.65669858242854E-03 
2254	-1.90184225940604E-03 
2255	 3.62617849480285E-04 
2256	-2.14150208579197E-03 
2257	-4.20984738501204E-03 
2258	-2.8731607466781E-03 
2259	-2.30690780807576E-03 
2260	-1.38363989970576E-03 
2261	 4.22205267981689E-03 
2262	 3.79076762697909E-03 
2263	-2.70378466465099E-03 
2264	-2.99044352484639E-03 
2265	-1.49229907191611E-03 
2266	-1.56372767390323E-03 
2267	 3.97017133980287E-04 
2268	 6.91002475753334E-04 
2269	-2.01473232914384E-03 
2270	-2.52625524050551E-03 
2271	-9.42973703510326E-04 
2272	-6.09429482127705E-04 
2273	-4.87824797837563E-04 
2274	-7.91679508913472E-04 
2275	-2.17821954519553E-03 
2276	-2.23711595692055E-03 
2277	-1.57207679361979E-03 
2278	-1.88717790192088E-03 
2279	-2.2641827823406E-03 
2280	-1.97953391432943E-03 
2281	-1.55775106082584E-03 
2282	-2.16298250105359E-03 
2283	-2.19747730091809E-03 
2284	-1.77981445602752E-03 
2285	-2.86921235077947E-03 
2286	-2.20974938634752E-03 
2287	-2.69879028067288E-03 
2288	-5.15174334380689E-03 
2289	-3.24520912073763E-03 
2290	-2.93806505550013E-03 
2291	-6.46856175608202E-03 
2292	-5.56793843765312E-03 
2293	-5.83189130097795E-03 
2294	-7.99881614480798E-03 
2295	-5.35760287720429E-03 
2296	-1.8098061830155E-03 
2297	 2.2044239090607E-03 
2298	 6.01369451938676E-04 
2299	-2.25379362814796E-03 
2300	-8.39906320219308E-04 
2301	-5.81259265965012E-03 
2302	-8.57020713552572E-03 
2303	-4.04940197052142E-03 
2304	-1.50849648406676E-03 
2305	 7.83607800488835E-04 
2306	 1.76202458470465E-03 
2307	-7.04187398487621E-04 
2308	-1.76305687899453E-03 
2309	-2.17298964455298E-03 
2310	-2.91383255895837E-03 
2311	-3.66962806132077E-03 
2312	-4.3324967337808E-03 
2313	-3.61048887340914E-03 
2314	-9.83975795012048E-04 
2315	 4.45717194171624E-04 
2316	-1.07820798484448E-03 
2317	 1.46432343829814E-04 
2318	 8.41757568474613E-04 
2319	 8.41319671605444E-04 
2320	 4.57604421882218E-03 
2321	 7.29049407694104E-03 
2322	 4.57321203513011E-03 
2323	 5.28290006808821E-04 
2324	 1.99321133409853E-03 
2325	 1.14493936423456E-03 
2326	-7.69786335028612E-04 
2327	 2.82455383384285E-04 
2328	-2.21088783243191E-03 
2329	-6.18376277293073E-03 
2330	-1.03548669443001E-02 
2331	-8.91670214939903E-03 
2332	-4.40886724923616E-03 
2333	-3.28900469217862E-03 
2334	 5.77552838381476E-04 
2335	-3.32518727469368E-04 
2336	-3.26673334967665E-03 
2337	 1.01869250554277E-03 
2338	 2.48665646804079E-03 
2339	 5.24859661288156E-03 
2340	 0.010660460456846 
2341	 6.96039705566286E-03 
2342	-2.25081377835666E-03 
2343	-1.11494407682561E-03 
2344	 2.35160523105515E-04 
2345	-5.36672755132108E-03 
2346	 5.70401749946889E-04 
2347	-5.66514774006233E-03 
2348	-1.31206108958141E-02 
2349	-2.41236208540195E-03 
2350	-1.00912269568163E-02 
2351	-1.33631149940978E-02 
2352	-4.46934378905897E-03 
2353	-6.70147067627816E-03 
2354	 2.1242157256378E-03 
2355	 2.10747876534693E-02 
2356	 2.46830237628799E-02 
2357	 1.78151829088106E-02 
2358	 1.67007758834873E-02 
2359	 9.43312016185573E-04 
2360	-1.39118765416927E-02 
2361	-8.92210714952524E-03 
2362	-1.19734573857155E-02 
2363	-1.24329007790757E-02 
2364	-1.14186603307809E-02 
2365	-2.21647515377027E-02 
2366	-2.57632930024946E-02 
2367	-2.98439397209172E-02 
2368	-3.41203949162093E-02 
2369	-3.70114838173312E-02 
2370	-3.92209354160697E-02 
2371	-0.033409939323261 
2372	-3.44234636837513E-02 
2373	-2.70967502640945E-02 
2374	-1.01393759892911E-02 
2375	 3.18778264711091E-03 
2376	 1.50238010246511E-02 
2377	 1.36572055738336E-02 
2378	 1.72843168459212E-02 
2379	 2.41009841651206E-02 
2380	 0.021108413479272 
2381	 5.01246639976145E-02 
2382	 6.27580421808972E-02 
2383	 3.65691989878379E-02 
2384	 2.34325969117147E-02 
2385	 8.49857150336106E-03 
2386	 2.01894858206795E-03 
2387	-0.010264105671281 
2388	-7.70346414331608E-03 
2389	 3.0846060273904E-03 
2390	-1.80764143431473E-02 
2391	-4.21316306633645E-02 
2392	-5.25672448100852E-02 
2393	-6.07430376128228E-02 
2394	-6.27768049063586E-02 
2395	-3.01996410032805E-02 
2396	-1.79924027478175E-02 
2397	-2.46893154367477E-02 
2398	-2.67586578354103E-02 
2399	-4.94675706452049E-02 
2400	-3.47783960158299E-02 
2401	-0.023079604403158 
2402	-3.75968830318698E-03 
2403	 7.55182658924995E-02 
2404	 6.73509779118741E-02 
2405	 5.50884809936854E-02 
2406	 4.51145295961299E-02 
2407	-3.71371177256991E-02 
2408	-2.78856481326394E-02 
2409	-3.03288813566806E-02 
2410	-3.74815251840959E-02 
2411	-3.77558733423124E-02 
2412	-0.125266133313611 
2413	-8.84736642227137E-02 
2414	-6.67146805080827E-02 
2415	-0.143418490553824 
2416	-4.10175719853209E-02 
2417	-2.19155907985293E-03 
2418	-1.43195326674998E-02 
2419	-0.10009567003052 
2420	-0.193761203007355 
2421	-0.163915844657849 
2422	-0.169131653565261 
2423	-0.182646708723501 
2424	-0.154145827102207 
2425	-0.216078015522242 
2426	-0.241400652604626 
2427	-0.122621816338671 
2428	-2.8488105612852E-03 
2429	 1.91930616128392E-02 
2430	-2.83536578647474E-02 
2431	-7.28946428311113E-02 
2432	-0.14063275352222 
2433	-0.204331921824874 
2434	-0.2089745657258 
2435	-0.166818414006378 
2436	-7.01169598787856E-02 
2437	-7.25317977791296E-02 
2438	-0.139147723876922 
2439	-0.113235185835129 
2440	-5.49877814838965E-02 
2441	-5.18252749592354E-04 
2442	 7.28526495703908E-03 
2443	-4.83356918328323E-02 
2444	-0.109438659069178 
2445	-0.194164273673321 
2446	-6.86827107574502E-02 
2447	-5.65746636297303E-02 
2448	-0.746897636213393 
2449	-1.0514160088126 
2450	-0.545303893414391 
2451	-0.143176196193985 
2452	 0.569777416340624 
2453	 1.16932263545058 
2454	 44.2860786853174 
2455	 0.720760385375242 
2456	 0.147201552040941 
2457	-0.151926942466699 
2458	-0.633562955712605 
2459	-0.875691522388033 
2460	-1.24657848204633 
2461	-1.67763499168025 
2462	-1.2605472043026 
2463	-1.0110852065572 
2464	-0.846122700217929 
2465	-0.770645513017566 
2466	-2.87240654053492 
2467	 3.87850452568332 
2468	-7.5537343644138 
2469	-54.1569497888616 
2470	 3.56453238193147 
2471	 2.43870723837909 
2472	 0.315595200752365 
2473	 0.193019872180799 
2474	 0.50321718601513 
2475	 0.930235635091632 
2476	 1.03045759980241 
2477	 2.63525794779576 
2478	 2.49615224524869 
2479	 1.13833237741063 
2480	 2.01319489341569 
2481	 3.93379780225742 
2482	 2.08351544711708 
2483	 1.44931498717254 
2484	 0.891649165120534 
2485	 0.196969793703922 
2486	-0.100713613419287 
2487	-8.24317805995056E-02 
2488	-6.51419833683816E-02 
2489	-0.106194830542841 
2490	-0.398748115043332 
2491	-0.942288150605657 
2492	-1.06075051179743 
2493	-0.390250713776149 
2494	-0.259164902241114 
2495	 7.67763881051185E-02 
2496	 0.153265011947784 
2497	 0.269268468867585 
2498	 0.441247080479539 
2499	-0.149055129799569 
2500	 0.635837744003663 
