Wavelength	rt0722close00002.asd
350	 2.18777788705008E-02 
351	 2.12117453811449E-02 
352	 0.021747833200047 
353	 2.21376243501879E-02 
354	 2.16389517520877E-02 
355	 2.18448653874745E-02 
356	 2.20048861944371E-02 
357	 2.21318169406656E-02 
358	 2.23329313619546E-02 
359	 2.21273717728421E-02 
360	 2.22029901048845E-02 
361	 0.022559651438376 
362	 2.27272659330868E-02 
363	 2.27628494815782E-02 
364	 2.28123492644076E-02 
365	 2.29480538566003E-02 
366	 2.31147044751879E-02 
367	 2.31690441344389E-02 
368	 2.33109617970525E-02 
369	 2.36276802810631E-02 
370	 2.34721306570541E-02 
371	 2.34647350724553E-02 
372	 2.36909433845794E-02 
373	 2.39033278767149E-02 
374	 2.40520210058691E-02 
375	 2.40818473561382E-02 
376	 2.41034853732317E-02 
377	 2.44304588188078E-02 
378	 2.51716436138623E-02 
379	 2.53056937756675E-02 
380	 2.44884689975834E-02 
381	 0.025253300123207 
382	 2.53451015114245E-02 
383	 2.53163287319378E-02 
384	 2.65726788001102E-02 
385	 2.63841578806186E-02 
386	 0.026345293439127 
387	 2.69801381339023E-02 
388	 2.72589550116634E-02 
389	 2.74383632131516E-02 
390	 2.74977124622262E-02 
391	 2.75145712304584E-02 
392	 2.79256277699774E-02 
393	 2.79870169274421E-02 
394	 2.81290377582813E-02 
395	 2.88524718828558E-02 
396	 2.85989012528982E-02 
397	 2.87694877598808E-02 
398	 2.93815094381393E-02 
399	 2.92273322494294E-02 
400	 2.92975773431797E-02 
401	 0.029558285251538 
402	 2.98469563313818E-02 
403	 3.01388033591081E-02 
404	 3.00212904840836E-02 
405	 2.99065575145051E-02 
406	 3.03259753789723E-02 
407	 3.05903826406471E-02 
408	 3.07755545648059E-02 
409	 3.09690356944324E-02 
410	 3.12146860987981E-02 
411	 3.14147438330674E-02 
412	 3.16237494344998E-02 
413	 3.18752825920713E-02 
414	 3.20893496837678E-02 
415	 3.22816396471806E-02 
416	 0.032471076300526 
417	 3.26824826785142E-02 
418	 3.29378664863635E-02 
419	 3.33091446241911E-02 
420	 3.37009649981082E-02 
421	 3.38553009894791E-02 
422	 0.034085813991612 
423	 3.43576048797682E-02 
424	 3.46287549513643E-02 
425	 3.50664544808118E-02 
426	 3.54070329819142E-02 
427	 3.57305150256287E-02 
428	 3.62167971488963E-02 
429	 3.64710245939438E-02 
430	 3.67756688409361E-02 
431	 3.72238853570729E-02 
432	 3.76192108260977E-02 
433	 3.79061722087053E-02 
434	 0.03821108659571 
435	 3.86277934991805E-02 
436	 0.03903386052258 
437	 0.039409166623091 
438	 3.97663450992768E-02 
439	 4.01428378675814E-02 
440	 4.06272817917158E-02 
441	 4.10463410045054E-02 
442	 4.13571447387393E-02 
443	 4.17478466220399E-02 
444	 0.042035380145748 
445	 4.23244474017673E-02 
446	 4.27166570313196E-02 
447	 4.29922357448759E-02 
448	 4.32932635988907E-02 
449	 4.36209599685115E-02 
450	 4.38825985428927E-02 
451	 4.42378501901963E-02 
452	 4.45557312881939E-02 
453	 4.47473023520514E-02 
454	 4.48796170252829E-02 
455	 4.50663027916402E-02 
456	 4.53091439274256E-02 
457	 4.55649393895832E-02 
458	 4.58496635471013E-02 
459	 0.046006717139398 
460	 4.60672236621975E-02 
461	 4.62503879057984E-02 
462	 4.65312116241146E-02 
463	 4.67539728032479E-02 
464	 4.68473167889694E-02 
465	 4.70392998467103E-02 
466	 4.72648708445524E-02 
467	 4.74602026921528E-02 
468	 4.75844831313278E-02 
469	 4.77952217939782E-02 
470	 4.79823270014355E-02 
471	 4.81518448510522E-02 
472	 4.84947626652553E-02 
473	 4.87332598535842E-02 
474	 4.88564454703551E-02 
475	 4.89687519539951E-02 
476	 4.93038611702091E-02 
477	 4.96232440473269E-02 
478	 4.98499381121195E-02 
479	 5.00389581257762E-02 
480	 5.03213978280582E-02 
481	 5.06133733712371E-02 
482	 5.08811581493049E-02 
483	 0.051257326723867 
484	 5.16202606074836E-02 
485	 0.051994331634239 
486	 5.24107151329523E-02 
487	 5.26266663959836E-02 
488	 5.29751010516212E-02 
489	 5.34310809290061E-02 
490	 5.36275459771911E-02 
491	 5.40598347757326E-02 
492	 5.45419561643431E-02 
493	 5.48888988215596E-02 
494	 5.52912312349204E-02 
495	 0.055709217887396 
496	 0.056177610282956 
497	 5.67370631137461E-02 
498	 5.71909483140871E-02 
499	 5.75704482267155E-02 
500	 5.79800331949202E-02 
501	 5.85972288874613E-02 
502	 5.91357948116129E-02 
503	 5.95906376263419E-02 
504	 6.00478228255834E-02 
505	 6.05767389252391E-02 
506	 6.11683160331191E-02 
507	 0.061734647349266 
508	 0.062146884470921 
509	 6.25999726619655E-02 
510	 6.31485083376759E-02 
511	 6.37644031941762E-02 
512	 0.064299954517341 
513	 6.48081970694391E-02 
514	 6.53550335028725E-02 
515	 6.59953189298248E-02 
516	 6.66413322338161E-02 
517	 6.73709506456226E-02 
518	 6.81257048876125E-02 
519	 0.068675711149904 
520	 6.93452211738533E-02 
521	 7.00862740825797E-02 
522	 7.07935264930867E-02 
523	 7.14615323154453E-02 
524	 7.21817020338072E-02 
525	 7.29578258074726E-02 
526	 0.073728133836099 
527	 7.44300456037547E-02 
528	 7.51429425380592E-02 
529	 7.59094638888837E-02 
530	 7.66651503803149E-02 
531	 7.74344053286795E-02 
532	 7.82007267364149E-02 
533	 7.89473826463454E-02 
534	 7.97519976268581E-02 
535	 8.05541603830769E-02 
536	 0.081340179458858 
537	 8.21522176754782E-02 
538	 0.083015666685108 
539	 0.083887653801637 
540	 8.47418844175979E-02 
541	 8.56809115271921E-02 
542	 8.65105978856208E-02 
543	 0.087273895462478 
544	 8.81442550993345E-02 
545	 8.89462338932884E-02 
546	 8.97462215159691E-02 
547	 9.06002587854616E-02 
548	 9.14983234532318E-02 
549	 9.23093145765909E-02 
550	 9.31158683498106E-02 
551	 9.40249006855319E-02 
552	 9.47807942307964E-02 
553	 9.55884915965471E-02 
554	 9.64806157406841E-02 
555	 0.09726759011439 
556	 9.81173093186573E-02 
557	 9.89927849148279E-02 
558	 9.98247101090084E-02 
559	 0.100640787663317 
560	 0.101399657354586 
561	 0.102100921960264 
562	 0.102780091054126 
563	 0.103505338478532 
564	 0.104206044152454 
565	 0.104844929407663 
566	 0.105490897693048 
567	 0.106086922390058 
568	 0.106627100760893 
569	 0.107127442346326 
570	 0.107614898178999 
571	 0.108120730778143 
572	 0.108617437360489 
573	 0.109017191248963 
574	 0.109354340673786 
575	 0.109691866163087 
576	 0.11004519724997 
577	 0.110255029315308 
578	 0.110485493018083 
579	 0.110751919075404 
580	 0.110966331388459 
581	 0.111023742308051 
582	 0.111019851841218 
583	 0.111026472555777 
584	 0.111025181584635 
585	 0.111006829591539 
586	 0.110913344191524 
587	 0.110702456588239 
588	 0.11055377979621 
589	 0.110317271156131 
590	 0.109999987971334 
591	 0.109765303804326 
592	 0.109379559944498 
593	 0.108906840474011 
594	 0.108416184447056 
595	 0.107775553452199 
596	 0.107008870936833 
597	 0.106136335050664 
598	 0.105202720310648 
599	 0.104410851096135 
600	 0.103716895543054 
601	 0.103100922124943 
602	 0.102639370342902 
603	 0.102315178269073 
604	 0.102149114605095 
605	 0.102131670427991 
606	 0.102041437782229 
607	 0.102034008218537 
608	 0.102122923155884 
609	 0.102160099427233 
610	 0.102204875428331 
611	 0.102276594675171 
612	 0.102362735678613 
613	 0.102373959084993 
614	 0.102404457035578 
615	 0.102425604814156 
616	 0.102363428926625 
617	 0.102398602118483 
618	 0.102431891717811 
619	 0.102406279958336 
620	 0.102379327419127 
621	 0.102367431674155 
622	 0.102342431121811 
623	 0.102289717613832 
624	 0.102345451024071 
625	 0.102365992713524 
626	 0.102329220511155 
627	 0.10233404715995 
628	 0.102309213100841 
629	 0.102253799024211 
630	 0.102194026557745 
631	 0.102196681109507 
632	 0.102166121488661 
633	 0.102096400835287 
634	 0.102036084835165 
635	 0.102085877340615 
636	 0.102102111196702 
637	 0.102028055151354 
638	 0.101962920814833 
639	 0.10183187201364 
640	 0.101737885776059 
641	 0.101761745252646 
642	 0.101687362748463 
643	 0.10161089146069 
644	 0.101550642130896 
645	 0.101453481552005 
646	 0.101244026757744 
647	 0.101056311419578 
648	 0.100977660142498 
649	 0.100907867962227 
650	 0.100663782419728 
651	 0.100325442819654 
652	 0.100046325696272 
653	 9.96058141307475E-02 
654	 9.90932158341468E-02 
655	 9.85020459906359E-02 
656	 9.77591057403749E-02 
657	 9.71329695747864E-02 
658	 9.66693875987673E-02 
659	 9.63110556984029E-02 
660	 9.59002248323222E-02 
661	 9.56429984833273E-02 
662	 9.54874603675014E-02 
663	 9.52337537565934E-02 
664	 9.48967295189147E-02 
665	 9.47548136957974E-02 
666	 9.48286540475736E-02 
667	 0.094626017464681 
668	 9.44932597709543E-02 
669	 9.44490988604335E-02 
670	 9.44032971958904E-02 
671	 9.42554665140955E-02 
672	 9.42398642868468E-02 
673	 9.43260999055909E-02 
674	 9.42367670995473E-02 
675	 9.40682556717834E-02 
676	 0.094047904062603 
677	 9.42183185191928E-02 
678	 0.094085826809531 
679	 9.40628128593488E-02 
680	 9.41193263717815E-02 
681	 9.40616811594762E-02 
682	 9.40528434705415E-02 
683	 9.40770372065443E-02 
684	 9.40499738517604E-02 
685	 9.37994096015732E-02 
686	 9.37504542610359E-02 
687	 0.093696603634299 
688	 9.33979058125815E-02 
689	 9.32487463008068E-02 
690	 9.29693873834446E-02 
691	 9.25420544265309E-02 
692	 9.20871441050397E-02 
693	 9.15111678258363E-02 
694	 9.08684816123045E-02 
695	 0.090224669702651 
696	 8.95501681624433E-02 
697	 8.87863315548541E-02 
698	 8.79043390528607E-02 
699	 8.69683736882977E-02 
700	 8.61077415694874E-02 
701	 0.085120279711642 
702	 8.40391179606049E-02 
703	 8.30378742698668E-02 
704	 8.18518480439458E-02 
705	 8.05341646996999E-02 
706	 0.079194385886739 
707	 0.077857918198742 
708	 7.64434792031253E-02 
709	 7.49036677746473E-02 
710	 7.32123133670531E-02 
711	 7.13705084712734E-02 
712	 6.95154080485625E-02 
713	 6.76550780738625E-02 
714	 6.56081447315885E-02 
715	 6.36602795033962E-02 
716	 0.061623155529059 
717	 0.059424916439214 
718	 5.71641549666457E-02 
719	 5.46857795584393E-02 
720	 5.25574332385532E-02 
721	 5.08449904488692E-02 
722	 4.90668885478615E-02 
723	 4.68837887077606E-02 
724	 4.45866594556883E-02 
725	 4.26132307425572E-02 
726	 4.04011307461231E-02 
727	 3.80844241212233E-02 
728	 3.58093742792297E-02 
729	 3.31246296510843E-02 
730	 3.06514555932571E-02 
731	 2.85525979316153E-02 
732	 2.66114306912407E-02 
733	 2.48917580572705E-02 
734	 2.34841140573333E-02 
735	 2.24151578241258E-02 
736	 0.021581599596322 
737	 0.020930135947428 
738	 0.020410222878119 
739	 1.99861437790325E-02 
740	 1.95947608623836E-02 
741	 1.93693873276499E-02 
742	 0.019264616806144 
743	 1.91552324990501E-02 
744	 1.91605114239849E-02 
745	 1.90929609026623E-02 
746	 1.89383694875878E-02 
747	 1.89467879094798E-02 
748	 1.90180567947783E-02 
749	 1.89976101633289E-02 
750	 1.88283323016096E-02 
751	 1.88002745303101E-02 
752	 1.88992184800195E-02 
753	 1.89552452938181E-02 
754	 1.87827227679925E-02 
755	 0.018817332637539 
756	 0.018862602225181 
757	 1.88200897156728E-02 
758	 0.018813901185069 
759	 1.90037873562354E-02 
760	 1.91857539903058E-02 
761	 0.019016133190929 
762	 1.91937993342114E-02 
763	 1.91269844515796E-02 
764	 1.90195688242351E-02 
765	 1.91837807677622E-02 
766	 1.93055102135445E-02 
767	 1.94316724556805E-02 
768	 1.95440924707558E-02 
769	 1.95470719143312E-02 
770	 1.96710604474425E-02 
771	 1.98317971911514E-02 
772	 1.99503476142572E-02 
773	 2.01447407780057E-02 
774	 2.03837630082435E-02 
775	 0.020602806335439 
776	 2.07456565531219E-02 
777	 2.08776075539413E-02 
778	 2.11352154157502E-02 
779	 0.021461803144171 
780	 2.16309158245718E-02 
781	 2.20632521024401E-02 
782	 0.022459833074894 
783	 2.26339056732314E-02 
784	 2.29460271872807E-02 
785	 2.32468446749395E-02 
786	 2.35676011412794E-02 
787	 2.39615501531327E-02 
788	 2.42831429462587E-02 
789	 2.46896662002593E-02 
790	 2.51627541904128E-02 
791	 0.025552234176823 
792	 2.59779669287193E-02 
793	 2.63250267113626E-02 
794	 2.65812961103116E-02 
795	 2.69336105175382E-02 
796	 2.73407302160413E-02 
797	 2.77154659705383E-02 
798	 2.80382504296529E-02 
799	 2.85387703454966E-02 
800	 2.88854192550348E-02 
801	 2.90620064392356E-02 
802	 2.92410451529927E-02 
803	 2.94077648558322E-02 
804	 2.95722787855289E-02 
805	 2.97131864208572E-02 
806	 0.029780922686348 
807	 2.98549015750157E-02 
808	 2.98364984503733E-02 
809	 2.96964288291922E-02 
810	 2.96784067397267E-02 
811	 2.96260206878315E-02 
812	 2.94279701457745E-02 
813	 2.90570256070045E-02 
814	 2.89340939183455E-02 
815	 2.85871120929261E-02 
816	 0.028012997126932 
817	 2.75758060986311E-02 
818	 2.67539516588688E-02 
819	 2.61679452798128E-02 
820	 2.58169300880064E-02 
821	 2.48747947268321E-02 
822	 2.37862324793442E-02 
823	 2.27317964183429E-02 
824	 2.17397661138682E-02 
825	 2.05605833056413E-02 
826	 1.92344794324595E-02 
827	 1.77682912692114E-02 
828	 1.63120345096999E-02 
829	 1.51300155130397E-02 
830	 1.41697380470941E-02 
831	 1.32814658532428E-02 
832	 1.23496643645278E-02 
833	 1.18157415142005E-02 
834	 1.15773686778926E-02 
835	 0.011341865925396 
836	 1.07050817123459E-02 
837	 0.010329530785935 
838	 1.02252957560013E-02 
839	 0.010208012206811 
840	 9.99392805150674E-03 
841	 9.90053511489731E-03 
842	 9.84486463232892E-03 
843	 9.65785689298469E-03 
844	 9.51228492599321E-03 
845	 9.29853451503504E-03 
846	 9.03221278669006E-03 
847	 8.82848744459852E-03 
848	 8.81465165615245E-03 
849	 8.76722487377631E-03 
850	 8.55987799654049E-03 
851	 8.26077354315093E-03 
852	 8.20691199206209E-03 
853	 8.33200101950171E-03 
854	 8.40607260557363E-03 
855	 8.08763878576977E-03 
856	 7.87150485399568E-03 
857	 7.80349005691676E-03 
858	 7.79607182749691E-03 
859	 7.82418010824342E-03 
860	 7.70139820367932E-03 
861	 7.4883932184488E-03 
862	 7.38777716985833E-03 
863	 7.61263566378525E-03 
864	 7.58215475993945E-03 
865	 7.22947011023362E-03 
866	 7.00454854166994E-03 
867	 6.89472943771248E-03 
868	 6.79636194318931E-03 
869	 6.68241126207868E-03 
870	 6.64785133604229E-03 
871	 6.55153501378969E-03 
872	 6.4133555998415E-03 
873	 6.29986031528628E-03 
874	 6.30660498204987E-03 
875	 6.13013856199849E-03 
876	 5.92778721842539E-03 
877	 5.87166900222925E-03 
878	 5.58754209902435E-03 
879	 5.67382634011107E-03 
880	 5.92827085998042E-03 
881	 5.82570238208493E-03 
882	 5.44687688745061E-03 
883	 5.18166723019116E-03 
884	 5.11605902707653E-03 
885	 5.0947703350644E-03 
886	 5.21195310941103E-03 
887	 5.36467831872125E-03 
888	 5.34684249163771E-03 
889	 4.92605398248952E-03 
890	 4.85994887143323E-03 
891	 4.95428783868332E-03 
892	 4.92805202399361E-03 
893	 4.6841313742014E-03 
894	 4.37707543525171E-03 
895	 4.3798686356582E-03 
896	 4.84861457297944E-03 
897	 5.11378564795911E-03 
898	 4.57072177744604E-03 
899	 3.96667163841935E-03 
900	 4.11565221447746E-03 
901	 4.23421065443185E-03 
902	 4.0835146782672E-03 
903	 4.15101482643854E-03 
904	 4.7755467138072E-03 
905	 4.12888125601734E-03 
906	 3.54032691423257E-03 
907	 3.41376546083846E-03 
908	 3.37234135994856E-03 
909	 3.1627374140431E-03 
910	 3.57606161038316E-03 
911	 4.12021404855116E-03 
912	 3.38581747300284E-03 
913	 3.14299591493051E-03 
914	 3.50607362310531E-03 
915	 3.92363465541334E-03 
916	 3.53480992292975E-03 
917	 3.31381806803858E-03 
918	 3.58050384240794E-03 
919	 4.04410345586899E-03 
920	 3.83830060502829E-03 
921	 3.08492353510673E-03 
922	 2.91495628279629E-03 
923	 3.50221059862089E-03 
924	 2.60286006840401E-03 
925	 0.002880652380332 
926	 3.63591437975474E-03 
927	 3.33736702740768E-03 
928	 1.52428191286484E-03 
929	 1.87091319435957E-03 
930	 2.48165952957126E-03 
931	-3.60301354651775E-04 
932	 5.1106626295502E-03 
933	 6.83933382240539E-03 
934	 4.0352260334602E-03 
935	 3.15067584367865E-03 
936	 1.44262056352354E-03 
937	 3.93952470879303E-03 
938	 6.08101660839453E-03 
939	 3.44487232573139E-03 
940	 1.85407100347434E-03 
941	 5.0359086505004E-03 
942	 7.66588454335682E-03 
943	 2.64588614325318E-03 
944	 2.20672095966868E-03 
945	 2.62080202996113E-03 
946	 2.82302713960214E-03 
947	 3.75528745836432E-03 
948	 4.68986362158522E-03 
949	 2.04447022355532E-03 
950	 4.43630039464966E-04 
951	 0.006228568101946 
952	 4.6192132847639E-03 
953	 4.87870095813636E-03 
954	 7.69501774403319E-03 
955	 7.31184870112565E-03 
956	 4.25944263822205E-03 
957	 2.65442980886116E-05 
958	-7.09560848443111E-04 
959	 5.40959380213528E-03 
960	 1.06218259372525E-03 
961	 3.49088697344958E-05 
962	 3.24820791201592E-03 
963	 2.28033790329631E-03 
964	 3.56547492750197E-03 
965	 3.09657535964365E-03 
966	 1.55431362471811E-03 
967	 2.63302055549669E-03 
968	 2.40597359913061E-03 
969	 3.23305464409668E-03 
970	 4.18099067442833E-03 
971	 1.98661377064662E-03 
972	 1.92177939198112E-03 
973	 2.77785891622494E-03 
974	 3.11376295031965E-03 
975	 2.36257695636357E-03 
976	 2.63107575147163E-03 
977	 3.09208735949538E-03 
978	 2.74473369143134E-03 
979	 1.37637019948134E-03 
980	 2.96577857475239E-03 
981	 2.91594374884792E-03 
982	 1.57773841061733E-03 
983	 2.99612180090729E-03 
984	 2.46543520341048E-03 
985	 2.23506638645661E-03 
986	 2.88210011134783E-03 
987	 3.19707320814479E-03 
988	 0.003194221923545 
989	 3.33809810378688E-03 
990	 3.19192295453562E-03 
991	 2.06450505655158E-03 
992	 2.36593351552865E-03 
993	 2.34042084600104E-03 
994	 2.1227020886764E-03 
995	 3.01637891780798E-03 
996	 3.61089079526439E-03 
997	 2.72504221497727E-03 
998	 1.79051317494831E-03 
999	 2.93751330117587E-03 
1000	 2.95314687952085E-03 
1001	 0.00236924275549 
1002	 2.82680468687518E-03 
1003	 2.81552600109117E-03 
1004	 2.31635535014404E-03 
1005	 2.32057718858017E-03 
1006	 2.36235700187754E-03 
1007	 2.6243667002183E-03 
1008	 3.01178713676135E-03 
1009	 3.21559450122161E-03 
1010	 3.05844706619995E-03 
1011	 2.94953076923728E-03 
1012	 2.6442160414544E-03 
1013	 2.36662716667995E-03 
1014	 2.26947826530293E-03 
1015	 2.13059965325046E-03 
1016	 2.13992888165761E-03 
1017	 2.34047431906895E-03 
1018	 2.64361760050701E-03 
1019	 3.24671826447627E-03 
1020	 3.49002542586868E-03 
1021	 3.77084490951316E-03 
1022	 3.93588417278699E-03 
1023	 3.5610767834447E-03 
1024	 3.08481411962165E-03 
1025	 2.58584913950395E-03 
1026	 2.00625305295854E-03 
1027	 1.90526469778096E-03 
1028	 2.08470702282777E-03 
1029	 2.21552404912935E-03 
1030	 2.63133740409183E-03 
1031	 2.99555433518854E-03 
1032	 3.51521110248194E-03 
1033	 3.58439830991254E-03 
1034	 3.6073630400794E-03 
1035	 3.46140152646956E-03 
1036	 2.56084613674688E-03 
1037	 2.31542903336866E-03 
1038	 2.29002415570394E-03 
1039	 2.54271299086837E-03 
1040	 2.82851106265224E-03 
1041	 3.02618284066412E-03 
1042	 3.11941228438789E-03 
1043	 3.05290172477126E-03 
1044	 2.99719665364778E-03 
1045	 2.90746039040649E-03 
1046	 2.85619360054149E-03 
1047	 2.71221726104777E-03 
1048	 2.68187703211447E-03 
1049	 2.79332651557103E-03 
1050	 2.77422080405749E-03 
1051	 2.67040667135288E-03 
1052	 2.67166141374704E-03 
1053	 2.72149255425104E-03 
1054	 2.68859196275411E-03 
1055	 2.66146384343871E-03 
1056	 2.66674313616624E-03 
1057	 2.66028307700607E-03 
1058	 2.47294225839658E-03 
1059	 2.65958615257918E-03 
1060	 3.2795129884634E-03 
1061	 3.25095354245344E-03 
1062	 3.06588578110985E-03 
1063	 2.93785195678548E-03 
1064	 2.19621751550629E-03 
1065	 2.1178995263512E-03 
1066	 2.60760701323846E-03 
1067	 2.8207264262215E-03 
1068	 3.29551748367766E-03 
1069	 3.44294003006547E-03 
1070	 3.25422914476894E-03 
1071	 3.19749070378583E-03 
1072	 3.02501372528783E-03 
1073	 2.88361183206757E-03 
1074	 2.8570467618485E-03 
1075	 3.01284449348392E-03 
1076	 3.00509831120081E-03 
1077	 2.94564029678085E-03 
1078	 2.91185592989011E-03 
1079	 2.82256658442438E-03 
1080	 2.81082975856766E-03 
1081	 3.01692812493952E-03 
1082	 2.91061788484135E-03 
1083	 2.32384606916589E-03 
1084	 2.31696847520596E-03 
1085	 2.69936647776752E-03 
1086	 2.71079507992762E-03 
1087	 3.02252135976399E-03 
1088	 0.003115430327463 
1089	 2.75358509672786E-03 
1090	 2.11593335139915E-03 
1091	 2.08934550444491E-03 
1092	 2.5605841954917E-03 
1093	 2.47934571441876E-03 
1094	 2.29104613238779E-03 
1095	 2.33732907636227E-03 
1096	 2.10216721852536E-03 
1097	 2.17934603475628E-03 
1098	 3.03715179690845E-03 
1099	 3.17864142378225E-03 
1100	 2.89099323983985E-03 
1101	 2.69376141201549E-03 
1102	 1.73410287213635E-03 
1103	 1.61593506199867E-03 
1104	 2.09653993141711E-03 
1105	 2.74279426127202E-03 
1106	 3.00797896117718E-03 
1107	 2.95810747103453E-03 
1108	 2.3996133665068E-03 
1109	 1.95814645594521E-03 
1110	 1.76369873345987E-03 
1111	 2.25347749835114E-03 
1112	 2.68286647698769E-03 
1113	 3.21554889702597E-03 
1114	 2.80095623726631E-03 
1115	 2.16064275410305E-03 
1116	 1.8293308794329E-03 
1117	-2.32649359426487E-04 
1118	-6.68462742534522E-04 
1119	 1.22524988611193E-03 
1120	 1.8881580202732E-03 
1121	 1.3095600744913E-03 
1122	 5.29050182241019E-03 
1123	 7.59463347275153E-03 
1124	 5.64162767154885E-03 
1125	 4.69569088991841E-03 
1126	 3.66046822289655E-03 
1127	 6.21059751503228E-04 
1128	-1.57251635941608E-04 
1129	-3.13233103504504E-04 
1130	-1.21631827973005E-04 
1131	-4.9068035108635E-05 
1132	 1.17060123203426E-03 
1133	 9.82746435419075E-04 
1134	 6.19271915149199E-04 
1135	-2.17040596365049E-04 
1136	-3.54865488550642E-03 
1137	-2.53774473051093E-03 
1138	 1.53066106218499E-03 
1139	 2.29431787690944E-03 
1140	 2.92454726809651E-03 
1141	 3.92465260457222E-03 
1142	 9.85215656755999E-04 
1143	-9.61318992341045E-04 
1144	 7.75970889359067E-04 
1145	 2.15243289114813E-03 
1146	 3.38408653380628E-03 
1147	 4.96290714091194E-03 
1148	 3.4081774269761E-03 
1149	-5.98662162565366E-06 
1150	 7.4311292022044E-05 
1151	 2.41774551188991E-03 
1152	 2.38235440413021E-03 
1153	 2.69126162351325E-03 
1154	 2.94463302038485E-03 
1155	 2.67097669635737E-03 
1156	 1.21312948323975E-03 
1157	 1.32905290245655E-03 
1158	 2.37793630622828E-03 
1159	 2.03763888119913E-03 
1160	 1.68481445644682E-03 
1161	 2.04048758392119E-03 
1162	 2.10335193201043E-03 
1163	 2.20608722617213E-03 
1164	 2.20665003281135E-03 
1165	 2.12082052911143E-03 
1166	 2.28356530261852E-03 
1167	 2.1844292603058E-03 
1168	 2.2480917818119E-03 
1169	 2.49381204229649E-03 
1170	 2.21800975707566E-03 
1171	 2.14732383519467E-03 
1172	 2.55693504100563E-03 
1173	 2.52567199005961E-03 
1174	 2.08303239718325E-03 
1175	 1.9453588602733E-03 
1176	 2.2839008112991E-03 
1177	 2.38036547209607E-03 
1178	 2.43817547650376E-03 
1179	 2.45449201590879E-03 
1180	 2.35828480102282E-03 
1181	 2.53072064167624E-03 
1182	 2.72879043071733E-03 
1183	 2.56313558273623E-03 
1184	 2.28196027484219E-03 
1185	 2.23001466843782E-03 
1186	 2.4194170671802E-03 
1187	 2.68430638743076E-03 
1188	 2.90204364111125E-03 
1189	 2.66445505684843E-03 
1190	 2.37670970104926E-03 
1191	 2.54102270927793E-03 
1192	 2.43652877210437E-03 
1193	 2.3316316838973E-03 
1194	 2.14064256514587E-03 
1195	 2.18568249785274E-03 
1196	 2.20078359035596E-03 
1197	 2.24190892272976E-03 
1198	 2.23486970234585E-03 
1199	 2.00205860103205E-03 
1200	 1.74653074730037E-03 
1201	 1.76184484824583E-03 
1202	 2.02236781382053E-03 
1203	 2.12313767128596E-03 
1204	 2.09347335296607E-03 
1205	 2.17843397166961E-03 
1206	 2.25182470600955E-03 
1207	 2.42877260493443E-03 
1208	 2.46132009418625E-03 
1209	 2.17509805928041E-03 
1210	 2.17363110370996E-03 
1211	 2.44156514349893E-03 
1212	 2.42640787362089E-03 
1213	 2.32571255848838E-03 
1214	 2.35220222264141E-03 
1215	 2.34964251629352E-03 
1216	 2.13131719249843E-03 
1217	 2.24617869210134E-03 
1218	 2.6287476901685E-03 
1219	 2.45465479921072E-03 
1220	 2.11856345049106E-03 
1221	 2.23192770382174E-03 
1222	 2.29394242175633E-03 
1223	 2.30124380828683E-03 
1224	 2.51474616745164E-03 
1225	 2.40314307151399E-03 
1226	 2.1670421558579E-03 
1227	 2.24052491823778E-03 
1228	 2.21793145702213E-03 
1229	 2.19424900868488E-03 
1230	 2.29005037832991E-03 
1231	 2.37269551777466E-03 
1232	 2.58491332208094E-03 
1233	 2.50620582744057E-03 
1234	 2.08405729607651E-03 
1235	 2.11177922234999E-03 
1236	 2.55550142972655E-03 
1237	 2.51422737953884E-03 
1238	 2.42298167454899E-03 
1239	 2.45374670255835E-03 
1240	 2.38495166283519E-03 
1241	 2.09860792473626E-03 
1242	 2.09995106680765E-03 
1243	 2.30217298004676E-03 
1244	 2.16312760565308E-03 
1245	 1.9519472401977E-03 
1246	 2.15754380248536E-03 
1247	 2.40161078202834E-03 
1248	 2.35587362895892E-03 
1249	 2.25765789925202E-03 
1250	 2.20725013842397E-03 
1251	 2.23165977637707E-03 
1252	 2.2283057824771E-03 
1253	 2.13893407507378E-03 
1254	 2.13678639908628E-03 
1255	 2.17963592544772E-03 
1256	 2.18395964971969E-03 
1257	 2.36406589780308E-03 
1258	 2.39295754059967E-03 
1259	 2.26001935218727E-03 
1260	 2.13803243426327E-03 
1261	 1.95811187595671E-03 
1262	 1.98484499078569E-03 
1263	 2.10115006948948E-03 
1264	 2.11178067177666E-03 
1265	 2.2159497197761E-03 
1266	 2.21505264127945E-03 
1267	 2.14188489886149E-03 
1268	 2.09632650073223E-03 
1269	 2.14909017881094E-03 
1270	 2.40826558455259E-03 
1271	 2.51291478273778E-03 
1272	 2.25545098410744E-03 
1273	 2.13536297194041E-03 
1274	 2.17333534009014E-03 
1275	 1.90102865484064E-03 
1276	 1.80335572301244E-03 
1277	 2.03928556267515E-03 
1278	 1.93797935099873E-03 
1279	 1.84239569051388E-03 
1280	 2.07126589782293E-03 
1281	 2.16930759089419E-03 
1282	 2.09928911578612E-03 
1283	 2.0501921426899E-03 
1284	 0.001988535369319 
1285	 2.07589578722464E-03 
1286	 2.32169700570555E-03 
1287	 2.32029661658392E-03 
1288	 2.23954200227198E-03 
1289	 2.28813914831676E-03 
1290	 2.31706435807489E-03 
1291	 2.01969411355088E-03 
1292	 1.88170591516431E-03 
1293	 2.18072858695749E-03 
1294	 2.0272282781744E-03 
1295	 1.77629250195956E-03 
1296	 1.9621954781636E-03 
1297	 2.10257661281117E-03 
1298	 1.99867867403997E-03 
1299	 1.85707749667086E-03 
1300	 2.07500868896345E-03 
1301	 2.3394963335515E-03 
1302	 2.3150021213965E-03 
1303	 2.31570414964863E-03 
1304	 2.28790841113686E-03 
1305	 2.17575122510924E-03 
1306	 2.06228732784431E-03 
1307	 2.22513071312372E-03 
1308	 2.29869190128793E-03 
1309	 2.02298376722798E-03 
1310	 1.98322134932747E-03 
1311	 2.44987578840846E-03 
1312	 2.45825701391642E-03 
1313	 2.06635556858139E-03 
1314	 1.91001212557802E-03 
1315	 1.59524945187235E-03 
1316	 1.51476066142654E-03 
1317	 1.83803301877564E-03 
1318	 1.98222139317375E-03 
1319	 2.23248573413806E-03 
1320	 2.14575734112783E-03 
1321	 1.63460813653843E-03 
1322	 1.34692618964798E-03 
1323	 1.67188513465181E-03 
1324	 1.83989016168549E-03 
1325	 1.6608433557746E-03 
1326	 1.67889963384351E-03 
1327	 1.69001085491374E-03 
1328	 1.53838023972682E-03 
1329	 2.34583658076541E-03 
1330	 3.37190010232949E-03 
1331	 2.37523086313874E-03 
1332	 1.19835956999078E-03 
1333	 1.83569855324637E-03 
1334	 2.3317179059343E-03 
1335	 2.26197930252672E-03 
1336	 2.93491213665943E-03 
1337	 3.24081974424778E-03 
1338	 2.34130256081653E-03 
1339	 1.94275507068602E-03 
1340	 2.16384729844089E-03 
1341	 2.43726955024708E-03 
1342	 2.26131007303371E-03 
1343	 1.83808573709302E-03 
1344	 2.07875865808737E-03 
1345	 2.95101664107289E-03 
1346	 3.68018593222488E-03 
1347	 3.27845713967483E-03 
1348	 3.80110152552981E-03 
1349	 4.14707168384282E-03 
1350	-1.83564171798691E-03 
1351	-4.70739358628867E-03 
1352	 1.25721729497106E-03 
1353	 7.42838795085767E-03 
1354	 2.04629738442308E-02 
1355	 4.40981526182157E-02 
1356	 5.48873377743035E-02 
1357	 2.54072450833013E-02 
1358	-1.18765393526849E-02 
1359	-3.20791630521821E-02 
1360	-5.80376372757097E-02 
1361	-2.46353102319236E-03 
1362	 9.10160014175204E-02 
1363	 9.46653481901994E-02 
1364	 6.29349921221669E-02 
1365	 3.45312796615818E-02 
1366	 2.36396533164307E-02 
1367	-3.35303342010052E-02 
1368	-0.130139338177512 
1369	-0.233434719865343 
1370	-0.182548929290102 
1371	-0.178408761821389 
1372	-0.222082564524067 
1373	-0.104684051938206 
1374	-6.51741687596765E-02 
1375	-0.164752493669951 
1376	-0.181461410397591 
1377	 5.03210475162451E-02 
1378	 0.192154133842093 
1379	 0.113153191816456 
1380	 0.117330947011508 
1381	 0.187954475509071 
1382	 0.146453883873839 
1383	-0.173042970712342 
1384	-0.17369450276636 
1385	 0.287235749688533 
1386	 0.177362018042524 
1387	-0.363893013481331 
1388	-0.264417269632437 
1389	 3.41552500928448E-02 
1390	-1.64479984718978E-02 
1391	-2.98892379192564E-02 
1392	 0.245434558462709 
1393	 0.181081874015147 
1394	-0.505835699550112 
1395	-5.79149623426486E-03 
1396	 0.119117532580484 
1397	-0.16824103371359 
1398	-0.284680404498525 
1399	-0.155551448846795 
1400	-0.147325101781855 
1401	-0.110089360180081 
1402	-9.21880750443446E-02 
1403	 0.115948614159131 
1404	 0.579838417041776 
1405	 0.549736288381367 
1406	 0.369711928670467 
1407	 0.367807948935469 
1408	 0.167518187037983 
1409	 0.11952575140917 
1410	 0.329101797350241 
1411	 0.257504193018482 
1412	 0.092773442301826 
1413	 3.68125321353051E-03 
1414	-0.160908986025407 
1415	-0.145457011422712 
1416	-5.31257303034635E-02 
1417	-2.16564466773983E-02 
1418	 4.97733904076826E-02 
1419	 8.93306658384395E-02 
1420	 0.131391466359792 
1421	 8.54169325686058E-02 
1422	-1.33509337381562E-02 
1423	-2.43002950203881E-02 
1424	-3.81777424300456E-02 
1425	-5.06220631823937E-02 
1426	-3.69077311231502E-02 
1427	-1.44609539827985E-02 
1428	 1.38113133094106E-02 
1429	 9.1106241579617E-03 
1430	-4.44440573105027E-03 
1431	 4.70694132681726E-03 
1432	 2.6191765369228E-03 
1433	-1.97435065826781E-03 
1434	 2.46943100774642E-02 
1435	 3.42932348103265E-02 
1436	 2.45597859197211E-02 
1437	 2.50025973635301E-03 
1438	-7.35287581912089E-03 
1439	-8.2587131425806E-03 
1440	-9.56976119387072E-03 
1441	-1.15184065705279E-02 
1442	-1.12252895528053E-02 
1443	-8.36394432312497E-03 
1444	-3.66223463638841E-03 
1445	 1.27685612331488E-03 
1446	 1.47034789298592E-03 
1447	-4.81824485405381E-04 
1448	-8.47562560039474E-04 
1449	-9.70467513720057E-04 
1450	 7.45840814015762E-04 
1451	 2.42532957316762E-03 
1452	 2.33890930980775E-03 
1453	 1.34946129687115E-03 
1454	 1.51491167241034E-03 
1455	 3.59899777713434E-03 
1456	 2.99185985119859E-03 
1457	 3.20763076515403E-04 
1458	 7.2926485030355E-04 
1459	 1.94073852652083E-03 
1460	 2.10544159587058E-03 
1461	 3.98346893925032E-03 
1462	 3.51829567003208E-03 
1463	-3.5599195762004E-04 
1464	-5.21001212610738E-04 
1465	 9.78023085819354E-04 
1466	 1.43913442051428E-03 
1467	 4.18990425544458E-03 
1468	 3.99432181670761E-03 
1469	 5.9692343700362E-04 
1470	-1.46176866578245E-04 
1471	-6.2062606459815E-04 
1472	-1.44305060031285E-03 
1473	-2.40997164488033E-03 
1474	-1.0940618455641E-03 
1475	 2.10684575398679E-03 
1476	 2.51231554923512E-03 
1477	 2.81011795259099E-03 
1478	 3.35424724023091E-03 
1479	 2.69524770920354E-03 
1480	 1.97161831742694E-03 
1481	 2.10377031391008E-03 
1482	 2.01044188369009E-03 
1483	 8.6999049311709E-04 
1484	 1.0151601818789E-04 
1485	-3.67782302736415E-05 
1486	-1.96662168145899E-04 
1487	-1.14720526408492E-03 
1488	-9.7644598948954E-04 
1489	 9.55733082813511E-06 
1490	 6.13196900275369E-04 
1491	 1.71196233388127E-03 
1492	 2.02328445655347E-03 
1493	 1.83569147949791E-03 
1494	 1.87882883737081E-03 
1495	 1.8071725896009E-03 
1496	 1.55317353439416E-03 
1497	 9.96300123099478E-04 
1498	 1.03602876282085E-03 
1499	 1.47624254884585E-03 
1500	 1.48358550023812E-03 
1501	 1.59848158435728E-03 
1502	 1.72312067324636E-03 
1503	 1.48071417669132E-03 
1504	 1.37297813382675E-03 
1505	 1.51654191288371E-03 
1506	 1.56560929642141E-03 
1507	 1.75754064135785E-03 
1508	 1.84198254476229E-03 
1509	 1.6881791306717E-03 
1510	 1.72973021739025E-03 
1511	 1.71127458749169E-03 
1512	 1.53266919262197E-03 
1513	 1.64099183119109E-03 
1514	 1.79053969090287E-03 
1515	 1.74927409566945E-03 
1516	 1.83873875102527E-03 
1517	 1.93913427490334E-03 
1518	 1.93747509400349E-03 
1519	 1.7298483341176E-03 
1520	 1.38233166990348E-03 
1521	 1.53837618366587E-03 
1522	 1.79039048527162E-03 
1523	 1.91165552850233E-03 
1524	 2.28081352800872E-03 
1525	 2.21765057217309E-03 
1526	 1.86582230383971E-03 
1527	 1.96467205752605E-03 
1528	 2.04920734705884E-03 
1529	 1.8856884376489E-03 
1530	 1.92726783815235E-03 
1531	 1.94329594427118E-03 
1532	 1.7802921083614E-03 
1533	 1.84196217872323E-03 
1534	 1.93152303992573E-03 
1535	 1.85109316178231E-03 
1536	 1.74715377584424E-03 
1537	 1.72673004866318E-03 
1538	 1.84069066006488E-03 
1539	 2.01457074648467E-03 
1540	 2.14775549895031E-03 
1541	 2.14187535056521E-03 
1542	 2.09929328617756E-03 
1543	 2.02065978201685E-03 
1544	 1.83610040464298E-03 
1545	 1.77887340636375E-03 
1546	 1.86184923898552E-03 
1547	 1.73802917060492E-03 
1548	 1.65640949119694E-03 
1549	 1.7737201093815E-03 
1550	 1.6379737335848E-03 
1551	 1.4770329627045E-03 
1552	 1.55217533375682E-03 
1553	 1.67456587057796E-03 
1554	 1.70893075513223E-03 
1555	 1.65483069404909E-03 
1556	 1.62005856062881E-03 
1557	 1.62447824848531E-03 
1558	 1.72957482332902E-03 
1559	 1.85159104028329E-03 
1560	 1.89458840909056E-03 
1561	 1.84999615589991E-03 
1562	 1.70471859316445E-03 
1563	 1.66678127186872E-03 
1564	 1.80877301871472E-03 
1565	 1.95481846419101E-03 
1566	 1.85509753739165E-03 
1567	 1.52613779777936E-03 
1568	 1.49289360586955E-03 
1569	 1.78407140334267E-03 
1570	 1.93665695615723E-03 
1571	 1.89757520859468E-03 
1572	 1.75261729130749E-03 
1573	 1.61080210988367E-03 
1574	 1.58381262405847E-03 
1575	 1.76964273604856E-03 
1576	 2.04895039408888E-03 
1577	 2.07240702227014E-03 
1578	 1.98016120279319E-03 
1579	 2.0145219500833E-03 
1580	 2.01768548152659E-03 
1581	 1.86728898057481E-03 
1582	 1.63665924508433E-03 
1583	 1.47761086038031E-03 
1584	 1.55539219357801E-03 
1585	 1.7979487348002E-03 
1586	 1.90421950245122E-03 
1587	 1.81790135101237E-03 
1588	 1.72878163854583E-03 
1589	 1.74201159327805E-03 
1590	 1.72683435770696E-03 
1591	 1.61862823876902E-03 
1592	 1.67185871251075E-03 
1593	 1.80395340227527E-03 
1594	 1.68124826122688E-03 
1595	 1.58243911301803E-03 
1596	 1.68889223610175E-03 
1597	 1.51387265296781E-03 
1598	 1.43023046301553E-03 
1599	 1.72590317557519E-03 
1600	 1.67823580975721E-03 
1601	 1.48778398068647E-03 
1602	 1.40393198799379E-03 
1603	 1.35649851601463E-03 
1604	 1.58402768752382E-03 
1605	 1.82341795490182E-03 
1606	 1.77734768854564E-03 
1607	 1.65261868522279E-03 
1608	 1.63747927724498E-03 
1609	 1.61089150491384E-03 
1610	 1.75410645477441E-03 
1611	 2.00794927420541E-03 
1612	 1.87868877094196E-03 
1613	 1.8257766871717E-03 
1614	 2.03792334030727E-03 
1615	 1.95836666193283E-03 
1616	 1.84316830294408E-03 
1617	 1.73130936496625E-03 
1618	 1.56702632092175E-03 
1619	 1.6361410171972E-03 
1620	 1.70958470198643E-03 
1621	 1.78344402948446E-03 
1622	 1.85996031886247E-03 
1623	 0.0018079874061 
1624	 1.71544290497827E-03 
1625	 1.60030942669744E-03 
1626	 1.57667929360751E-03 
1627	 1.72326060124429E-03 
1628	 1.92013739883769E-03 
1629	 1.87830836283911E-03 
1630	 1.82229516827941E-03 
1631	 1.80214471606818E-03 
1632	 1.42952734462423E-03 
1633	 1.47908722240421E-03 
1634	 1.9651842021223E-03 
1635	 1.72070669949965E-03 
1636	 1.41056226612398E-03 
1637	 1.84486716724849E-03 
1638	 1.92998619518833E-03 
1639	 1.7667385458298E-03 
1640	 2.08492163219165E-03 
1641	 2.02067880316089E-03 
1642	 1.77596312921221E-03 
1643	 1.9058813868857E-03 
1644	 1.94150357362292E-03 
1645	 1.8678033152572E-03 
1646	 1.69764706745468E-03 
1647	 1.4972243642746E-03 
1648	 1.66637188191629E-03 
1649	 2.04110011845918E-03 
1650	 1.94730636479122E-03 
1651	 1.64350455501845E-03 
1652	 1.78665894647065E-03 
1653	 1.83360221450232E-03 
1654	 1.72208552243115E-03 
1655	 1.86765625096031E-03 
1656	 1.90713422901875E-03 
1657	 1.62639627107244E-03 
1658	 1.59728069469926E-03 
1659	 1.71236743112832E-03 
1660	 1.7795711393411E-03 
1661	 1.85150346124942E-03 
1662	 1.79008759211406E-03 
1663	 1.85901420221136E-03 
1664	 1.86569960684019E-03 
1665	 1.57867823900477E-03 
1666	 1.58678400364812E-03 
1667	 1.87370245473839E-03 
1668	 1.43296912648019E-03 
1669	 1.31648251211548E-03 
1670	 1.49656513359589E-03 
1671	 1.38943806698863E-03 
1672	 1.37575915519195E-03 
1673	 1.36414852360877E-03 
1674	 1.07519310834495E-03 
1675	 1.0040925959075E-03 
1676	 1.51324630624847E-03 
1677	 1.87166016406637E-03 
1678	 1.58666930328057E-03 
1679	 1.38930663640603E-03 
1680	 1.12693898438275E-03 
1681	 7.16122239868089E-04 
1682	 1.08116704516018E-03 
1683	 1.6152649119681E-03 
1684	 1.73804021188179E-03 
1685	 1.9996186816207E-03 
1686	 1.78392590310889E-03 
1687	 1.39466287555162E-03 
1688	 1.69337664851351E-03 
1689	 1.73499579809601E-03 
1690	 1.74992838565687E-03 
1691	 1.73800300899131E-03 
1692	 1.09971368905098E-03 
1693	 1.15640474284482E-03 
1694	 1.4762294408364E-03 
1695	 1.40604279779403E-03 
1696	 1.71658187009826E-03 
1697	 1.60020045732625E-03 
1698	 1.30701526322982E-03 
1699	 1.64341376153397E-03 
1700	 1.81206519007348E-03 
1701	 1.60114046261478E-03 
1702	 1.39517940766582E-03 
1703	 1.24990065014174E-03 
1704	 1.16733620331868E-03 
1705	 1.41416935444554E-03 
1706	 1.72947045408192E-03 
1707	 1.60257641932221E-03 
1708	 1.51411030036138E-03 
1709	 1.38198254134116E-03 
1710	 1.04712435550137E-03 
1711	 1.10293573460774E-03 
1712	 1.23787512690166E-03 
1713	 1.68319303360952E-03 
1714	 1.64216501008102E-03 
1715	 1.56185246667859E-03 
1716	 7.70768396803884E-04 
1717	 8.37658416357421E-05 
1718	 9.46213294973494E-04 
1719	 1.49634716375294E-03 
1720	 1.21354610254076E-03 
1721	 1.76924733642237E-03 
1722	 2.06307294040994E-03 
1723	 1.8173525041498E-03 
1724	 2.16556009615494E-03 
1725	 2.33291736302773E-03 
1726	 1.59414248868602E-03 
1727	 9.57499119215525E-04 
1728	 1.61201547466259E-03 
1729	 2.25007830274341E-03 
1730	 1.56123036636042E-03 
1731	 1.54529709995977E-03 
1732	 1.78675226303857E-03 
1733	 9.91097021676705E-04 
1734	 1.02510824955891E-03 
1735	 1.38530266486052E-03 
1736	 1.00010352394671E-03 
1737	 6.42732134292568E-04 
1738	 8.38108983587273E-04 
1739	 1.33580297211549E-03 
1740	 1.79063582271121E-03 
1741	 2.22650136052231E-03 
1742	 2.14502445330873E-03 
1743	 0.001703593988322 
1744	 0.001279892650028 
1745	 7.74206908407933E-04 
1746	 1.44310291115771E-03 
1747	 1.6798488105749E-03 
1748	 1.42461221326598E-03 
1749	 1.57722266953909E-03 
1750	 2.25675990454913E-03 
1751	 1.99488227348127E-03 
1752	 8.76981391475827E-04 
1753	 9.91757840245946E-04 
1754	 1.45601169432649E-03 
1755	 1.16377541839004E-03 
1756	 1.50041885591949E-03 
1757	 1.7183503096598E-03 
1758	 1.05224234427661E-03 
1759	 1.38699633930636E-03 
1760	 1.6285881334082E-03 
1761	 1.25068247038753E-03 
1762	 1.05976924515224E-03 
1763	 1.27754027003663E-03 
1764	 2.09819929235818E-03 
1765	 2.02836772632629E-03 
1766	 1.0378381272886E-03 
1767	 9.82349752865178E-04 
1768	 8.05481674560288E-04 
1769	 3.26691293980394E-04 
1770	 1.13110043070756E-03 
1771	 1.42465143039776E-03 
1772	 7.62978979156311E-04 
1773	 1.29820362117402E-03 
1774	 1.09483813096993E-03 
1775	 1.72213417170149E-04 
1776	 2.25742769701352E-04 
1777	 8.51993802012362E-04 
1778	 9.1092863193067E-04 
1779	 1.2292458943932E-03 
1780	 1.07544143525124E-03 
1781	-9.11634593141526E-04 
1782	-1.01473495914076E-03 
1783	 8.94658773442609E-04 
1784	 1.7453341187726E-03 
1785	 3.84368296452678E-03 
1786	 2.89756534035859E-03 
1787	-1.73327112544937E-03 
1788	-2.48015088657424E-03 
1789	-3.34823725278395E-03 
1790	 2.78129385524819E-03 
1791	 5.23205838689496E-03 
1792	 3.08742018354881E-03 
1793	 1.07992251814103E-03 
1794	-2.27371009402543E-03 
1795	-4.07920644793504E-03 
1796	 1.88727738720156E-03 
1797	 0.001949964105245 
1798	-6.50624773383484E-03 
1799	-5.76348394902119E-03 
1800	-4.79243367524927E-03 
1801	-3.12044962187307E-03 
1802	 8.74749252434832E-03 
1803	 1.39827644319332E-02 
1804	 1.57762366691254E-02 
1805	 8.49976008000959E-03 
1806	-2.06234518030546E-02 
1807	-3.84037168265694E-02 
1808	-8.14800188046323E-02 
1809	-9.56023064341581E-02 
1810	-3.88878128259516E-02 
1811	-5.25237656175243E-03 
1812	 9.59005248676427E-02 
1813	 0.109112354860393 
1814	-4.43855421806385E-02 
1815	-6.51699482617173E-02 
1816	-0.109197922078104 
1817	-6.06318103349315E-02 
1818	-8.11775329846117E-02 
1819	-4.20520583161742E-02 
1820	 0.247861535868901 
1821	 1.51638615146614 
1822	 3.89304916805699 
1823	 3.62766950507365E-02 
1824	-7.24346598957851E-02 
1825	 8.05234990464778E-02 
1826	 1.17223713667712E-02 
1827	-1.43853603989394E-02 
1828	-0.152138070550861 
1829	-0.707653694802013 
1830	-0.846155117792153 
1831	-1.38150160474861 
1832	-1.11333830970311 
1833	 2.28972954506149 
1834	 14.2682152002702 
1835	-5.54052783040427 
1836	-5.94888019782403 
1837	-5.86645444346912 
1838	 73.4381074682724 
1839	 1.90850958256005 
1840	 1.10171703492074 
1841	 1.89593540689164 
1842	 0.892524940228962 
1843	 0.699105268392785 
1844	 0.25578146535118 
1845	 0.137046629332857 
1846	 0.240822082807864 
1847	 0.805420886915825 
1848	-2.4172144763947 
1849	-2.4096706460977 
1850	-134.619108145452 
1851	 1.73842033078218 
1852	 0.819008172576819 
1853	 0.141972696733464 
1854	 0.017840295945793 
1855	 1.6899981367244 
1856	 0.2661795472825 
1857	 2.97850859118774 
1858	 2.44330788081464 
1859	 1.8568819925589 
1860	 0.198765538744554 
1861	 4.51598721226809E-02 
1862	-0.318997551999354 
1863	-0.200731425861379 
1864	 0.28819518721205 
1865	 0.503650191588852 
1866	 0.909751241796654 
1867	 1.29845045905592 
1868	 6.64734851871354 
1869	-41.6573190549243 
1870	 6.97433822725524 
1871	 1.11565290098074 
1872	 0.162851710041282 
1873	-1.09197545269354E-03 
1874	-1.43733612692681E-03 
1875	 0.241208242844892 
1876	 0.427714034211638 
1877	 1.37260144157302 
1878	 1.76305006328464 
1879	 1.49481474025245 
1880	 1.54778187712954 
1881	 1.85979775043589 
1882	 0.843801958756834 
1883	 0.57023227406194 
1884	 0.719789660366086 
1885	 0.578501598493142 
1886	 0.268580994280762 
1887	 0.237056239692265 
1888	 0.291483389160704 
1889	 0.487288239004332 
1890	-0.74353768361984 
1891	-0.429677689428686 
1892	-0.294360254066046 
1893	 4.46659876585745E-03 
1894	 5.92662175197265E-02 
1895	-0.159500099042387 
1896	-2.18547692418782 
1897	 0.513135928020648 
1898	 0.386462910830021 
1899	 0.677149745033627 
1900	 0.537072588782885 
1901	 3.34619938641538E-02 
1902	 0.106245004889741 
1903	 0.632533325574193 
1904	 1.02288006686919 
1905	-6.10752218684167 
1906	-2.83399217834742 
1907	-5.5702411820414 
1908	 79.1414855948212 
1909	 2.55449209325991 
1910	 2.36039309205458 
1911	 3.50635931738432 
1912	 4.29040294146589 
1913	 4.17074365379963 
1914	 2.06773922181656 
1915	 1.68432434684954 
1916	 1.98620455746962 
1917	 2.6734725620778 
1918	 11.997154144054 
1919	-1.07992067670488 
1920	-0.921707588846712 
1921	-2.65610525159915 
1922	 2.41301435711594 
1923	 2.30123727659096 
1924	 1.50707738369211 
1925	 1.67339083192864 
1926	 2.40573105588715 
1927	-1.29174032521463 
1928	 1.70769118762729 
1929	 3.18148301856002 
1930	 5.27994163574067 
1931	-0.350214424721379 
1932	-7.94953608888351E-02 
1933	 0.09490670130969 
1934	 0.754486770366999 
1935	 0.636247534932689 
1936	 0.332103201179823 
1937	 0.143171604799083 
1938	-1.63517309035655E-03 
1939	-4.37941962304618E-02 
1940	-0.131298958123792 
1941	-5.70063746941709E-02 
1942	 0.126054488317292 
1943	 0.157800002750449 
1944	 0.109002373498492 
1945	 7.83416547408727E-02 
1946	 5.77185229171558E-02 
1947	 0.047078535007175 
1948	 4.65598596533499E-02 
1949	 5.87513806528418E-02 
1950	 6.84714893625069E-02 
1951	 7.50662706145915E-02 
1952	 7.65265572189646E-02 
1953	 9.41680867402307E-02 
1954	 0.077024397858672 
1955	 3.70927861065363E-02 
1956	 1.16030987409708E-02 
1957	-3.17664895743842E-03 
1958	 1.45545531396356E-02 
1959	 3.43279552123246E-02 
1960	 3.31340844421148E-02 
1961	 2.75767154994108E-02 
1962	 2.51748037362022E-02 
1963	 2.03895402178429E-02 
1964	 1.64506141668079E-02 
1965	 1.84004365763722E-02 
1966	 1.68684575494006E-02 
1967	 1.34798094815908E-02 
1968	 9.51807021181425E-03 
1969	 7.73054880938587E-03 
1970	 4.50446518975534E-03 
1971	 1.63997150793753E-03 
1972	 1.04829150170456E-03 
1973	 1.66110872854737E-03 
1974	 1.23851955235915E-03 
1975	 2.88032088731379E-03 
1976	 5.52053453145154E-03 
1977	 4.93372299027113E-03 
1978	 4.12563233663536E-03 
1979	 4.1153683925244E-03 
1980	 3.54523060295016E-03 
1981	 2.44254112151378E-03 
1982	 2.3555138254598E-03 
1983	 2.76516690411196E-03 
1984	 2.09973798253956E-03 
1985	 9.28899993483388E-04 
1986	 1.06370091555266E-03 
1987	 8.09165387221886E-04 
1988	 5.67716207810549E-04 
1989	 2.04022995720947E-03 
1990	 3.18200525147569E-03 
1991	 4.13114494889174E-03 
1992	 5.30252379572001E-03 
1993	 4.62485096071379E-03 
1994	 4.40645345909342E-03 
1995	 3.39772521216909E-03 
1996	 3.34149321838239E-03 
1997	 3.64023468542282E-03 
1998	 5.70805979497124E-03 
1999	 7.65247279167791E-03 
2000	 8.76735582834976E-03 
2001	 9.60009934315511E-03 
2002	 9.78704495893671E-03 
2003	 6.29628590278259E-03 
2004	 2.58689294041986E-03 
2005	 1.90441023123012E-03 
2006	-8.51640799766738E-04 
2007	-2.91920921647003E-04 
2008	 2.6480573913204E-03 
2009	 3.58521778207008E-03 
2010	 4.35184378911369E-03 
2011	 4.57639697695875E-03 
2012	 3.48814286047165E-03 
2013	 2.99291572898911E-03 
2014	 2.08446286507209E-03 
2015	 9.59619915657794E-05 
2016	 8.46387316089342E-04 
2017	 1.88287531095873E-03 
2018	 2.21844569272891E-03 
2019	 1.20288879898285E-03 
2020	 1.07356630075782E-03 
2021	 1.88774189309064E-03 
2022	 2.39330923529015E-03 
2023	 3.78120902431936E-03 
2024	 3.35916288556038E-03 
2025	-4.43072504847235E-05 
2026	-2.73977050460018E-04 
2027	 1.14653835702447E-04 
2028	 1.31991294625089E-03 
2029	 2.10577401416621E-03 
2030	 2.49163663303608E-03 
2031	 2.3422766980518E-03 
2032	 1.67953388876049E-03 
2033	 1.29339831883599E-03 
2034	 1.60622514550235E-03 
2035	 1.6169541834551E-03 
2036	 1.00983667775233E-03 
2037	 1.11172337809875E-03 
2038	 2.02347116878614E-03 
2039	 2.19597838721562E-03 
2040	 1.79696902830678E-03 
2041	 1.91568887102981E-03 
2042	 2.05522397877592E-03 
2043	 2.11562863471793E-03 
2044	 2.30571102154625E-03 
2045	 2.75780018305254E-03 
2046	 3.4075664039447E-03 
2047	 3.79146895889969E-03 
2048	 3.78647687979203E-03 
2049	 4.24675172653909E-03 
2050	 3.28734788009079E-03 
2051	 1.24659018047254E-03 
2052	 1.78110776877152E-03 
2053	 2.16803162020218E-03 
2054	 1.92282199932382E-03 
2055	 2.41806739981333E-03 
2056	 2.72524770722639E-03 
2057	 2.12632625969392E-03 
2058	 1.83839061469604E-03 
2059	 2.18806462429724E-03 
2060	 2.78692748897092E-03 
2061	 3.51134311693659E-03 
2062	 2.96478936168352E-03 
2063	 3.56041661725609E-03 
2064	 4.13357197611742E-03 
2065	 3.10845181725202E-03 
2066	 3.03384207204889E-03 
2067	 4.50656970913562E-03 
2068	 4.58769621624768E-03 
2069	 3.57638195768596E-03 
2070	 2.71042873971339E-03 
2071	 2.24663413919279E-03 
2072	 1.80177846197363E-03 
2073	 1.29740104852812E-03 
2074	 1.74696830181727E-03 
2075	 1.82245828802705E-03 
2076	 1.3383356907308E-03 
2077	 1.04294873621639E-03 
2078	 6.4809021549591E-04 
2079	 9.92863898213345E-04 
2080	 1.87276748215754E-03 
2081	 1.80121773578577E-03 
2082	 1.5715667492405E-03 
2083	 2.84719364609436E-03 
2084	 3.50762385903152E-03 
2085	 3.28698214627586E-03 
2086	 3.84404017858957E-03 
2087	 3.89902099367119E-03 
2088	 3.47920945640653E-03 
2089	 3.26901280534635E-03 
2090	 3.12680771897612E-03 
2091	 3.53789030444579E-03 
2092	 3.58894805241841E-03 
2093	 3.23538059732626E-03 
2094	 3.0451813752552E-03 
2095	 2.97886986965656E-03 
2096	 2.95706114574049E-03 
2097	 2.93306022035404E-03 
2098	 2.72449096669056E-03 
2099	 2.54043711692452E-03 
2100	 2.37211179814619E-03 
2101	 1.93504015181875E-03 
2102	 1.99215104657484E-03 
2103	 2.59835458591001E-03 
2104	 2.58090034529257E-03 
2105	 1.72046163604913E-03 
2106	 1.03263074760512E-03 
2107	 4.53183008824962E-04 
2108	-4.388107024184E-04 
2109	 4.59612233629875E-04 
2110	 1.73897684788215E-03 
2111	 1.24067202055413E-03 
2112	 8.32798654643404E-04 
2113	 7.13956433854366E-04 
2114	-6.03761919844469E-04 
2115	-5.7180077815308E-04 
2116	 1.31851868967969E-03 
2117	 1.51227734368378E-03 
2118	 9.21557300958091E-04 
2119	 9.16174904499302E-04 
2120	 2.67729425408715E-04 
2121	 5.83487117184494E-04 
2122	 1.51147166131289E-03 
2123	 1.66999775300303E-03 
2124	 2.08015931783672E-03 
2125	 2.86805740408886E-03 
2126	 3.82419284809453E-03 
2127	 4.40508072457161E-03 
2128	 3.64649911638343E-03 
2129	 2.06303153851311E-03 
2130	 1.49005106228581E-03 
2131	 1.49135262482173E-03 
2132	 1.51463613200242E-03 
2133	 2.95573107236013E-03 
2134	 3.33355446061387E-03 
2135	 2.74104259785888E-03 
2136	 2.33869836544268E-03 
2137	 1.71444334881816E-03 
2138	 1.44101385763798E-03 
2139	 1.47389277521425E-03 
2140	 1.56994344695154E-03 
2141	 1.91990117977213E-03 
2142	 1.80223397371716E-03 
2143	 1.32655239816281E-03 
2144	 1.02163858094938E-03 
2145	 5.72173882829903E-04 
2146	 7.23758073700973E-04 
2147	 1.70999359504439E-03 
2148	 1.61503770073305E-03 
2149	 1.51541453928165E-03 
2150	 2.93632862533036E-03 
2151	 2.39249756832058E-03 
2152	 1.72807270670579E-03 
2153	 2.32179577560313E-03 
2154	 1.34521847945082E-03 
2155	 6.93107149872912E-04 
2156	 8.92583321049593E-04 
2157	 8.58231756241844E-04 
2158	-8.58540733754646E-05 
2159	-3.54855094847891E-05 
2160	 1.48940953388065E-03 
2161	 1.97469928232904E-03 
2162	 1.95588593268823E-03 
2163	 1.87156359788933E-03 
2164	 1.32324082933292E-03 
2165	 1.19605446491646E-03 
2166	 1.15508463656648E-03 
2167	 1.3517156564495E-03 
2168	 1.97863390929822E-03 
2169	 2.34761741363777E-03 
2170	 2.56844198183291E-03 
2171	 2.93507859418371E-03 
2172	 3.11960438166644E-03 
2173	 2.2513542851802E-03 
2174	 9.37259933364969E-04 
2175	 1.18553481344215E-03 
2176	 2.15286262864072E-03 
2177	 2.74897257898225E-03 
2178	 4.41789770029983E-03 
2179	 4.8935517013961E-03 
2180	 3.06707988395681E-03 
2181	 1.8073983439596E-03 
2182	 1.13258579271131E-03 
2183	 1.20892660893205E-03 
2184	 1.42598808076529E-03 
2185	 1.09615071889705E-03 
2186	 1.45359911490884E-03 
2187	 1.09579036594629E-03 
2188	 9.00895540576248E-04 
2189	 2.16260407631559E-03 
2190	 2.53711490774246E-03 
2191	 1.24102223962386E-03 
2192	 1.32811269205355E-03 
2193	 2.81251487062176E-03 
2194	 3.13685592298998E-03 
2195	 2.82853427358391E-03 
2196	 3.13150789984115E-03 
2197	 4.0622161100234E-03 
2198	 3.65046093338091E-03 
2199	 1.90954968982544E-03 
2200	 2.21465679982953E-03 
2201	 4.42021590519255E-03 
2202	 3.70646997302057E-03 
2203	 4.55463049122877E-03 
2204	 5.87160705076603E-03 
2205	 4.78175483750762E-03 
2206	 0.004412483380672 
2207	 4.26245040727848E-03 
2208	 5.27651178368044E-03 
2209	 6.6564331972015E-03 
2210	 5.34573644415933E-03 
2211	 2.8825845215327E-03 
2212	 2.13207539611355E-03 
2213	 3.44842133173949E-03 
2214	 4.16677657180742E-03 
2215	 5.41955084364619E-03 
2216	 8.02797468572759E-03 
2217	 8.34965526340417E-03 
2218	 4.26169774018496E-03 
2219	 4.11178378027742E-03 
2220	 6.87417190229537E-03 
2221	 6.30808336001506E-03 
2222	 4.94532403631697E-03 
2223	 4.4899251450584E-03 
2224	 1.79770970553679E-03 
2225	 1.46258278927936E-03 
2226	 3.82693856480436E-03 
2227	 4.16903614353662E-03 
2228	 4.20974520371404E-03 
2229	 3.64881888020235E-03 
2230	 1.83313632918678E-03 
2231	 1.93713027333689E-03 
2232	 2.84560323118414E-03 
2233	 3.51916841956162E-03 
2234	 6.08362866948229E-03 
2235	 5.07052820515618E-03 
2236	 3.5370963784369E-03 
2237	 6.36084267178195E-03 
2238	 8.27890839704353E-03 
2239	 8.82131949300285E-03 
2240	 8.22242103967057E-03 
2241	 5.03286632673611E-03 
2242	 1.42013004127944E-03 
2243	-4.69076842365324E-04 
2244	-1.38302951869961E-03 
2245	-2.03493172428861E-03 
2246	-4.98751334979384E-04 
2247	 1.45174601728979E-03 
2248	 4.28055208320494E-03 
2249	 5.90725005559918E-03 
2250	 4.5383265376328E-03 
2251	 4.22071391757326E-03 
2252	 2.62873089141633E-03 
2253	 1.651794765285E-04 
2254	 1.10579507490747E-03 
2255	 1.97165137876147E-03 
2256	 2.20617217716596E-03 
2257	 3.82325419249538E-03 
2258	 2.97360919952611E-03 
2259	 5.38128271756312E-04 
2260	 4.91779635706884E-04 
2261	 1.52722839440077E-03 
2262	 2.08302080375001E-03 
2263	 4.94996186239357E-03 
2264	 5.73939219465954E-03 
2265	 4.37827908907267E-03 
2266	 5.03647609905081E-03 
2267	 6.05960795717828E-03 
2268	 5.96439842783525E-03 
2269	 6.79366318070518E-03 
2270	 5.93266477578658E-03 
2271	 1.60138351939031E-03 
2272	 1.39690888655335E-03 
2273	 4.45707389580985E-03 
2274	 4.16396852784518E-03 
2275	 3.53577131771171E-03 
2276	 4.90609577294103E-03 
2277	 5.12219542110496E-03 
2278	 3.8768163076274E-03 
2279	 3.68602382117932E-03 
2280	 4.56231878856412E-03 
2281	 2.43101684034515E-03 
2282	 5.27146137530233E-03 
2283	 1.04229181035267E-02 
2284	 1.16844165183297E-02 
2285	 1.09068466502286E-02 
2286	 5.01811619168714E-03 
2287	 2.63002193842486E-04 
2288	 4.98311913079371E-04 
2289	 5.8744683119887E-04 
2290	 2.54592623422758E-03 
2291	 3.20250360100256E-03 
2292	 1.07444774434439E-03 
2293	-1.28550698879864E-03 
2294	-3.15684974773374E-03 
2295	 2.83384148091599E-04 
2296	 3.62142295163266E-03 
2297	 3.35802582156434E-03 
2298	 3.58014127823824E-03 
2299	 1.24842434034502E-03 
2300	-3.46653882572143E-03 
2301	-4.39453437237575E-03 
2302	-1.22719245464008E-03 
2303	-8.8180711525412E-04 
2304	-1.41293774708752E-03 
2305	 1.89014550262772E-03 
2306	 2.40154418987186E-03 
2307	-8.45583919391624E-04 
2308	 1.73735690511321E-03 
2309	 4.42006139467654E-03 
2310	 2.26036341569203E-03 
2311	 2.11389708925089E-03 
2312	-9.86585713123226E-04 
2313	-2.53371659542956E-04 
2314	 4.15339172306998E-03 
2315	 3.2416961514283E-03 
2316	 3.89356626278298E-03 
2317	 2.2055366876321E-03 
2318	-2.78440697161977E-03 
2319	-5.34360963059259E-03 
2320	-4.01005785428608E-03 
2321	-4.56843396380983E-03 
2322	-8.15175710286645E-03 
2323	-2.32865201900284E-03 
2324	 3.30907965570591E-03 
2325	 1.85322713989181E-03 
2326	 4.94491324950613E-03 
2327	 3.66577185239329E-03 
2328	-2.67338435555471E-03 
2329	-2.58444502174203E-03 
2330	-5.18726275113679E-03 
2331	-8.92541215166602E-03 
2332	-6.82950231640739E-03 
2333	-4.78177781288491E-03 
2334	-2.39505706243836E-03 
2335	 2.3567004553483E-04 
2336	 2.78358399456847E-03 
2337	 5.75620706220868E-03 
2338	 5.77355006396785E-03 
2339	-1.54352820249444E-03 
2340	-0.011277403440632 
2341	-1.43407971147834E-02 
2342	-0.017063170008697 
2343	-6.98920110051228E-03 
2344	 9.33423585009064E-03 
2345	 8.82321669092964E-03 
2346	 1.25241930410594E-02 
2347	 1.45656688458954E-02 
2348	 8.90544441706598E-03 
2349	 8.17200694720825E-03 
2350	 5.6190695990589E-03 
2351	 3.50227872875078E-03 
2352	 2.68695823553481E-03 
2353	 1.5844513429132E-03 
2354	 5.61240702156743E-03 
2355	 6.76003139242943E-03 
2356	 0.006063400950828 
2357	 0.014374590955073 
2358	 1.63276695956986E-02 
2359	 7.05416505347352E-03 
2360	 2.87941227847034E-03 
2361	 7.57769110773301E-03 
2362	 7.15072116111961E-03 
2363	 8.50112570705798E-03 
2364	 1.64219450437154E-02 
2365	 6.95312354337402E-03 
2366	-5.04594162871146E-03 
2367	-6.60818703808258E-03 
2368	-1.65754818693488E-02 
2369	-1.88570385750486E-02 
2370	-3.00663297430717E-03 
2371	 1.06250862918687E-02 
2372	 1.60773482333545E-02 
2373	 1.97572079721324E-02 
2374	 2.40803398614752E-02 
2375	 3.60983508733319E-02 
2376	 4.42321979466814E-02 
2377	 4.65404362335434E-02 
2378	 0.053983293663978 
2379	 0.043577406810277 
2380	 4.84558604701288E-02 
2381	 6.54471438220418E-02 
2382	 5.50931409420181E-02 
2383	 4.54313817384926E-02 
2384	 3.49015139431029E-02 
2385	 3.61106156864105E-02 
2386	 5.36645438430327E-02 
2387	 6.41530077614154E-02 
2388	 6.89216629815296E-02 
2389	 5.56637393648086E-02 
2390	 4.08273888252907E-02 
2391	 2.84769980996288E-02 
2392	-1.33455466571809E-02 
2393	-0.029040361461214 
2394	-1.14050370216073E-02 
2395	-2.90157956376795E-02 
2396	-3.14822060146765E-02 
2397	 1.81265468365487E-03 
2398	 1.68959245119823E-03 
2399	-1.87178103168375E-02 
2400	 6.01860178014121E-03 
2401	 3.01332584527885E-02 
2402	 2.72460079379954E-02 
2403	 0.051780139618813 
2404	 7.03044713110056E-02 
2405	 4.97295004182989E-02 
2406	 2.03279233150443E-02 
2407	 5.01333767589315E-02 
2408	 0.126792681372056 
2409	 0.104490911467608 
2410	 0.031796975864433 
2411	-3.04088947419716E-02 
2412	-9.34972612820117E-02 
2413	-7.04606115836579E-02 
2414	 2.88927661510161E-02 
2415	 9.37511301202313E-02 
2416	 8.60760191320992E-02 
2417	 9.02290162318876E-02 
2418	 7.71283944134993E-02 
2419	 7.64560283375397E-02 
2420	 0.132607076958901 
2421	 4.20067346196753E-02 
2422	-4.72732422858863E-03 
2423	 8.00147420677753E-02 
2424	 0.047989897836458 
2425	 5.73152344433229E-02 
2426	 0.195199187875245 
2427	 0.166351572346434 
2428	 8.56082613596635E-02 
2429	 0.133799499841688 
2430	 6.15871465765213E-02 
2431	-6.70302563663066E-02 
2432	-2.39535197221187E-02 
2433	 0.038943562697402 
2434	 9.53437786195177E-02 
2435	 0.150619257908832 
2436	 0.153331721924547 
2437	 0.131077129358639 
2438	 8.46900375476886E-02 
2439	 0.114816443992632 
2440	 0.301000339642909 
2441	 0.39048797274337 
2442	 0.353234135992608 
2443	 0.312813182766381 
2444	 0.32220200226233 
2445	 0.211917398678394 
2446	 5.98365631127927E-03 
2447	 0.353196856028778 
2448	 0.291263009335364 
2449	 2.61428097934972E-02 
2450	-0.119465044958405 
2451	-0.464987468133926 
2452	-0.21120062047439 
2453	 0.096409601168984 
2454	 1.00141243815922 
2455	 1.0500746006548 
2456	 0.47750022987325 
2457	 0.212433822660677 
2458	 0.200983209402171 
2459	 0.105082026811225 
2460	 0.103476682178181 
2461	 0.263031679755414 
2462	 0.22695761998773 
2463	-6.91512806138626E-02 
2464	-1.08816334197876E-02 
2465	-5.95980417354252E-02 
2466	-5.58272248404305E-02 
2467	 0.212941298102428 
2468	 0.492496720852167 
2469	 0.910249521623964 
2470	 3.26610663343532 
2471	 1.01558587232973 
2472	 0.194746019546663 
2473	-0.489829493454927 
2474	-0.808310038778724 
2475	-1.16753751060921 
2476	-0.831346729518944 
2477	-0.465395144667379 
2478	-3.0155573892213E-03 
2479	 0.365006355973471 
2480	 5.87231527656647 
2481	 1.22966817126432 
2482	 3.19612740222075E-02 
2483	-0.573089832350968 
2484	-1.04447885107752 
2485	-1.75572762533629 
2486	-3.10870670188272 
2487	 15.7357067127381 
2488	-2.99808442676337 
2489	-1.96618276467772 
2490	 0.937867023224586 
2491	 0.275606816493132 
2492	-3.91664107376099 
2493	 8.58112295961371 
2494	-7.13150128328311 
2495	-1.13214244058783 
2496	-0.697069138302292 
2497	-0.574746144468903 
2498	 2.35280174868063E-02 
2499	-0.156575907758017 
2500	-2.14439841076788 
