Wavelength	rt0722close00003.asd
350	 1.95999405589296E-02 
351	 0.019256822778925 
352	 0.01944057559673 
353	 1.97963364382802E-02 
354	 1.99126225423522E-02 
355	 1.98089340828568E-02 
356	 2.01450889400885E-02 
357	 2.04841247270312E-02 
358	 2.03308741455656E-02 
359	 2.04709479963794E-02 
360	 2.07746430893762E-02 
361	 2.09892420340587E-02 
362	 2.08671991038821E-02 
363	 2.07998414596109E-02 
364	 2.09927875102899E-02 
365	 2.13068007420595E-02 
366	 2.11383494022901E-02 
367	 2.12184404984639E-02 
368	 2.15346466219209E-02 
369	 2.18055749778261E-02 
370	 2.15351683536855E-02 
371	 2.14843360701036E-02 
372	 2.17842158317817E-02 
373	 2.21221175797659E-02 
374	 2.20166537200763E-02 
375	 2.20282662557372E-02 
376	 2.23455848126428E-02 
377	 2.25062000916368E-02 
378	 2.30852533617631E-02 
379	 2.33621745743349E-02 
380	 2.29189951901711E-02 
381	 2.31546785662627E-02 
382	 2.33650916812005E-02 
383	 2.36878211920475E-02 
384	 2.44365915146545E-02 
385	 2.43126971907672E-02 
386	 2.42102496871574E-02 
387	 2.46242121975224E-02 
388	 2.53577850636269E-02 
389	 0.02536533857831 
390	 2.53608249577626E-02 
391	 2.58921472353175E-02 
392	 2.62918528849136E-02 
393	 2.63340963600213E-02 
394	 2.63271260908625E-02 
395	 2.66198166404684E-02 
396	 2.65601312334213E-02 
397	 2.66859336276013E-02 
398	 2.71298431461681E-02 
399	 0.027614955479738 
400	 2.77057785938254E-02 
401	 2.78345652424334E-02 
402	 2.81954481731013E-02 
403	 0.028136800063308 
404	 0.028134001882271 
405	 2.82827183281131E-02 
406	 2.85369636330504E-02 
407	 2.89259799093338E-02 
408	 2.91876788994044E-02 
409	 2.93203948099487E-02 
410	 2.95733469803102E-02 
411	 2.96958877408928E-02 
412	 0.029815468113183 
413	 3.00346520971489E-02 
414	 3.02339306261328E-02 
415	 3.05124441419656E-02 
416	 3.07663836405773E-02 
417	 3.08877545507577E-02 
418	 3.12490740898898E-02 
419	 3.16833877557201E-02 
420	 3.19962654438649E-02 
421	 3.20284362481626E-02 
422	 3.23418620034222E-02 
423	 3.26785193822307E-02 
424	 3.28598288980126E-02 
425	 3.34588515245671E-02 
426	 3.38776761806441E-02 
427	 0.034096129419354 
428	 3.43745741822313E-02 
429	 3.47538814422971E-02 
430	 3.51743169619506E-02 
431	 3.55779171254164E-02 
432	 3.59304032451908E-02 
433	 3.62175547462134E-02 
434	 3.65582778249618E-02 
435	 3.70228959756637E-02 
436	 3.74845413526802E-02 
437	 3.77750876315235E-02 
438	 0.038064364335418 
439	 3.86345520829401E-02 
440	 3.90041087159215E-02 
441	 3.93732592535653E-02 
442	 3.98211192957825E-02 
443	 4.01400507827368E-02 
444	 4.04423453723363E-02 
445	 4.07875097001151E-02 
446	 4.11747464281939E-02 
447	 0.041425521113833 
448	 4.17307346109593E-02 
449	 4.20634906674584E-02 
450	 0.042256764383952 
451	 4.25722774149882E-02 
452	 4.28749471294594E-02 
453	 4.30595750212544E-02 
454	 4.31781446438045E-02 
455	 4.34732937815184E-02 
456	 4.38178320752758E-02 
457	 4.40027929689917E-02 
458	 4.42150443822516E-02 
459	 4.43853463872809E-02 
460	 4.45216079793261E-02 
461	 4.47173103132675E-02 
462	 0.044991382213598 
463	 4.51961523831137E-02 
464	 4.52738480819516E-02 
465	 4.55027430322667E-02 
466	 4.57065493475421E-02 
467	 0.045871960646891 
468	 4.60574007774022E-02 
469	 4.62231935084795E-02 
470	 4.64290596137764E-02 
471	 4.66947016578186E-02 
472	 4.69767342966611E-02 
473	 4.71804891223871E-02 
474	 4.73472959457886E-02 
475	 4.75483459559445E-02 
476	 0.047818372123206 
477	 0.048016140247242 
478	 4.82003895568711E-02 
479	 4.85421303181476E-02 
480	 4.88078351394225E-02 
481	 4.90575787199505E-02 
482	 4.93446753959606E-02 
483	 4.96167379491479E-02 
484	 5.00136389569867E-02 
485	 5.04687147456628E-02 
486	 5.08436894510979E-02 
487	 5.10840527849135E-02 
488	 5.13717930658897E-02 
489	 5.17458915598693E-02 
490	 5.21008173223101E-02 
491	 5.25514763639929E-02 
492	 5.29700571428575E-02 
493	 5.32886498462144E-02 
494	 5.37334879490999E-02 
495	 5.41559609693411E-02 
496	 5.45903151376173E-02 
497	 5.51386871787434E-02 
498	 5.56626397078108E-02 
499	 5.61157072379596E-02 
500	 5.65215939917109E-02 
501	 5.69896066495217E-02 
502	 5.75659049028789E-02 
503	 5.81152760981144E-02 
504	 5.85301119657685E-02 
505	 5.90203154607329E-02 
506	 5.96131621434423E-02 
507	 6.01965513558736E-02 
508	 6.05783464289668E-02 
509	 6.10555308264103E-02 
510	 0.061592359543903 
511	 6.21186638867182E-02 
512	 6.26190088535213E-02 
513	 6.31443064223716E-02 
514	 6.37704503698366E-02 
515	 0.06452182573679 
516	 6.50242769289422E-02 
517	 6.56757322842071E-02 
518	 6.65162761432427E-02 
519	 6.70761187523427E-02 
520	 6.77384031810435E-02 
521	 6.84834813814302E-02 
522	 6.92078554285211E-02 
523	 6.98250139385495E-02 
524	 7.05198507639904E-02 
525	 7.12992297161451E-02 
526	 7.20455875485062E-02 
527	 0.072770263337007 
528	 7.35176113881218E-02 
529	 7.42933271850943E-02 
530	 7.50160342642571E-02 
531	 7.57860121773748E-02 
532	 7.65722561382678E-02 
533	 7.73162238148634E-02 
534	 7.81238383195485E-02 
535	 7.89110081442658E-02 
536	 7.96638123990507E-02 
537	 8.04536922864386E-02 
538	 8.13684392529769E-02 
539	 8.22557847562367E-02 
540	 8.30143644634369E-02 
541	 8.39106678698566E-02 
542	 8.47846429445347E-02 
543	 8.55963071963232E-02 
544	 8.63938396449531E-02 
545	 8.72790622377094E-02 
546	 8.80972706098467E-02 
547	 8.88075856580338E-02 
548	 8.96513129536316E-02 
549	 0.090505178526361 
550	 9.13665981432376E-02 
551	 9.22468826108393E-02 
552	 9.29971169638852E-02 
553	 9.38047272883383E-02 
554	 9.47059641381046E-02 
555	 9.55436810784236E-02 
556	 9.63290907196176E-02 
557	 9.71438656393503E-02 
558	 9.80158277940807E-02 
559	 9.87602510520691E-02 
560	 9.95122319966997E-02 
561	 0.100262217470805 
562	 0.100929581576676 
563	 0.101657112040772 
564	 0.10236548762258 
565	 0.102997444142014 
566	 0.103595408410759 
567	 0.104175828524787 
568	 0.104726324310487 
569	 0.105233188613176 
570	 0.10576196894886 
571	 0.106248561718423 
572	 0.106670258134955 
573	 0.107056444008933 
574	 0.107425235850752 
575	 0.107791575493321 
576	 0.108147866970176 
577	 0.108435677763305 
578	 0.108679264078687 
579	 0.108834554842737 
580	 0.108851508333755 
581	 0.109038946444819 
582	 0.109134389321351 
583	 0.109022185201389 
584	 0.10897906812832 
585	 0.108933806428906 
586	 0.108837136291452 
587	 0.108646561611795 
588	 0.108383393534224 
589	 0.108111090058496 
590	 0.107883805967687 
591	 0.107707840961929 
592	 0.107332409828725 
593	 0.10685109124889 
594	 0.106353693537934 
595	 0.105655296676394 
596	 0.104863299486672 
597	 0.103992747010081 
598	 0.103034005160237 
599	 0.102193751422074 
600	 0.101470847383599 
601	 0.100856908855538 
602	 0.100379729439097 
603	 0.100005976618087 
604	 9.98512085099435E-02 
605	 0.099975024984112 
606	 9.99102658800858E-02 
607	 0.099859273365295 
608	 0.099883035204354 
609	 9.98681380041656E-02 
610	 9.99126290727379E-02 
611	 0.100032661633892 
612	 0.100170060964867 
613	 0.100092084924904 
614	 0.10007824106397 
615	 0.100117176883971 
616	 0.100053942738039 
617	 0.100044909792994 
618	 0.100063675050584 
619	 0.100078518524143 
620	 0.100083233282944 
621	 0.100055824137946 
622	 0.100027898859465 
623	 0.100034476619825 
624	 0.10004033975051 
625	 9.99696949316958E-02 
626	 9.99010138109053E-02 
627	 0.10003667867467 
628	 0.10000632738419 
629	 9.98810972269279E-02 
630	 9.97962619764129E-02 
631	 9.98137574799789E-02 
632	 9.98569582876514E-02 
633	 0.099846460136295 
634	 9.97350427708028E-02 
635	 9.97209889652577E-02 
636	 9.97113257437169E-02 
637	 9.96670293723029E-02 
638	 9.96684706882421E-02 
639	 9.96094734701647E-02 
640	 9.94916577957662E-02 
641	 9.93697628052461E-02 
642	 9.93739226781307E-02 
643	 9.92543428340837E-02 
644	 0.099068245053391 
645	 9.90994317277575E-02 
646	 9.88830747901231E-02 
647	 9.86683510664517E-02 
648	 9.86456325115015E-02 
649	 9.85690520371274E-02 
650	 9.83580701665729E-02 
651	 9.80011769554583E-02 
652	 9.75555424709498E-02 
653	 9.71593712860718E-02 
654	 9.66944513907113E-02 
655	 9.60802181910885E-02 
656	 9.54038608556233E-02 
657	 9.47978001894158E-02 
658	 9.42901586062767E-02 
659	 9.38649829972351E-02 
660	 9.35240960169146E-02 
661	 9.32328376618327E-02 
662	 9.30063685836574E-02 
663	 9.28710341550979E-02 
664	 9.25689938161823E-02 
665	 9.23408733386483E-02 
666	 9.22854305095513E-02 
667	 9.21408367236846E-02 
668	 9.20340232015853E-02 
669	 9.19729424214996E-02 
670	 9.19213496650869E-02 
671	 9.17947659275458E-02 
672	 9.17835674297589E-02 
673	 9.18568218485632E-02 
674	 0.091779869993491 
675	 9.16943966226898E-02 
676	 9.16387080479327E-02 
677	 0.091621534176046 
678	 9.16324394735886E-02 
679	 9.16179891297838E-02 
680	 9.15901811833842E-02 
681	 9.15891086527242E-02 
682	 9.16062653899708E-02 
683	 9.16359122089356E-02 
684	 9.16261934349341E-02 
685	 9.14534619554141E-02 
686	 9.13391401036432E-02 
687	 9.12153576266195E-02 
688	 0.090991027831061 
689	 0.090820390896865 
690	 9.04663532764729E-02 
691	 8.99978772615468E-02 
692	 8.96265850423939E-02 
693	 8.90040089992161E-02 
694	 8.83326950989717E-02 
695	 8.77489446909163E-02 
696	 8.70793492076979E-02 
697	 8.63676169104408E-02 
698	 8.55004550197244E-02 
699	 8.44498469561727E-02 
700	 8.35148510758534E-02 
701	 8.25555053997833E-02 
702	 8.15314495038596E-02 
703	 8.04659953169857E-02 
704	 7.93334879072619E-02 
705	 0.078088397570632 
706	 7.67468560511413E-02 
707	 7.53654488581597E-02 
708	 7.38850666748544E-02 
709	 7.23396983204006E-02 
710	 7.07565478014182E-02 
711	 6.89344424737621E-02 
712	 6.70700266139344E-02 
713	 0.065206528121187 
714	 0.063155111025162 
715	 6.11809059690644E-02 
716	 0.05912871944162 
717	 5.69655608882168E-02 
718	 5.47386956084112E-02 
719	 5.23614081536879E-02 
720	 5.03275064792705E-02 
721	 4.86290262216254E-02 
722	 4.67686679226485E-02 
723	 4.46164729224629E-02 
724	 4.24776001858283E-02 
725	 4.04807030513959E-02 
726	 0.038291009010875 
727	 3.59706032889365E-02 
728	 3.36457569749103E-02 
729	 3.12127774559003E-02 
730	 2.87980622868902E-02 
731	 2.66243104670277E-02 
732	 2.47591999322296E-02 
733	 0.023208854200921 
734	 0.021907667512952 
735	 2.08250374200252E-02 
736	 1.99398613178086E-02 
737	 0.019334465228946 
738	 1.88620517887395E-02 
739	 1.84066144277094E-02 
740	 1.80642393163628E-02 
741	 1.78475390342287E-02 
742	 1.77090767397313E-02 
743	 1.75864532347928E-02 
744	 0.017632843376802 
745	 1.75834391567487E-02 
746	 1.73849327718354E-02 
747	 1.73148610209079E-02 
748	 1.73662676556608E-02 
749	 1.74181056438314E-02 
750	 0.017369176974866 
751	 0.017293654662651 
752	 1.73003485088244E-02 
753	 1.73288738844046E-02 
754	 1.72618302312195E-02 
755	 1.73693145722146E-02 
756	 1.74242301005646E-02 
757	 1.73410689367903E-02 
758	 1.72842513211104E-02 
759	 1.74136251371309E-02 
760	 1.75349563875325E-02 
761	 1.73580579129311E-02 
762	 1.76228178558479E-02 
763	 1.76821835343391E-02 
764	 1.76470129403452E-02 
765	 1.77824795280025E-02 
766	 1.78406041969311E-02 
767	 1.78912835048226E-02 
768	 1.79760949028875E-02 
769	 1.81003882182447E-02 
770	 1.82126219885604E-02 
771	 1.83104290820172E-02 
772	 1.84293376181605E-02 
773	 1.86870576445915E-02 
774	 1.88923672745655E-02 
775	 1.90308905380675E-02 
776	 1.91721550987104E-02 
777	 1.93307471069278E-02 
778	 1.95764679471631E-02 
779	 1.98645453948839E-02 
780	 2.00532965278204E-02 
781	 2.04373708185395E-02 
782	 2.07923594910128E-02 
783	 2.09863855697821E-02 
784	 2.13127954671079E-02 
785	 2.15825121766803E-02 
786	 2.18785560456062E-02 
787	 2.23186225962095E-02 
788	 2.26936757916922E-02 
789	 2.30579986828926E-02 
790	 2.34185112408059E-02 
791	 0.023752465725147 
792	 2.41853611953895E-02 
793	 2.45385979131827E-02 
794	 0.024775313629735 
795	 2.51387293844803E-02 
796	 2.55661650437512E-02 
797	 2.59605458267551E-02 
798	 2.62829746330697E-02 
799	 2.67017307436144E-02 
800	 2.69051803831549E-02 
801	 2.70398116222132E-02 
802	 2.74335693093872E-02 
803	 2.76229096723588E-02 
804	 2.78070757931863E-02 
805	 0.02802407096388 
806	 2.80831211852126E-02 
807	 2.81032084621202E-02 
808	 2.79712571217649E-02 
809	 2.76987196794265E-02 
810	 2.77258269872464E-02 
811	 2.78601187482143E-02 
812	 2.77594851569363E-02 
813	 0.027174261079166 
814	 2.70631315924447E-02 
815	 2.66011206659401E-02 
816	 2.59254832294144E-02 
817	 2.58518230432244E-02 
818	 2.52419142697623E-02 
819	 2.45279440904577E-02 
820	 2.38871654552424E-02 
821	 0.023038002733458 
822	 2.21616037395601E-02 
823	 2.11931422863584E-02 
824	 2.00839870974088E-02 
825	 1.88118282712859E-02 
826	 1.76554769762087E-02 
827	 1.64667606778176E-02 
828	 1.51010781684883E-02 
829	 1.39578763247323E-02 
830	 1.29904165301005E-02 
831	 1.21560146103155E-02 
832	 1.14501814860503E-02 
833	 1.07661208837888E-02 
834	 1.03411354057165E-02 
835	 1.01415349959182E-02 
836	 9.76419398627366E-03 
837	 9.3961294879036E-03 
838	 9.13277465031816E-03 
839	 8.9972396113749E-03 
840	 8.87148269369179E-03 
841	 8.89073390828349E-03 
842	 8.87939775540328E-03 
843	 8.64191948665458E-03 
844	 8.43408373896873E-03 
845	 8.29294825134081E-03 
846	 8.18480185589748E-03 
847	 8.02854871280784E-03 
848	 7.74264045514972E-03 
849	 7.71073925131524E-03 
850	 7.83831485644316E-03 
851	 7.42121066635141E-03 
852	 7.3022811420785E-03 
853	 7.44065787256407E-03 
854	 7.5238228849103E-03 
855	 7.09779113064995E-03 
856	 7.02702871677182E-03 
857	 7.20651016310495E-03 
858	 7.27757676106865E-03 
859	 7.04233223666661E-03 
860	 6.91415178504883E-03 
861	 6.81957710525438E-03 
862	 6.52158990569428E-03 
863	 6.46580053782578E-03 
864	 6.48466259267724E-03 
865	 6.39243853261312E-03 
866	 6.0893710309004E-03 
867	 6.04033348944049E-03 
868	 6.11994051862964E-03 
869	 6.10248604875818E-03 
870	 5.77748906939179E-03 
871	 5.75607158074535E-03 
872	 5.69831513572669E-03 
873	 5.4117557463897E-03 
874	 5.51166621906342E-03 
875	 5.49431892444557E-03 
876	 5.31667078314533E-03 
877	 5.10165036558077E-03 
878	 4.98552460128475E-03 
879	 4.96674762592784E-03 
880	 5.03500174374857E-03 
881	 5.10986226466488E-03 
882	 4.81261409635665E-03 
883	 4.51483541856364E-03 
884	 4.37563067689442E-03 
885	 4.35671892911089E-03 
886	 4.52561347081676E-03 
887	 4.79387615760837E-03 
888	 4.89238030780646E-03 
889	 4.44652779466241E-03 
890	 4.21671175540739E-03 
891	 4.10504990995905E-03 
892	 3.9915695854475E-03 
893	 4.01721341311963E-03 
894	 3.88521462988325E-03 
895	 3.63181114886248E-03 
896	 3.47924273420144E-03 
897	 3.84025463951499E-03 
898	 3.97771150819483E-03 
899	 3.66298154828734E-03 
900	 3.21318984515958E-03 
901	 3.83084953766228E-03 
902	 0.003842768187839 
903	 3.62903343363383E-03 
904	 3.97649841851616E-03 
905	 3.43921344048094E-03 
906	 2.98756799807634E-03 
907	 2.99324808722358E-03 
908	 3.22537496183105E-03 
909	 2.96868872111427E-03 
910	 3.05962034813918E-03 
911	 3.35092595691489E-03 
912	 2.87753800354409E-03 
913	 2.97145406259836E-03 
914	 2.81711537723109E-03 
915	 2.60041514014083E-03 
916	 3.60074825644997E-03 
917	 2.99784609171234E-03 
918	 2.61988058723384E-03 
919	 3.17576892276474E-03 
920	 3.10646294756855E-03 
921	 2.66575944372173E-03 
922	 2.55049775857191E-03 
923	 2.91714986990535E-03 
924	 2.57772609238968E-03 
925	 2.68283323250284E-03 
926	 3.20341270508305E-03 
927	 3.45044387305089E-03 
928	 1.69362939127809E-03 
929	 2.67547855707477E-04 
930	 3.33725461501752E-04 
931	 2.08231928634026E-03 
932	 3.7934405771264E-03 
933	 1.90247353217649E-03 
934	-2.01106106287885E-04 
935	 2.01479450693516E-03 
936	 1.08114652726237E-04 
937	 2.07483834395208E-03 
938	 4.49975367932103E-03 
939	 3.08239277026245E-03 
940	 3.46860964361991E-03 
941	 4.93289268160848E-03 
942	 5.68876580746569E-03 
943	 3.75543050761905E-03 
944	-5.63584944936899E-04 
945	-1.67356709873503E-04 
946	 3.22038359544197E-03 
947	 3.22796926290204E-03 
948	 2.26140874646768E-03 
949	 1.74360269184801E-03 
950	 1.76272872728831E-03 
951	 1.77160557644331E-03 
952	 3.15041937008398E-03 
953	 2.97633982396553E-03 
954	 2.67565248641183E-03 
955	 5.33000154016063E-03 
956	 4.23759360247558E-03 
957	 2.06427365790437E-03 
958	 6.18091080364884E-04 
959	 3.51723109616394E-04 
960	 1.70212725811155E-03 
961	 1.71665034196895E-03 
962	 1.23976190918788E-03 
963	 3.01960435134547E-03 
964	 3.23337653745162E-03 
965	 2.81181078717736E-03 
966	 2.61496170205248E-03 
967	 2.85249266939484E-03 
968	 1.64453467453747E-03 
969	 2.2742442380626E-03 
970	 3.72839183305631E-03 
971	 1.96290629127825E-03 
972	 2.5423127164159E-03 
973	 2.51675782009159E-03 
974	 1.80920342710688E-03 
975	 3.31832366544855E-03 
976	 2.82822067386725E-03 
977	 2.00419844558541E-03 
978	 1.27626382290548E-03 
979	-1.03143062608707E-04 
980	 1.70168925640536E-03 
981	 2.28443052582902E-03 
982	 1.25806119559344E-03 
983	 1.6507801298934E-03 
984	 1.31429763107876E-03 
985	 1.21878923621986E-03 
986	 2.25180859498161E-03 
987	 4.27449232332767E-03 
988	 2.54781042771007E-03 
989	 1.77419647809666E-03 
990	 2.27718165375946E-03 
991	 1.06653052924509E-03 
992	 1.13264154583662E-03 
993	 2.50074889447063E-03 
994	 3.04125599662197E-03 
995	 7.1719169671199E-04 
996	 1.70109996351222E-03 
997	 2.39986342013892E-03 
998	 1.90422346204306E-03 
999	 1.59085601481918E-03 
1000	 2.46712091892033E-03 
1001	 1.84831933371584E-03 
1002	 2.41370020425444E-03 
1003	 2.52480314079386E-03 
1004	 2.22370478583524E-03 
1005	 2.21216777822547E-03 
1006	 2.15412698844844E-03 
1007	 2.43436168288279E-03 
1008	 2.46590970833042E-03 
1009	 2.35199445242906E-03 
1010	 2.31229729527924E-03 
1011	 2.21953072177537E-03 
1012	 2.48248638793452E-03 
1013	 2.84441795625232E-03 
1014	 2.8799261736518E-03 
1015	 2.7533187174364E-03 
1016	 2.69567488781432E-03 
1017	 2.32340865058409E-03 
1018	 2.23541210278649E-03 
1019	 2.34446007071419E-03 
1020	 2.40571302740529E-03 
1021	 2.43888713021672E-03 
1022	 2.75193334094495E-03 
1023	 2.74440760963764E-03 
1024	 2.72812394457007E-03 
1025	 2.62488236969869E-03 
1026	 2.35915512860893E-03 
1027	 2.37006765850431E-03 
1028	 2.57603157557104E-03 
1029	 2.55976456621877E-03 
1030	 2.65203277707591E-03 
1031	 2.54732409243253E-03 
1032	 2.16996628586433E-03 
1033	 2.05681630910649E-03 
1034	 1.85661518618708E-03 
1035	 1.85407933795881E-03 
1036	 2.04429463427433E-03 
1037	 2.23335292470887E-03 
1038	 2.51799029895779E-03 
1039	 2.98689880221094E-03 
1040	 3.05610475821668E-03 
1041	 3.03426512347747E-03 
1042	 2.91416481742586E-03 
1043	 2.33452075384565E-03 
1044	 2.41419659305306E-03 
1045	 2.89350274163393E-03 
1046	 2.93027440471192E-03 
1047	 3.07487652211122E-03 
1048	 3.1062108919345E-03 
1049	 2.80730495656254E-03 
1050	 2.63326237299527E-03 
1051	 2.5242953538673E-03 
1052	 2.48427580017337E-03 
1053	 2.23023278131837E-03 
1054	 2.28433828323177E-03 
1055	 2.93927786349112E-03 
1056	 3.12542411932942E-03 
1057	 3.17701545793377E-03 
1058	 3.24548289139946E-03 
1059	 3.0367506540128E-03 
1060	 2.31613543654721E-03 
1061	 2.04835824856943E-03 
1062	 1.72903608833097E-03 
1063	 1.73818750723934E-03 
1064	 2.08763264773761E-03 
1065	 2.29829724185687E-03 
1066	 2.84812152155863E-03 
1067	 2.99423876418517E-03 
1068	 2.83793580415842E-03 
1069	 2.78255861654136E-03 
1070	 2.45308630836127E-03 
1071	 2.36931573342261E-03 
1072	 2.4307357178036E-03 
1073	 2.60370423887093E-03 
1074	 2.68749482698306E-03 
1075	 2.8836710296911E-03 
1076	 2.86296867773632E-03 
1077	 2.77759254639114E-03 
1078	 2.56957911324374E-03 
1079	 1.9953215665899E-03 
1080	 1.95649352781914E-03 
1081	 2.02763460749477E-03 
1082	 2.16692949584444E-03 
1083	 3.05203619120373E-03 
1084	 3.16166016952853E-03 
1085	 2.60656054779302E-03 
1086	 2.48211562514118E-03 
1087	 2.04484624971059E-03 
1088	 1.90795635477725E-03 
1089	 2.1018235152078E-03 
1090	 2.67848364835355E-03 
1091	 2.85299692510238E-03 
1092	 3.03662608709811E-03 
1093	 2.97616221583576E-03 
1094	 2.6586879441669E-03 
1095	 2.36480466429352E-03 
1096	 1.62381264266313E-03 
1097	 1.5837351595469E-03 
1098	 1.96056495102189E-03 
1099	 2.18871645945984E-03 
1100	 3.12843524587005E-03 
1101	 3.34056107947386E-03 
1102	 2.72944703640853E-03 
1103	 2.57657243773594E-03 
1104	 2.1299832767652E-03 
1105	 2.32783616023182E-03 
1106	 2.66616188156624E-03 
1107	 2.29061421587777E-03 
1108	 2.03377246074121E-03 
1109	 2.07007414176748E-03 
1110	 2.05848617267128E-03 
1111	 2.46654784697253E-03 
1112	 2.52907893413242E-03 
1113	 0.001915799157769 
1114	 1.80939715577657E-03 
1115	 2.1952554898547E-03 
1116	 2.49342999663193E-03 
1117	 3.35913356971054E-03 
1118	 4.16914562083691E-03 
1119	 4.68338600060826E-03 
1120	 4.59279906601274E-03 
1121	 3.24376178181668E-03 
1122	 4.55972477533019E-03 
1123	 3.15145504176186E-03 
1124	 1.29625383748326E-03 
1125	 3.84669567258103E-03 
1126	 4.32818764700066E-03 
1127	 1.70701761012325E-03 
1128	 3.29126377971353E-03 
1129	 3.18613555409965E-03 
1130	-1.15156521045914E-03 
1131	 3.40937635635625E-04 
1132	 7.84718071986165E-03 
1133	 7.20219310151004E-03 
1134	 3.70338842332886E-03 
1135	 2.97708458295611E-03 
1136	-7.96856019523546E-04 
1137	-8.71159197453994E-04 
1138	 2.07875814584812E-03 
1139	 5.42912779558326E-03 
1140	 6.77571777751039E-03 
1141	 3.99350714732884E-03 
1142	 1.82901129027679E-03 
1143	 2.91473446076427E-03 
1144	 2.04448400950356E-03 
1145	 1.63887078556314E-03 
1146	 1.97098213061023E-03 
1147	-9.54635474278361E-04 
1148	-8.02442694274585E-04 
1149	 2.63575587291199E-03 
1150	 2.97108984197892E-03 
1151	 1.82803386308692E-03 
1152	 2.02134940660365E-03 
1153	 1.76912587438055E-03 
1154	 1.31563490825033E-03 
1155	 8.58162516065185E-04 
1156	 1.91854250833453E-03 
1157	 1.96374186951517E-03 
1158	 1.20290410319421E-03 
1159	 1.76231593860777E-03 
1160	 2.23967607039201E-03 
1161	 1.95662570167425E-03 
1162	 2.95333841959609E-03 
1163	 3.35126912420918E-03 
1164	 2.11543080641857E-03 
1165	 1.95585182577982E-03 
1166	 2.01617673098811E-03 
1167	 1.17296057643003E-03 
1168	 1.57580459980266E-03 
1169	 2.5386129428031E-03 
1170	 2.30182125840483E-03 
1171	 2.17308084269645E-03 
1172	 2.30686676891935E-03 
1173	 2.27514522487617E-03 
1174	 1.67747457049293E-03 
1175	 1.66482214385879E-03 
1176	 2.08534746102516E-03 
1177	 2.25330169328523E-03 
1178	 2.08950667640413E-03 
1179	 1.85775445140451E-03 
1180	 1.72629995351565E-03 
1181	 1.64980937850803E-03 
1182	 1.95336954366445E-03 
1183	 2.19547694390853E-03 
1184	 2.04656444693425E-03 
1185	 1.90376355634843E-03 
1186	 1.92860234492272E-03 
1187	 2.00092326866508E-03 
1188	 2.12111088606455E-03 
1189	 2.19550769728869E-03 
1190	 2.04397731045301E-03 
1191	 1.96278848503711E-03 
1192	 1.87824115434617E-03 
1193	 1.80806404460413E-03 
1194	 1.79750763310194E-03 
1195	 1.99923147108784E-03 
1196	 1.90011913317676E-03 
1197	 1.77845004091255E-03 
1198	 2.22867333833711E-03 
1199	 2.25514815486425E-03 
1200	 1.86968120106998E-03 
1201	 2.03750814857525E-03 
1202	 2.06184102652858E-03 
1203	 1.92230541775799E-03 
1204	 2.12924500083148E-03 
1205	 2.14537969946288E-03 
1206	 1.93570952508789E-03 
1207	 1.90945938038795E-03 
1208	 1.9921877268382E-03 
1209	 2.04325280927104E-03 
1210	 2.06177688882247E-03 
1211	 2.00739909301096E-03 
1212	 1.90758895231064E-03 
1213	 1.69552971664662E-03 
1214	 1.65978134230921E-03 
1215	 1.65775109640257E-03 
1216	 1.7599939876231E-03 
1217	 1.86531256611679E-03 
1218	 2.2451797776044E-03 
1219	 2.43529571000108E-03 
1220	 2.13359009181151E-03 
1221	 1.99542109895598E-03 
1222	 2.02039699903916E-03 
1223	 1.88108494150158E-03 
1224	 1.92136128182179E-03 
1225	 2.15657228207101E-03 
1226	 2.17994855824282E-03 
1227	 2.08048909627052E-03 
1228	 2.19452735309641E-03 
1229	 2.29718658921505E-03 
1230	 2.08977338430772E-03 
1231	 1.98416004875069E-03 
1232	 2.07771487808525E-03 
1233	 2.0861415451563E-03 
1234	 2.15673654525376E-03 
1235	 2.17978774708456E-03 
1236	 2.30830817855872E-03 
1237	 2.19795192305674E-03 
1238	 1.86155454095695E-03 
1239	 1.66401007400758E-03 
1240	 1.76180780650212E-03 
1241	 1.82029405245133E-03 
1242	 1.82715158995975E-03 
1243	 2.04133815856066E-03 
1244	 2.17892175288763E-03 
1245	 2.12871081998231E-03 
1246	 2.13997549914206E-03 
1247	 2.19236874028854E-03 
1248	 2.14680459514022E-03 
1249	 2.02150963563978E-03 
1250	 1.93217460074604E-03 
1251	 2.00009595774924E-03 
1252	 2.04964043040821E-03 
1253	 1.88445462731189E-03 
1254	 1.98924467680608E-03 
1255	 2.26103985940051E-03 
1256	 2.28337869844864E-03 
1257	 2.0706719180794E-03 
1258	 2.10771938988885E-03 
1259	 2.11716295025162E-03 
1260	 2.06461299120929E-03 
1261	 2.22432096699934E-03 
1262	 2.27781945677977E-03 
1263	 2.24791611365792E-03 
1264	 2.02469577469125E-03 
1265	 2.12534796205806E-03 
1266	 2.1144491490067E-03 
1267	 1.90826222037581E-03 
1268	 1.98778971742452E-03 
1269	 1.94357652392011E-03 
1270	 1.60030083268454E-03 
1271	 1.68619917122818E-03 
1272	 1.90072978968265E-03 
1273	 1.94516287957377E-03 
1274	 2.12191311983304E-03 
1275	 2.03278425137478E-03 
1276	 1.75391585505979E-03 
1277	 1.67677223964193E-03 
1278	 1.7966997099557E-03 
1279	 2.05726673437298E-03 
1280	 2.10088507567679E-03 
1281	 2.10972756202151E-03 
1282	 2.07945258309853E-03 
1283	 2.0342303654664E-03 
1284	 1.8439133702365E-03 
1285	 1.83426918006041E-03 
1286	 1.99587495561976E-03 
1287	 1.96894758113906E-03 
1288	 1.78626475469532E-03 
1289	 1.71603893215195E-03 
1290	 1.64020716973475E-03 
1291	 1.56441910504385E-03 
1292	 1.71919162599116E-03 
1293	 2.14961466656082E-03 
1294	 2.22468944641069E-03 
1295	 2.00519633060089E-03 
1296	 1.89884092642347E-03 
1297	 1.89122609734794E-03 
1298	 1.94305738793348E-03 
1299	 2.15254677168437E-03 
1300	 2.3950204097246E-03 
1301	 2.26631032426051E-03 
1302	 1.80686737973455E-03 
1303	 1.69121726295729E-03 
1304	 1.93425358633465E-03 
1305	 1.83001998513903E-03 
1306	 1.64407552023613E-03 
1307	 1.68146832966023E-03 
1308	 1.84978273659644E-03 
1309	 1.71738228318607E-03 
1310	 1.64764398247309E-03 
1311	 2.20790808590942E-03 
1312	 2.30646980227741E-03 
1313	 1.47625097553454E-03 
1314	 1.39615494176853E-03 
1315	 2.08975851548815E-03 
1316	 2.15421620230336E-03 
1317	 1.85641533251607E-03 
1318	 2.05663306571513E-03 
1319	 2.65206268009416E-03 
1320	 2.44155239230344E-03 
1321	 1.72839068244518E-03 
1322	 1.74995137090993E-03 
1323	 1.78227088727499E-03 
1324	 1.39373056788393E-03 
1325	 1.5693219587724E-03 
1326	 2.43647544679193E-03 
1327	 2.77147825635131E-03 
1328	 2.1775474126312E-03 
1329	 2.20930074143651E-03 
1330	 2.95237458587558E-03 
1331	 2.82859205337118E-03 
1332	 2.25654409299546E-03 
1333	 2.14477844450153E-03 
1334	 2.09537085914583E-03 
1335	 2.12772368260203E-03 
1336	 2.22319032810503E-03 
1337	 2.0989203564047E-03 
1338	 1.98398028509894E-03 
1339	 1.98794704155781E-03 
1340	 1.94806324804745E-03 
1341	 1.79824755048426E-03 
1342	 1.82565939844648E-03 
1343	 1.63693101813436E-03 
1344	 7.51145237739969E-05 
1345	-9.11856201374828E-05 
1346	 2.4812465512897E-03 
1347	 2.78675634311784E-03 
1348	 7.89762476233021E-04 
1349	 2.01034786027319E-03 
1350	 6.67535843448005E-03 
1351	 6.47378192284982E-03 
1352	 7.482439897754E-04 
1353	 3.91381959176794E-03 
1354	 7.87621763102381E-03 
1355	-2.28142065019661E-04 
1356	 2.51159311669003E-02 
1357	 6.85176323325283E-02 
1358	 4.56813612811716E-02 
1359	 4.32667035168753E-02 
1360	 1.40221572296138E-02 
1361	 0.039319092966582 
1362	 0.19866127312126 
1363	 0.216403890752348 
1364	 1.25460302905175E-02 
1365	 1.35603333307795E-03 
1366	 0.186271263049088 
1367	 0.103456800378861 
1368	 0.014399319402742 
1369	 0.209939841055907 
1370	 0.280281360255109 
1371	-0.235080857017715 
1372	-0.28128462138354 
1373	 0.234664639249433 
1374	 0.280158853412212 
1375	 5.19341666806423E-02 
1376	 0.10793555073088 
1377	 0.635457415591439 
1378	 0.531222369267278 
1379	-7.61104269671158E-02 
1380	-6.62629319069618E-02 
1381	-5.58597253313521E-03 
1382	-0.117329903315312 
1383	 0.22005895951446 
1384	 0.363241361362895 
1385	-0.34951080385425 
1386	-0.524294904638412 
1387	-0.252285733083276 
1388	-0.135832654419455 
1389	-0.058282078897866 
1390	-7.56725544666996E-03 
1391	 4.45176487927213E-02 
1392	 6.16437823897006E-02 
1393	-1.44799692142995E-02 
1394	 0.172396656983768 
1395	 0.436673766553422 
1396	 0.279490993620652 
1397	 0.175501339600285 
1398	 0.264614748847689 
1399	 0.119135382008296 
1400	 2.50311283340641E-02 
1401	 0.469657007690862 
1402	 0.192512302313508 
1403	-0.140557692204976 
1404	-2.27043682099572E-02 
1405	 5.33204125038914E-02 
1406	 4.23017111740322E-02 
1407	 7.70674468254901E-02 
1408	 0.350924346938769 
1409	 0.30761886427333 
1410	 5.99928735522277E-02 
1411	 1.52173036260625E-02 
1412	 7.19893448956099E-05 
1413	-5.65267076921742E-04 
1414	 5.61605376091844E-02 
1415	 5.55054270276514E-02 
1416	 2.18856334790249E-03 
1417	 2.38731516393293E-02 
1418	 0.103609692492172 
1419	 7.01635724926462E-02 
1420	 1.17803198735056E-02 
1421	 1.12544167106148E-02 
1422	-1.36427179100403E-04 
1423	-1.08527979491662E-02 
1424	-3.97358934135281E-03 
1425	 7.79180245014969E-03 
1426	 0.019254557728679 
1427	 1.03091506803011E-02 
1428	-6.0451501527598E-03 
1429	 3.95140314073251E-03 
1430	 1.91874739764786E-02 
1431	 1.32057408675111E-02 
1432	 1.31564498233527E-02 
1433	 1.92324381544387E-02 
1434	 1.03027155903457E-02 
1435	 8.55301389550462E-04 
1436	 8.73653262045318E-04 
1437	 9.31367836546902E-03 
1438	 1.13191636920556E-02 
1439	 0.001764582696921 
1440	-4.15742796898803E-03 
1441	 3.03861937715844E-03 
1442	 1.23484948258554E-02 
1443	 7.52893356497176E-03 
1444	 5.44022307928249E-04 
1445	 4.85356330126518E-03 
1446	 9.55799255940829E-03 
1447	 8.37107175137311E-03 
1448	 4.45774611247339E-03 
1449	 2.59852028164734E-03 
1450	 3.37110206283224E-03 
1451	 1.54720017748851E-03 
1452	 2.09857378643636E-03 
1453	 4.33530432546949E-03 
1454	 4.50201081332975E-03 
1455	 1.96748982432999E-04 
1456	-2.91615010960682E-04 
1457	 1.63812562009083E-03 
1458	 2.23386233021396E-03 
1459	 2.39480540412105E-03 
1460	 2.02627115339508E-03 
1461	 1.45197716132062E-03 
1462	 2.15612359587397E-03 
1463	 3.50366861455681E-03 
1464	 2.68913350823174E-03 
1465	 5.55277150074286E-04 
1466	 1.69146939590994E-03 
1467	 4.39139606408637E-03 
1468	 2.58220996610498E-03 
1469	 3.16234397105566E-05 
1470	 1.45323635768329E-03 
1471	 1.78458325130614E-04 
1472	-5.70648023149781E-04 
1473	 4.67463375630559E-03 
1474	 6.4650964155883E-03 
1475	 4.25463203372652E-03 
1476	 2.77057031539594E-03 
1477	 1.79937448081998E-03 
1478	 2.04528262580551E-03 
1479	 1.79678510630705E-03 
1480	 1.30732936529322E-03 
1481	 2.14366133752139E-03 
1482	 2.55145115774801E-03 
1483	 1.76084386283833E-03 
1484	 1.34314167061287E-03 
1485	 2.11278230828943E-03 
1486	 2.13755947388805E-03 
1487	 7.93905997305333E-04 
1488	 8.12801101294816E-04 
1489	 1.84445616343807E-03 
1490	 1.92116437943895E-03 
1491	 2.12106153245491E-03 
1492	 2.01926315774681E-03 
1493	 9.09710872319411E-04 
1494	 8.69431974957709E-04 
1495	 1.47015064099551E-03 
1496	 1.5963525172871E-03 
1497	 2.2024943274321E-03 
1498	 2.3523421290431E-03 
1499	 1.72852354667786E-03 
1500	 1.55808929415504E-03 
1501	 1.5484462686901E-03 
1502	 1.49201340824811E-03 
1503	 1.61329258252969E-03 
1504	 1.66270594251359E-03 
1505	 1.81391279978164E-03 
1506	 1.59643447237918E-03 
1507	 1.38097138899959E-03 
1508	 1.45879315330962E-03 
1509	 1.56979359709442E-03 
1510	 1.58425213329885E-03 
1511	 1.62820995660731E-03 
1512	 1.65163159010734E-03 
1513	 1.44946101150968E-03 
1514	 1.34295290343702E-03 
1515	 1.60897670181132E-03 
1516	 1.72830139381372E-03 
1517	 1.68764060857582E-03 
1518	 1.6928250541549E-03 
1519	 1.53769502574726E-03 
1520	 1.45658421932247E-03 
1521	 1.58529040719308E-03 
1522	 1.76024916294716E-03 
1523	 1.83484196233522E-03 
1524	 1.73410328717047E-03 
1525	 1.64184603384099E-03 
1526	 1.57096629063588E-03 
1527	 1.40218455384482E-03 
1528	 1.34420741947589E-03 
1529	 1.52451903425385E-03 
1530	 1.73362918788916E-03 
1531	 1.74651593951601E-03 
1532	 1.63909849333555E-03 
1533	 1.77067682908922E-03 
1534	 1.81658246074279E-03 
1535	 1.60098736555657E-03 
1536	 1.67356167471165E-03 
1537	 1.82991096962522E-03 
1538	 1.73393358823846E-03 
1539	 1.67795571584712E-03 
1540	 1.73034227118571E-03 
1541	 1.49092928230337E-03 
1542	 1.2045847283597E-03 
1543	 1.35274605458388E-03 
1544	 1.55303144300219E-03 
1545	 0.001720997467499 
1546	 1.97079834828699E-03 
1547	 1.97463096435777E-03 
1548	 1.65811525385701E-03 
1549	 1.42766110689182E-03 
1550	 1.40865427351204E-03 
1551	 1.30387889368232E-03 
1552	 1.34655595760819E-03 
1553	 1.52885734283728E-03 
1554	 1.49620002810685E-03 
1555	 1.39820664307962E-03 
1556	 1.55922465481691E-03 
1557	 1.77090965272878E-03 
1558	 1.55834784280565E-03 
1559	 1.48382722180627E-03 
1560	 1.59616977414295E-03 
1561	 1.33898776194111E-03 
1562	 1.17809700363476E-03 
1563	 1.18602848688879E-03 
1564	 1.12522984978968E-03 
1565	 1.18627338769407E-03 
1566	 1.33500093953031E-03 
1567	 1.45956365312532E-03 
1568	 1.4749751495212E-03 
1569	 1.33634889030819E-03 
1570	 1.37720614119854E-03 
1571	 1.50171823016087E-03 
1572	 1.43917667264889E-03 
1573	 1.66230193291896E-03 
1574	 1.86122934763308E-03 
1575	 1.63242245538703E-03 
1576	 1.57115492320372E-03 
1577	 1.45394780472084E-03 
1578	 1.28082616271921E-03 
1579	 1.52399090570348E-03 
1580	 1.63012871594969E-03 
1581	 1.64161920784997E-03 
1582	 1.77711325796907E-03 
1583	 1.67301629012655E-03 
1584	 1.49884304861091E-03 
1585	 1.47411595608391E-03 
1586	 1.41314722429878E-03 
1587	 1.33521191005941E-03 
1588	 1.48037229291525E-03 
1589	 1.53433261346928E-03 
1590	 1.40158758931996E-03 
1591	 1.40272165804875E-03 
1592	 1.37633138724065E-03 
1593	 1.3246930947014E-03 
1594	 1.43599776242323E-03 
1595	 1.42017490960645E-03 
1596	 1.31665238418213E-03 
1597	 1.43872289139958E-03 
1598	 1.56106623676046E-03 
1599	 1.51236672039013E-03 
1600	 1.57600169095707E-03 
1601	 1.80794956090542E-03 
1602	 1.78578898120795E-03 
1603	 1.52600667985969E-03 
1604	 1.50215069245855E-03 
1605	 1.58253747290441E-03 
1606	 1.48991484874391E-03 
1607	 1.35425342549915E-03 
1608	 1.35981696564065E-03 
1609	 1.52033105844828E-03 
1610	 1.5344209535318E-03 
1611	 1.59571363129476E-03 
1612	 1.75040902242469E-03 
1613	 0.00164713818047 
1614	 1.6378519218025E-03 
1615	 1.87878775686485E-03 
1616	 2.03021044642326E-03 
1617	 1.92646671017068E-03 
1618	 1.7769726104994E-03 
1619	 1.64333468182724E-03 
1620	 1.48924383356892E-03 
1621	 1.47687922505921E-03 
1622	 1.39665687562013E-03 
1623	 1.27846776506037E-03 
1624	 1.35256423862143E-03 
1625	 1.45736600229773E-03 
1626	 1.43108276863569E-03 
1627	 1.3540672433014E-03 
1628	 1.51430545451651E-03 
1629	 1.68844585413085E-03 
1630	 1.6389792138721E-03 
1631	 1.74087240987304E-03 
1632	 1.72417364313788E-03 
1633	 1.43690902149583E-03 
1634	 1.42169735120143E-03 
1635	 1.63964917807729E-03 
1636	 1.72735411533531E-03 
1637	 1.61357516799167E-03 
1638	 1.49718253596704E-03 
1639	 1.46550447651399E-03 
1640	 1.59133881934713E-03 
1641	 1.59766825785926E-03 
1642	 1.45431923467496E-03 
1643	 1.62877203529376E-03 
1644	 1.59479181272597E-03 
1645	 1.36928533110415E-03 
1646	 1.39985692977679E-03 
1647	 1.22835188728692E-03 
1648	 1.04183295872011E-03 
1649	 1.18887566728543E-03 
1650	 1.48579177818168E-03 
1651	 1.74603566004329E-03 
1652	 1.55951448065547E-03 
1653	 1.15057320808363E-03 
1654	 1.23938539556736E-03 
1655	 1.21760870561436E-03 
1656	 1.16970330857363E-03 
1657	 1.73254921389413E-03 
1658	 1.75656189736439E-03 
1659	 1.13446320349741E-03 
1660	 1.10649523971984E-03 
1661	 1.31330028380604E-03 
1662	 1.30719793546436E-03 
1663	 1.34233432172418E-03 
1664	 1.42149427171203E-03 
1665	 1.55182371029743E-03 
1666	 1.55612862936583E-03 
1667	 1.53186228645587E-03 
1668	 1.54265947398249E-03 
1669	 1.45831375354701E-03 
1670	 1.50117632549995E-03 
1671	 1.54608094335736E-03 
1672	 1.31412989759699E-03 
1673	 1.24172583088619E-03 
1674	 1.36087269870693E-03 
1675	 1.43114511616286E-03 
1676	 1.73969751229925E-03 
1677	 1.98121922906399E-03 
1678	 1.65245726462108E-03 
1679	 1.38246101854756E-03 
1680	 1.47014369890602E-03 
1681	 1.38728957933824E-03 
1682	 1.30699713326469E-03 
1683	 1.51014416577172E-03 
1684	 1.58569831754514E-03 
1685	 1.43260228179166E-03 
1686	 1.64562332840187E-03 
1687	 1.87333384561085E-03 
1688	 1.47199794266358E-03 
1689	 1.39730437057886E-03 
1690	 1.3959468739408E-03 
1691	 9.2444979559177E-04 
1692	 1.10243482398869E-03 
1693	 1.24655562442343E-03 
1694	 9.16021787956281E-04 
1695	 1.18661582316849E-03 
1696	 1.78852190991561E-03 
1697	 2.07642934426496E-03 
1698	 1.94411908514186E-03 
1699	 1.51915858570834E-03 
1700	 1.20824974434031E-03 
1701	 1.18353541295181E-03 
1702	 1.2849798737115E-03 
1703	 1.45381958330029E-03 
1704	 1.41432964180027E-03 
1705	 1.13263585317547E-03 
1706	 1.25865407331335E-03 
1707	 1.80945753562713E-03 
1708	 1.95673716584556E-03 
1709	 1.62525067632168E-03 
1710	 1.55533661072785E-03 
1711	 1.49607182297155E-03 
1712	 1.27063537795092E-03 
1713	 1.28081247621978E-03 
1714	 1.1521294680301E-03 
1715	 9.08713170370525E-04 
1716	 8.48143194341987E-04 
1717	 9.98114826037499E-04 
1718	 1.25548187711767E-03 
1719	 1.75403839756604E-03 
1720	 1.83272363485505E-03 
1721	 1.43492999260986E-03 
1722	 1.59828904251422E-03 
1723	 1.63833471454187E-03 
1724	 1.34499774377258E-03 
1725	 1.77957470239367E-03 
1726	 1.80622959430985E-03 
1727	 1.07770728865371E-03 
1728	 1.17600698582204E-03 
1729	 1.64503219007559E-03 
1730	 1.89322437385107E-03 
1731	 2.36057563048476E-03 
1732	 2.36261679030138E-03 
1733	 1.46043103409471E-03 
1734	 8.86821161731312E-04 
1735	 6.37268482532162E-04 
1736	 5.17703690353322E-04 
1737	 1.19083721306285E-03 
1738	 1.52827509945754E-03 
1739	 1.10683409161008E-03 
1740	 1.18334766716702E-03 
1741	 1.54204883615231E-03 
1742	 1.62365018026606E-03 
1743	 2.13613794711583E-03 
1744	 2.14505695678393E-03 
1745	 1.35375170018473E-03 
1746	 1.12335308754943E-03 
1747	 8.70815277408831E-04 
1748	 9.37078061082786E-04 
1749	 1.26248627473098E-03 
1750	 1.77296973512936E-03 
1751	 1.69631289444545E-03 
1752	 1.47715689798952E-03 
1753	 1.40164746243103E-03 
1754	 6.95669257225739E-04 
1755	 7.03047377840384E-04 
1756	 1.81978594247223E-03 
1757	 1.89666811785654E-03 
1758	 1.21495178144498E-03 
1759	 9.29422570965118E-04 
1760	 9.33010307750496E-04 
1761	 1.3848824971879E-03 
1762	 2.24755443840761E-03 
1763	 1.84741112701564E-03 
1764	 6.58686575643616E-04 
1765	 4.92604765430943E-04 
1766	 6.11071908333255E-04 
1767	 1.08609535064299E-03 
1768	 2.31157532948292E-03 
1769	 1.72786889896658E-03 
1770	 1.13057426719414E-04 
1771	 3.30772132301659E-04 
1772	 2.86576760245848E-04 
1773	 3.08246968101745E-04 
1774	 1.8498640524001E-03 
1775	 2.23225610500163E-03 
1776	 1.97978727589929E-03 
1777	 6.97292753205899E-04 
1778	 3.55413556319558E-04 
1779	-6.17608751410411E-04 
1780	-9.75142092125622E-04 
1781	 1.10203570230231E-03 
1782	 1.35915231828126E-03 
1783	 1.99130291692309E-04 
1784	 3.67143679431039E-04 
1785	 3.29516286323887E-04 
1786	-8.0962648262019E-05 
1787	 3.88548500138623E-05 
1788	 8.77650133279147E-04 
1789	 2.00114102419616E-03 
1790	 4.12100498817272E-03 
1791	 3.58328319595674E-03 
1792	 1.49266189871261E-03 
1793	 5.62052057760294E-04 
1794	 4.76782257308584E-04 
1795	 1.73102887432761E-03 
1796	 1.37145735670972E-03 
1797	-1.79541302321563E-03 
1798	-2.68375004138666E-03 
1799	-3.54252111131512E-04 
1800	 1.39742857897963E-02 
1801	 1.74233071373628E-02 
1802	 1.89890864692575E-03 
1803	-6.20021459298243E-05 
1804	-4.43778887701171E-03 
1805	-9.93136647818392E-03 
1806	 1.97527598601179E-02 
1807	 2.32573935734459E-02 
1808	-0.021494102168868 
1809	-4.60368754318979E-02 
1810	-9.83757185992726E-02 
1811	-0.11236969114899 
1812	-2.97248138073351E-02 
1813	-1.89242299369322E-02 
1814	 3.88622853621075E-03 
1815	 8.55514276589595E-02 
1816	 0.152996264180847 
1817	 0.13981116580612 
1818	 0.166878411085488 
1819	-0.286240264913556 
1820	-0.71815917320794 
1821	-2.47390685925857 
1822	-5.81657532344178 
1823	-0.85990708173598 
1824	-0.565086738463778 
1825	-4.74386607073331E-02 
1826	 0.106903617537927 
1827	 0.236641767196473 
1828	 0.225737804095868 
1829	-0.370873458157625 
1830	-0.534175737243367 
1831	 4.18832404380925 
1832	 4.31622744768433 
1833	 5.07988783931872 
1834	 8.7308121702645 
1835	-2.96310663843438 
1836	-3.13348378425226 
1837	-4.51809058654441 
1838	 59.9811554433437 
1839	 1.85791025341001 
1840	 0.887391038822304 
1841	 0.719170629486563 
1842	 0.485707863506813 
1843	 0.407621620646394 
1844	 0.277756288217219 
1845	 0.428008365322026 
1846	 0.782552529424587 
1847	 2.45425912725348 
1848	-3.60053724482628 
1849	-3.52983927392569 
1850	-141.433890242863 
1851	 2.54167053411161 
1852	 2.37704945970648 
1853	 0.68903389603597 
1854	 0.586897486867159 
1855	-5.47672930568302 
1856	-3.12210605577949 
1857	 1.66644257829391 
1858	 1.29894834497726 
1859	 1.89259040130484 
1860	 0.880303280423585 
1861	 0.493624374644877 
1862	 0.498033354432303 
1863	 0.150170950930734 
1864	-0.190842106438959 
1865	-0.227149952758659 
1866	 8.98190230476405E-02 
1867	 8.29296266032417E-02 
1868	 0.193724914528261 
1869	-0.767619741878452 
1870	-1.71113028537333 
1871	-1.04396778078311 
1872	-0.779814480498785 
1873	-0.213018878546642 
1874	 0.181038578334162 
1875	 0.331847155563086 
1876	 0.459101048694279 
1877	 0.850510849604626 
1878	 1.00357122828439 
1879	 0.695837454076578 
1880	 0.879323971152805 
1881	 1.78984122022736 
1882	 1.07560933297667 
1883	 0.773914763957947 
1884	 0.69951093762858 
1885	 0.716696473944 
1886	 0.759188114094006 
1887	 0.901975668943245 
1888	 2.13704525443678 
1889	 8.03081547451135 
1890	-1.39684199068349 
1891	-0.598430502493461 
1892	-0.662047312131933 
1893	-0.653864616869883 
1894	-0.204235819264274 
1895	-0.361369430723236 
1896	-0.704108671194713 
1897	-0.447907482157067 
1898	-4.34366387291325E-02 
1899	 0.341751673428369 
1900	 0.599327271647441 
1901	 0.920679438711994 
1902	 1.21446564705009 
1903	 2.08467646118611 
1904	 2.44273431437736 
1905	-8.8466960779477 
1906	-1.56129591910042 
1907	-6.09889361696831 
1908	 95.988108526985 
1909	 0.15841852272562 
1910	 9.97276320918321E-02 
1911	-7.60560338772828E-02 
1912	-0.5950935891284 
1913	-0.544079996029806 
1914	 0.83435885740834 
1915	 1.09352359069757 
1916	 0.510494860503029 
1917	 0.590188333989565 
1918	 6.96151960624753 
1919	-2.03838048824652 
1920	-1.60366751946537 
1921	-4.97935835990624 
1922	 2.8112357815906 
1923	 0.857594490038774 
1924	 2.06208464268374E-02 
1925	 0.195015991262344 
1926	 1.17703128004361 
1927	-2.95915178323596 
1928	-4.52291284175987 
1929	-3.69013959963206 
1930	-6.30836183943172 
1931	 0.95560141153625 
1932	-0.466567257213823 
1933	-7.94556150104537E-02 
1934	 0.307027215324298 
1935	 0.362085255958922 
1936	 0.365125545084373 
1937	 0.33241617314777 
1938	 0.176528065610556 
1939	 9.52875965258577E-02 
1940	 2.71811131857587E-02 
1941	 5.48526760585543E-02 
1942	 5.58194570908535E-02 
1943	 5.63059866624918E-02 
1944	 8.06999812257043E-02 
1945	 9.93846949921082E-02 
1946	 0.137667739931003 
1947	 0.146714565123876 
1948	 0.110256119369895 
1949	 7.88430924339876E-02 
1950	 5.47202785600123E-02 
1951	 3.48411788374486E-02 
1952	 3.23656072135999E-02 
1953	 5.91422163998093E-02 
1954	 7.45713205545767E-02 
1955	 0.049370917832186 
1956	 2.52822415304148E-02 
1957	 6.93872196603216E-03 
1958	 3.79196304160819E-03 
1959	 1.43421152788005E-02 
1960	 0.022382541971692 
1961	 2.12919352716835E-02 
1962	 1.83363205747317E-02 
1963	 1.60194906022072E-02 
1964	 1.02242240520178E-02 
1965	 6.63913986069592E-03 
1966	 4.34107340430252E-03 
1967	 1.74031877479537E-03 
1968	-1.15842253202233E-03 
1969	-7.96235670724057E-04 
1970	 1.09755898216707E-03 
1971	 3.55907286400632E-03 
1972	 4.66839591919976E-03 
1973	 4.91091238401501E-03 
1974	 5.49643286446898E-03 
1975	 3.5474587472256E-03 
1976	 2.39777438214989E-03 
1977	 3.43879561459739E-03 
1978	 1.65938283598383E-03 
1979	 6.95279673906071E-04 
1980	 2.60358650612806E-04 
1981	 1.32486638222643E-04 
1982	-1.17138071451881E-03 
1983	-4.92137173445766E-04 
1984	 8.82857957281826E-05 
1985	 1.41199411065904E-03 
1986	 3.01170619719654E-03 
1987	 3.0576167070136E-03 
1988	 2.97381937271078E-03 
1989	 2.62231887556662E-03 
1990	 1.96301040755122E-03 
1991	 1.35627768049614E-03 
1992	 2.17274789734289E-03 
1993	 3.97263872475886E-03 
1994	 4.58262083113204E-03 
1995	 4.88304652962143E-03 
1996	 4.39493179740311E-03 
1997	 3.33684657819044E-03 
1998	 3.32213644918586E-03 
1999	 1.81936915162141E-03 
2000	-7.42067457949603E-04 
2001	 4.81807515017334E-04 
2002	 4.59267363160932E-04 
2003	-2.5953438237584E-03 
2004	-9.85492829758461E-04 
2005	 1.97460935551599E-03 
2006	 4.37951314577864E-04 
2007	 2.34938100704508E-03 
2008	 7.01298558023927E-03 
2009	 8.40578860643662E-03 
2010	 7.30322240256235E-03 
2011	 5.95942957586218E-03 
2012	 3.06555639279087E-03 
2013	 8.02028538650879E-04 
2014	-1.37858871959831E-03 
2015	-2.19378575652177E-03 
2016	-1.21213341349115E-03 
2017	 1.02534247178482E-03 
2018	 2.85381259603585E-03 
2019	 3.02950334461205E-03 
2020	 3.74104683108591E-03 
2021	 2.81283116072894E-03 
2022	 1.41589528061218E-03 
2023	 2.41478994750283E-03 
2024	 2.26509416839683E-03 
2025	 1.23172141630915E-03 
2026	 1.05006414724782E-03 
2027	 1.32033226375191E-03 
2028	 9.3556118853017E-04 
2029	 1.29787999619471E-03 
2030	 1.84596218917896E-03 
2031	 1.91616011589742E-03 
2032	 1.83845111044297E-03 
2033	 9.53558588656325E-04 
2034	 4.87437876853594E-04 
2035	 1.2638984179236E-03 
2036	 1.14273263131679E-03 
2037	 1.30719691802999E-03 
2038	 2.70077566110911E-03 
2039	 2.97083551812138E-03 
2040	 2.52189470959652E-03 
2041	 2.32844051326388E-03 
2042	 1.19328423423688E-03 
2043	 1.08773281556196E-03 
2044	 1.57633028533339E-03 
2045	 2.22997751121423E-03 
2046	 2.2197570288439E-03 
2047	 2.15735546540241E-03 
2048	 1.27665850098609E-03 
2049	 2.1035594255497E-04 
2050	 5.35487483825625E-04 
2051	 8.1085122665331E-04 
2052	-5.86457393521045E-05 
2053	-8.95160695789805E-04 
2054	-5.42075903075374E-04 
2055	 5.52433275750671E-04 
2056	 1.05211477039012E-03 
2057	 2.17223720074069E-03 
2058	 3.1514554833121E-03 
2059	 3.79742500955672E-03 
2060	 3.74380897367699E-03 
2061	 3.59430698623514E-03 
2062	 3.50761016793617E-03 
2063	 3.03479466134981E-03 
2064	 1.83280431969591E-03 
2065	 1.82459560078548E-03 
2066	 2.36662872563397E-03 
2067	 1.72731203649721E-03 
2068	 1.78569711249537E-03 
2069	 2.71669941171531E-03 
2070	 3.15009853521125E-03 
2071	 2.48319796613778E-03 
2072	 1.92259933523172E-03 
2073	 1.88469409432366E-03 
2074	 1.24656279462304E-03 
2075	 1.23406442030908E-03 
2076	 2.58568333820816E-03 
2077	 2.6927487070556E-03 
2078	 2.2004476733225E-03 
2079	 1.94205864751649E-03 
2080	 1.26658929792212E-03 
2081	 8.94237888932187E-04 
2082	 1.6245931557684E-03 
2083	 2.28339594222737E-03 
2084	 3.05238480764861E-03 
2085	 3.59655719234649E-03 
2086	 3.50881105788277E-03 
2087	 3.10524420136752E-03 
2088	 2.66095217586864E-03 
2089	 2.53207964611691E-03 
2090	 2.89419344053648E-03 
2091	 2.84126896288218E-03 
2092	 2.42908568708114E-03 
2093	 1.91537528115413E-03 
2094	 1.62792460362586E-03 
2095	 5.03836425825871E-04 
2096	 2.28778314500791E-04 
2097	 9.04332879177775E-04 
2098	 9.70926225785537E-04 
2099	 9.29567373484725E-04 
2100	 1.16240205634329E-03 
2101	 7.50685204134221E-04 
2102	 6.50588527845181E-04 
2103	 6.05284150937725E-04 
2104	 8.58506998853201E-04 
2105	 1.19069430678712E-03 
2106	 5.90209936926116E-04 
2107	 5.27633769886697E-04 
2108	 7.07766990709919E-04 
2109	 7.03937019600044E-04 
2110	 9.85826606682232E-04 
2111	 1.64377126028692E-03 
2112	 1.64285489166678E-03 
2113	 1.21435854167526E-03 
2114	 1.69899111454881E-04 
2115	 1.80826691050312E-04 
2116	 3.21889583684568E-04 
2117	 3.60975232544965E-04 
2118	 9.59308698144038E-04 
2119	 1.63676154469771E-03 
2120	 2.63590663788418E-03 
2121	 2.03963517609291E-03 
2122	 1.46606374244311E-03 
2123	 1.74375846004649E-03 
2124	 1.75990926870864E-03 
2125	 2.11824606524733E-03 
2126	 2.75547747714274E-03 
2127	 2.7709728653201E-03 
2128	 1.39119145388425E-03 
2129	-5.71070821990225E-05 
2130	 5.01866357477446E-04 
2131	 1.75189688545239E-03 
2132	 2.04747541716809E-03 
2133	 1.84225664565687E-03 
2134	 1.75211756400573E-03 
2135	 1.16180588959356E-04 
2136	 2.56988952434088E-04 
2137	 2.41789850257164E-03 
2138	 2.57496158538102E-03 
2139	 2.27590981539633E-03 
2140	 1.79554347053179E-03 
2141	-4.89797799353134E-04 
2142	-1.16932651308843E-03 
2143	-1.06529050531752E-03 
2144	-7.29081922025825E-04 
2145	-3.05072571927627E-04 
2146	 6.1417583927488E-04 
2147	 1.47672124641734E-03 
2148	 2.15941687864516E-03 
2149	 2.21918204480759E-03 
2150	 2.6494283738965E-03 
2151	 2.79527716170827E-03 
2152	 1.37076295483302E-03 
2153	 1.04820950811754E-03 
2154	 2.15853165678916E-03 
2155	 1.99130977136175E-03 
2156	 1.12744075171238E-03 
2157	 9.26329552335098E-04 
2158	 2.62691269093827E-04 
2159	-1.19436488074718E-04 
2160	 2.71007735384443E-04 
2161	 7.94019314929816E-04 
2162	 1.48866919873287E-03 
2163	 1.4746954276919E-03 
2164	 1.3377274125843E-03 
2165	 1.51710655991506E-03 
2166	 1.3190915737689E-03 
2167	 1.07112664729349E-03 
2168	 9.47134331369219E-04 
2169	 1.07070372704944E-03 
2170	 1.01588797087887E-03 
2171	 1.15187731381436E-03 
2172	 1.68558645350097E-03 
2173	 1.95197446165439E-03 
2174	 1.77814401202148E-03 
2175	 1.85671193426673E-03 
2176	 2.79553106234458E-03 
2177	 3.95272341602137E-03 
2178	 3.94457735432052E-03 
2179	 2.44449881265322E-03 
2180	 4.34105668132635E-04 
2181	-6.1731658896252E-04 
2182	-1.22148226245198E-03 
2183	-1.19100057419826E-03 
2184	-5.35806526032041E-04 
2185	 1.05611482444622E-04 
2186	 7.0042644079946E-04 
2187	 2.07059951630602E-03 
2188	 2.35291217294592E-03 
2189	 1.38501603072525E-03 
2190	 1.18136870076933E-03 
2191	 1.7799287356242E-03 
2192	 1.38904156040555E-03 
2193	-6.2998335051041E-04 
2194	-6.43945606622997E-04 
2195	-8.2670714885131E-05 
2196	-2.71136515907776E-04 
2197	 1.70021072762867E-03 
2198	 3.05102957830037E-03 
2199	 3.67454979188276E-03 
2200	 2.51284441221923E-03 
2201	 2.84882395204871E-03 
2202	 3.28356990275408E-03 
2203	 2.22702007920282E-03 
2204	-7.40037630501661E-04 
2205	-1.28121625617743E-03 
2206	-1.08093709270134E-03 
2207	-2.49691673283527E-03 
2208	-7.02970313415132E-04 
2209	 4.66798942788205E-05 
2210	-8.09573131200076E-04 
2211	 2.07897274823334E-03 
2212	 2.75149976055755E-03 
2213	 1.53002833238327E-03 
2214	 2.3277816137273E-03 
2215	 5.45921420709986E-04 
2216	-6.7485405073461E-04 
2217	-8.22033029808104E-04 
2218	-8.71161993138607E-04 
2219	 2.71722358649554E-04 
2220	 4.20929608210028E-03 
2221	 4.44095622517102E-03 
2222	 3.80510520064937E-03 
2223	 3.11612059381787E-03 
2224	-1.02905763101602E-03 
2225	-1.88560917643108E-03 
2226	-2.52332282274039E-04 
2227	 6.28340744877915E-04 
2228	 3.04655859089138E-03 
2229	 3.71488085981715E-03 
2230	 2.76284544773461E-03 
2231	 2.96677765635295E-03 
2232	 2.80364408294067E-03 
2233	 2.75433401763033E-03 
2234	 3.63206733425695E-03 
2235	 4.75318146656701E-03 
2236	 3.32118538074784E-03 
2237	 7.56191064267354E-04 
2238	-1.86768008196399E-04 
2239	-7.512618616504E-04 
2240	 4.14282530708292E-04 
2241	 2.5414135859797E-03 
2242	 4.08316079458834E-03 
2243	 5.3585668438798E-03 
2244	 4.85947516400882E-03 
2245	 3.70803886821455E-03 
2246	 3.92726620709996E-03 
2247	 4.43237594362097E-03 
2248	 5.81591803639184E-03 
2249	 7.25763051359551E-03 
2250	 5.68758083255859E-03 
2251	 2.56442907706239E-03 
2252	-8.68588761128548E-05 
2253	-1.80512704655488E-03 
2254	-2.86947824150485E-03 
2255	-1.97311096279128E-03 
2256	-9.75163350996431E-04 
2257	-1.90527642729976E-03 
2258	-9.83096928404089E-04 
2259	-5.027243456913E-04 
2260	 4.95411158886871E-04 
2261	 0.00338097211584 
2262	 3.23158119186415E-03 
2263	 1.49204555979323E-03 
2264	 1.17565102969787E-03 
2265	-2.09463168052765E-03 
2266	-2.16327178091825E-03 
2267	 1.87675565824985E-03 
2268	 2.70434098111304E-03 
2269	 3.41403396912592E-03 
2270	 2.71352682526746E-03 
2271	-1.66346866292022E-03 
2272	-2.45243939222541E-03 
2273	-5.25628154064267E-04 
2274	-4.28341985013586E-04 
2275	-1.29159565188256E-04 
2276	 1.55203477446909E-03 
2277	 3.32836959037211E-03 
2278	 1.39902024594338E-03 
2279	-1.96470078958376E-03 
2280	-1.65715388938622E-03 
2281	-2.25947274246029E-03 
2282	-3.48732161592152E-03 
2283	-1.22021576525444E-03 
2284	 1.22406814209065E-03 
2285	 1.9930337836106E-03 
2286	 5.19207298133235E-03 
2287	 1.01004964141679E-02 
2288	 1.26471975231121E-02 
2289	 1.17748883752184E-02 
2290	 9.45446119044958E-03 
2291	 0.010053628370148 
2292	 8.76041601505428E-03 
2293	 4.55936627365088E-03 
2294	 2.56997768820111E-03 
2295	 1.46836552723644E-03 
2296	 2.81972270499415E-03 
2297	 6.28901282307991E-03 
2298	 7.82208754100308E-03 
2299	 4.84584693945105E-03 
2300	 2.10856121720641E-03 
2301	 1.0287637657844E-03 
2302	-1.33095979076156E-03 
2303	 1.23736507698477E-03 
2304	 3.04762361137922E-03 
2305	 2.88812346322173E-03 
2306	 4.96754945417218E-03 
2307	 1.96090948171624E-03 
2308	 3.00169083681687E-03 
2309	 7.82606475673109E-03 
2310	 6.46995829772254E-03 
2311	 5.16487762093506E-03 
2312	 3.4971220031476E-03 
2313	 5.82330580329588E-04 
2314	-2.15995991761892E-03 
2315	-2.00126274821949E-03 
2316	 2.83412824956806E-03 
2317	 2.02125242011915E-03 
2318	 5.06479751904767E-04 
2319	 5.43815747344318E-03 
2320	 6.51482041292591E-03 
2321	 7.63915079392935E-03 
2322	 1.06268433700847E-02 
2323	 6.00549992384406E-03 
2324	 3.07708156670031E-04 
2325	-3.90956522121077E-03 
2326	-3.0892791083227E-03 
2327	 1.77092757050237E-03 
2328	 2.8841092448265E-03 
2329	 5.65262480651763E-03 
2330	 3.68345581264509E-03 
2331	-1.3789466908304E-03 
2332	-5.95224144364733E-05 
2333	-2.88842543845777E-03 
2334	-8.77562308963464E-03 
2335	-7.89567425415321E-03 
2336	-9.38868679072202E-03 
2337	-8.30874521628756E-03 
2338	-1.72173829742238E-03 
2339	-2.01460309088515E-04 
2340	 1.79750738280838E-03 
2341	-1.35511314016415E-03 
2342	-5.05674945628025E-03 
2343	-2.40550292039773E-03 
2344	-5.72216490409516E-03 
2345	-4.3152983969377E-03 
2346	 2.05616842597199E-03 
2347	 3.97107748473346E-04 
2348	 9.53144835110433E-04 
2349	 4.39351225371652E-03 
2350	-1.43819285107021E-03 
2351	-9.42649565266556E-03 
2352	-6.13032218124608E-03 
2353	-8.46028002174796E-03 
2354	-1.63564496319772E-02 
2355	-1.93094719351317E-02 
2356	-2.80531998053578E-02 
2357	-2.78419874653587E-02 
2358	-2.22196228516521E-02 
2359	-2.20389773969442E-02 
2360	-1.57003787886606E-02 
2361	-1.69144931226555E-02 
2362	-1.27824517143245E-02 
2363	-0.003295873293251 
2364	-7.57226973830741E-03 
2365	-3.64659395241465E-03 
2366	-5.26496768652979E-03 
2367	-7.1824981097588E-03 
2368	-4.18174851693949E-03 
2369	-1.10008325637421E-02 
2370	-8.33518817394036E-03 
2371	 1.26831946082897E-02 
2372	 3.98761135231031E-02 
2373	 5.45288536892755E-02 
2374	 5.40274509979885E-02 
2375	 2.15155063000259E-02 
2376	 3.39836685961375E-03 
2377	 1.78662947202906E-02 
2378	-2.73804790237285E-04 
2379	-2.55305015415006E-02 
2380	-2.47360840559046E-02 
2381	-1.00885563363243E-02 
2382	 1.69978149131933E-02 
2383	 0.045907287141681 
2384	 8.09559433462978E-02 
2385	 7.35152420235261E-02 
2386	 3.10100009194739E-02 
2387	 1.46141578880366E-02 
2388	-2.30868093278101E-02 
2389	-4.50746596999205E-02 
2390	-6.49245949306889E-03 
2391	 3.52510786643338E-02 
2392	 0.028574137056862 
2393	-1.15280324550763E-02 
2394	-4.63333624941118E-02 
2395	-0.068505647464361 
2396	-6.32624544470328E-02 
2397	-5.23411689921324E-02 
2398	-5.49790427156929E-02 
2399	-5.43987328862563E-02 
2400	-2.09193512343905E-02 
2401	 4.89672478924916E-03 
2402	 1.03900342333449E-02 
2403	 3.84204977394323E-03 
2404	-5.34762428751566E-02 
2405	-7.29167064974431E-02 
2406	-5.99117559582989E-03 
2407	 1.46470003677543E-02 
2408	 1.35943024236729E-02 
2409	 1.2323514321441E-03 
2410	-5.41731770949369E-02 
2411	-4.49547133308738E-02 
2412	 1.32386225944999E-02 
2413	 9.70089423221012E-02 
2414	 0.105689437467816 
2415	 3.01497378105391E-02 
2416	 4.05734024920532E-02 
2417	 3.99510961864919E-02 
2418	 3.30328924100383E-02 
2419	 0.10322717308654 
2420	 7.95950918848413E-02 
2421	-0.050964623014223 
2422	-0.110028039780793 
2423	-0.1286002031527 
2424	-0.125005448889364 
2425	-6.19233563365195E-02 
2426	 2.18501332138957E-02 
2427	 6.90505518452424E-02 
2428	 9.11196625801176E-02 
2429	 6.86598975508881E-02 
2430	 5.93942420306435E-02 
2431	 3.83984633333317E-02 
2432	-0.106416953184397 
2433	-0.128226146484607 
2434	-6.05389813134287E-02 
2435	-6.48514632185457E-02 
2436	 4.41486266119119E-05 
2437	 3.76203447822453E-02 
2438	-0.019217860719268 
2439	 4.72236004614315E-02 
2440	 0.191834608139383 
2441	 0.214142117610799 
2442	 0.136646873474463 
2443	 0.056838776069535 
2444	 0.016050065075112 
2445	 1.07901233654394E-02 
2446	 4.15589779120985E-02 
2447	-0.426660152286341 
2448	-0.54461145042624 
2449	-0.179782421913757 
2450	-0.178860923801284 
2451	-0.160809023109589 
2452	-0.171498505485174 
2453	-0.747604046489716 
2454	-0.882349261912536 
2455	-0.32334054220445 
2456	-0.095085715272552 
2457	 0.108430579403697 
2458	 7.04354554212424E-02 
2459	-0.079332316051759 
2460	-0.26203123330428 
2461	-0.434162735908829 
2462	-0.25969680464549 
2463	-5.66261807385192E-02 
2464	 8.69692617741712E-03 
2465	-7.13788466164921E-04 
2466	-0.179047221969601 
2467	-0.229676936079162 
2468	-0.464818179650417 
2469	-0.882678211583936 
2470	-2.45348287358745 
2471	-0.895883457985115 
2472	-0.347225393154292 
2473	 0.244111227375702 
2474	 0.356155448654192 
2475	 0.270858218695369 
2476	 0.187225426321544 
2477	 4.46571963458621E-02 
2478	-0.664094043326816 
2479	-1.55011089317838 
2480	-31.5712909976647 
2481	-0.488021166747455 
2482	-0.373304870541003 
2483	-0.111157536245942 
2484	-0.488054698632205 
2485	-0.65699715814281 
2486	-0.873877266792582 
2487	 4.63131748332293 
2488	 0.188568361835712 
2489	 2.11728298806641 
2490	 12.5939449557896 
2491	 2.33844778700718 
2492	 7.72634595400073 
2493	-10.8802667223495 
2494	 3.24158573359715 
2495	 0.379673477482202 
2496	 0.114794477880571 
2497	 0.224793436519925 
2498	 0.629161986667714 
2499	 1.33219619085915 
2500	 1.27829753215641 
