Wavelength	rt0721algea_nearby_water00005.asd
350	 4.24979545786131E-02 
351	 4.24871230018759E-02 
352	 4.20116601414232E-02 
353	 4.20187041346396E-02 
354	 4.26649344374576E-02 
355	 4.20608244550925E-02 
356	 0.041995175712005 
357	 4.23468149377494E-02 
358	 4.24809049869115E-02 
359	 4.23443723566051E-02 
360	 4.18119023180151E-02 
361	 4.12026341918611E-02 
362	 0.041098773454602 
363	 4.17548649849077E-02 
364	 4.18198123170345E-02 
365	 4.10819182009539E-02 
366	 4.12731529010545E-02 
367	 4.13678948615036E-02 
368	 4.13452160094326E-02 
369	 4.13891612799892E-02 
370	 0.041518879206681 
371	 0.041448948920208 
372	 4.13261231939914E-02 
373	 4.14941442308827E-02 
374	 4.16426117832476E-02 
375	 4.15085666567001E-02 
376	 4.12903044042458E-02 
377	 4.17579412244832E-02 
378	 4.16756198537721E-02 
379	 4.17103680374715E-02 
380	 4.24023035193831E-02 
381	 4.25561059712853E-02 
382	 4.21349435793774E-02 
383	 4.18312985338216E-02 
384	 4.24405921450165E-02 
385	 4.28143352509697E-02 
386	 4.29040067894549E-02 
387	 4.28813943381597E-02 
388	 4.30306144466721E-02 
389	 4.28902010353708E-02 
390	 4.27812130525548E-02 
391	 4.30240632033417E-02 
392	 4.36699372644802E-02 
393	 4.37272290622605E-02 
394	 4.34592425120842E-02 
395	 4.35061312815773E-02 
396	 4.37004196591898E-02 
397	 4.36300949301342E-02 
398	 4.34980073423787E-02 
399	 4.39565919507593E-02 
400	 0.043871675122019 
401	 4.38430147869988E-02 
402	 4.42307539118248E-02 
403	 0.044287957916583 
404	 4.42504737014955E-02 
405	 4.43283209345472E-02 
406	 4.46167453002765E-02 
407	 4.45717407906274E-02 
408	 4.45496602506412E-02 
409	 4.46572945211967E-02 
410	 0.044712144420659 
411	 4.49225932118853E-02 
412	 4.50301286919517E-02 
413	 4.49390658486714E-02 
414	 0.04513513434079 
415	 4.52466853737737E-02 
416	 4.53133605101555E-02 
417	 4.55028339601035E-02 
418	 4.56899166711308E-02 
419	 4.58724025259103E-02 
420	 4.60460012328199E-02 
421	 0.046197720105669 
422	 4.63914916417303E-02 
423	 4.65998541501206E-02 
424	 4.67818659986588E-02 
425	 4.69003115789173E-02 
426	 4.71511884947125E-02 
427	 4.74308368391117E-02 
428	 4.75502240736291E-02 
429	 4.78678368955206E-02 
430	 4.80996119463059E-02 
431	 4.82241545964629E-02 
432	 4.85861688912327E-02 
433	 4.87769226396266E-02 
434	 4.89844987999241E-02 
435	 4.93567042461519E-02 
436	 4.95161465083131E-02 
437	 0.049767023410705 
438	 5.00958808177527E-02 
439	 5.03351252579563E-02 
440	 5.06404670790609E-02 
441	 5.08744482195032E-02 
442	 5.10303586433773E-02 
443	 0.051335491786184 
444	 0.051576986104757 
445	 5.18036587764287E-02 
446	 5.20785142416011E-02 
447	 5.22330640518273E-02 
448	 5.24057024405605E-02 
449	 5.26037612703057E-02 
450	 5.27434063594207E-02 
451	 5.29272465383619E-02 
452	 0.053074179886723 
453	 5.31504977583279E-02 
454	 5.32662326204538E-02 
455	 5.34115511436636E-02 
456	 5.35394684385842E-02 
457	 5.36075805385547E-02 
458	 5.36951374601109E-02 
459	 5.37479601916802E-02 
460	 5.37951866634955E-02 
461	 5.39425851380764E-02 
462	 5.39330541691101E-02 
463	 5.39874921629287E-02 
464	 5.42274391419321E-02 
465	 5.42362788213845E-02 
466	 5.42703457748655E-02 
467	 5.43789044629936E-02 
468	 5.44998903971046E-02 
469	 5.45280373125934E-02 
470	 5.46080766035264E-02 
471	 5.47534025044502E-02 
472	 5.47743515204813E-02 
473	 5.48373923036268E-02 
474	 5.49737604084475E-02 
475	 5.51542633909349E-02 
476	 5.52706313492452E-02 
477	 5.54124331307042E-02 
478	 5.55861917027258E-02 
479	 5.57467539643767E-02 
480	 5.59614901584275E-02 
481	 0.056167407231007 
482	 5.63303484155714E-02 
483	 5.65046017979723E-02 
484	 5.66735032291034E-02 
485	 0.056906860914195 
486	 5.72441499388152E-02 
487	 5.74121275111521E-02 
488	 5.76158884961662E-02 
489	 5.79365913415288E-02 
490	 5.83070622146399E-02 
491	 5.86080487077222E-02 
492	 5.88975089062665E-02 
493	 5.92505287231097E-02 
494	 5.96970882933179E-02 
495	 6.01175609908496E-02 
496	 6.04915780223309E-02 
497	 0.060862063023124 
498	 6.12956850097447E-02 
499	 0.061769264850796 
500	 6.22700718906536E-02 
501	 6.28193577853986E-02 
502	 6.33633135992107E-02 
503	 6.38880431629309E-02 
504	 6.44059220323471E-02 
505	 0.064957157019602 
506	 6.56026898442724E-02 
507	 6.62951958991806E-02 
508	 6.69104501760759E-02 
509	 6.75200156992571E-02 
510	 6.81700302011582E-02 
511	 6.88746879377392E-02 
512	 6.95969983479599E-02 
513	 7.02990616648501E-02 
514	 7.10287409323733E-02 
515	 7.18535334444533E-02 
516	 0.072705786422756 
517	 7.35860561287492E-02 
518	 7.44466861570592E-02 
519	 7.51836276023874E-02 
520	 7.58974844203039E-02 
521	 7.66413554105304E-02 
522	 7.74326960101723E-02 
523	 7.81997931181063E-02 
524	 7.89654518582611E-02 
525	 7.97158945762186E-02 
526	 0.080425342691859 
527	 8.12070219253665E-02 
528	 8.19593681407357E-02 
529	 8.26295154828347E-02 
530	 8.33185489021951E-02 
531	 8.40105721255363E-02 
532	 8.47041624039261E-02 
533	 8.53958547401606E-02 
534	 8.60781981452655E-02 
535	 8.67148181222116E-02 
536	 8.73279381732648E-02 
537	 8.79995424352404E-02 
538	 8.86164880970663E-02 
539	 8.92198800515131E-02 
540	 8.98690811134938E-02 
541	 0.090561706265458 
542	 9.12295053648518E-02 
543	 9.18455048915021E-02 
544	 9.24221522207917E-02 
545	 9.30359747865434E-02 
546	 9.36737261676688E-02 
547	 0.094303625191318 
548	 9.48826052213333E-02 
549	 9.54799440635853E-02 
550	 9.61171688578998E-02 
551	 9.67663602443813E-02 
552	 9.72237090908959E-02 
553	 9.77260684862113E-02 
554	 9.83263298961452E-02 
555	 9.88419830595056E-02 
556	 9.93736156332018E-02 
557	 9.98767685122373E-02 
558	 0.100298587620087 
559	 0.100680159394872 
560	 0.101033236886682 
561	 0.101384632984992 
562	 0.101762600747836 
563	 0.102112380608207 
564	 0.102384645324674 
565	 0.102580823631231 
566	 0.102796062454951 
567	 0.102994069993745 
568	 0.103151689797298 
569	 0.10325375387719 
570	 0.103313521458406 
571	 0.103391548705961 
572	 0.103500003965197 
573	 0.103596231093662 
574	 0.103661587282798 
575	 0.10369129844299 
576	 0.103700085688161 
577	 0.103746177347259 
578	 0.103799006521419 
579	 0.103817874685233 
580	 0.103769672092355 
581	 0.103759433783331 
582	 0.103709725743538 
583	 0.103593641236262 
584	 0.103523906052022 
585	 0.103362949928819 
586	 0.103082527958378 
587	 0.102737260884389 
588	 0.102621689173951 
589	 0.102472881213269 
590	 0.102232254447459 
591	 0.102081647776959 
592	 0.101862137416863 
593	 0.101640306735892 
594	 0.101465957726486 
595	 0.101182254927586 
596	 0.100896591863407 
597	 0.100573313957864 
598	 0.100129391435589 
599	 9.98226699429623E-02 
600	 9.95562947383505E-02 
601	 9.92839152855095E-02 
602	 9.91243105894051E-02 
603	 9.89871442754598E-02 
604	 9.88662660976119E-02 
605	 9.87817459890281E-02 
606	 9.87456452537807E-02 
607	 9.86827287753931E-02 
608	 9.86028093367163E-02 
609	 9.86022035728645E-02 
610	 9.85700512192073E-02 
611	 9.85049750769424E-02 
612	 9.84196616946337E-02 
613	 9.82831138751704E-02 
614	 9.82368638055646E-02 
615	 9.81874748343647E-02 
616	 9.79622827028963E-02 
617	 9.79683278731714E-02 
618	 9.79655726998558E-02 
619	 0.097821186452426 
620	 9.76840924815522E-02 
621	 9.75460919589862E-02 
622	 9.74549017145034E-02 
623	 9.74399729224917E-02 
624	 9.73967203396014E-02 
625	 9.72615261482827E-02 
626	 9.70874472194516E-02 
627	 9.70262590371182E-02 
628	 9.69479435788592E-02 
629	 9.68636046157175E-02 
630	 0.0967931734244 
631	 9.67335073916678E-02 
632	 9.64648802405154E-02 
633	 9.61617674016284E-02 
634	 9.61043477910697E-02 
635	 9.57809241269807E-02 
636	 9.53977574896544E-02 
637	 9.50722113839128E-02 
638	 9.46914245071772E-02 
639	 9.42722911834196E-02 
640	 0.093858733410332 
641	 9.34770318088664E-02 
642	 9.30127994801952E-02 
643	 9.26436798371961E-02 
644	 9.23005796058963E-02 
645	 9.17324005883967E-02 
646	 9.11890851244503E-02 
647	 9.07929141752891E-02 
648	 0.090553994279481 
649	 9.02662543671131E-02 
650	 9.00634961608677E-02 
651	 8.98995939422435E-02 
652	 8.96885337413208E-02 
653	 0.089502002814809 
654	 8.92538575178011E-02 
655	 8.89554289458408E-02 
656	 8.87954847849271E-02 
657	 8.84987845088458E-02 
658	 8.81957531195537E-02 
659	 8.79773275207779E-02 
660	 8.75808293206928E-02 
661	 8.72662277944838E-02 
662	 8.70439756438729E-02 
663	 8.67736760448925E-02 
664	 0.086433082946172 
665	 8.61777822080265E-02 
666	 8.60434790506247E-02 
667	 8.58195141449506E-02 
668	 8.56392961170966E-02 
669	 8.54612777119605E-02 
670	 8.52444039531864E-02 
671	 8.52232748760522E-02 
672	 8.52166035628121E-02 
673	 8.51869052652917E-02 
674	 8.52423513937241E-02 
675	 8.52622262158419E-02 
676	 8.52802540742568E-02 
677	 8.53702582827236E-02 
678	 8.56485095752359E-02 
679	 0.085860427138702 
680	 8.61194175571388E-02 
681	 8.66483479655635E-02 
682	 8.71292135878886E-02 
683	 8.77639618996281E-02 
684	 8.85687510944309E-02 
685	 0.089326597248196 
686	 9.04116070844268E-02 
687	 9.15931556140364E-02 
688	 9.25583704355152E-02 
689	 9.37298887444499E-02 
690	 9.48235277046744E-02 
691	 9.58335761283571E-02 
692	 9.69164575715748E-02 
693	 9.79519689253707E-02 
694	 9.90512893471646E-02 
695	 0.100162900895999 
696	 0.10107230075183 
697	 0.101784541797755 
698	 0.102417778913003 
699	 0.103034427562741 
700	 0.103477414696896 
701	 0.103972906278199 
702	 0.104461868147258 
703	 0.10468659930735 
704	 0.104860733865969 
705	 0.104945170773121 
706	 0.104881285164628 
707	 0.104657908702787 
708	 0.104341682968998 
709	 0.103903776445853 
710	 0.103295053702209 
711	 0.10257562845227 
712	 0.101696085420553 
713	 0.100657285406702 
714	 9.94902479939811E-02 
715	 9.82502704796976E-02 
716	 9.68571450303152E-02 
717	 9.53248613104236E-02 
718	 9.36858986256454E-02 
719	 9.22263417220975E-02 
720	 9.09947576001275E-02 
721	 8.96562302751974E-02 
722	 8.82326872793924E-02 
723	 0.086514425789432 
724	 8.46713175763067E-02 
725	 8.28920037512164E-02 
726	 8.11666713975966E-02 
727	 7.91348653772467E-02 
728	 7.66636129264985E-02 
729	 7.43979753762583E-02 
730	 7.19846113915718E-02 
731	 6.96267937807203E-02 
732	 6.75924828286309E-02 
733	 6.59121467407605E-02 
734	 6.44130053865046E-02 
735	 6.30412346252258E-02 
736	 6.18795964385005E-02 
737	 6.10882912237559E-02 
738	 6.05465991364233E-02 
739	 6.01209575984448E-02 
740	 5.98325048289769E-02 
741	 5.96256182049208E-02 
742	 5.94737332378163E-02 
743	 5.93684177846554E-02 
744	 0.05932749698564 
745	 5.92958172951504E-02 
746	 5.92458123488036E-02 
747	 5.91954759729108E-02 
748	 5.91761765169952E-02 
749	 5.91510630334802E-02 
750	 5.91004618751373E-02 
751	 5.91238281236433E-02 
752	 5.91285957333698E-02 
753	 5.91068267920827E-02 
754	 5.90992766393241E-02 
755	 5.91193782528612E-02 
756	 5.91345108632919E-02 
757	 5.91298836053373E-02 
758	 5.91187820460269E-02 
759	 5.93091842780048E-02 
760	 5.94925529484548E-02 
761	 5.92511834502884E-02 
762	 5.90348390109161E-02 
763	 5.92250379694237E-02 
764	 5.94997516712201E-02 
765	 0.059499002248335 
766	 5.96769471880753E-02 
767	 5.98931210569032E-02 
768	 0.060060749526379 
769	 6.01461429096192E-02 
770	 6.03053394780879E-02 
771	 6.05530424452858E-02 
772	 6.08325141591392E-02 
773	 6.09799432793634E-02 
774	 6.11854550075143E-02 
775	 6.14852110020666E-02 
776	 0.061827931868749 
777	 6.20873493743251E-02 
778	 0.062344182882008 
779	 6.26486197064598E-02 
780	 0.063004240594271 
781	 6.34277836490088E-02 
782	 6.38470474557668E-02 
783	 6.42078038268479E-02 
784	 0.06452858303026 
785	 6.48493437994769E-02 
786	 6.52151221713241E-02 
787	 6.56513048643966E-02 
788	 6.60929455976922E-02 
789	 6.65816263958834E-02 
790	 6.70565430847602E-02 
791	 0.067409529094668 
792	 0.067876722429351 
793	 6.84630102419489E-02 
794	 6.90251226483672E-02 
795	 6.92129529907763E-02 
796	 6.96529191347356E-02 
797	 7.01467243155662E-02 
798	 7.04264105906011E-02 
799	 7.07711494537081E-02 
800	 7.10647523089719E-02 
801	 7.12892556600616E-02 
802	 7.15040480157633E-02 
803	 7.18383084764565E-02 
804	 7.21708562349041E-02 
805	 7.23426932133525E-02 
806	 7.22060379372686E-02 
807	 7.21968771199423E-02 
808	 7.21469367827471E-02 
809	 0.071917513386865 
810	 7.17882490683542E-02 
811	 7.14289850231663E-02 
812	 7.09252332166135E-02 
813	 7.05080568608002E-02 
814	 7.00277310162541E-02 
815	 6.96044188190268E-02 
816	 6.91872911924498E-02 
817	 6.85923765019639E-02 
818	 6.78635738269537E-02 
819	 6.72136165044088E-02 
820	 6.65867545785735E-02 
821	 6.56333776210026E-02 
822	 6.42444143921716E-02 
823	 6.28152862169247E-02 
824	 6.15950507736622E-02 
825	 6.00635933071588E-02 
826	 5.81115924375777E-02 
827	 5.60514412262404E-02 
828	 5.43891499143798E-02 
829	 5.26171983947145E-02 
830	 5.09824880884184E-02 
831	 4.95368504141595E-02 
832	 4.82238494976964E-02 
833	 4.72230525059002E-02 
834	 4.65279691184819E-02 
835	 4.59459353547091E-02 
836	 4.51217038546569E-02 
837	 4.48448834508191E-02 
838	 4.46271664355809E-02 
839	 4.40682660010759E-02 
840	 4.37146676717917E-02 
841	 4.34074679334287E-02 
842	 4.32119606350839E-02 
843	 4.31536491947368E-02 
844	 4.27559362133211E-02 
845	 4.24217666555833E-02 
846	 4.21733945310675E-02 
847	 4.17764459794733E-02 
848	 4.14067506263397E-02 
849	 4.11498328295614E-02 
850	 4.10124751001689E-02 
851	 0.040905355624871 
852	 4.06140504456516E-02 
853	 4.02469378043069E-02 
854	 3.99450365124371E-02 
855	 3.97303378396401E-02 
856	 0.039529798220824 
857	 0.039300795644836 
858	 0.039047083497397 
859	 3.88985891759871E-02 
860	 3.87399130801865E-02 
861	 3.84761589172402E-02 
862	 3.80939426621148E-02 
863	 3.79711446092536E-02 
864	 3.77878507316309E-02 
865	 3.75167813649357E-02 
866	 3.74044685011137E-02 
867	 3.71694993223916E-02 
868	 3.68170492910381E-02 
869	 3.64871458684865E-02 
870	 3.64195482696042E-02 
871	 3.62891943047741E-02 
872	 3.59791372466711E-02 
873	 0.035540465532903 
874	 3.52704480725951E-02 
875	 3.51134434206434E-02 
876	 3.47804744416916E-02 
877	 3.41474694123808E-02 
878	 3.39248320387541E-02 
879	 3.37592413583145E-02 
880	 3.34412010210595E-02 
881	 3.29457151294218E-02 
882	 3.27749753763917E-02 
883	 0.032484555983516 
884	 3.21725349207135E-02 
885	 3.22512387589077E-02 
886	 3.18420040523604E-02 
887	 3.14470715055879E-02 
888	 3.12074284870874E-02 
889	 0.0307199583335 
890	 3.04671720537502E-02 
891	 3.04304941678753E-02 
892	 3.04113798248377E-02 
893	 3.00524914439698E-02 
894	 2.96303761166213E-02 
895	 2.93152703044502E-02 
896	 2.91842483553193E-02 
897	 2.91173314005316E-02 
898	 2.87022220725192E-02 
899	 2.83159596389599E-02 
900	 2.83452164275262E-02 
901	 2.82106955632808E-02 
902	 2.77266497763917E-02 
903	 2.72538700904514E-02 
904	 2.72352868805353E-02 
905	 2.74881834452714E-02 
906	 2.72716583789222E-02 
907	 2.66151428328799E-02 
908	 2.61241223126898E-02 
909	 2.56014410707963E-02 
910	 2.53516833526152E-02 
911	 2.54172767425929E-02 
912	 2.54956519287354E-02 
913	 2.46862298212464E-02 
914	 2.43682971052553E-02 
915	 0.024720256049218 
916	 2.43304282994169E-02 
917	 2.35728232255331E-02 
918	 0.02298429537994 
919	 2.27999960682181E-02 
920	 2.28315265751757E-02 
921	 0.022599662153526 
922	 2.22021445346529E-02 
923	 2.18516579772647E-02 
924	 2.17463319058211E-02 
925	 0.021150479551088 
926	 0.020611745096336 
927	 2.07959879060391E-02 
928	 2.11368304765632E-02 
929	 0.021006098077354 
930	 0.020367137752306 
931	 1.97853279759059E-02 
932	 2.02830344104997E-02 
933	 1.93408899259191E-02 
934	 1.89453089861355E-02 
935	 2.17759771445824E-02 
936	 2.30745110923397E-02 
937	 2.05271425857837E-02 
938	 1.86902767157628E-02 
939	 2.11794936645478E-02 
940	 0.021364132484599 
941	 0.021092248180084 
942	 1.97158891525921E-02 
943	 1.69119080300593E-02 
944	 2.19053267691969E-02 
945	 2.39096508202193E-02 
946	 2.13807728531702E-02 
947	 1.95075984286858E-02 
948	 2.01687763302519E-02 
949	 2.03590807376479E-02 
950	 1.89844357183884E-02 
951	 1.69602107274829E-02 
952	 1.73884673134597E-02 
953	 1.81703812419346E-02 
954	 1.84818152528815E-02 
955	 1.84496602738398E-02 
956	 1.59565786132118E-02 
957	 1.54506152438954E-02 
958	 1.70484741493531E-02 
959	 1.76264294754746E-02 
960	 1.63605459414044E-02 
961	 1.74001106550743E-02 
962	 1.91468400666778E-02 
963	 1.71439893180672E-02 
964	 1.69054147164549E-02 
965	 1.69334838593204E-02 
966	 1.62138957524678E-02 
967	 1.48670485774898E-02 
968	 1.50111650585581E-02 
969	 1.64402013499513E-02 
970	 1.76463599867642E-02 
971	 1.68034531873989E-02 
972	 1.68845670249556E-02 
973	 0.017203071415705 
974	 1.72497579737023E-02 
975	 1.71884828590265E-02 
976	 1.79611407581655E-02 
977	 1.70722590266808E-02 
978	 1.58341791390755E-02 
979	 1.79085658570022E-02 
980	 1.72329575265245E-02 
981	 1.66186002474343E-02 
982	 1.68685453339339E-02 
983	 0.016676277742239 
984	 1.77637783226132E-02 
985	 1.78729578695763E-02 
986	 1.71737146728805E-02 
987	 1.76521415235577E-02 
988	 1.78265262225542E-02 
989	 1.70050324351627E-02 
990	 0.016263974601974 
991	 0.017328626752729 
992	 1.74952935621193E-02 
993	 1.78849280656811E-02 
994	 1.83141027486274E-02 
995	 1.77783332083577E-02 
996	 1.73222309296532E-02 
997	 1.71962338360597E-02 
998	 1.71885003529912E-02 
999	 1.68995100844706E-02 
1000	 1.62799365387187E-02 
1001	 1.34796365945586E-02 
1002	 1.34585624323727E-02 
1003	 1.34510246504261E-02 
1004	 1.35444713322507E-02 
1005	 1.35573646762926E-02 
1006	 1.33330945476373E-02 
1007	 1.35188473314086E-02 
1008	 1.38489697412254E-02 
1009	 0.013837608440206 
1010	 1.38544076387141E-02 
1011	 1.36345126880312E-02 
1012	 1.32763781916032E-02 
1013	 1.31944455285532E-02 
1014	 0.013243830148984 
1015	 1.36332043826252E-02 
1016	 0.013818156250881 
1017	 1.41132873240052E-02 
1018	 1.41911129577983E-02 
1019	 1.41454962674915E-02 
1020	 1.40032191152523E-02 
1021	 1.36811934894761E-02 
1022	 1.33933007404086E-02 
1023	 1.31485636587476E-02 
1024	 1.27804323159819E-02 
1025	 0.012877313729499 
1026	 1.34079893918378E-02 
1027	 1.37074284175219E-02 
1028	 1.44296611968968E-02 
1029	 1.45431400604606E-02 
1030	 1.41400099038427E-02 
1031	 1.40775371146862E-02 
1032	 1.39591537056145E-02 
1033	 1.38843685249352E-02 
1034	 1.39687055362344E-02 
1035	 1.39999643689243E-02 
1036	 1.39243313071661E-02 
1037	 1.38635448324278E-02 
1038	 1.38234092175276E-02 
1039	 1.38587117370884E-02 
1040	 1.38543646083154E-02 
1041	 1.39008361387102E-02 
1042	 1.40574003477335E-02 
1043	 1.44395053536604E-02 
1044	 1.45519844844892E-02 
1045	 1.46597026158479E-02 
1046	 1.46437626192457E-02 
1047	 0.014342261083327 
1048	 1.43030196821165E-02 
1049	 0.014351916663904 
1050	 0.014362768566659 
1051	 1.44708843418498E-02 
1052	 1.45318027567543E-02 
1053	 1.44671892822781E-02 
1054	 1.45271230534314E-02 
1055	 1.47866836746942E-02 
1056	 1.48815081764162E-02 
1057	 1.49295703886961E-02 
1058	 1.49532442050553E-02 
1059	 1.50078063316314E-02 
1060	 1.50225321982781E-02 
1061	 1.49377152900067E-02 
1062	 1.48352710118859E-02 
1063	 1.47636186648686E-02 
1064	 1.44376788169085E-02 
1065	 1.44377531351666E-02 
1066	 1.47007328589228E-02 
1067	 1.48901897811001E-02 
1068	 1.54688180201102E-02 
1069	 1.55263479422394E-02 
1070	 1.51267898060894E-02 
1071	 1.49853192315882E-02 
1072	 1.46880593747038E-02 
1073	 1.43388412965891E-02 
1074	 1.42512816729818E-02 
1075	 0.014551348132126 
1076	 1.45404555228663E-02 
1077	 1.43851085283591E-02 
1078	 1.43770720621919E-02 
1079	 0.014387976538899 
1080	 1.44061419292609E-02 
1081	 1.46547976829098E-02 
1082	 0.014596755884428 
1083	 1.41944010593771E-02 
1084	 1.40884875584514E-02 
1085	 1.40240345296276E-02 
1086	 1.39236840205694E-02 
1087	 1.39942817938349E-02 
1088	 1.40356120471561E-02 
1089	 0.014057779336602 
1090	 1.38768736576479E-02 
1091	 1.38281221735338E-02 
1092	 1.38854497046611E-02 
1093	 1.38424578271273E-02 
1094	 1.37260431522346E-02 
1095	 1.36682600491253E-02 
1096	 1.36233832350578E-02 
1097	 1.36469752452871E-02 
1098	 1.37352668240373E-02 
1099	 1.36853588253308E-02 
1100	 1.35318700433287E-02 
1101	 1.35372359428303E-02 
1102	 1.36550013538301E-02 
1103	 1.36870684611472E-02 
1104	 0.013986230595661 
1105	 0.01383615779842 
1106	 1.36693550740868E-02 
1107	 1.32597573420656E-02 
1108	 1.22585343164161E-02 
1109	 1.20621700601376E-02 
1110	 1.23605212873002E-02 
1111	 1.33644999523942E-02 
1112	 0.013652553461416 
1113	 1.49826567702282E-02 
1114	 1.50425650498893E-02 
1115	 1.24250212912433E-02 
1116	 1.19314111351255E-02 
1117	 1.26802774652013E-02 
1118	 1.30563626483877E-02 
1119	 1.61231827282644E-02 
1120	 1.72811331527804E-02 
1121	 1.65612455009052E-02 
1122	 1.32981201270814E-02 
1123	 0.014230445567096 
1124	 1.44384008581027E-02 
1125	 1.39121948119333E-02 
1126	 0.016837971719599 
1127	 0.01336745280949 
1128	 1.06173722774935E-02 
1129	 1.17052316730824E-02 
1130	 1.60444851834246E-02 
1131	 1.59826559355107E-02 
1132	 1.70412582332334E-02 
1133	 1.54338449295584E-02 
1134	 9.05395968374469E-03 
1135	 8.90183980905474E-03 
1136	 0.012215987674079 
1137	 1.23756962688244E-02 
1138	 1.31766943103562E-02 
1139	 1.29820734972027E-02 
1140	 1.25242692375734E-02 
1141	 1.26026458686019E-02 
1142	 1.28277906898748E-02 
1143	 1.34631310967056E-02 
1144	 1.29980383546689E-02 
1145	 1.14544790028647E-02 
1146	 0.011987076306545 
1147	 1.32371691903321E-02 
1148	 1.30910389675103E-02 
1149	 1.27902147192664E-02 
1150	 1.26653498339402E-02 
1151	 1.21095481550778E-02 
1152	 1.20921699012553E-02 
1153	 1.24264579873306E-02 
1154	 1.23808887447934E-02 
1155	 1.20294044433975E-02 
1156	 0.01263716404005 
1157	 1.26350866511724E-02 
1158	 1.18050166176361E-02 
1159	 1.14521028922131E-02 
1160	 1.10351060516095E-02 
1161	 1.07293458170211E-02 
1162	 1.13583370351128E-02 
1163	 1.18366930786283E-02 
1164	 1.17083537247947E-02 
1165	 1.15007906562945E-02 
1166	 1.11571033549575E-02 
1167	 1.11432814795637E-02 
1168	 1.13118582753684E-02 
1169	 1.12826007214812E-02 
1170	 1.14361580384354E-02 
1171	 1.14394796316925E-02 
1172	 1.11475858576694E-02 
1173	 1.10816314425443E-02 
1174	 1.10917694008914E-02 
1175	 1.11592802961021E-02 
1176	 1.12687037120516E-02 
1177	 1.12920213844677E-02 
1178	 1.11943501159191E-02 
1179	 0.011285256604174 
1180	 1.12514150509156E-02 
1181	 1.09513748884785E-02 
1182	 1.11340315208725E-02 
1183	 1.14123671314725E-02 
1184	 1.11650449237728E-02 
1185	 1.11406988891967E-02 
1186	 1.12653262830208E-02 
1187	 1.09735201708131E-02 
1188	 1.09009438508159E-02 
1189	 1.12512724898174E-02 
1190	 1.13892453830357E-02 
1191	 1.10659621542342E-02 
1192	 1.09411993924502E-02 
1193	 1.07822039803456E-02 
1194	 1.10176364917318E-02 
1195	 1.11149875469714E-02 
1196	 0.011115653738747 
1197	 1.13560308978173E-02 
1198	 1.11480781613499E-02 
1199	 1.06653870308284E-02 
1200	 1.08332492559979E-02 
1201	 1.12399584386643E-02 
1202	 1.13574773447334E-02 
1203	 1.13320661861178E-02 
1204	 1.11925659768689E-02 
1205	 1.10785386786802E-02 
1206	 1.10572408585901E-02 
1207	 1.10464610803727E-02 
1208	 1.11618432112176E-02 
1209	 1.11923896751378E-02 
1210	 1.12050849698239E-02 
1211	 1.15370827613064E-02 
1212	 1.16344172170636E-02 
1213	 1.14410909742006E-02 
1214	 1.13546388348245E-02 
1215	 0.011128469141077 
1216	 1.08326880593554E-02 
1217	 1.09173354116835E-02 
1218	 1.13040218258656E-02 
1219	 1.13999687430746E-02 
1220	 1.12211796253494E-02 
1221	 1.11084393174418E-02 
1222	 0.010937881340088 
1223	 1.08164491264058E-02 
1224	 1.10219218680204E-02 
1225	 1.11145603963867E-02 
1226	 1.10035213917316E-02 
1227	 1.10621139674767E-02 
1228	 1.11520964485517E-02 
1229	 0.011092699249355 
1230	 1.11362614966554E-02 
1231	 0.011354082706987 
1232	 0.011375393732328 
1233	 1.11338387446558E-02 
1234	 1.11025801282287E-02 
1235	 1.11912887981308E-02 
1236	 1.12507691910321E-02 
1237	 1.11622356020913E-02 
1238	 1.12154174336027E-02 
1239	 1.13230069507298E-02 
1240	 1.10498553549868E-02 
1241	 1.08402040544599E-02 
1242	 1.09193611512591E-02 
1243	 1.10096270550731E-02 
1244	 1.10804960964894E-02 
1245	 1.12124002883672E-02 
1246	 0.011341470552722 
1247	 1.12916867869793E-02 
1248	 1.12124016367525E-02 
1249	 1.11972835647283E-02 
1250	 1.11175877549394E-02 
1251	 1.10209498641421E-02 
1252	 1.09268950772281E-02 
1253	 1.10188549704955E-02 
1254	 0.011282411147688 
1255	 1.12306150788614E-02 
1256	 1.12083155515815E-02 
1257	 1.10692540587891E-02 
1258	 1.10447771124653E-02 
1259	 1.10912324662376E-02 
1260	 1.10993394389216E-02 
1261	 1.10410398057938E-02 
1262	 1.10503750337553E-02 
1263	 1.09865423311334E-02 
1264	 0.011099163072106 
1265	 1.12939684170657E-02 
1266	 1.13199173824938E-02 
1267	 1.11506292208579E-02 
1268	 0.011069868142985 
1269	 1.11642398306323E-02 
1270	 1.11693677759687E-02 
1271	 1.10318660001678E-02 
1272	 1.10428616678571E-02 
1273	 1.11393799051044E-02 
1274	 1.10664833915209E-02 
1275	 0.011037402106824 
1276	 1.10830550114146E-02 
1277	 1.10016612039965E-02 
1278	 1.09463012841534E-02 
1279	 1.09438302944562E-02 
1280	 1.10428120826665E-02 
1281	 1.10871160141745E-02 
1282	 1.09910168569553E-02 
1283	 1.09840135775404E-02 
1284	 0.011144511079646 
1285	 1.11033286045051E-02 
1286	 1.09549153137865E-02 
1287	 1.09244789281947E-02 
1288	 1.07043998600841E-02 
1289	 0.010735852532174 
1290	 1.10586184479276E-02 
1291	 1.11608429231334E-02 
1292	 1.09944920110412E-02 
1293	 1.11784711180623E-02 
1294	 0.011060413644819 
1295	 1.06864930810521E-02 
1296	 1.08354227522305E-02 
1297	 1.10415459445119E-02 
1298	 1.07602384721126E-02 
1299	 1.05971899445024E-02 
1300	 1.06643742790642E-02 
1301	 1.04860472790405E-02 
1302	 1.05110436333775E-02 
1303	 1.08723832546002E-02 
1304	 0.010967759300071 
1305	 1.08910123774052E-02 
1306	 1.08184070798531E-02 
1307	 1.05981793424065E-02 
1308	 1.05306628508347E-02 
1309	 0.01050283158629 
1310	 1.04621601764752E-02 
1311	 1.05289776055785E-02 
1312	 1.06368810966248E-02 
1313	 1.08591082392143E-02 
1314	 1.07543070459092E-02 
1315	 1.02316632180314E-02 
1316	 1.02252690465472E-02 
1317	 1.05199438050788E-02 
1318	 1.04882998073095E-02 
1319	 1.06494897180481E-02 
1320	 1.08402746426098E-02 
1321	 1.09566769050864E-02 
1322	 0.010419447589097 
1323	 9.9456102089631E-03 
1324	 9.94181057160494E-03 
1325	 9.9050191152344E-03 
1326	 9.87498693619066E-03 
1327	 1.04164549107424E-02 
1328	 1.08759105912374E-02 
1329	 1.05263378698075E-02 
1330	 1.01483182566895E-02 
1331	 1.00753511277951E-02 
1332	 9.83536869718568E-03 
1333	 9.17243823699974E-03 
1334	 8.46109477093375E-03 
1335	 8.60457053069926E-03 
1336	 9.50610711319536E-03 
1337	 9.58819341108681E-03 
1338	 1.00149585534956E-02 
1339	 1.02774656909225E-02 
1340	 9.71314764940717E-03 
1341	 9.52942015475386E-03 
1342	 9.91842743426185E-03 
1343	 1.02798930136094E-02 
1344	 0.010214263150806 
1345	 9.93111449916898E-03 
1346	 1.05774910292557E-02 
1347	 1.08786402913759E-02 
1348	 8.52525976911999E-03 
1349	 8.20814848492224E-03 
1350	 1.16522049564371E-02 
1351	 0.013990778414124 
1352	 1.89252173805079E-02 
1353	 0.026155434430081 
1354	 2.88446344693293E-02 
1355	 4.55294577202741E-02 
1356	 6.65583916422728E-02 
1357	 6.34318586544965E-02 
1358	 6.53478119344179E-02 
1359	 4.49745846072645E-02 
1360	 2.25141380812259E-02 
1361	 4.92082622135253E-02 
1362	 0.163381423759472 
1363	 0.314005352481825 
1364	 0.364766682196898 
1365	 0.400516972853538 
1366	 0.40137701948514 
1367	 0.254226007492698 
1368	 0.192518015505839 
1369	 0.137041082331204 
1370	 0.140377393093562 
1371	 0.256432212153359 
1372	 0.20654321090475 
1373	 9.78289174207921E-02 
1374	 5.84243186595261E-02 
1375	-0.155983658275549 
1376	-0.164950101906372 
1377	 0.186666965086738 
1378	 0.268941088122201 
1379	 0.254366346040535 
1380	 0.328710192865902 
1381	 0.250643818246259 
1382	 0.257692945204592 
1383	 0.578855509518768 
1384	 0.782177397610447 
1385	 0.508183734775987 
1386	 0.574443340471106 
1387	 1.02390146622 
1388	 0.995156692099917 
1389	 1.0161183967563 
1390	 0.96369021304509 
1391	 0.34914438146218 
1392	-7.03657117444044E-02 
1393	 0.152041880818769 
1394	 0.29507960230327 
1395	 0.270426260556544 
1396	 0.420226779005611 
1397	 0.41535845483485 
1398	-3.89954401516859E-02 
1399	-1.75385538821111E-02 
1400	 0.178072149674818 
1401	-3.78690265453115E-02 
1402	-7.26618694173987E-02 
1403	 0.267818575050817 
1404	 0.243561293695371 
1405	 0.207561187127098 
1406	 0.34164925500101 
1407	 0.285907472008979 
1408	-0.039025939387491 
1409	-2.78870006303717E-02 
1410	 0.158608458239785 
1411	 0.139690670092037 
1412	 6.06349238169137E-02 
1413	 7.74505560564177E-02 
1414	 0.105695068187804 
1415	 7.42105406382032E-02 
1416	 4.24358850583539E-02 
1417	 7.01370184402891E-02 
1418	 9.41091228112886E-02 
1419	 6.09011502531476E-02 
1420	 5.15070667882294E-02 
1421	 4.93057032580161E-02 
1422	 5.28618653322564E-03 
1423	-3.72787505936069E-03 
1424	 2.03184705477686E-02 
1425	 2.82127161495189E-02 
1426	 0.027130882492163 
1427	 2.66263815424076E-02 
1428	 2.78967647001316E-02 
1429	 2.88044947044931E-02 
1430	 2.92159720238837E-02 
1431	 2.75095153818326E-02 
1432	 2.57873129361655E-02 
1433	 2.73915733908819E-02 
1434	 2.85534321881728E-02 
1435	 2.52869625579245E-02 
1436	 2.27123851460612E-02 
1437	 1.93967816956268E-02 
1438	 1.96437950759873E-02 
1439	 2.82699105860297E-02 
1440	 2.89999494475244E-02 
1441	 2.46101672754069E-02 
1442	 2.07499571674416E-02 
1443	 1.55569839808849E-02 
1444	 1.63624534628872E-02 
1445	 1.60863458139355E-02 
1446	 1.16580026062726E-02 
1447	 9.23473186549802E-03 
1448	 8.92077271730326E-03 
1449	 9.8101842017171E-03 
1450	 8.1074887309738E-03 
1451	 5.86494307044404E-03 
1452	 6.47979808244559E-03 
1453	 6.95450683673281E-03 
1454	 7.18548073505011E-03 
1455	 9.10614882226856E-03 
1456	 9.31272703499019E-03 
1457	 7.96891848936952E-03 
1458	 7.91856983363881E-03 
1459	 8.56597957070297E-03 
1460	 8.53426329368803E-03 
1461	 8.3796470579501E-03 
1462	 7.82733036029884E-03 
1463	 6.5664171793595E-03 
1464	 6.51478804860927E-03 
1465	 6.47639519246286E-03 
1466	 6.69641009637976E-03 
1467	 8.62580243418681E-03 
1468	 9.03535425021351E-03 
1469	 8.44566288767176E-03 
1470	 8.22096352096146E-03 
1471	 7.33774244427825E-03 
1472	 7.18831925738606E-03 
1473	 7.54739169308411E-03 
1474	 7.66041861293564E-03 
1475	 8.16904787035561E-03 
1476	 8.33922164584278E-03 
1477	 7.90701295155492E-03 
1478	 7.5197020101538E-03 
1479	 7.3051880599781E-03 
1480	 7.37732419842022E-03 
1481	 7.3099958433581E-03 
1482	 7.59173292729774E-03 
1483	 8.33223151758343E-03 
1484	 8.31526480992449E-03 
1485	 8.27236464794527E-03 
1486	 8.12302128338777E-03 
1487	 7.53794995951031E-03 
1488	 7.34045506235737E-03 
1489	 0.007318219075038 
1490	 7.08591896328061E-03 
1491	 6.86058448411985E-03 
1492	 6.82672612755587E-03 
1493	 6.67874753305473E-03 
1494	 6.63647429938568E-03 
1495	 6.91118545437255E-03 
1496	 6.93306229852515E-03 
1497	 6.65727046450499E-03 
1498	 6.6287780138732E-03 
1499	 6.74629919623366E-03 
1500	 6.78186924863558E-03 
1501	 0.006920769029752 
1502	 6.95564110294662E-03 
1503	 6.77027896681496E-03 
1504	 6.75217880544176E-03 
1505	 6.68974652132797E-03 
1506	 6.93177531275059E-03 
1507	 7.03807088070213E-03 
1508	 6.8636354524927E-03 
1509	 6.85214114453469E-03 
1510	 6.91018131809251E-03 
1511	 6.73341676371052E-03 
1512	 6.76605510635211E-03 
1513	 6.94269560249374E-03 
1514	 6.98855802568253E-03 
1515	 7.11158548360705E-03 
1516	 7.18071408184331E-03 
1517	 7.06645840716569E-03 
1518	 6.93195894688402E-03 
1519	 7.05166765289374E-03 
1520	 7.20868603266312E-03 
1521	 7.02052462438348E-03 
1522	 6.9018876066893E-03 
1523	 7.01244063501648E-03 
1524	 7.13489414787902E-03 
1525	 7.28768254440022E-03 
1526	 7.22997089624257E-03 
1527	 7.02228730288444E-03 
1528	 6.99296713418391E-03 
1529	 7.15042604370416E-03 
1530	 7.44088100242448E-03 
1531	 7.49160106524832E-03 
1532	 7.33029136107399E-03 
1533	 7.42598616117392E-03 
1534	 7.41148545938249E-03 
1535	 7.17380250027653E-03 
1536	 7.17742938238329E-03 
1537	 7.15062097067434E-03 
1538	 7.00444836200346E-03 
1539	 7.13018959006018E-03 
1540	 7.32526006390046E-03 
1541	 7.42005065064657E-03 
1542	 7.46441827131888E-03 
1543	 7.37317307562708E-03 
1544	 7.38278889370888E-03 
1545	 7.63799952209147E-03 
1546	 7.73044197879817E-03 
1547	 7.59484172415336E-03 
1548	 7.59806668113654E-03 
1549	 7.48524263107179E-03 
1550	 7.21631293702855E-03 
1551	 7.38122148789015E-03 
1552	 7.74453225406541E-03 
1553	 7.68722998417782E-03 
1554	 7.55267448933486E-03 
1555	 7.7552177499318E-03 
1556	 7.88101068734904E-03 
1557	 7.91013041445492E-03 
1558	 8.02669560105282E-03 
1559	 7.82861502904117E-03 
1560	 7.57876701202755E-03 
1561	 7.63124673921167E-03 
1562	 7.61432759380285E-03 
1563	 7.69041783150167E-03 
1564	 7.90772250536106E-03 
1565	 7.86707036590898E-03 
1566	 7.76516204578637E-03 
1567	 7.74242370160094E-03 
1568	 7.67267975397308E-03 
1569	 7.64707698652157E-03 
1570	 0.007753048007455 
1571	 7.82687874158048E-03 
1572	 7.7720444839865E-03 
1573	 7.78452796057473E-03 
1574	 7.7865869961725E-03 
1575	 7.75292674893128E-03 
1576	 7.86482383004403E-03 
1577	 7.95877404673462E-03 
1578	 8.06649874786551E-03 
1579	 8.15900254820484E-03 
1580	 8.03935793431621E-03 
1581	 8.02065230083892E-03 
1582	 8.11756459979636E-03 
1583	 8.09096903590628E-03 
1584	 8.07235198387976E-03 
1585	 8.07278556346818E-03 
1586	 7.95507185491477E-03 
1587	 7.91208701077261E-03 
1588	 7.96796054170673E-03 
1589	 7.73932570345863E-03 
1590	 7.64038777098612E-03 
1591	 7.85810424257641E-03 
1592	 7.93573869576794E-03 
1593	 8.06682438724704E-03 
1594	 8.14085082632833E-03 
1595	 7.95895522986064E-03 
1596	 7.88210163407006E-03 
1597	 7.93922864854636E-03 
1598	 7.94041817364749E-03 
1599	 8.00277482636263E-03 
1600	 7.99440738706974E-03 
1601	 7.67648436492451E-03 
1602	 7.64647565010392E-03 
1603	 8.15826683899323E-03 
1604	 8.36054675933376E-03 
1605	 8.22764556184661E-03 
1606	 8.28163814655581E-03 
1607	 8.12080007183939E-03 
1608	 7.94746342823073E-03 
1609	 8.22777230809149E-03 
1610	 8.41437860086313E-03 
1611	 8.33084856258534E-03 
1612	 8.32162619893312E-03 
1613	 8.43601482303697E-03 
1614	 8.40019986447047E-03 
1615	 8.24624161615355E-03 
1616	 8.29869676835831E-03 
1617	 8.30953914920515E-03 
1618	 8.1280837312993E-03 
1619	 8.12291136335179E-03 
1620	 8.11217494514191E-03 
1621	 7.94960018041923E-03 
1622	 7.94942351426963E-03 
1623	 8.06333108179242E-03 
1624	 8.1387700683134E-03 
1625	 8.25610133953854E-03 
1626	 8.42595974524197E-03 
1627	 8.3664132699967E-03 
1628	 8.05040599031086E-03 
1629	 7.82896288285529E-03 
1630	 7.96743163287521E-03 
1631	 8.24648356123945E-03 
1632	 8.1829259569004E-03 
1633	 7.99251979525931E-03 
1634	 8.05401375567751E-03 
1635	 8.13084466037035E-03 
1636	 8.24242784671794E-03 
1637	 8.32733016185143E-03 
1638	 8.17826670751382E-03 
1639	 8.22919477902286E-03 
1640	 8.28675399350293E-03 
1641	 8.10120544448494E-03 
1642	 8.16392779440415E-03 
1643	 8.20475985037154E-03 
1644	 8.07358528596259E-03 
1645	 8.22319385529313E-03 
1646	 8.27913931536077E-03 
1647	 8.03099707652894E-03 
1648	 7.98647524022402E-03 
1649	 8.29593477076318E-03 
1650	 8.4698013874216E-03 
1651	 7.99985746930846E-03 
1652	 7.73977592952087E-03 
1653	 8.23686043103206E-03 
1654	 8.17704875082857E-03 
1655	 8.28463249141815E-03 
1656	 8.37315079457393E-03 
1657	 7.90627503399921E-03 
1658	 7.73044156775547E-03 
1659	 8.05676302974663E-03 
1660	 8.18165372325494E-03 
1661	 7.97359479589476E-03 
1662	 7.94663465549317E-03 
1663	 8.18501979123897E-03 
1664	 8.15842234778117E-03 
1665	 7.97386983648368E-03 
1666	 8.00179890413711E-03 
1667	 7.98745541964167E-03 
1668	 8.06148293959561E-03 
1669	 8.16259182518892E-03 
1670	 7.95646814682335E-03 
1671	 7.88772885157935E-03 
1672	 7.88101365818526E-03 
1673	 7.85761082138201E-03 
1674	 8.1939683156882E-03 
1675	 8.4108428750725E-03 
1676	 8.4135188577637E-03 
1677	 8.26986241157116E-03 
1678	 7.78350853478972E-03 
1679	 7.69475557284422E-03 
1680	 7.98094144698852E-03 
1681	 8.06592891387368E-03 
1682	 8.25642126671549E-03 
1683	 8.29573725075362E-03 
1684	 7.95213216057242E-03 
1685	 7.84696793568181E-03 
1686	 7.93245531082714E-03 
1687	 7.92140764240439E-03 
1688	 8.16472666672582E-03 
1689	 8.59604701877801E-03 
1690	 8.68134865134379E-03 
1691	 8.56679974703367E-03 
1692	 8.39172945685508E-03 
1693	 7.99620534114213E-03 
1694	 7.97524803220745E-03 
1695	 8.33037119668443E-03 
1696	 8.44238302697684E-03 
1697	 8.40751226340248E-03 
1698	 8.11800390608395E-03 
1699	 7.96089027115028E-03 
1700	 8.22191164971773E-03 
1701	 8.2878031974684E-03 
1702	 8.22609208016204E-03 
1703	 8.02677666244132E-03 
1704	 7.67647835439817E-03 
1705	 7.6690435363194E-03 
1706	 8.01086480363853E-03 
1707	 8.1520579959658E-03 
1708	 7.98714056008794E-03 
1709	 7.9463288063038E-03 
1710	 8.05753991156399E-03 
1711	 8.1429843246397E-03 
1712	 8.11328561893557E-03 
1713	 7.70881136141083E-03 
1714	 7.69803373763777E-03 
1715	 8.07260291657013E-03 
1716	 7.93415585032357E-03 
1717	 7.9764518875964E-03 
1718	 8.21645211308804E-03 
1719	 8.10268562155332E-03 
1720	 8.19873324057227E-03 
1721	 8.31236609444707E-03 
1722	 8.14548436962026E-03 
1723	 8.31855010361784E-03 
1724	 8.50397644456421E-03 
1725	 8.43261358537561E-03 
1726	 8.13574187354092E-03 
1727	 7.74305099109469E-03 
1728	 7.82898614263095E-03 
1729	 8.12520260542742E-03 
1730	 8.23667990600116E-03 
1731	 8.23675004239426E-03 
1732	 8.06070683270048E-03 
1733	 8.01840519466357E-03 
1734	 8.57251044640894E-03 
1735	 8.67308893910652E-03 
1736	 7.92936371223993E-03 
1737	 7.83794912678128E-03 
1738	 7.90536666042101E-03 
1739	 7.75521200054973E-03 
1740	 7.98653845927721E-03 
1741	 7.71927093265401E-03 
1742	 7.30766645176745E-03 
1743	 7.50611348454377E-03 
1744	 7.93984735207099E-03 
1745	 8.39094529994092E-03 
1746	 7.35510212642749E-03 
1747	 7.14683443576255E-03 
1748	 7.4608972041042E-03 
1749	 7.44574627578958E-03 
1750	 7.9263588117247E-03 
1751	 7.99495007213873E-03 
1752	 7.16299497460209E-03 
1753	 7.15181793953655E-03 
1754	 0.007619695854633 
1755	 7.52714238547547E-03 
1756	 0.007856153324546 
1757	 7.8731067280639E-03 
1758	 7.00137364280347E-03 
1759	 7.04315406584305E-03 
1760	 7.27920782199414E-03 
1761	 7.35565407054629E-03 
1762	 7.85140999403088E-03 
1763	 8.10613874496684E-03 
1764	 7.73019362765778E-03 
1765	 7.27165412425637E-03 
1766	 7.26607172745252E-03 
1767	 7.75279697729246E-03 
1768	 8.15440074152745E-03 
1769	 8.49189056331682E-03 
1770	 8.50909002937221E-03 
1771	 8.14490099180362E-03 
1772	 8.08615622442153E-03 
1773	 8.02058597967033E-03 
1774	 8.31368872561873E-03 
1775	 8.48050180572545E-03 
1776	 8.17033135440499E-03 
1777	 6.86105825185154E-03 
1778	 0.006824357710115 
1779	 8.08440489501534E-03 
1780	 8.05418432877609E-03 
1781	 8.28654209592535E-03 
1782	 8.29311829567144E-03 
1783	 6.14747923834746E-03 
1784	 5.34507446771546E-03 
1785	 6.04757653164756E-03 
1786	 6.06061049416264E-03 
1787	 6.0065204736493E-03 
1788	 7.02545283468402E-03 
1789	 8.56366746582819E-03 
1790	 9.33546052855751E-03 
1791	 1.00681439832064E-02 
1792	 8.73382723278325E-03 
1793	 9.53668922768115E-03 
1794	 1.29666026226873E-02 
1795	 1.42921675440718E-02 
1796	 1.24601000144208E-02 
1797	 1.33694806258436E-02 
1798	 8.40668295459057E-03 
1799	 8.15871476486488E-04 
1800	 5.15953662497907E-03 
1801	 6.6349464045324E-03 
1802	 1.82858934390654E-02 
1803	 2.47648075786218E-02 
1804	 1.80718383751551E-02 
1805	 2.31863425856456E-02 
1806	 3.28629845174505E-02 
1807	 4.50582559736719E-02 
1808	 8.36731171511092E-02 
1809	 9.88904045170487E-02 
1810	 8.42625471185371E-02 
1811	 0.072442241173083 
1812	-1.77217377725493E-02 
1813	-8.46289231547866E-03 
1814	 0.108535252646495 
1815	 0.179573741147424 
1816	 0.363950768331633 
1817	 0.444643768530677 
1818	 0.554166573967894 
1819	 0.330473808648702 
1820	 0.338095850408177 
1821	 0.363686493744914 
1822	 0.253060316835673 
1823	 0.336282140445023 
1824	 0.345111346270659 
1825	 3.82653064421366E-02 
1826	 3.81979121195176E-02 
1827	 0.45495221068577 
1828	 0.734819629621872 
1829	 1.02053591493774 
1830	 0.850871300177114 
1831	 1.11395798382255 
1832	 0.779269052732485 
1833	 7.30005542883809E-02 
1834	-1.89995958922435E-02 
1835	-0.254411843473517 
1836	-0.420466104373866 
1837	 0.478421008276248 
1838	 0.611114542753606 
1839	 0.106570840572266 
1840	 0.281120644015444 
1841	 0.552818454126433 
1842	 0.281061187927914 
1843	 0.279328267379237 
1844	 0.134305904028146 
1845	 0.487865055366577 
1846	-0.707494552857397 
1847	-0.671266169424029 
1848	 1.18496289071443 
1849	 0.356471062282603 
1850	 0.080075270398102 
1851	-0.536156239843343 
1852	-0.78471372833864 
1853	-1.74434578976858 
1854	 0.231816161191777 
1855	-0.549102395213391 
1856	-0.472078578937444 
1857	 5.75273600702846E-02 
1858	 8.33075513944608E-02 
1859	-0.130560131862106 
1860	-9.79116648417797E-02 
1861	-7.46783948939004 
1862	 3.01811104961935 
1863	 4.02100182232799 
1864	-16.1930215021543 
1865	-5.02650497545031 
1866	 3.8445138427314 
1867	 3.7901398208472 
1868	-0.200206259070812 
1869	 0.231783266657575 
1870	 9.92250472300639E-02 
1871	 0.19418284258723 
1872	 0.489571504755111 
1873	 0.928101593005601 
1874	 1.44713636769411 
1875	-9.27365687997798 
1876	-3.42399253046174 
1877	 0.273190135341067 
1878	 0.20005249405821 
1879	-0.240744817641943 
1880	-4.04471232452467E-02 
1881	 0.287769415879996 
1882	 0.198652306792036 
1883	 0.375023367120695 
1884	 1.01039976290407 
1885	 1.14869225116075 
1886	 1.88576155314419 
1887	-4.51568543195855 
1888	-2.19087234540826 
1889	-2.05955270625836 
1890	-2.31760917934682 
1891	-3.09015099604697 
1892	-0.571420531832424 
1893	-0.131852672051236 
1894	 0.154548696565772 
1895	 0.271638197624474 
1896	 0.343831911253189 
1897	 3.23867202597394E-02 
1898	-0.862625250495482 
1899	-0.696833036395735 
1900	-0.72068528514617 
1901	-0.53146680306898 
1902	-0.495208619185452 
1903	-0.502722305609456 
1904	-1.18324074822849 
1905	-5.21250187093516 
1906	 0.71222417935346 
1907	-0.703605929289138 
1908	 0.06742450752406 
1909	-12.0078910467457 
1910	 1.02209495411072 
1911	 0.259091236225473 
1912	 0.641881868621868 
1913	 0.735748661031043 
1914	 0.860710023237207 
1915	 1.14965669067959 
1916	-0.367147391447296 
1917	-0.197080575122773 
1918	 3.46096565595916 
1919	 1.52823495293913 
1920	-1.57767820292534 
1921	 0.231763463345412 
1922	 0.651737693275892 
1923	 0.395164837963435 
1924	 0.0664277311264 
1925	 5.01245258771139E-02 
1926	 6.24354865043412E-02 
1927	-8.65779706900257E-02 
1928	-0.440333739039458 
1929	-0.288313932559323 
1930	 0.233137518622577 
1931	 0.134993675464307 
1932	 0.409244714877231 
1933	 0.29459711480446 
1934	 0.110154091842277 
1935	 1.90023687493451E-04 
1936	-1.92095770007021E-02 
1937	 3.7557952798484E-03 
1938	 7.00920191274051E-02 
1939	 0.102252434384156 
1940	 0.121001978229753 
1941	 6.91935832226863E-02 
1942	 3.28468045549721E-02 
1943	 6.47298405820129E-02 
1944	 6.06534068883698E-02 
1945	 4.27083178986182E-02 
1946	 6.48585089155705E-02 
1947	 4.40365520242194E-02 
1948	-0.012288126516904 
1949	-3.33784603398436E-02 
1950	-1.89571032315436E-02 
1951	 9.06227392377635E-03 
1952	 1.16979495042888E-02 
1953	 1.74933359594782E-02 
1954	 2.01637898880414E-02 
1955	 2.11474306287964E-02 
1956	 6.70477301840739E-03 
1957	 1.30823369346551E-02 
1958	 2.28247628192506E-02 
1959	 1.77117260455136E-02 
1960	 1.56459812228936E-02 
1961	 1.01195914583178E-02 
1962	 8.59463215135655E-03 
1963	 7.83813694409589E-03 
1964	 2.40941348578615E-03 
1965	 1.33432563181143E-03 
1966	 1.69145705685858E-03 
1967	 2.51593683014942E-03 
1968	 3.30530635841722E-03 
1969	 5.37266728210737E-03 
1970	 5.62690026225362E-03 
1971	 5.65749662549208E-03 
1972	 5.80336769081427E-03 
1973	 4.50154525389745E-03 
1974	 4.0427162192776E-03 
1975	 4.25383387793053E-03 
1976	 3.53681013787071E-03 
1977	 4.04030678923654E-03 
1978	 5.25315641915269E-03 
1979	 5.19493952058195E-03 
1980	 4.25422836974581E-03 
1981	 4.02146854815244E-03 
1982	 4.02918023645563E-03 
1983	 3.27779309800914E-03 
1984	 3.5374024559046E-03 
1985	 3.49573235718835E-03 
1986	 2.98711725490581E-03 
1987	 2.94869136363341E-03 
1988	 2.89416399556879E-03 
1989	 3.15643287048645E-03 
1990	 2.95949269557212E-03 
1991	 3.0832171152134E-03 
1992	 4.28413326136811E-03 
1993	 5.03691667710275E-03 
1994	 5.19458618105865E-03 
1995	 5.21170785225793E-03 
1996	 5.00799940824524E-03 
1997	 4.7292849953456E-03 
1998	 3.42078673179766E-03 
1999	 3.19655520036591E-03 
2000	 5.23306899346721E-03 
2001	 5.1619024078492E-03 
2002	 6.68993949739109E-03 
2003	 9.74914300099445E-03 
2004	 9.65378621563512E-03 
2005	 8.39202862136904E-03 
2006	 6.16672415305683E-03 
2007	 4.59931595294404E-03 
2008	 1.83143775080761E-03 
2009	-7.01260583350318E-04 
2010	-4.17274913449051E-03 
2011	-4.09852396684532E-03 
2012	-3.08686816217319E-03 
2013	-9.28749169979259E-04 
2014	 2.28834018259097E-03 
2015	 4.34832261078261E-03 
2016	 4.9068555723454E-03 
2017	 4.43861749158876E-03 
2018	 3.21366105601447E-03 
2019	 2.82723094125917E-03 
2020	 2.95464406259985E-03 
2021	 1.95889127354634E-03 
2022	 1.88146976250519E-03 
2023	 0.002904933056542 
2024	 3.22990103462047E-03 
2025	 3.31194930488538E-03 
2026	 3.49386419593728E-03 
2027	 3.90487091487825E-03 
2028	 3.51832623712465E-03 
2029	 3.52499272624787E-03 
2030	 3.01515934731708E-03 
2031	 3.16815311846651E-03 
2032	 3.64770203449759E-03 
2033	 3.75878133876175E-03 
2034	 4.95195496027575E-03 
2035	 5.30184947052655E-03 
2036	 4.72040627374907E-03 
2037	 4.27827712242229E-03 
2038	 3.7455523173581E-03 
2039	 3.62915023061759E-03 
2040	 4.0765214309936E-03 
2041	 4.39904574699867E-03 
2042	 4.70468425957958E-03 
2043	 4.94645336327585E-03 
2044	 5.29343229954963E-03 
2045	 0.005487289948185 
2046	 5.59047736475517E-03 
2047	 5.92933155515295E-03 
2048	 5.5631274560584E-03 
2049	 5.39665142201107E-03 
2050	 4.78411500456278E-03 
2051	 4.19342623198828E-03 
2052	 4.93231546181834E-03 
2053	 5.50246440957183E-03 
2054	 5.73071771152296E-03 
2055	 5.93770569660754E-03 
2056	 5.75500411891644E-03 
2057	 4.45862476651269E-03 
2058	 4.21924880278275E-03 
2059	 4.13615995075842E-03 
2060	 4.14458468513866E-03 
2061	 4.94926088424619E-03 
2062	 0.004643770047217 
2063	 3.93095066898917E-03 
2064	 4.87945033446815E-03 
2065	 5.3613864467249E-03 
2066	 4.97238628037507E-03 
2067	 4.13132101959062E-03 
2068	 3.51617987927159E-03 
2069	 3.1916304935029E-03 
2070	 3.01734235535539E-03 
2071	 3.89872491354743E-03 
2072	 4.8324377191677E-03 
2073	 5.17412619012514E-03 
2074	 5.24030601842343E-03 
2075	 5.11836685825257E-03 
2076	 4.65272808849852E-03 
2077	 4.40690843742274E-03 
2078	 4.08846207711622E-03 
2079	 3.96240440237815E-03 
2080	 4.02641845189882E-03 
2081	 3.58279978786272E-03 
2082	 4.08714609260458E-03 
2083	 4.18510605207914E-03 
2084	 3.97584573574642E-03 
2085	 4.84379051970465E-03 
2086	 5.37723283802596E-03 
2087	 5.2904348873462E-03 
2088	 5.42030461810625E-03 
2089	 5.40253369796641E-03 
2090	 5.12556841398336E-03 
2091	 4.97750981896909E-03 
2092	 4.95707668721609E-03 
2093	 5.29457426863064E-03 
2094	 5.47000585292059E-03 
2095	 5.70654551728845E-03 
2096	 6.05630940342601E-03 
2097	 6.37268972108386E-03 
2098	 6.47092593965891E-03 
2099	 6.9050096887286E-03 
2100	 6.24637255479745E-03 
2101	 5.01413748699417E-03 
2102	 5.38018063027512E-03 
2103	 5.21001705729216E-03 
2104	 5.28790200032122E-03 
2105	 6.42548146488946E-03 
2106	 6.75497848254364E-03 
2107	 6.58098252248878E-03 
2108	 6.41666412271422E-03 
2109	 5.93986922886256E-03 
2110	 5.57335569372431E-03 
2111	 5.56619440349845E-03 
2112	 5.62755391015872E-03 
2113	 5.59015091234007E-03 
2114	 5.45790223367121E-03 
2115	 5.41916794331539E-03 
2116	 5.37391468167115E-03 
2117	 5.37097531053231E-03 
2118	 5.61024994381309E-03 
2119	 5.54358546339591E-03 
2120	 5.26122665145118E-03 
2121	 5.15830662025562E-03 
2122	 5.18562922167996E-03 
2123	 4.6389311911287E-03 
2124	 3.87482212165143E-03 
2125	 3.23142882941114E-03 
2126	 2.96901369726098E-03 
2127	 2.64508556314212E-03 
2128	 2.8631530099913E-03 
2129	 3.31028226803588E-03 
2130	 3.04442691089498E-03 
2131	 3.23329673836333E-03 
2132	 3.51378827917984E-03 
2133	 4.04249427228309E-03 
2134	 4.44716489380783E-03 
2135	 5.16688520436177E-03 
2136	 5.0656803873737E-03 
2137	 4.11838094980748E-03 
2138	 3.91008915054861E-03 
2139	 3.50594121495691E-03 
2140	 3.55020560363208E-03 
2141	 4.78374819881273E-03 
2142	 5.08003376078916E-03 
2143	 4.91270472854784E-03 
2144	 4.58188445172196E-03 
2145	 4.86272476172281E-03 
2146	 5.54502255550127E-03 
2147	 6.27700906047464E-03 
2148	 6.58762378886038E-03 
2149	 5.43961022241679E-03 
2150	 4.36536655631717E-03 
2151	 4.71825457761615E-03 
2152	 4.5321013459563E-03 
2153	 4.82037260916485E-03 
2154	 5.58634521884408E-03 
2155	 5.29117923317087E-03 
2156	 5.23307849107463E-03 
2157	 4.93304697017729E-03 
2158	 4.48490827539634E-03 
2159	 4.1490503157208E-03 
2160	 3.37552420888791E-03 
2161	 3.17968194339954E-03 
2162	 3.55926408668671E-03 
2163	 3.95576416411372E-03 
2164	 4.71547080210149E-03 
2165	 5.05151684829577E-03 
2166	 0.005132214023732 
2167	 5.4129702383058E-03 
2168	 5.75049183044033E-03 
2169	 5.98194135178927E-03 
2170	 6.71733373529076E-03 
2171	 6.63883573753694E-03 
2172	 5.69631492061904E-03 
2173	 4.75876630682964E-03 
2174	 4.87131927108534E-03 
2175	 5.89191896259491E-03 
2176	 5.98224337250363E-03 
2177	 5.68491922901975E-03 
2178	 4.83319704762289E-03 
2179	 3.4237008467239E-03 
2180	 3.56916618162883E-03 
2181	 4.65424519155057E-03 
2182	 5.55755684385908E-03 
2183	 5.3950103780948E-03 
2184	 4.73772823744299E-03 
2185	 4.95486900148282E-03 
2186	 5.25660366027029E-03 
2187	 5.77046613973253E-03 
2188	 6.05909157330391E-03 
2189	 6.95786709077857E-03 
2190	 6.85319174830459E-03 
2191	 5.60779871655409E-03 
2192	 5.14986395128058E-03 
2193	 4.73579861298735E-03 
2194	 4.51918330037906E-03 
2195	 4.85729048546773E-03 
2196	 4.52465741585249E-03 
2197	 3.61787647167295E-03 
2198	 3.53531187352034E-03 
2199	 2.95206458491276E-03 
2200	 3.71686497227476E-03 
2201	 6.35918617249279E-03 
2202	 6.5103320419211E-03 
2203	 6.9455335952754E-03 
2204	 7.33654212051438E-03 
2205	 5.92456519219215E-03 
2206	 6.44347013275538E-03 
2207	 6.12089859629481E-03 
2208	 5.4948196681179E-03 
2209	 6.08752382735006E-03 
2210	 5.20965584784398E-03 
2211	 4.47695802599796E-03 
2212	 4.09069078825467E-03 
2213	 3.88482388345358E-03 
2214	 3.98483652729846E-03 
2215	 3.97342891218522E-03 
2216	 4.32644144754324E-03 
2217	 4.86572300477325E-03 
2218	 5.66099176392426E-03 
2219	 6.12938229549183E-03 
2220	 7.1253237954722E-03 
2221	 6.95139806709928E-03 
2222	 5.53926359066056E-03 
2223	 4.84390694896021E-03 
2224	 3.60532438095065E-03 
2225	 3.54371971949881E-03 
2226	 4.8447512256886E-03 
2227	 5.30175829459568E-03 
2228	 5.49608788783968E-03 
2229	 5.76919859144899E-03 
2230	 5.92309277872965E-03 
2231	 5.74509366389357E-03 
2232	 5.83382259642868E-03 
2233	 6.50821185360883E-03 
2234	 7.71353934873953E-03 
2235	 6.82692300192245E-03 
2236	 7.02278982947352E-03 
2237	 6.85044448396333E-03 
2238	 5.67787619529542E-03 
2239	 0.005619716939853 
2240	 6.11813115947722E-03 
2241	 5.87869225270072E-03 
2242	 5.03253437423719E-03 
2243	 3.74022716157783E-03 
2244	 4.05824805444003E-03 
2245	 4.41050581788755E-03 
2246	 4.35690701402346E-03 
2247	 6.00362623256491E-03 
2248	 6.66488793767566E-03 
2249	 5.84339548370038E-03 
2250	 4.7531517932981E-03 
2251	 3.5871292310639E-03 
2252	 2.99583350863661E-03 
2253	 2.85408459716705E-03 
2254	 3.32777312175443E-03 
2255	 4.49877051100079E-03 
2256	 5.53488892243057E-03 
2257	 6.28796879924711E-03 
2258	 6.50258440174983E-03 
2259	 6.75417611526796E-03 
2260	 6.49896884387215E-03 
2261	 4.5429008283178E-03 
2262	 4.52514702071319E-03 
2263	 5.6061346706967E-03 
2264	 5.50699841808242E-03 
2265	 5.95232897708985E-03 
2266	 5.63429262097767E-03 
2267	 4.04072193244791E-03 
2268	 3.90614716916621E-03 
2269	 3.85070914921152E-03 
2270	 4.71650556131836E-03 
2271	 8.42307625218212E-03 
2272	 8.13691227883758E-03 
2273	 4.77727861395278E-03 
2274	 4.64363748220954E-03 
2275	 3.04289970080078E-03 
2276	 2.42131502552919E-03 
2277	 5.98388549647447E-03 
2278	 7.4991598357012E-03 
2279	 8.20479710647718E-03 
2280	 8.3501480343857E-03 
2281	 8.56342742641623E-03 
2282	 7.02932604090275E-03 
2283	 3.61745890837371E-03 
2284	-3.78751151085037E-04 
2285	-9.67068677451137E-04 
2286	-4.06403914879159E-04 
2287	 1.42708983281432E-04 
2288	 1.55927254142544E-03 
2289	 1.30340816269835E-03 
2290	 1.8907857665441E-03 
2291	 4.26911622988022E-03 
2292	 4.43447318752485E-03 
2293	 5.69727381917946E-03 
2294	 6.37922194028688E-03 
2295	 5.60636669418068E-03 
2296	 7.00363900823971E-03 
2297	 5.21036770834151E-03 
2298	 1.80547634034336E-03 
2299	 1.69021488444289E-03 
2300	 2.78435792120402E-03 
2301	 5.24236626986642E-03 
2302	 7.4776600294995E-03 
2303	 7.44962728819151E-03 
2304	 7.51926627444997E-03 
2305	 8.24928316392514E-03 
2306	 8.41914111603798E-03 
2307	 8.35596615370457E-03 
2308	 8.13416747937206E-03 
2309	 7.11583968593447E-03 
2310	 6.93151210839421E-03 
2311	 8.23257591726064E-03 
2312	 8.8826746641627E-03 
2313	 8.28379080948644E-03 
2314	 0.010453220628326 
2315	 0.012389995140052 
2316	 9.2874955764456E-03 
2317	 5.38730953541865E-03 
2318	 1.27087040099756E-03 
2319	 8.8884075588328E-04 
2320	 1.7592525558816E-03 
2321	 4.86509484751208E-04 
2322	 3.71490898854456E-03 
2323	 4.84050610648718E-03 
2324	 5.66709686800175E-03 
2325	 1.05066364339563E-02 
2326	 9.72260704124951E-03 
2327	 4.55269275185431E-03 
2328	 2.37494366264984E-03 
2329	 4.77364996178141E-03 
2330	 7.4752327338814E-03 
2331	 1.04453034848072E-02 
2332	 1.07264972437985E-02 
2333	 6.71861435739987E-03 
2334	 4.97567666139911E-03 
2335	 2.29472666025937E-03 
2336	-4.10265232990159E-04 
2337	 1.35259919051659E-03 
2338	 1.15977715880755E-03 
2339	 1.95944496606301E-04 
2340	 3.87214774285166E-03 
2341	 3.04117552976629E-03 
2342	-7.60551782398971E-04 
2343	 3.21946719581731E-03 
2344	 1.00807623577263E-02 
2345	 1.85368660524954E-02 
2346	 2.87855433211216E-02 
2347	 2.79862976077779E-02 
2348	 1.44525842720392E-02 
2349	 2.68912682038229E-03 
2350	-6.04376091342512E-03 
2351	-1.08574849529672E-02 
2352	-4.87603478413941E-03 
2353	-1.58281039911714E-03 
2354	-6.66451914344408E-03 
2355	-9.17938571792955E-03 
2356	-1.00435458589128E-02 
2357	-0.015152792554686 
2358	-0.014005911092889 
2359	-1.47511887414628E-03 
2360	 0.00303468859407 
2361	-1.88725139123521E-04 
2362	-4.51531468128558E-04 
2363	-1.07880220078987E-02 
2364	-1.95579433142584E-02 
2365	-8.59757239356476E-03 
2366	 3.45849967977265E-03 
2367	 1.51730292001455E-02 
2368	 2.79603880475322E-02 
2369	 2.50105750375412E-02 
2370	 2.10975597200222E-02 
2371	 2.52682822791494E-02 
2372	 2.36023441149895E-02 
2373	 1.25905090893727E-02 
2374	 1.01544070148671E-03 
2375	-3.65415516725669E-03 
2376	-7.0260730025525E-03 
2377	-4.32448464844832E-03 
2378	 1.77248450309404E-03 
2379	-1.26926494348144E-02 
2380	-2.43336642020295E-02 
2381	-2.58516072699852E-02 
2382	-3.26831239705826E-02 
2383	-1.56039873332919E-02 
2384	-1.00423059217499E-02 
2385	-1.75103555644679E-02 
2386	-1.44463684378124E-02 
2387	-2.68051555053807E-02 
2388	-2.18350093587743E-02 
2389	-3.44190519892268E-02 
2390	-0.048256807890636 
2391	-2.94367877678789E-02 
2392	-2.78938959561279E-02 
2393	-2.01821887795906E-02 
2394	 5.56272953447241E-03 
2395	 7.51689887545812E-03 
2396	-8.89646267500218E-03 
2397	 9.23871289702287E-03 
2398	 3.03519511160667E-02 
2399	 2.59623341159603E-02 
2400	 2.49217213865672E-02 
2401	 1.20183158987781E-02 
2402	-2.62238596847462E-02 
2403	-5.56003372442979E-02 
2404	-5.56472611018199E-02 
2405	-5.85903084946426E-02 
2406	-6.33163635486804E-02 
2407	-6.36026221174958E-02 
2408	-4.27564559049474E-02 
2409	 7.54575764546828E-04 
2410	 2.50621505828382E-02 
2411	 5.39005837270601E-02 
2412	 6.00375672787435E-02 
2413	 3.08578987018353E-02 
2414	 1.30967621299093E-02 
2415	 2.13690680831871E-02 
2416	 2.62996742860323E-02 
2417	 3.04621177246299E-02 
2418	 0.059583122766866 
2419	 1.27040132926717E-03 
2420	-3.37480360475557E-02 
2421	-1.40474757488422E-02 
2422	 4.43217474767766E-04 
2423	 7.49481918584425E-02 
2424	 7.61501297830315E-02 
2425	-1.80241810278784E-02 
2426	-4.90530222231208E-02 
2427	-3.06395423415096E-02 
2428	 5.76649940468014E-02 
2429	 0.186291304725451 
2430	 0.188414000986187 
2431	 0.125526732748527 
2432	 0.079246954412895 
2433	-9.45903142904717E-03 
2434	-7.71715870465628E-02 
2435	-0.148776016322929 
2436	-0.240133993285229 
2437	-0.22575752488629 
2438	-0.11008440538765 
2439	 3.75199689977312E-02 
2440	 0.125428100976037 
2441	 0.186405552127354 
2442	 0.185761961922681 
2443	 9.63377497357838E-02 
2444	 0.045226135995438 
2445	-3.36807661859171E-02 
2446	-0.13776779566866 
2447	-0.112561961703493 
2448	-0.16133206213381 
2449	-0.218608154146878 
2450	-1.57480078074386E-02 
2451	-1.70119373643816E-02 
2452	 0.20368102973052 
2453	 0.305518565879729 
2454	 2.83597871133557E-02 
2455	-9.97629617800428E-03 
2456	-0.118317951156887 
2457	-0.120826092980271 
2458	 2.32236042676828E-03 
2459	 8.51216616065177E-02 
2460	 0.121525301535651 
2461	 2.69540776174234E-02 
2462	-0.15789563218096 
2463	-0.211760392859138 
2464	-0.23057989103557 
2465	-0.113105409352144 
2466	 1.25693203893711E-02 
2467	-6.57109785186524E-03 
2468	 1.26693811086346E-02 
2469	-5.24576558772448E-02 
2470	-5.17158061914223E-03 
2471	 0.210171522001073 
2472	 0.164978302958494 
2473	 4.70289279246065E-02 
2474	-8.01882801245768E-02 
2475	-0.458923976158632 
2476	-0.360472795171447 
2477	-0.292066241059411 
2478	-1.6810746353132 
2479	-1.09326537063005 
2480	-0.27369350101743 
2481	 0.01053537525297 
2482	 0.95326669403958 
2483	 1.37355659104711 
2484	 1.49582747370728 
2485	 1.06068212894834 
2486	 0.374402296002544 
2487	 0.27263663573526 
2488	 0.690668502046993 
2489	 0.80802951395655 
2490	 0.624752289749294 
2491	 5.08619893334375E-02 
2492	-0.413116379292301 
2493	-0.164543909567667 
2494	 0.950420070883996 
2495	 2.93791086980723 
2496	 4.02304531421441 
2497	-0.370108080216026 
2498	-0.655900790697397 
2499	-1.72872173672529 
2500	 0.286744540821696 
