Wavelength	rt0721algea00003.asd
350	 5.65140686670501E-02 
351	 5.65767041247648E-02 
352	 5.59275533794108E-02 
353	 0.055955451667315 
354	 5.69128700446359E-02 
355	 5.59635606898096E-02 
356	 5.58104235582866E-02 
357	 5.63353299152289E-02 
358	 5.66709263895414E-02 
359	 5.68838936801234E-02 
360	 5.64215945669753E-02 
361	 5.57336972224166E-02 
362	 5.58431462816109E-02 
363	 5.64290328821487E-02 
364	 5.64732345770088E-02 
365	 5.58898815393352E-02 
366	 0.056066296475359 
367	 5.62481292446938E-02 
368	 5.63069535468867E-02 
369	 5.63585642265356E-02 
370	 5.68748138104177E-02 
371	 5.69292755156855E-02 
372	 5.66058950460406E-02 
373	 5.65690958185804E-02 
374	 5.67464809788363E-02 
375	 5.70162556656067E-02 
376	 5.73446628720785E-02 
377	 5.78316351868326E-02 
378	 5.76814653551529E-02 
379	 5.78737288068585E-02 
380	 5.89350100385576E-02 
381	 5.87180232186566E-02 
382	 5.85264058988064E-02 
383	 5.87560003375568E-02 
384	 0.059275969073552 
385	 5.97182873074255E-02 
386	 5.98390204357466E-02 
387	 5.99011576962412E-02 
388	 6.06285001385584E-02 
389	 6.06684632213085E-02 
390	 0.060635816022888 
391	 0.061060789770425 
392	 6.13445947357144E-02 
393	 6.14804076761346E-02 
394	 6.16017393469932E-02 
395	 0.06187665034342 
396	 6.23241719299812E-02 
397	 6.26555895155669E-02 
398	 6.27574123065561E-02 
399	 6.27001712011866E-02 
400	 6.28881792363245E-02 
401	 6.32208083764062E-02 
402	 6.35475396439437E-02 
403	 6.38174278319972E-02 
404	 6.39465663955052E-02 
405	 6.40392973622562E-02 
406	 6.42205924686035E-02 
407	 6.42670864611054E-02 
408	 6.44021207287879E-02 
409	 6.47035446044101E-02 
410	 6.50762112719706E-02 
411	 6.53900171072495E-02 
412	 6.55023087678982E-02 
413	 6.54932466162026E-02 
414	 6.59783929596753E-02 
415	 6.62808992486929E-02 
416	 6.63818496148434E-02 
417	 6.65373551589736E-02 
418	 6.68615922408769E-02 
419	 0.067291829240048 
420	 6.77095588809155E-02 
421	 6.79664019572675E-02 
422	 6.82236246621111E-02 
423	 0.068611449381517 
424	 6.91189790397339E-02 
425	 6.93652567541708E-02 
426	 6.97342214760221E-02 
427	 7.02272394485985E-02 
428	 7.06635649814288E-02 
429	 7.10190524282825E-02 
430	 7.14751826123213E-02 
431	 7.20162530566979E-02 
432	 7.23839438525213E-02 
433	 7.27826666172926E-02 
434	 7.32520566928159E-02 
435	 7.37562394644294E-02 
436	 7.41495504808848E-02 
437	 7.45780227179835E-02 
438	 7.50233703054749E-02 
439	 7.53966647291021E-02 
440	 7.58583629713508E-02 
441	 0.076308932019203 
442	 7.66970132180255E-02 
443	 7.70796873649743E-02 
444	 7.75011835495896E-02 
445	 7.79254867291067E-02 
446	 7.82977725488369E-02 
447	 7.85843146890997E-02 
448	 0.078933489967513 
449	 7.92975122020337E-02 
450	 0.079501842423233 
451	 0.079711728809588 
452	 7.99422565341729E-02 
453	 8.01820781739058E-02 
454	 8.04147269301956E-02 
455	 8.06182768990441E-02 
456	 8.07770420975143E-02 
457	 8.08984587501878E-02 
458	 8.10897389478606E-02 
459	 8.11856893985544E-02 
460	 8.12304307436083E-02 
461	 8.14707597552795E-02 
462	 8.15767455114031E-02 
463	 8.16584173712518E-02 
464	 0.081833340280987 
465	 8.19993411120859E-02 
466	 0.082116603005729 
467	 8.22452670425542E-02 
468	 8.24697919787323E-02 
469	 8.26343803239343E-02 
470	 8.27713819261952E-02 
471	 8.28938779385221E-02 
472	 8.29646607534226E-02 
473	 8.30747481144222E-02 
474	 8.32858620420252E-02 
475	 8.35871873707466E-02 
476	 8.37627966601057E-02 
477	 8.39275679749164E-02 
478	 8.41394592442144E-02 
479	 8.44070960617672E-02 
480	 8.46741999272719E-02 
481	 8.49166100955902E-02 
482	 8.51507788596357E-02 
483	 8.54680917764983E-02 
484	 8.56917823977827E-02 
485	 8.59554672532123E-02 
486	 8.64271146782549E-02 
487	 8.68150690678449E-02 
488	 8.71478358949493E-02 
489	 0.087493672082375 
490	 8.79346433034735E-02 
491	 0.08835602986198 
492	 8.87630136940784E-02 
493	 8.91829349228451E-02 
494	 0.089630027308883 
495	 9.01982069939691E-02 
496	 9.08019854316407E-02 
497	 9.12878554102359E-02 
498	 9.17657761542161E-02 
499	 9.23233395118051E-02 
500	 9.29652896955435E-02 
501	 9.35755520406286E-02 
502	 9.42377845071023E-02 
503	 9.49076458930782E-02 
504	 0.09553776669707 
505	 9.61942419424135E-02 
506	 0.096946726859279 
507	 9.77454361267922E-02 
508	 9.84566335404095E-02 
509	 9.91763218370411E-02 
510	 9.99390367138723E-02 
511	 0.100757309574324 
512	 0.101642435802582 
513	 0.102421049749171 
514	 0.103208655838879 
515	 0.104186753599556 
516	 0.105025773056337 
517	 0.105951163698943 
518	 0.106974368881266 
519	 0.107797279198553 
520	 0.10862508554458 
521	 0.109460780236378 
522	 0.110290391523352 
523	 0.11119070836628 
524	 0.112065198102302 
525	 0.112890232510283 
526	 0.113705215539165 
527	 0.114568291957668 
528	 0.115442190000685 
529	 0.116276630798128 
530	 0.117013322748982 
531	 0.117844046160216 
532	 0.118694980216336 
533	 0.119436112798827 
534	 0.120286894596917 
535	 0.121046818079074 
536	 0.121718953684712 
537	 0.122552863580097 
538	 0.123340960184502 
539	 0.124107216051436 
540	 0.124900818056983 
541	 0.125666458801663 
542	 0.126456125859044 
543	 0.127250132509126 
544	 0.127997064332681 
545	 0.128775634980144 
546	 0.129560088914697 
547	 0.130318398711633 
548	 0.1310328243731 
549	 0.131742071323879 
550	 0.132490855047573 
551	 0.133295088296995 
552	 0.133999181034267 
553	 0.134706792678304 
554	 0.135418550673483 
555	 0.13600311140803 
556	 0.136674593203922 
557	 0.137358094621546 
558	 0.137951393908418 
559	 0.138530274849461 
560	 0.139065001285363 
561	 0.139559545698163 
562	 0.140038164338274 
563	 0.14048178987292 
564	 0.140866719425099 
565	 0.141204586775339 
566	 0.141580820189665 
567	 0.141907503591703 
568	 0.14218203959063 
569	 0.142440340239742 
570	 0.142743173317055 
571	 0.143041089318777 
572	 0.143310075367106 
573	 0.143561229836096 
574	 0.143793385799813 
575	 0.143998678612965 
576	 0.144186217237284 
577	 0.144433740728902 
578	 0.144644633564588 
579	 0.144779507156969 
580	 0.144849028532821 
581	 0.144949407017556 
582	 0.14505300565228 
583	 0.145116469256414 
584	 0.14509740372344 
585	 0.145035585600593 
586	 0.144864709215299 
587	 0.144535523456145 
588	 0.144323799639887 
589	 0.144222537303814 
590	 0.144201674740654 
591	 0.144221072335172 
592	 0.144190812754935 
593	 0.144080588290804 
594	 0.143911051382621 
595	 0.143797683712205 
596	 0.143665824045701 
597	 0.143495749921651 
598	 0.143302949234508 
599	 0.143114889948278 
600	 0.142919497879098 
601	 0.142732791708299 
602	 0.142627044052237 
603	 0.142553118574034 
604	 0.142527195427133 
605	 0.142562250918511 
606	 0.142560445058008 
607	 0.142490467055417 
608	 0.142407971218238 
609	 0.142446542041817 
610	 0.142468051184948 
611	 0.14244007848102 
612	 0.142375210798049 
613	 0.142344644925554 
614	 0.142318514435925 
615	 0.142261128572768 
616	 0.142154378850926 
617	 0.142165658467521 
618	 0.142148785033729 
619	 0.142036718528327 
620	 0.141938142917234 
621	 0.141916118712564 
622	 0.141916921919899 
623	 0.141866432234727 
624	 0.141827259745793 
625	 0.141744655266284 
626	 0.141619799392468 
627	 0.14151474591714 
628	 0.141547702384608 
629	 0.141608369360736 
630	 0.141589023637057 
631	 0.141521794152981 
632	 0.141344872815726 
633	 0.141159049544321 
634	 0.141090753230126 
635	 0.140821603082428 
636	 0.14053057999987 
637	 0.140305050332748 
638	 0.140031692245496 
639	 0.139708735047546 
640	 0.13936971686716 
641	 0.13905524159312 
642	 0.138768004381255 
643	 0.138434212660177 
644	 0.137996458372673 
645	 0.137432194288015 
646	 0.136976714231801 
647	 0.136660363047261 
648	 0.136441484845141 
649	 0.136205200286042 
650	 0.136034088767114 
651	 0.135902060269365 
652	 0.135755037802196 
653	 0.135618125096808 
654	 0.135321110166059 
655	 0.134922966790231 
656	 0.134850206487786 
657	 0.13460096244906 
658	 0.134330258657831 
659	 0.134177825427767 
660	 0.133843563316811 
661	 0.133470621266448 
662	 0.133146293976804 
663	 0.132906652062056 
664	 0.132541636708413 
665	 0.132266385888497 
666	 0.132148369773197 
667	 0.131901922119226 
668	 0.131739722129625 
669	 0.131602047411373 
670	 0.131397964930072 
671	 0.131327942159712 
672	 0.131283043341104 
673	 0.131238321528843 
674	 0.131259121836583 
675	 0.131348939513379 
676	 0.131364992835381 
677	 0.131303097502892 
678	 0.131586558370932 
679	 0.131829708558892 
680	 0.132062187702037 
681	 0.132472331076598 
682	 0.132918659801563 
683	 0.133553545302533 
684	 0.134332389919124 
685	 0.134982909932377 
686	 0.135806871802693 
687	 0.136812155951556 
688	 0.13786789071703 
689	 0.139048028678423 
690	 0.14010980268186 
691	 0.140998769022314 
692	 0.141801380416525 
693	 0.142751114827855 
694	 0.143814725163487 
695	 0.144815306972281 
696	 0.145567441268244 
697	 0.146102736399888 
698	 0.146552572884709 
699	 0.147000645549463 
700	 0.147288996167076 
701	 0.147696505175933 
702	 0.148147306876609 
703	 0.148309211068348 
704	 0.148348043841025 
705	 0.148332614500604 
706	 0.148269479917426 
707	 0.148072794878478 
708	 0.147713264457194 
709	 0.14723491817245 
710	 0.14670003798465 
711	 0.146094883546977 
712	 0.145276838947261 
713	 0.144245260951073 
714	 0.143120921732839 
715	 0.141731693788928 
716	 0.140143134933544 
717	 0.138590060483958 
718	 0.137002776538693 
719	 0.135690901509993 
720	 0.134733363852603 
721	 0.133798385817246 
722	 0.13251768853809 
723	 0.130797799956718 
724	 0.128984889253048 
725	 0.127502143112519 
726	 0.125765507675737 
727	 0.123767883128222 
728	 0.121642750816941 
729	 0.119425825914269 
730	 0.117172396715816 
731	 0.115126057267887 
732	 0.113402306909352 
733	 0.11183903930893 
734	 0.110294455104471 
735	 0.108839181286245 
736	 0.107793638631874 
737	 0.107081637602382 
738	 0.106583511946102 
739	 0.106219715175879 
740	 0.106060442498322 
741	 0.105906893666788 
742	 0.105751032165327 
743	 0.105689030568071 
744	 0.105770123976686 
745	 0.105758576041385 
746	 0.10564688051124 
747	 0.105765548265018 
748	 0.105712290935009 
749	 0.105647115670038 
750	 0.10574803454377 
751	 0.105767534391443 
752	 0.10577553928267 
753	 0.105798079267947 
754	 0.105833965878384 
755	 0.105856490773376 
756	 0.105894788338862 
757	 0.105923827091471 
758	 0.105799132957595 
759	 0.105439581688206 
760	 0.105061847136379 
761	 0.105122957326244 
762	 0.104993956510958 
763	 0.105256738749835 
764	 0.105726630357092 
765	 0.106059742199871 
766	 0.106334329467983 
767	 0.106672745801314 
768	 0.107031767020869 
769	 0.107204426683651 
770	 0.107379673799995 
771	 0.107621312842739 
772	 0.107916069986104 
773	 0.10811584538558 
774	 0.108330419420734 
775	 0.108641071501149 
776	 0.109066014413625 
777	 0.109335255988607 
778	 0.109562126730616 
779	 0.109865538454601 
780	 0.110323092856102 
781	 0.110674547110753 
782	 0.111039258840941 
783	 0.111483462409922 
784	 0.11178630641576 
785	 0.112135389283067 
786	 0.112495258789309 
787	 0.112797785111737 
788	 0.113241445202511 
789	 0.113721464014192 
790	 0.114186669974054 
791	 0.114652969225703 
792	 0.11514066426677 
793	 0.115678100346533 
794	 0.116185337656201 
795	 0.116381757327894 
796	 0.116861855874442 
797	 0.117324063845577 
798	 0.117462910844209 
799	 0.117792746789244 
800	 0.118148560993044 
801	 0.118404462042806 
802	 0.118533671651152 
803	 0.118985857616622 
804	 0.119419577548389 
805	 0.119594401543725 
806	 0.119479873743989 
807	 0.119363498087133 
808	 0.119246786432903 
809	 0.119056357532486 
810	 0.118690710951449 
811	 0.118182403675779 
812	 0.117617489519571 
813	 0.117091203624251 
814	 0.116483331387366 
815	 0.115900518704365 
816	 0.115357007262786 
817	 0.114785826053333 
818	 0.114351526869449 
819	 0.113835558541143 
820	 0.113064543863891 
821	 0.111969600886023 
822	 0.110590742975335 
823	 0.109264306154115 
824	 0.108104144536424 
825	 0.106475205324834 
826	 0.104506663633323 
827	 0.102329896264588 
828	 0.100247517705602 
829	 9.83395475351876E-02 
830	 9.67314735240361E-02 
831	 9.52261841233047E-02 
832	 9.35508736703203E-02 
833	 9.25598535929418E-02 
834	 9.18116910104761E-02 
835	 9.10276244122449E-02 
836	 9.03689692027943E-02 
837	 8.99815249910965E-02 
838	 8.96144862046269E-02 
839	 8.91083165774364E-02 
840	 8.87640559921987E-02 
841	 8.84497318843463E-02 
842	 8.81490131264199E-02 
843	 8.78763842289016E-02 
844	 8.76075344243616E-02 
845	 8.72998179189658E-02 
846	 8.69145158234531E-02 
847	 8.64499673093535E-02 
848	 8.61756193149216E-02 
849	 8.59502377388152E-02 
850	 8.56877274600437E-02 
851	 8.54295137522848E-02 
852	 8.49870778981904E-02 
853	 8.45807090558017E-02 
854	 8.43471668455245E-02 
855	 8.40407768551668E-02 
856	 8.38419373948329E-02 
857	 8.36263769712264E-02 
858	 8.32557924115185E-02 
859	 8.28056737395948E-02 
860	 8.26891173483788E-02 
861	 8.26473939107229E-02 
862	 8.22148028412368E-02 
863	 8.19960061852765E-02 
864	 8.17281262794837E-02 
865	 8.14004289244864E-02 
866	 8.12390438924736E-02 
867	 8.09226152669318E-02 
868	 8.05405484132392E-02 
869	 0.08020144465881 
870	 7.99561238546642E-02 
871	 7.96743871035907E-02 
872	 7.92679456884427E-02 
873	 7.87750128356265E-02 
874	 7.84784549316252E-02 
875	 0.078221860749309 
876	 7.77430435496005E-02 
877	 7.69984093191404E-02 
878	 0.076822422230307 
879	 7.64516200305215E-02 
880	 7.59213909214926E-02 
881	 7.55727406106137E-02 
882	 7.50389526496288E-02 
883	 7.46225669951239E-02 
884	 7.42914339565073E-02 
885	 7.37964569944456E-02 
886	 7.35381109507902E-02 
887	 7.31624551873673E-02 
888	 7.26267150045005E-02 
889	 7.22998428013058E-02 
890	 7.18284984216374E-02 
891	 7.14987740891991E-02 
892	 7.13207303181247E-02 
893	 0.070585356213677 
894	 7.00834466659953E-02 
895	 6.98311359529702E-02 
896	 6.95332352892602E-02 
897	 6.87103005827907E-02 
898	 6.84847083649451E-02 
899	 6.82710860143437E-02 
900	 6.74199569741336E-02 
901	 6.72842793704645E-02 
902	 6.70918175696913E-02 
903	 6.68952144971198E-02 
904	 6.69362829256339E-02 
905	 6.67579548941417E-02 
906	 0.066144089682431 
907	 0.065222417145337 
908	 6.44113728835785E-02 
909	 6.38237887420567E-02 
910	 6.35620814770774E-02 
911	 6.34472448651762E-02 
912	 6.30910981238055E-02 
913	 6.23673810231151E-02 
914	 0.061782012667268 
915	 6.15379801895525E-02 
916	 0.061301139369724 
917	 0.059818448721065 
918	 0.058987560284431 
919	 5.92922489830163E-02 
920	 5.89088174565374E-02 
921	 5.82004439621058E-02 
922	 5.75610062456592E-02 
923	 5.71308877976869E-02 
924	 5.64760208066096E-02 
925	 5.52208039386636E-02 
926	 5.46847878331339E-02 
927	 5.55619358074535E-02 
928	 5.38283811144386E-02 
929	 5.38530838727139E-02 
930	 5.44625225859294E-02 
931	 5.19601500512182E-02 
932	 5.17087996688573E-02 
933	 5.15237049922532E-02 
934	 5.13255973338748E-02 
935	 5.18135334901528E-02 
936	 5.14230466904892E-02 
937	 5.08866671788874E-02 
938	 5.09697393490026E-02 
939	 5.16514562816888E-02 
940	 5.02474116136152E-02 
941	 4.93041516532059E-02 
942	 4.89774509348945E-02 
943	 4.85971953399929E-02 
944	 5.03399398038617E-02 
945	 5.23522037797206E-02 
946	 5.20142828741219E-02 
947	 4.83694907597436E-02 
948	 4.94581942565879E-02 
949	 4.84100530931164E-02 
950	 4.57590540296373E-02 
951	 4.62766173024501E-02 
952	 4.69631723796035E-02 
953	 4.85937500038997E-02 
954	 4.98857293253573E-02 
955	 4.86508365349377E-02 
956	 4.63989367045046E-02 
957	 4.53810045893712E-02 
958	 4.59508363380032E-02 
959	 4.68439241484554E-02 
960	 0.046034900922558 
961	 4.65930651339722E-02 
962	 4.76957213281341E-02 
963	 0.046428928131291 
964	 4.67049287700774E-02 
965	 4.57357456892771E-02 
966	 4.43358285793877E-02 
967	 4.54575554460889E-02 
968	 0.045423715242996 
969	 4.58583676416912E-02 
970	 4.66832494371491E-02 
971	 4.63615218456434E-02 
972	 4.74084434689148E-02 
973	 4.71858619679106E-02 
974	 4.56276700571762E-02 
975	 4.55714051002829E-02 
976	 4.74820972183821E-02 
977	 4.67926063565988E-02 
978	 4.49828206482872E-02 
979	 4.75569797650586E-02 
980	 4.60663549261521E-02 
981	 4.58979155840211E-02 
982	 4.73714378891796E-02 
983	 4.64680836752648E-02 
984	 4.73857710706771E-02 
985	 4.86053521662861E-02 
986	 4.85509852151295E-02 
987	 4.68540550462914E-02 
988	 4.83735272835982E-02 
989	 4.80966159834217E-02 
990	 4.65031423574937E-02 
991	 4.79128550134628E-02 
992	 4.82723306273509E-02 
993	 4.79190224157978E-02 
994	 4.73623459582187E-02 
995	 4.70366761024927E-02 
996	 4.75220912176208E-02 
997	 4.78419456295161E-02 
998	 4.77924071339433E-02 
999	 0.047723763248964 
1000	 4.74253856500466E-02 
1001	 4.77890147884664E-02 
1002	 4.76160534821285E-02 
1003	 4.75680842601448E-02 
1004	 4.74558408814994E-02 
1005	 4.72864184489557E-02 
1006	 4.71416145525887E-02 
1007	 4.71508017025174E-02 
1008	 4.67386019668196E-02 
1009	 4.63956266748715E-02 
1010	 4.62148269956758E-02 
1011	 4.61127108371403E-02 
1012	 4.62166853189193E-02 
1013	 4.63916391108847E-02 
1014	 4.66258638882355E-02 
1015	 4.69912456351684E-02 
1016	 4.72054418402924E-02 
1017	 4.75109924814431E-02 
1018	 4.76677222547057E-02 
1019	 4.77185804081731E-02 
1020	 4.76890926180155E-02 
1021	 4.75538626627287E-02 
1022	 4.73359290146708E-02 
1023	 4.71796520812504E-02 
1024	 4.72430535406256E-02 
1025	 4.74433935747468E-02 
1026	 4.75709900765438E-02 
1027	 4.77277035246811E-02 
1028	 4.78468727607225E-02 
1029	 4.80454799346306E-02 
1030	 4.83641678285787E-02 
1031	 4.85909277693985E-02 
1032	 4.89734176908408E-02 
1033	 4.90670763943876E-02 
1034	 4.88565683353234E-02 
1035	 4.87920711499458E-02 
1036	 0.048664590985131 
1037	 4.85281856563566E-02 
1038	 4.83222210584404E-02 
1039	 4.83297158360833E-02 
1040	 4.83847938000706E-02 
1041	 4.84857365891744E-02 
1042	 4.86460002528214E-02 
1043	 4.90602174010142E-02 
1044	 4.92331651344806E-02 
1045	 4.92363184778341E-02 
1046	 4.93850707895395E-02 
1047	 4.95853889306546E-02 
1048	 4.97354152203634E-02 
1049	 0.049923766114921 
1050	 5.01185612127574E-02 
1051	 5.03334782926086E-02 
1052	 5.04161186535087E-02 
1053	 0.050460147461887 
1054	 0.05048587935567 
1055	 0.050160236950731 
1056	 5.02124214495657E-02 
1057	 5.04334668929541E-02 
1058	 5.09766211688517E-02 
1059	 5.10741678886387E-02 
1060	 5.12964769807964E-02 
1061	 5.12148210239215E-02 
1062	 0.050545917531412 
1063	 5.04115169190086E-02 
1064	 5.03994846182259E-02 
1065	 5.04896080201127E-02 
1066	 5.08684182635943E-02 
1067	 5.10922939787024E-02 
1068	 5.14733637201679E-02 
1069	 0.051593941241653 
1070	 5.15575886287615E-02 
1071	 5.14760401977455E-02 
1072	 5.12995879576823E-02 
1073	 5.08269880167516E-02 
1074	 5.07465598661664E-02 
1075	 5.08570068883602E-02 
1076	 5.07033721263091E-02 
1077	 5.06013970476575E-02 
1078	 5.04585014323671E-02 
1079	 4.99226075095227E-02 
1080	 4.98544482262571E-02 
1081	 5.03032627643443E-02 
1082	 0.05028788905987 
1083	 5.01525997024316E-02 
1084	 5.01168770663092E-02 
1085	 4.99305239320765E-02 
1086	 4.97085007794748E-02 
1087	 4.95684364774134E-02 
1088	 0.049451318978659 
1089	 4.92995411854833E-02 
1090	 4.88857561764327E-02 
1091	 4.88056526888677E-02 
1092	 4.90487543497007E-02 
1093	 4.89253675906914E-02 
1094	 0.048773418336055 
1095	 4.85436244637294E-02 
1096	 0.04790400685812 
1097	 4.77151223990415E-02 
1098	 0.047761740363705 
1099	 4.77172630778655E-02 
1100	 4.81251445318429E-02 
1101	 4.80380577393615E-02 
1102	 4.74589851804547E-02 
1103	 4.70959699571846E-02 
1104	 4.64927974156312E-02 
1105	 4.60430988061859E-02 
1106	 4.59070696004378E-02 
1107	 4.58028983153737E-02 
1108	 4.60731144044558E-02 
1109	 4.59993552844165E-02 
1110	 4.57309376672138E-02 
1111	 4.52598131901537E-02 
1112	 4.49627384889692E-02 
1113	 4.41260049131136E-02 
1114	 4.39540060935638E-02 
1115	 4.48673872749146E-02 
1116	 4.46086873708585E-02 
1117	 4.34699064805615E-02 
1118	 4.29099263564339E-02 
1119	 4.15408056007732E-02 
1120	 4.09481960208782E-02 
1121	 4.29200898700057E-02 
1122	 4.37139860073676E-02 
1123	 4.25429266250729E-02 
1124	 4.12040663688537E-02 
1125	 4.14879494586076E-02 
1126	 0.041421167678152 
1127	 3.95400456976288E-02 
1128	 3.94623142963394E-02 
1129	 0.039861842865644 
1130	 3.94272739451723E-02 
1131	 3.91926991826775E-02 
1132	 4.06418362217051E-02 
1133	 4.01541681386005E-02 
1134	 0.037081553335479 
1135	 0.037318839890889 
1136	 3.94150657120049E-02 
1137	 4.01972719608422E-02 
1138	 4.17203673091929E-02 
1139	 4.26012460945024E-02 
1140	 0.040555824453077 
1141	 0.038766458389997 
1142	 3.87001585517616E-02 
1143	 3.81617334829528E-02 
1144	 3.80416360726947E-02 
1145	 3.90561856096265E-02 
1146	 3.90704116842419E-02 
1147	 3.86482760712624E-02 
1148	 3.96913315822549E-02 
1149	 4.02174844075803E-02 
1150	 3.99516839003188E-02 
1151	 3.85506783164216E-02 
1152	 3.88068593313767E-02 
1153	 3.94287343309389E-02 
1154	 3.95374147274333E-02 
1155	 3.99067668131123E-02 
1156	 0.04041287393514 
1157	 4.03388337459359E-02 
1158	 4.00992936746367E-02 
1159	 4.08416762221467E-02 
1160	 4.14201926347235E-02 
1161	 4.11205004834498E-02 
1162	 4.10729700920549E-02 
1163	 4.09138741419154E-02 
1164	 4.06952352465332E-02 
1165	 4.11719801400188E-02 
1166	 4.14534420412964E-02 
1167	 4.13371465717723E-02 
1168	 4.10670587856138E-02 
1169	 4.06776659332464E-02 
1170	 4.07531662962374E-02 
1171	 4.07984838868524E-02 
1172	 4.11534262010466E-02 
1173	 4.12424337318729E-02 
1174	 4.13369182024523E-02 
1175	 4.10407061368032E-02 
1176	 4.08121683314711E-02 
1177	 4.11493746623105E-02 
1178	 4.12576105618057E-02 
1179	 4.12125929860031E-02 
1180	 4.15313591314686E-02 
1181	 4.14244346349605E-02 
1182	 4.10647051210954E-02 
1183	 4.11658120589073E-02 
1184	 4.09793469015111E-02 
1185	 4.06405919168014E-02 
1186	 4.08908984193389E-02 
1187	 4.11758277339866E-02 
1188	 4.10908169853247E-02 
1189	 4.09798613406495E-02 
1190	 4.11416031818111E-02 
1191	 4.12565993399474E-02 
1192	 4.11521649206703E-02 
1193	 0.041035879351271 
1194	 0.041148780084196 
1195	 4.11847923077468E-02 
1196	 4.10021716528796E-02 
1197	 4.10926875015233E-02 
1198	 4.13736904176283E-02 
1199	 4.12199836423943E-02 
1200	 4.09446891441318E-02 
1201	 4.10336979365675E-02 
1202	 4.12369406793566E-02 
1203	 4.12902566113225E-02 
1204	 4.13441773375515E-02 
1205	 4.15011224257143E-02 
1206	 4.15114215472978E-02 
1207	 4.15475409610566E-02 
1208	 4.15735565782477E-02 
1209	 4.13500373579722E-02 
1210	 4.13649360489353E-02 
1211	 4.16010462537359E-02 
1212	 4.15692875491397E-02 
1213	 4.14589327877967E-02 
1214	 4.14688196726323E-02 
1215	 4.13974915003192E-02 
1216	 4.11980168449505E-02 
1217	 4.12974890742309E-02 
1218	 4.15525327982974E-02 
1219	 4.14831121975074E-02 
1220	 4.14084193120181E-02 
1221	 4.15474452747373E-02 
1222	 4.16542320391298E-02 
1223	 4.16435216033349E-02 
1224	 4.16528028408199E-02 
1225	 4.16716136878596E-02 
1226	 4.15693105777604E-02 
1227	 0.04157509102301 
1228	 4.16929667128831E-02 
1229	 4.17631902000318E-02 
1230	 4.17927383036851E-02 
1231	 4.17419816082293E-02 
1232	 4.17809462416585E-02 
1233	 4.18648411607463E-02 
1234	 4.18728313372095E-02 
1235	 4.18637787239525E-02 
1236	 4.19723597392569E-02 
1237	 4.19861095282094E-02 
1238	 4.18375237473278E-02 
1239	 4.18163128379925E-02 
1240	 4.18411879616088E-02 
1241	 0.041864060517937 
1242	 4.18690031933389E-02 
1243	 4.17880266553512E-02 
1244	 4.18538481741895E-02 
1245	 4.20598504154838E-02 
1246	 4.20514948952449E-02 
1247	 4.20106098513421E-02 
1248	 4.20611627696941E-02 
1249	 0.041967908954853 
1250	 4.19274848003409E-02 
1251	 4.18845972227334E-02 
1252	 4.17125365516473E-02 
1253	 4.17003945317304E-02 
1254	 4.18642224617015E-02 
1255	 4.19980140185072E-02 
1256	 4.19988930210089E-02 
1257	 4.18954813718149E-02 
1258	 4.19069154539017E-02 
1259	 4.18664133701101E-02 
1260	 4.17826188740571E-02 
1261	 4.17952983053984E-02 
1262	 4.18104690797085E-02 
1263	 4.17239765903228E-02 
1264	 4.16249336725454E-02 
1265	 4.16155553046402E-02 
1266	 4.16070973407853E-02 
1267	 4.15283369633572E-02 
1268	 4.14417963780499E-02 
1269	 4.16065026034545E-02 
1270	 4.17227043620976E-02 
1271	 4.15699468765461E-02 
1272	 4.15574825911444E-02 
1273	 4.16995728164493E-02 
1274	 0.041650357966768 
1275	 4.15969188006415E-02 
1276	 4.17532182947904E-02 
1277	 4.16990937451338E-02 
1278	 0.041617369501414 
1279	 0.041703923486534 
1280	 4.16572784126762E-02 
1281	 0.041676038620729 
1282	 4.17996430303247E-02 
1283	 4.17765550321848E-02 
1284	 4.16691213814848E-02 
1285	 0.041636842409071 
1286	 4.15515582180558E-02 
1287	 4.13849308769448E-02 
1288	 4.12278204251849E-02 
1289	 4.11510946312049E-02 
1290	 4.10174829456956E-02 
1291	 4.08667286520342E-02 
1292	 4.08794508022804E-02 
1293	 4.09185985229975E-02 
1294	 4.09207291922225E-02 
1295	 0.040828022874566 
1296	 4.08385575721343E-02 
1297	 4.08844309066203E-02 
1298	 4.07323895258483E-02 
1299	 4.06142463014999E-02 
1300	 4.05662981458116E-02 
1301	 4.04927402043429E-02 
1302	 4.03225885673198E-02 
1303	 4.02401415509578E-02 
1304	 4.02978157572343E-02 
1305	 0.040018315319247 
1306	 0.039893671398641 
1307	 3.99171052307038E-02 
1308	 3.98134687510046E-02 
1309	 3.95780886255513E-02 
1310	 0.039422961303713 
1311	 3.92684947454136E-02 
1312	 3.90504911812846E-02 
1313	 3.87458500648752E-02 
1314	 3.86725704010072E-02 
1315	 3.87747289930635E-02 
1316	 3.85898970399305E-02 
1317	 3.83426686774518E-02 
1318	 3.83693749050312E-02 
1319	 3.84068481180412E-02 
1320	 3.82616081283119E-02 
1321	 3.82162166151872E-02 
1322	 3.82435334634188E-02 
1323	 3.82037398226858E-02 
1324	 3.79969294809556E-02 
1325	 3.77490239284915E-02 
1326	 3.78746500247487E-02 
1327	 3.75241672401576E-02 
1328	 3.65917338945806E-02 
1329	 3.60550910760922E-02 
1330	 3.61984233046584E-02 
1331	 3.69486056744226E-02 
1332	 3.72209116194992E-02 
1333	 3.69494021749032E-02 
1334	 3.67554963309879E-02 
1335	 3.67167390433285E-02 
1336	 3.61831852768133E-02 
1337	 3.58425160366899E-02 
1338	 3.59703767971507E-02 
1339	 3.59957361719022E-02 
1340	 3.57354198541361E-02 
1341	 3.55115483513513E-02 
1342	 3.54148862404054E-02 
1343	 3.55770800189992E-02 
1344	 0.03599247621226 
1345	 3.54885200139513E-02 
1346	 3.45653813775299E-02 
1347	 3.46096432351388E-02 
1348	 3.34964344416423E-02 
1349	 3.21009933322182E-02 
1350	 3.28334533289919E-02 
1351	 3.45982339237521E-02 
1352	 4.03293164255731E-02 
1353	 4.13458989372749E-02 
1354	 3.80950634377363E-02 
1355	 3.30457846327442E-02 
1356	 2.19681735073925E-02 
1357	-0.018512987099015 
1358	-1.12468743108432E-02 
1359	 0.024776718137456 
1360	-2.06112230544752E-02 
1361	-4.45733104626501E-02 
1362	-2.14072752816625E-02 
1363	-4.94734669853425E-02 
1364	-0.102751117275968 
1365	-0.102152278624708 
1366	-3.72238955865143E-03 
1367	 1.33180527292491E-02 
1368	-6.61273466457179E-03 
1369	 8.24718779528575E-02 
1370	 9.61147577845369E-02 
1371	-0.127131765705004 
1372	-0.158011500535456 
1373	 3.90032457451163E-02 
1374	 4.48626064931138E-02 
1375	-9.47009329481621E-02 
1376	-0.124157909111062 
1377	-0.113871914986888 
1378	-0.131520084053154 
1379	-0.129870986639356 
1380	-0.125908267955213 
1381	-0.16368127741306 
1382	-0.159020151433584 
1383	-1.77535244950917E-02 
1384	-7.55100454252421E-02 
1385	-0.243315363138638 
1386	-0.237653934870427 
1387	-0.237805799605745 
1388	-0.347427043537782 
1389	-0.603670884698878 
1390	-0.607959471116543 
1391	-0.608740546060027 
1392	-0.32907180098935 
1393	-0.250603922712982 
1394	-0.28422236085581 
1395	-0.284167640476942 
1396	-0.305539117093839 
1397	 0.130366577587324 
1398	 0.44714581565825 
1399	-5.37177193598249E-02 
1400	-0.326121400788403 
1401	-0.275493409070701 
1402	-0.308526736932525 
1403	-0.348720373920662 
1404	-0.250062042280213 
1405	-0.15544352512784 
1406	-0.168591032551172 
1407	-0.184307635678425 
1408	-8.92276278564017E-02 
1409	-5.95663363751458E-02 
1410	-0.132835682531927 
1411	-0.135709258613718 
1412	-7.82584825220021E-02 
1413	-6.85602215611423E-02 
1414	-0.103679645526486 
1415	-8.12326501791602E-02 
1416	-1.47564790455961E-02 
1417	 1.67613319714944E-03 
1418	 1.84936395559506E-03 
1419	 6.72480793706552E-03 
1420	 1.38627779758083E-03 
1421	 2.6597219202977E-03 
1422	 9.94641933754296E-03 
1423	 1.17190752820266E-02 
1424	 1.00131137675575E-02 
1425	 9.69223171926639E-03 
1426	 0.011598654509734 
1427	 9.11865568468176E-03 
1428	 2.04627605632969E-03 
1429	 1.14535584357013E-03 
1430	 1.51618650652602E-03 
1431	 1.09385311829649E-03 
1432	 9.78489237942308E-04 
1433	 5.39144989499391E-03 
1434	 1.32713190984851E-02 
1435	 1.51195889067665E-02 
1436	 1.53412871271764E-02 
1437	 2.52429888781014E-02 
1438	 1.91409605345584E-02 
1439	 1.14819033608641E-02 
1440	 1.33350077475795E-02 
1441	 6.47104098455744E-03 
1442	 2.74401079484586E-03 
1443	 1.05100081866002E-02 
1444	 1.27719999981765E-02 
1445	 1.03163022186887E-02 
1446	 1.14479874415018E-02 
1447	 1.08196375786578E-02 
1448	 1.00710031288728E-02 
1449	 1.32152543505349E-02 
1450	 1.57514279684323E-02 
1451	 1.46279324506827E-02 
1452	 1.34123575996952E-02 
1453	 1.43280484843946E-02 
1454	 1.47306480676224E-02 
1455	 1.49289960580051E-02 
1456	 1.51096981935859E-02 
1457	 1.57279379893489E-02 
1458	 1.53272575733147E-02 
1459	 1.38070841721242E-02 
1460	 1.43706749365372E-02 
1461	 1.61779691017756E-02 
1462	 0.016202791779849 
1463	 1.63941822918846E-02 
1464	 1.65945660593732E-02 
1465	 1.48433947765654E-02 
1466	 1.48398422377489E-02 
1467	 1.78265406219904E-02 
1468	 1.74924250994781E-02 
1469	 1.41583274826909E-02 
1470	 1.41198425753106E-02 
1471	 1.49621997129729E-02 
1472	 1.46946123879053E-02 
1473	 1.48464970546007E-02 
1474	 1.62529161130522E-02 
1475	 1.83190733069752E-02 
1476	 1.80904097576026E-02 
1477	 0.017432632946043 
1478	 1.83215320714814E-02 
1479	 0.018694499991478 
1480	 1.79020056278976E-02 
1481	 1.76172232377706E-02 
1482	 1.82662340113048E-02 
1483	 1.77791574338633E-02 
1484	 1.78902739651124E-02 
1485	 0.01989909954285 
1486	 2.04157935810851E-02 
1487	 1.94431598053396E-02 
1488	 1.94263466356685E-02 
1489	 1.99267407210675E-02 
1490	 2.01395700758284E-02 
1491	 2.03754690016765E-02 
1492	 2.04850430098297E-02 
1493	 2.02969068584287E-02 
1494	 0.020449889260896 
1495	 2.08482957756177E-02 
1496	 2.10210130750608E-02 
1497	 2.10944379413977E-02 
1498	 2.13541647160648E-02 
1499	 2.17870030202556E-02 
1500	 2.18876041195174E-02 
1501	 2.18412407467887E-02 
1502	 2.20466801854874E-02 
1503	 2.22271001368971E-02 
1504	 2.22521589296023E-02 
1505	 0.022354561796363 
1506	 2.25700173489541E-02 
1507	 2.25356956645123E-02 
1508	 2.26327361516709E-02 
1509	 2.30088628087942E-02 
1510	 2.31588255483233E-02 
1511	 2.31653537266622E-02 
1512	 2.32706294314921E-02 
1513	 2.33383883781537E-02 
1514	 2.33427621980663E-02 
1515	 2.34707191368124E-02 
1516	 0.023684598161295 
1517	 2.38893931811301E-02 
1518	 2.41452357049403E-02 
1519	 2.42865200443369E-02 
1520	 2.43317003597221E-02 
1521	 2.45542731670631E-02 
1522	 0.024757921015058 
1523	 2.47949310580638E-02 
1524	 2.48937939002813E-02 
1525	 2.49937893313903E-02 
1526	 0.02510458790742 
1527	 2.54258941121507E-02 
1528	 2.56339868764648E-02 
1529	 2.55724947649522E-02 
1530	 2.55744507576184E-02 
1531	 2.56086550646835E-02 
1532	 2.56378714199559E-02 
1533	 2.57977419582864E-02 
1534	 2.60385413816184E-02 
1535	 2.61700255428704E-02 
1536	 2.61613106402512E-02 
1537	 2.61875275291519E-02 
1538	 0.026222073202747 
1539	 2.65024365556157E-02 
1540	 2.69241078032347E-02 
1541	 2.70044968166283E-02 
1542	 2.70537222148504E-02 
1543	 2.71792574242859E-02 
1544	 2.72034490361758E-02 
1545	 2.73201694193891E-02 
1546	 2.75358004700501E-02 
1547	 2.75607411985379E-02 
1548	 0.027524340479042 
1549	 2.76106469523062E-02 
1550	 2.76748834472599E-02 
1551	 2.78161053013497E-02 
1552	 2.78565173975751E-02 
1553	 2.78468979525367E-02 
1554	 0.028036695596108 
1555	 2.81981734440004E-02 
1556	 2.83126524837703E-02 
1557	 2.83568665398424E-02 
1558	 2.82432047296736E-02 
1559	 2.81833536499612E-02 
1560	 2.83623538071109E-02 
1561	 2.85314604344153E-02 
1562	 2.85798418866615E-02 
1563	 2.87161529430053E-02 
1564	 2.87955902969617E-02 
1565	 2.86601561923684E-02 
1566	 0.028654484842018 
1567	 2.89197084626689E-02 
1568	 2.89726928505054E-02 
1569	 2.89157963684987E-02 
1570	 2.91941752469436E-02 
1571	 2.93265991121827E-02 
1572	 2.92030429105841E-02 
1573	 2.94778191425896E-02 
1574	 2.97556172068261E-02 
1575	 2.95749502556226E-02 
1576	 2.95147588711056E-02 
1577	 2.96816539855105E-02 
1578	 2.97258702908964E-02 
1579	 2.98484896791987E-02 
1580	 0.030081576263487 
1581	 3.00263755662776E-02 
1582	 2.98646127197299E-02 
1583	 2.99398237203019E-02 
1584	 3.01584747866802E-02 
1585	 3.02280065391897E-02 
1586	 3.01091130860966E-02 
1587	 3.00849341455103E-02 
1588	 3.00298712704417E-02 
1589	 2.99621399381067E-02 
1590	 3.00835863365304E-02 
1591	 3.02087103174325E-02 
1592	 3.04001481848846E-02 
1593	 3.04716751126144E-02 
1594	 3.03658188824084E-02 
1595	 3.05691083819531E-02 
1596	 3.07621170971812E-02 
1597	 3.06421548968736E-02 
1598	 3.07431403533941E-02 
1599	 3.08374924288358E-02 
1600	 0.03045140401296 
1601	 3.03006916302957E-02 
1602	 3.06970279285894E-02 
1603	 3.11254534748519E-02 
1604	 3.12241576024356E-02 
1605	 3.09748050652056E-02 
1606	 3.07841091871801E-02 
1607	 3.08053073336464E-02 
1608	 3.09256664325239E-02 
1609	 3.11644253679953E-02 
1610	 3.13051328660492E-02 
1611	 3.11563215661307E-02 
1612	 3.10549988688685E-02 
1613	 3.11044291597194E-02 
1614	 0.03124941098919 
1615	 3.14030232544842E-02 
1616	 3.13124446587661E-02 
1617	 3.12556365755269E-02 
1618	 3.13463244915024E-02 
1619	 3.14499833090887E-02 
1620	 3.15020686255477E-02 
1621	 3.14974577555632E-02 
1622	 3.15996804051954E-02 
1623	 3.15164285160568E-02 
1624	 0.031265247138838 
1625	 3.13223424378397E-02 
1626	 0.031414600837323 
1627	 3.12265690621084E-02 
1628	 0.031193964742637 
1629	 3.15131977614393E-02 
1630	 3.16755557822327E-02 
1631	 3.15764703335737E-02 
1632	 0.031534312552225 
1633	 3.14249124827878E-02 
1634	 3.12970150249458E-02 
1635	 3.14684345234797E-02 
1636	 3.17726164375713E-02 
1637	 3.17810870374356E-02 
1638	 3.14918792663655E-02 
1639	 3.14306564208876E-02 
1640	 3.16520519453577E-02 
1641	 3.15832836882483E-02 
1642	 3.13714477463049E-02 
1643	 3.15134861374089E-02 
1644	 3.15512373823148E-02 
1645	 0.03139842586121 
1646	 3.15826210147028E-02 
1647	 3.15205865938913E-02 
1648	 3.12251989235989E-02 
1649	 3.13942055198455E-02 
1650	 3.15271123990924E-02 
1651	 3.15687477122602E-02 
1652	 3.16954779766506E-02 
1653	 3.13990784052354E-02 
1654	 3.13611203197405E-02 
1655	 3.14332060871314E-02 
1656	 3.14200799197299E-02 
1657	 3.14864946463363E-02 
1658	 3.15794171275386E-02 
1659	 3.16233243534266E-02 
1660	 3.16071488965916E-02 
1661	 3.15933426131583E-02 
1662	 0.031691896175948 
1663	 3.18593097697786E-02 
1664	 3.18187304295589E-02 
1665	 3.17037588782599E-02 
1666	 3.17466451216746E-02 
1667	 3.17205920770872E-02 
1668	 0.03185413195107 
1669	 3.18670781368233E-02 
1670	 3.16401764316989E-02 
1671	 3.14796690908862E-02 
1672	 3.13785197088796E-02 
1673	 3.15373969241552E-02 
1674	 3.19494955217067E-02 
1675	 0.03188634215062 
1676	 3.17310121901901E-02 
1677	 3.18266847784888E-02 
1678	 3.16110118489703E-02 
1679	 3.15466271212432E-02 
1680	 3.18806782380953E-02 
1681	 3.18478019701231E-02 
1682	 3.15836465706302E-02 
1683	 3.17228756126564E-02 
1684	 3.19182859559091E-02 
1685	 0.031754525222591 
1686	 3.17749659969687E-02 
1687	 3.19039038252467E-02 
1688	 3.14629049681825E-02 
1689	 3.13470729124667E-02 
1690	 3.18196811499273E-02 
1691	 3.18035167927162E-02 
1692	 3.15907119943761E-02 
1693	 3.14587669231831E-02 
1694	 3.13291772609773E-02 
1695	 3.15680296461809E-02 
1696	 3.20326978036937E-02 
1697	 3.22192403036264E-02 
1698	 3.18430268492841E-02 
1699	 3.13782824422651E-02 
1700	 3.12455675944461E-02 
1701	 3.13479934696314E-02 
1702	 3.18033700546891E-02 
1703	 3.19520858103865E-02 
1704	 3.14594693783631E-02 
1705	 3.11499576629386E-02 
1706	 3.10099907078315E-02 
1707	 3.09968571610132E-02 
1708	 3.12844603047432E-02 
1709	 3.15457690371196E-02 
1710	 3.16068994207851E-02 
1711	 3.16256371664474E-02 
1712	 3.16487412301392E-02 
1713	 3.13990275827339E-02 
1714	 3.13055137161657E-02 
1715	 3.09613881726768E-02 
1716	 3.08623381925957E-02 
1717	 3.11429851135745E-02 
1718	 3.11432636179734E-02 
1719	 3.09629720774249E-02 
1720	 3.08576050880735E-02 
1721	 3.08452353600585E-02 
1722	 3.10140921523331E-02 
1723	 3.13326454679134E-02 
1724	 0.031467018073775 
1725	 3.11650275561284E-02 
1726	 3.05043484710732E-02 
1727	 3.01477636057776E-02 
1728	 3.03044177576906E-02 
1729	 3.03842390913374E-02 
1730	 3.06946950069339E-02 
1731	 3.09539712955069E-02 
1732	 3.03167981930246E-02 
1733	 3.00017660316606E-02 
1734	 3.01461348645596E-02 
1735	 2.96574188173944E-02 
1736	 2.95778724409159E-02 
1737	 3.00389994367124E-02 
1738	 3.00120600900178E-02 
1739	 2.97622861014721E-02 
1740	 0.029876211719905 
1741	 2.99362769062145E-02 
1742	 0.029473518868133 
1743	 2.95650671196994E-02 
1744	 2.97837972941921E-02 
1745	 2.91748163505812E-02 
1746	 0.029499344689905 
1747	 2.96603683176527E-02 
1748	 3.01545707142799E-02 
1749	 3.00459629060223E-02 
1750	 0.029104153197693 
1751	 2.89233090989546E-02 
1752	 2.88322818293265E-02 
1753	 2.87016888442509E-02 
1754	 2.92528338875408E-02 
1755	 2.92804675288379E-02 
1756	 2.86047248243376E-02 
1757	 2.83345474527152E-02 
1758	 2.80568190735665E-02 
1759	 2.80924299865986E-02 
1760	 2.88793315322341E-02 
1761	 2.90118673397621E-02 
1762	 2.86282628258397E-02 
1763	 2.79064598381268E-02 
1764	 2.67871381299308E-02 
1765	 2.68508357407596E-02 
1766	 2.77290627632477E-02 
1767	 2.79169846177213E-02 
1768	 2.81455064140321E-02 
1769	 2.83208109633372E-02 
1770	 2.75305102874333E-02 
1771	 2.67537589612379E-02 
1772	 2.64378746230309E-02 
1773	 2.68401530257752E-02 
1774	 2.73034704153321E-02 
1775	 2.78276610563068E-02 
1776	 2.80462511437834E-02 
1777	 2.64730668387322E-02 
1778	 2.58296368486748E-02 
1779	 2.60377729480353E-02 
1780	 2.58547406288031E-02 
1781	 0.02554196311637 
1782	 2.58024348128909E-02 
1783	 2.73342747060314E-02 
1784	 2.74129646731132E-02 
1785	 2.66352153397268E-02 
1786	 2.54019162993941E-02 
1787	 2.16318254072894E-02 
1788	 2.13989415901134E-02 
1789	 2.38548675769796E-02 
1790	 0.025520477597196 
1791	 2.77363483210828E-02 
1792	 2.71674618224071E-02 
1793	 2.54015754340719E-02 
1794	 0.02669020594673 
1795	 2.40088241105187E-02 
1796	 1.99858250041303E-02 
1797	 2.09888758405669E-02 
1798	 2.14213419469809E-02 
1799	 2.73407611583984E-02 
1800	 3.81324588417106E-02 
1801	 4.06544402630555E-02 
1802	 0.026672683836313 
1803	 2.08242415759936E-02 
1804	 1.11814158635059E-02 
1805	 5.25850498585451E-03 
1806	 1.69338626966241E-02 
1807	 2.52841134811187E-02 
1808	 3.75088285121919E-02 
1809	 4.58305820340958E-02 
1810	 6.68418210534064E-02 
1811	 4.92240849044727E-02 
1812	-6.86826757107163E-02 
1813	-0.127452468389782 
1814	-0.162690457206019 
1815	-0.19800994845808 
1816	-0.107209046527836 
1817	 2.28007078484887E-03 
1818	-5.93153212165296E-02 
1819	-3.63260674619665E-02 
1820	-0.191264151533499 
1821	-0.83897055677577 
1822	-0.877817668489178 
1823	-0.431648344334511 
1824	-0.335861512867881 
1825	-1.05780083877902E-02 
1826	 0.211821190990579 
1827	 0.190799276695835 
1828	 0.219035080880144 
1829	 4.41509588548775E-02 
1830	-3.49128162917598E-02 
1831	-0.49976019038463 
1832	-0.152780418699617 
1833	 0.558371402559634 
1834	 0.61476183479454 
1835	 0.459214337731496 
1836	 0.466351101958831 
1837	-0.229434961137705 
1838	-0.311744961085649 
1839	 0.259018101545788 
1840	 0.618507310093428 
1841	-2.28015057585008E-02 
1842	-0.470325512650518 
1843	-0.927671085895108 
1844	-4.97598349567836 
1845	-13.7942131886063 
1846	 2.29806476634176 
1847	 1.97104422607877 
1848	-6.04684631674192 
1849	-0.62927544693992 
1850	-0.513803041373431 
1851	-0.682513020151844 
1852	-1.73088823308984 
1853	-16.3857458438829 
1854	 5.52142157203483 
1855	 1.87077993322628 
1856	 0.796880694049093 
1857	-0.181480622530462 
1858	-0.621589818078761 
1859	-0.957919897531699 
1860	-0.921969363476266 
1861	-5.90257649083477 
1862	 1.90069049029806E-02 
1863	 0.650717082341501 
1864	-6.05750289378942 
1865	-2.0574907862386 
1866	-0.440910755705663 
1867	-1.17972506091195 
1868	 1.45684754518816 
1869	 0.629143807970653 
1870	 6.78348005787746E-02 
1871	-0.641668334793498 
1872	-2.41459984342357 
1873	 3.44974262861 
1874	 2.1919399008878 
1875	-11.8383948369812 
1876	-5.23518066424558 
1877	-2.24190171468735 
1878	-1.21494535406148 
1879	-0.87111567374224 
1880	-0.574683468883475 
1881	-0.159682649605372 
1882	-0.15466232074818 
1883	 0.210024187051844 
1884	 0.340976146656735 
1885	-0.992296977900846 
1886	-1.26770618526198 
1887	 2.52228382429635 
1888	 1.98612387668161 
1889	 1.73149840962926 
1890	 0.253739178995619 
1891	 0.408683246005755 
1892	-1.20947048130045 
1893	-0.24687448109535 
1894	-0.429676689130556 
1895	-0.562176844375495 
1896	-0.138145978947298 
1897	-0.52360080710401 
1898	-1.48690432651509 
1899	-0.967921552390576 
1900	-1.4114621035568 
1901	 5.55720807301574 
1902	 2.94041974679791 
1903	 3.69989940782434 
1904	 3.65830431175601 
1905	 9.81621887709849 
1906	-3.07442599932094 
1907	-4.89024581237499 
1908	-7.47230505511615 
1909	 19.0485588095456 
1910	-2.77831122751891 
1911	-0.756867114442483 
1912	 0.777907738388225 
1913	 2.06950854488635 
1914	 4.00363645450162 
1915	 6.68184727662692 
1916	-7.02408216808831 
1917	-3.53346341224375 
1918	-12.8656179074415 
1919	-10.9652842689291 
1920	-6.41380478178227 
1921	-2.81186330135673 
1922	-0.2603916216769 
1923	 0.30411711454522 
1924	 0.291409988341812 
1925	 0.322715365217956 
1926	 0.404674358289558 
1927	 0.432374645708652 
1928	 0.437183434484416 
1929	 1.09332110033401 
1930	 1.27720866637229 
1931	 1.06407344445456 
1932	 0.468212679357503 
1933	 2.30325245721822E-02 
1934	-6.97011815744805E-02 
1935	-0.208060705165953 
1936	-0.244403071685824 
1937	-0.168371406784321 
1938	-0.166474130769664 
1939	-0.137600120858023 
1940	-7.98052579563887E-02 
1941	-3.30317067170044E-02 
1942	-1.73535850764272E-02 
1943	-6.63251127644915E-03 
1944	-0.01046264490885 
1945	-1.11574129348647E-02 
1946	-1.71742397412704E-02 
1947	-2.32347366711916E-02 
1948	-1.83634343450401E-02 
1949	-1.67766083291285E-02 
1950	-1.76632714699663E-02 
1951	-1.63067235886678E-02 
1952	-1.10596141113679E-02 
1953	-6.27549087904749E-04 
1954	 1.86693896936548E-02 
1955	 2.65979911917733E-02 
1956	 2.21876041064395E-02 
1957	 2.74126575791851E-02 
1958	 2.69104310467889E-02 
1959	 2.04062054554872E-02 
1960	 0.022588213202277 
1961	 2.06887897103598E-02 
1962	 1.31524986133825E-02 
1963	 1.01157429534291E-02 
1964	 9.2474141629549E-03 
1965	 8.62352594307431E-03 
1966	 8.1615099842123E-03 
1967	 9.54328445030416E-03 
1968	 8.38254187146179E-03 
1969	 6.52906339381648E-03 
1970	 8.23208555340731E-03 
1971	 9.4320051418725E-03 
1972	 1.00551762497513E-02 
1973	 1.06275937838354E-02 
1974	 9.00879339509443E-03 
1975	 8.15464660124913E-03 
1976	 8.10543539735187E-03 
1977	 7.13685022980005E-03 
1978	 6.00224035359634E-03 
1979	 5.64184868222333E-03 
1980	 4.68218285021598E-03 
1981	 4.99794214585012E-03 
1982	 6.3938252409169E-03 
1983	 7.5412621972103E-03 
1984	 8.30934679388501E-03 
1985	 8.01801176415812E-03 
1986	 7.78007019501394E-03 
1987	 8.06111188145209E-03 
1988	 8.36299435523277E-03 
1989	 8.62938560426213E-03 
1990	 8.58213678134942E-03 
1991	 9.38378541267637E-03 
1992	 1.00529351035671E-02 
1993	 9.66871364837553E-03 
1994	 9.64638953566937E-03 
1995	 9.88888197941792E-03 
1996	 9.63932833065579E-03 
1997	 9.00071458996818E-03 
1998	 9.78078819581265E-03 
1999	 1.13910102032198E-02 
2000	 1.16901053465861E-02 
2001	 1.07854580332927E-02 
2002	 1.01777463000647E-02 
2003	 8.40145602671626E-03 
2004	 7.41277539349968E-03 
2005	 8.77407218785086E-03 
2006	 8.75384455783812E-03 
2007	 1.03979442336894E-02 
2008	 1.19955939906449E-02 
2009	 1.28309431204527E-02 
2010	 0.013917797961625 
2011	 1.49517930588476E-02 
2012	 1.57716784145689E-02 
2013	 1.50479228250696E-02 
2014	 1.40627225189214E-02 
2015	 1.31756521792712E-02 
2016	 1.19616629264412E-02 
2017	 9.92428975970467E-03 
2018	 0.010380981964369 
2019	 1.08894112529826E-02 
2020	 1.12727334746738E-02 
2021	 1.21552307282785E-02 
2022	 1.16827086176995E-02 
2023	 1.14923141055858E-02 
2024	 0.011323402563193 
2025	 0.010702779678616 
2026	 1.07644711547937E-02 
2027	 1.14932043772632E-02 
2028	 1.13781522777201E-02 
2029	 1.11168777048583E-02 
2030	 1.14072759500826E-02 
2031	 1.17726336109522E-02 
2032	 1.16400118682591E-02 
2033	 1.13236743263209E-02 
2034	 1.16258146782646E-02 
2035	 1.16158966271104E-02 
2036	 1.18336413593698E-02 
2037	 0.012621530877702 
2038	 1.26923980504831E-02 
2039	 1.27357552864465E-02 
2040	 1.23656858846669E-02 
2041	 1.23244036329084E-02 
2042	 1.22623564524233E-02 
2043	 0.012431641147357 
2044	 1.29302085727179E-02 
2045	 1.32181420138612E-02 
2046	 1.31017751721002E-02 
2047	 1.29510987847935E-02 
2048	 1.24111989484235E-02 
2049	 1.28613062649078E-02 
2050	 1.37439825025356E-02 
2051	 1.38917655636717E-02 
2052	 1.45361004753595E-02 
2053	 1.40451991605221E-02 
2054	 1.27421213395984E-02 
2055	 1.28651102096112E-02 
2056	 1.28975644406121E-02 
2057	 0.012887110803724 
2058	 1.31408388838644E-02 
2059	 1.43322720218597E-02 
2060	 1.45407546317093E-02 
2061	 1.42740885376332E-02 
2062	 1.39739705138338E-02 
2063	 1.42472278058234E-02 
2064	 1.40860520051153E-02 
2065	 1.39116478800759E-02 
2066	 1.38979016326241E-02 
2067	 1.30578268894973E-02 
2068	 1.26104315756719E-02 
2069	 1.28285830235973E-02 
2070	 1.25926658092094E-02 
2071	 1.24082973316911E-02 
2072	 1.29903549461304E-02 
2073	 1.35819481540878E-02 
2074	 1.46966502578197E-02 
2075	 0.014942410278789 
2076	 1.46266078427156E-02 
2077	 0.014836386686945 
2078	 1.49590828655128E-02 
2079	 1.49987089723867E-02 
2080	 1.52465777422522E-02 
2081	 1.61200081627333E-02 
2082	 1.60416490368327E-02 
2083	 1.54969019986724E-02 
2084	 1.62589066379021E-02 
2085	 0.016681510578712 
2086	 1.62488196252045E-02 
2087	 1.61877893509031E-02 
2088	 1.65053451419078E-02 
2089	 1.68286517239248E-02 
2090	 1.68135106521162E-02 
2091	 1.65996217370102E-02 
2092	 1.64692392172189E-02 
2093	 1.53006205309214E-02 
2094	 1.51016883238659E-02 
2095	 1.61249167964325E-02 
2096	 1.64612424919579E-02 
2097	 1.66127336353705E-02 
2098	 1.66468605458191E-02 
2099	 1.64639868246349E-02 
2100	 1.61368573713424E-02 
2101	 1.64230120482474E-02 
2102	 1.64270405640815E-02 
2103	 1.64723816537093E-02 
2104	 0.016743677908281 
2105	 1.63846787052416E-02 
2106	 1.67150586430019E-02 
2107	 1.68195638748074E-02 
2108	 1.61509665143144E-02 
2109	 1.58001981994332E-02 
2110	 1.56595545113218E-02 
2111	 1.63558784321713E-02 
2112	 1.73870847259312E-02 
2113	 0.017624423203957 
2114	 1.74735641387844E-02 
2115	 1.73362302866328E-02 
2116	 1.65793939880121E-02 
2117	 0.016281480680953 
2118	 0.016498949894632 
2119	 0.016273739408008 
2120	 1.56489983182041E-02 
2121	 1.52297651376827E-02 
2122	 1.56647767560852E-02 
2123	 1.63588644217642E-02 
2124	 1.76459494384402E-02 
2125	 0.018173132951845 
2126	 1.79078106209218E-02 
2127	 1.73306630113488E-02 
2128	 1.75592421073035E-02 
2129	 1.89072236728889E-02 
2130	 0.019052292745276 
2131	 1.91059191449878E-02 
2132	 1.93369768103813E-02 
2133	 1.82456419665455E-02 
2134	 1.79500860346098E-02 
2135	 1.87071811525975E-02 
2136	 1.87763006127852E-02 
2137	 1.79653755411816E-02 
2138	 0.018015318391985 
2139	 1.86838735592115E-02 
2140	 1.88662363668118E-02 
2141	 1.94566762708639E-02 
2142	 1.94498519053187E-02 
2143	 1.89632488581834E-02 
2144	 1.80484725575561E-02 
2145	 1.76290216950669E-02 
2146	 1.80709156616129E-02 
2147	 1.82015515846339E-02 
2148	 1.77573017498535E-02 
2149	 1.78649257664064E-02 
2150	 1.82102785121619E-02 
2151	 1.90041327308139E-02 
2152	 2.02415174937495E-02 
2153	 2.03374525025411E-02 
2154	 1.96805072886783E-02 
2155	 0.019796221498814 
2156	 1.95118526669315E-02 
2157	 1.95563847856396E-02 
2158	 2.01770815004425E-02 
2159	 2.03139760464787E-02 
2160	 2.01793850020174E-02 
2161	 2.04474052780494E-02 
2162	 2.10460246883169E-02 
2163	 2.04755253845667E-02 
2164	 1.94434366391185E-02 
2165	 1.88880691374838E-02 
2166	 1.70811063574341E-02 
2167	 1.66240274403956E-02 
2168	 1.78853796477721E-02 
2169	 1.79915613755851E-02 
2170	 1.76097643586102E-02 
2171	 1.80864994120305E-02 
2172	 1.79825975060788E-02 
2173	 1.69291217051175E-02 
2174	 0.017170877685552 
2175	 0.017649753646861 
2176	 1.76498021651386E-02 
2177	 1.82308583996414E-02 
2178	 1.91730300827915E-02 
2179	 1.98321806648961E-02 
2180	 2.04569295821206E-02 
2181	 2.06945349385411E-02 
2182	 0.019725052324294 
2183	 1.84185281505345E-02 
2184	 1.85473345153768E-02 
2185	 1.99396695569908E-02 
2186	 2.00870064307809E-02 
2187	 1.98938070499369E-02 
2188	 2.01977024152229E-02 
2189	 2.05607045457874E-02 
2190	 2.03782501057745E-02 
2191	 2.04215775699162E-02 
2192	 2.05803709927067E-02 
2193	 1.91938597476342E-02 
2194	 1.90320295886071E-02 
2195	 2.08523116217849E-02 
2196	 2.15870462084094E-02 
2197	 2.24119442014818E-02 
2198	 2.21642490597171E-02 
2199	 2.04455412481454E-02 
2200	 1.97686479189848E-02 
2201	 1.87931934146051E-02 
2202	 0.017947129507182 
2203	 1.84928554368206E-02 
2204	 1.97012207459621E-02 
2205	 2.13594751560659E-02 
2206	 2.20439115306452E-02 
2207	 2.18306184775379E-02 
2208	 2.20353849896472E-02 
2209	 2.14377609234722E-02 
2210	 2.08950759222492E-02 
2211	 2.04078418434988E-02 
2212	 0.019384205602212 
2213	 1.91166883591525E-02 
2214	 1.92003565445309E-02 
2215	 1.98863555982331E-02 
2216	 2.05964577003671E-02 
2217	 2.08084581731803E-02 
2218	 0.020466664366188 
2219	 2.00015072017591E-02 
2220	 1.89189184800132E-02 
2221	 1.87583927861519E-02 
2222	 1.91398436831342E-02 
2223	 0.01885483540652 
2224	 1.84350721021806E-02 
2225	 1.88059340358594E-02 
2226	 1.90057507982634E-02 
2227	 1.87268022032851E-02 
2228	 1.93888719592326E-02 
2229	 2.00391308465293E-02 
2230	 1.96619391827014E-02 
2231	 1.95884532770972E-02 
2232	 2.06853501062705E-02 
2233	 2.06208484378533E-02 
2234	 0.0193630834593 
2235	 1.87415545784489E-02 
2236	 1.81872801805007E-02 
2237	 1.72525433674629E-02 
2238	 1.67887849533435E-02 
2239	 1.71078683945141E-02 
2240	 1.81205543270287E-02 
2241	 1.81293224676259E-02 
2242	 1.64111546488872E-02 
2243	 1.56687922912755E-02 
2244	 1.55649292400854E-02 
2245	 1.59500042859372E-02 
2246	 1.84146077342133E-02 
2247	 2.02947325251243E-02 
2248	 2.00665820868987E-02 
2249	 1.94992279514346E-02 
2250	 1.84217079334522E-02 
2251	 1.75368752853698E-02 
2252	 1.82247813214754E-02 
2253	 1.89032804883051E-02 
2254	 2.01481574346063E-02 
2255	 2.13773399473174E-02 
2256	 2.06243885216092E-02 
2257	 2.01010180989262E-02 
2258	 1.98111066286253E-02 
2259	 1.91043890275351E-02 
2260	 0.018892253224438 
2261	 1.96360614554494E-02 
2262	 1.97467763660531E-02 
2263	 1.95024572303812E-02 
2264	 1.91442572017483E-02 
2265	 1.85861266791467E-02 
2266	 1.89725461371189E-02 
2267	 1.97689322520824E-02 
2268	 1.97799244541391E-02 
2269	 2.07276491301076E-02 
2270	 2.02353519073726E-02 
2271	 1.72520021211977E-02 
2272	 1.65368245277756E-02 
2273	 0.017262309202183 
2274	 0.017010287524349 
2275	 1.62829868289611E-02 
2276	 1.67377508790796E-02 
2277	 1.76507420774501E-02 
2278	 1.73036549975478E-02 
2279	 1.78852324341556E-02 
2280	 1.82558111091615E-02 
2281	 1.74190101858671E-02 
2282	 1.64890422471019E-02 
2283	 1.75076480555347E-02 
2284	 1.94245903936087E-02 
2285	 0.021449407953259 
2286	 2.25335595817225E-02 
2287	 2.24632303698932E-02 
2288	 0.019852386133383 
2289	 1.61445903531438E-02 
2290	 1.44295303861287E-02 
2291	 1.42426903180777E-02 
2292	 1.66253523965145E-02 
2293	 2.14552479242557E-02 
2294	 2.08956753510628E-02 
2295	 1.48698577840542E-02 
2296	 0.011056239710393 
2297	 9.6588022174045E-03 
2298	 1.17106892561802E-02 
2299	 1.63280834953026E-02 
2300	 1.80169086576482E-02 
2301	 1.50827178280517E-02 
2302	 1.15807521010976E-02 
2303	 1.26236881600517E-02 
2304	 0.013303996658692 
2305	 1.36619406823678E-02 
2306	 1.57482976817239E-02 
2307	 0.013194593861912 
2308	 1.38141388807154E-02 
2309	 1.65291821824488E-02 
2310	 1.51970613778831E-02 
2311	 1.71806440751213E-02 
2312	 1.68023140010471E-02 
2313	 1.62418990949149E-02 
2314	 1.89999004920989E-02 
2315	 1.77303333998568E-02 
2316	 1.72392040767458E-02 
2317	 1.66748165509827E-02 
2318	 1.34526477137958E-02 
2319	 1.39228818485106E-02 
2320	 0.013765055455496 
2321	 1.18880291994639E-02 
2322	 1.28552839052909E-02 
2323	 1.19733652317524E-02 
2324	 1.18227430675039E-02 
2325	 1.36242315618512E-02 
2326	 0.014416059958069 
2327	 1.60947101658613E-02 
2328	 1.60936358722667E-02 
2329	 1.57144712080734E-02 
2330	 1.52960267348097E-02 
2331	 1.51378690200991E-02 
2332	 0.018975237488178 
2333	 2.29344688399605E-02 
2334	 0.024827442765595 
2335	 2.60254647884002E-02 
2336	 2.30414566074302E-02 
2337	 1.66865763158965E-02 
2338	 1.21382595549166E-02 
2339	 8.55689463668329E-03 
2340	 2.42153950830218E-03 
2341	-3.16322704960094E-03 
2342	-2.73744581037814E-03 
2343	-2.18899634723119E-03 
2344	 6.11712451671885E-04 
2345	 4.66588484008998E-03 
2346	 1.5806256593124E-03 
2347	 8.03763902086102E-04 
2348	 0.001360612555399 
2349	 2.05284622416447E-04 
2350	 4.38765419811811E-04 
2351	-8.72018562437529E-04 
2352	-7.49265502214943E-04 
2353	 3.13205811157897E-03 
2354	 8.51710975344371E-03 
2355	 1.52063385542423E-02 
2356	 1.71815437893586E-02 
2357	 8.70088330323187E-03 
2358	-1.66876317927425E-04 
2359	-1.09401089345486E-03 
2360	-2.43367069499272E-03 
2361	-1.49964380729221E-03 
2362	 6.70422325962268E-03 
2363	 8.15733589609699E-03 
2364	 6.77508891407983E-03 
2365	 6.71111739339778E-03 
2366	 4.09410360722963E-03 
2367	-1.98153797151356E-04 
2368	-7.21553523024738E-03 
2369	-1.79371023728656E-02 
2370	-2.89741117922189E-02 
2371	-2.48291706835619E-02 
2372	-1.54579405053195E-02 
2373	-3.9534352439337E-03 
2374	 0.014109540690279 
2375	 1.07854976066658E-02 
2376	-9.30165129297925E-03 
2377	-2.35573417576221E-02 
2378	-3.26116392173531E-02 
2379	-2.21849423999266E-02 
2380	-1.21832758161787E-03 
2381	 9.2307249997778E-03 
2382	 1.70256775010432E-02 
2383	 1.42076288421957E-02 
2384	 6.2915810480721E-04 
2385	 0.008403993791461 
2386	 4.36596217988297E-02 
2387	 5.31478486296337E-02 
2388	 0.043348254057914 
2389	 2.74643262413955E-02 
2390	-1.56365574895136E-02 
2391	-2.56059334885695E-02 
2392	-1.28822617587802E-03 
2393	 1.74130777129384E-02 
2394	 1.84606997543526E-02 
2395	-9.0375286158739E-04 
2396	-2.00344959658391E-02 
2397	-3.34442769935489E-02 
2398	-2.67722900485568E-02 
2399	-8.3098737303527E-03 
2400	 5.48291726649523E-03 
2401	 2.21553889807871E-02 
2402	 2.83027855274679E-02 
2403	 1.53387630824887E-02 
2404	 3.05650301223176E-03 
2405	 2.47302866584941E-03 
2406	-0.016915898332675 
2407	-4.12649329836053E-02 
2408	-3.57792947941411E-02 
2409	-4.05810894838173E-02 
2410	-3.70752431837578E-02 
2411	 2.00173570210573E-03 
2412	 5.76885151706073E-03 
2413	-8.18925749168427E-03 
2414	 1.33624223240138E-03 
2415	-5.40930669454817E-02 
2416	-0.113179826857033 
2417	-0.101330554947799 
2418	-7.13233622007843E-02 
2419	-1.50859433072474E-02 
2420	 3.46156736292233E-02 
2421	 4.81366646979747E-03 
2422	-8.82524701746288E-02 
2423	-9.22595595526053E-02 
2424	-0.01448115805053 
2425	 4.46438639865186E-03 
2426	 2.24745569263486E-02 
2427	 4.31039985363969E-02 
2428	-1.81615254665108E-02 
2429	-5.04243174423473E-02 
2430	 3.34294568682963E-03 
2431	 5.86515308368621E-02 
2432	 7.49748712379061E-02 
2433	 7.91758340899661E-02 
2434	 5.02477329984055E-02 
2435	-3.12089571779425E-02 
2436	-8.37698551529733E-02 
2437	-0.133425133344841 
2438	-0.190587974795113 
2439	-0.214417902372831 
2440	-0.265679498143243 
2441	-0.189463170865959 
2442	-5.85117912699895E-02 
2443	-4.69778426599774E-02 
2444	-0.0484716078893 
2445	-6.03220496354602E-02 
2446	-0.122922735022355 
2447	-0.210053350190647 
2448	-0.216043783199166 
2449	-0.346621436190987 
2450	-0.312729913657153 
2451	 5.95636309701014E-02 
2452	 0.104744407236453 
2453	 0.259143408796537 
2454	-4.95629581388461E-02 
2455	-0.271781187936207 
2456	-0.236738280767706 
2457	-0.19859163382413 
2458	-0.061957524073751 
2459	 6.33419810853239E-02 
2460	-0.102570366576004 
2461	-0.189957140650321 
2462	-0.158665345283755 
2463	-0.185437486095393 
2464	-0.211628354117225 
2465	-0.243157082432794 
2466	-0.314689522346839 
2467	-0.347689728061408 
2468	-0.313665026414271 
2469	-0.437168721777836 
2470	-0.699127087724675 
2471	-0.669540034304408 
2472	-1.34131573615297 
2473	-0.332834240225756 
2474	 1.40961647260023E-03 
2475	-0.450236029118673 
2476	-0.682428997595948 
2477	-0.65713069926165 
2478	-1.73312550668503 
2479	-0.657004044338647 
2480	-3.77725009270165E-03 
2481	 0.289856954059977 
2482	 0.674034550171986 
2483	 1.01126049265322 
2484	 1.16814727029911 
2485	 0.72218298955972 
2486	 0.529589652084739 
2487	-0.170025221058446 
2488	-0.750466331955103 
2489	-0.353578783116726 
2490	-0.726962173818405 
2491	-1.30317851290989 
2492	-0.688344467459508 
2493	-0.607769652794601 
2494	-0.131410698145091 
2495	-0.239733056972391 
2496	-4.91490739265617 
2497	-2.30284714691566 
2498	 6.49860951657736E-02 
2499	 6.22873440779708E-02 
2500	 0.521307549167577 
