Wavelength	rt0721far00000.asd
350	 2.80812619329823E-02 
351	 2.77300595721632E-02 
352	 2.76560595113788E-02 
353	 2.79661026706835E-02 
354	 2.83395268017315E-02 
355	 2.76937730541515E-02 
356	 2.75984599939249E-02 
357	 2.78976372564386E-02 
358	 2.79961051527803E-02 
359	 2.80064807153705E-02 
360	 2.76388474914825E-02 
361	 0.027155432723593 
362	 2.71548058784859E-02 
363	 2.77386466817107E-02 
364	 2.78804640677208E-02 
365	 2.74007216563635E-02 
366	 2.75648676680479E-02 
367	 2.71676429802838E-02 
368	 2.69304472436602E-02 
369	 2.75101260653695E-02 
370	 2.76255720432877E-02 
371	 2.73965290640242E-02 
372	 2.72449035900096E-02 
373	 0.027610037109436 
374	 2.74138631974663E-02 
375	 0.027380864352139 
376	 2.78181187272412E-02 
377	 2.82146517907664E-02 
378	 2.79489930503573E-02 
379	 2.78682966483907E-02 
380	 2.84725539944298E-02 
381	 2.80416243872394E-02 
382	 2.79380697310818E-02 
383	 2.82463744339356E-02 
384	 2.84875305624108E-02 
385	 2.90823264550282E-02 
386	 0.029105965490947 
387	 2.86451523683417E-02 
388	 2.89395326277073E-02 
389	 2.92759542168468E-02 
390	 2.92822886883419E-02 
391	 2.90899534567078E-02 
392	 2.99562128030674E-02 
393	 2.98571355806973E-02 
394	 2.95039891341546E-02 
395	 3.01383836499929E-02 
396	 3.00203256033814E-02 
397	 3.00131222225255E-02 
398	 3.02472064253877E-02 
399	 3.01474142966804E-02 
400	 3.03659492471075E-02 
401	 3.05249721470951E-02 
402	 3.04501713549344E-02 
403	 3.08003236681651E-02 
404	 3.07852703072102E-02 
405	 3.07091942388036E-02 
406	 3.10733699815134E-02 
407	 3.10150008823961E-02 
408	 3.10438226761854E-02 
409	 3.12596529697944E-02 
410	 3.13030915256156E-02 
411	 3.15169571997758E-02 
412	 0.031603257977019 
413	 3.14679075653311E-02 
414	 3.17740824378652E-02 
415	 3.20192726520166E-02 
416	 3.21108373521966E-02 
417	 3.21577395042447E-02 
418	 3.23813065124231E-02 
419	 3.27180592229476E-02 
420	 3.30157299814147E-02 
421	 3.30699503452414E-02 
422	 3.32080661159483E-02 
423	 3.34250155401273E-02 
424	 3.36468848289484E-02 
425	 3.38137352280405E-02 
426	 0.034033811658496 
427	 3.43106133244042E-02 
428	 0.034589125289521 
429	 3.48148605497897E-02 
430	 0.035063488763844 
431	 3.53392185151616E-02 
432	 3.55515329083651E-02 
433	 3.58434182179627E-02 
434	 3.61265655645633E-02 
435	 3.63360763181566E-02 
436	 0.036631996346255 
437	 0.036903413341397 
438	 3.71421505016924E-02 
439	 3.73968325913548E-02 
440	 3.76928846719743E-02 
441	 3.79554114210132E-02 
442	 3.81725520594795E-02 
443	 3.84379523276089E-02 
444	 3.87358497367983E-02 
445	 3.89716208488563E-02 
446	 3.91106495164115E-02 
447	 3.94476165033116E-02 
448	 3.96716909816544E-02 
449	 3.97883658949433E-02 
450	 4.00253856903908E-02 
451	 4.01849472411514E-02 
452	 4.02844754564562E-02 
453	 4.03968254348838E-02 
454	 4.06548146442944E-02 
455	 4.08068437746882E-02 
456	 4.09122453698337E-02 
457	 4.10970358151212E-02 
458	 4.11881713790266E-02 
459	 4.12370497014821E-02 
460	 4.13143411620164E-02 
461	 4.14872319486472E-02 
462	 4.15505149776827E-02 
463	 4.16324611106842E-02 
464	 4.18217783297577E-02 
465	 4.19141791229972E-02 
466	 4.19730641216272E-02 
467	 4.20790340202937E-02 
468	 4.22874798281093E-02 
469	 0.042379707825217 
470	 0.042457604254985 
471	 4.25716048969743E-02 
472	 4.26629578237197E-02 
473	 4.27342929990621E-02 
474	 4.29050858165692E-02 
475	 4.31982100016734E-02 
476	 4.31755702980008E-02 
477	 4.32981245759428E-02 
478	 4.35583091097538E-02 
479	 4.36502797095702E-02 
480	 4.38315157795516E-02 
481	 4.40761245470089E-02 
482	 4.43163790354082E-02 
483	 4.44694961411179E-02 
484	 4.46486372947355E-02 
485	 4.48753585101625E-02 
486	 4.51331943707402E-02 
487	 4.54118318408418E-02 
488	 4.56723394386091E-02 
489	 4.58969901012883E-02 
490	 4.60950877271853E-02 
491	 4.63795026235637E-02 
492	 0.046657799668359 
493	 4.68712714299797E-02 
494	 4.71678361138898E-02 
495	 0.047508024098676 
496	 4.78169075280863E-02 
497	 0.04803098390035 
498	 4.83557762287754E-02 
499	 4.86632883475846E-02 
500	 4.89329930242143E-02 
501	 4.93630151492423E-02 
502	 4.97438238347596E-02 
503	 5.00404296649169E-02 
504	 5.02936333361771E-02 
505	 5.06039500838673E-02 
506	 5.09708355174676E-02 
507	 5.13688417960208E-02 
508	 5.17553017007536E-02 
509	 0.052115684725395 
510	 5.24599682056141E-02 
511	 5.28108579560107E-02 
512	 5.32209411944221E-02 
513	 5.35536020066491E-02 
514	 5.39349015392235E-02 
515	 5.45286668829504E-02 
516	 5.48880643277381E-02 
517	 5.53683442477827E-02 
518	 5.60103465126804E-02 
519	 5.63942773296068E-02 
520	 5.68353406205664E-02 
521	 5.73367176423959E-02 
522	 5.78413882055813E-02 
523	 5.83280354563538E-02 
524	 0.058849483428397 
525	 5.93843916197827E-02 
526	 5.98695855260546E-02 
527	 0.060382051900341 
528	 6.09304372526592E-02 
529	 6.14898167543018E-02 
530	 6.19894904168264E-02 
531	 6.25213551213534E-02 
532	 6.30332920517102E-02 
533	 6.34660419897677E-02 
534	 6.40631258034351E-02 
535	 6.46170600344163E-02 
536	 6.50933092229388E-02 
537	 6.56768347169188E-02 
538	 6.61899781957614E-02 
539	 6.66781879506592E-02 
540	 6.72210206911865E-02 
541	 6.78376689559998E-02 
542	 6.84039602062716E-02 
543	 6.89044852203459E-02 
544	 6.94006911201084E-02 
545	 6.99373471821587E-02 
546	 7.04879227102367E-02 
547	 7.10124939470345E-02 
548	 7.14615197132735E-02 
549	 7.19390940055568E-02 
550	 7.24594828256631E-02 
551	 0.072997653109229 
552	 7.35116895198015E-02 
553	 7.40158828559427E-02 
554	 7.45183277602463E-02 
555	 7.50135172269518E-02 
556	 7.55200828388467E-02 
557	 7.60263286473044E-02 
558	 7.65091286536211E-02 
559	 7.69566508699724E-02 
560	 7.73464865798908E-02 
561	 7.77204296920433E-02 
562	 7.81500179633394E-02 
563	 0.078551318984705 
564	 7.88917665707468E-02 
565	 7.91734860479392E-02 
566	 7.94521526249786E-02 
567	 7.96890182926968E-02 
568	 7.99243503653517E-02 
569	 8.01955786208546E-02 
570	 8.03693148720741E-02 
571	 8.04957330496913E-02 
572	 8.06426006671997E-02 
573	 8.08763225125322E-02 
574	 8.09805856369956E-02 
575	 8.09765847584524E-02 
576	 8.09715379360298E-02 
577	 8.11699625865919E-02 
578	 8.12205580167757E-02 
579	 8.10982426887712E-02 
580	 8.09828633609136E-02 
581	 8.08512742488751E-02 
582	 8.07088002997558E-02 
583	 8.05471447585602E-02 
584	 8.03418344895183E-02 
585	 7.99732617336663E-02 
586	 7.94946828580237E-02 
587	 7.90212898177134E-02 
588	 7.86201884416229E-02 
589	 7.81776830344872E-02 
590	 7.77114612456057E-02 
591	 7.73492002747284E-02 
592	 7.69912524927803E-02 
593	 7.65107469589731E-02 
594	 7.58621946495691E-02 
595	 7.52203126890624E-02 
596	 7.45209912928246E-02 
597	 7.37196008736087E-02 
598	 7.28084937231732E-02 
599	 7.19680435453287E-02 
600	 7.12422481627935E-02 
601	 7.06485825910425E-02 
602	 0.070190561255479 
603	 6.98850932530875E-02 
604	 6.96902141880781E-02 
605	 6.95501338543946E-02 
606	 0.069440780198237 
607	 6.93670966112662E-02 
608	 6.93214571720268E-02 
609	 0.069283378767862 
610	 6.93033371895866E-02 
611	 6.92989761354269E-02 
612	 6.92075836992408E-02 
613	 6.90878285130149E-02 
614	 6.90789829585087E-02 
615	 6.90796413689852E-02 
616	 6.89011557526909E-02 
617	 6.89322290945332E-02 
618	 0.068927473233706 
619	 6.87775502667715E-02 
620	 6.86995124335056E-02 
621	 6.85941843303721E-02 
622	 6.85237765945964E-02 
623	 6.85383998387857E-02 
624	 6.84058370857073E-02 
625	 6.82048404171892E-02 
626	 6.80488395256521E-02 
627	 6.80566989656319E-02 
628	 0.068017876184983 
629	 6.79326632213387E-02 
630	 6.78494907544778E-02 
631	 6.78379036811634E-02 
632	 6.77145029940782E-02 
633	 6.76026739364881E-02 
634	 6.76956922426306E-02 
635	 6.74910922474704E-02 
636	 6.73059476890096E-02 
637	 6.72852687584515E-02 
638	 6.72212035626093E-02 
639	 0.06703697925421 
640	 6.68698376533407E-02 
641	 6.68232916769854E-02 
642	 6.65474695295287E-02 
643	 6.64000869761076E-02 
644	 6.63146742304913E-02 
645	 6.59040164327362E-02 
646	 6.56415102708711E-02 
647	 6.55030741698628E-02 
648	 0.065376461389296 
649	 6.51661317162456E-02 
650	 6.49299909340499E-02 
651	 0.064682186361849 
652	 6.44196460268132E-02 
653	 6.40927481197464E-02 
654	 6.35854989319763E-02 
655	 6.29525613409808E-02 
656	 6.25619018587962E-02 
657	 6.20393328550914E-02 
658	 6.15177440303522E-02 
659	 6.11500448054668E-02 
660	 6.09027148105568E-02 
661	 6.06657667954704E-02 
662	 6.04423180115417E-02 
663	 0.060299326855945 
664	 6.01148173663275E-02 
665	 5.99633939405587E-02 
666	 5.98678465417733E-02 
667	 5.97183975768184E-02 
668	 5.95687115376344E-02 
669	 5.94354641668049E-02 
670	 5.93274626359049E-02 
671	 5.92617148825694E-02 
672	 5.92321251921994E-02 
673	 5.91869105807066E-02 
674	 5.90449488296232E-02 
675	 5.89687438071189E-02 
676	 0.058880303992335 
677	 5.87464683307342E-02 
678	 5.87828507926353E-02 
679	 5.87231332302387E-02 
680	 5.85891780846766E-02 
681	 5.85192201528134E-02 
682	 5.84522334168151E-02 
683	 5.83757916009127E-02 
684	 5.82493278913269E-02 
685	 5.79703634988345E-02 
686	 5.77385704123264E-02 
687	 5.75925435885544E-02 
688	 0.05747620516236 
689	 5.72580757307802E-02 
690	 5.69593175030697E-02 
691	 5.66013908355725E-02 
692	 5.61966529002004E-02 
693	 5.56863941927579E-02 
694	 5.52326221533057E-02 
695	 5.48878740401884E-02 
696	 5.44572187024449E-02 
697	 5.37715447774308E-02 
698	 5.30053652328448E-02 
699	 5.23977810275512E-02 
700	 5.15772606306313E-02 
701	 5.08064599470244E-02 
702	 5.01349864962901E-02 
703	 4.93957361407158E-02 
704	 4.85654538926021E-02 
705	 4.76782093377082E-02 
706	 4.67647866139128E-02 
707	 4.57560024116191E-02 
708	 4.46751680495618E-02 
709	 4.35447380811061E-02 
710	 4.23795794066924E-02 
711	 0.041151839114899 
712	 0.039852639993541 
713	 3.84847704276258E-02 
714	 3.70271360220649E-02 
715	 3.55467422534046E-02 
716	 3.40003789844034E-02 
717	 3.24690705235763E-02 
718	 0.030945942638748 
719	 2.95640856360067E-02 
720	 2.84275607683599E-02 
721	 2.73289789160413E-02 
722	 2.62440727954029E-02 
723	 2.49945585095641E-02 
724	 2.36915429970994E-02 
725	 2.24526670448317E-02 
726	 2.12809582549008E-02 
727	 2.00807457900375E-02 
728	 1.88112959927528E-02 
729	 1.75764538233484E-02 
730	 1.64129066166225E-02 
731	 1.53737034493542E-02 
732	 0.014459883130821 
733	 1.38310583997449E-02 
734	 1.33120942866496E-02 
735	 1.27911870072654E-02 
736	 1.22473251354097E-02 
737	 1.19094773347721E-02 
738	 1.17880014124574E-02 
739	 0.011783801106565 
740	 1.16521727450686E-02 
741	 1.14982487868771E-02 
742	 1.13988628602551E-02 
743	 1.13988888245508E-02 
744	 1.14509133918252E-02 
745	 1.14044778115351E-02 
746	 1.12765648397851E-02 
747	 1.13148633543502E-02 
748	 1.13219860535553E-02 
749	 1.12591008503695E-02 
750	 1.11659037889656E-02 
751	 1.11982682713701E-02 
752	 1.12200015515053E-02 
753	 1.12031507460704E-02 
754	 1.11840302764003E-02 
755	 1.11822626579171E-02 
756	 1.11457293318173E-02 
757	 0.011085162363687 
758	 1.11243292693468E-02 
759	 0.011021146069926 
760	 1.09252858909657E-02 
761	 1.11054985277796E-02 
762	 1.10069820450281E-02 
763	 1.09718425686078E-02 
764	 1.10702299364488E-02 
765	 1.12220366225824E-02 
766	 1.12263958915225E-02 
767	 1.12164350111395E-02 
768	 1.12626114982531E-02 
769	 0.011374497263619 
770	 1.14424896938106E-02 
771	 1.15184174079988E-02 
772	 1.16291627480761E-02 
773	 1.16462759170792E-02 
774	 1.15649739030556E-02 
775	 1.15829184646797E-02 
776	 1.18774673498254E-02 
777	 1.19485932107649E-02 
778	 1.19879821093602E-02 
779	 1.20837443501645E-02 
780	 1.21724276676946E-02 
781	 1.22959037407245E-02 
782	 1.24672026962125E-02 
783	 1.26391035074001E-02 
784	 1.26309489158954E-02 
785	 1.27005085391744E-02 
786	 1.28652438589419E-02 
787	 1.30525044833072E-02 
788	 1.32378847211263E-02 
789	 1.34143071251631E-02 
790	 1.35528631834704E-02 
791	 1.36312325421175E-02 
792	 0.013849733142108 
793	 1.41078591815137E-02 
794	 1.42923086176422E-02 
795	 1.43280258295907E-02 
796	 1.45412460989508E-02 
797	 1.47538093615373E-02 
798	 1.47919588489276E-02 
799	 1.49923429652164E-02 
800	 1.51302840359162E-02 
801	 1.51681192083681E-02 
802	 1.52102986699474E-02 
803	 0.015493272441807 
804	 1.56848037860515E-02 
805	 1.56724117462204E-02 
806	 1.56371972471434E-02 
807	 1.56204974498215E-02 
808	 1.55143408379219E-02 
809	 1.53244242130548E-02 
810	 1.54647788710304E-02 
811	 1.53036147868147E-02 
812	 1.49758577705666E-02 
813	 1.48766892537963E-02 
814	 1.47016815358867E-02 
815	 0.01455466089572 
816	 1.43687080198917E-02 
817	 1.39882328159853E-02 
818	 1.38055620121826E-02 
819	 1.35024161571994E-02 
820	 1.30348191442872E-02 
821	 1.27928742920426E-02 
822	 1.24434184694017E-02 
823	 1.20739554589233E-02 
824	 1.17449507666172E-02 
825	 0.011160137461584 
826	 1.05542612051805E-02 
827	 9.97492856644535E-03 
828	 9.44741307669247E-03 
829	 9.00478862694361E-03 
830	 8.67316379534106E-03 
831	 8.36537063280038E-03 
832	 7.97209238504261E-03 
833	 7.86066495119305E-03 
834	 7.84691130212338E-03 
835	 7.70264331795924E-03 
836	 7.25492871110816E-03 
837	 7.33576409194176E-03 
838	 7.53806613510645E-03 
839	 7.41535448756645E-03 
840	 7.11418996153466E-03 
841	 7.05745912382635E-03 
842	 7.17790292811277E-03 
843	 7.23047772757686E-03 
844	 7.18129660927222E-03 
845	 7.12124287396163E-03 
846	 7.02516034058426E-03 
847	 6.81868826430355E-03 
848	 6.78433069128187E-03 
849	 6.71057642993354E-03 
850	 6.57212444008911E-03 
851	 6.6363323752442E-03 
852	 6.75394546200575E-03 
853	 6.75088167759357E-03 
854	 6.58317317979778E-03 
855	 6.47373102636616E-03 
856	 6.54720783616999E-03 
857	 6.56922238410306E-03 
858	 6.3750687533614E-03 
859	 6.42166741716952E-03 
860	 6.45715667648626E-03 
861	 6.38294550340781E-03 
862	 6.23058473314471E-03 
863	 6.2732583444544E-03 
864	 6.22938499734058E-03 
865	 6.10884684481365E-03 
866	 6.17444344263658E-03 
867	 6.02647838183278E-03 
868	 6.00950586777021E-03 
869	 6.16363644196076E-03 
870	 6.03612560056071E-03 
871	 6.20658547726823E-03 
872	 6.27038926071454E-03 
873	 5.97251943627097E-03 
874	 5.84150205674803E-03 
875	 6.00777920991795E-03 
876	 6.06319836553111E-03 
877	 5.7209925468803E-03 
878	 5.79081320057427E-03 
879	 5.84109261401557E-03 
880	 5.70502482640299E-03 
881	 5.43988368201267E-03 
882	 5.48055358092271E-03 
883	 5.5630400164949E-03 
884	 5.5897005080935E-03 
885	 5.61064811837639E-03 
886	 5.5164086186313E-03 
887	 5.51362626748186E-03 
888	 5.53656480045895E-03 
889	 5.22460803301366E-03 
890	 5.11377348612104E-03 
891	 5.26892519452551E-03 
892	 5.50910463062537E-03 
893	 5.36360835326152E-03 
894	 5.08889911345736E-03 
895	 5.08059261470205E-03 
896	 5.44141034266166E-03 
897	 5.2312733514979E-03 
898	 4.82153541162079E-03 
899	 4.76490470050824E-03 
900	 5.19937593196296E-03 
901	 4.81329201060268E-03 
902	 4.74424767684181E-03 
903	 5.07118006793497E-03 
904	 5.41472553092594E-03 
905	 5.4005569575352E-03 
906	 5.29939219303976E-03 
907	 5.08495839278058E-03 
908	 4.59698809303057E-03 
909	 4.31461453627166E-03 
910	 0.004623360390182 
911	 5.10743236576989E-03 
912	 4.81996573497661E-03 
913	 4.45543093356053E-03 
914	 4.55105782163201E-03 
915	 4.88665895022051E-03 
916	 4.56317997162545E-03 
917	 4.58959445183264E-03 
918	 4.3646359841026E-03 
919	 3.97649658297723E-03 
920	 4.60383610268686E-03 
921	 4.68624303115464E-03 
922	 4.72868651439147E-03 
923	 4.95113984060966E-03 
924	 4.11845076409147E-03 
925	 4.03158683941971E-03 
926	 3.9889470995292E-03 
927	 3.35532524462458E-03 
928	 4.99220327508151E-03 
929	 5.57997057478592E-03 
930	 4.29701400319161E-03 
931	 2.35480306987777E-03 
932	 3.06280785838166E-03 
933	 4.33318629409094E-03 
934	 4.96121196333829E-03 
935	 5.20906180588852E-03 
936	 7.13895825988844E-03 
937	 5.47189972275904E-03 
938	 4.36384798854259E-03 
939	 7.23816204031829E-03 
940	 4.02866228708525E-03 
941	 3.03955248786851E-03 
942	 3.61192698574674E-03 
943	 1.95247604230182E-03 
944	 5.02192210506234E-03 
945	 8.68914181845773E-03 
946	 8.74180315073679E-03 
947	 3.9742991772725E-03 
948	 4.29610005751011E-03 
949	 4.76044441041693E-03 
950	 4.21065618192989E-03 
951	 4.4346235854239E-03 
952	 5.9535478662653E-03 
953	 6.60808340473513E-03 
954	 6.5457535940735E-03 
955	 7.03785160166612E-03 
956	 4.75351761161047E-03 
957	 3.84155147934209E-03 
958	 4.00641676212177E-03 
959	 2.36926889268165E-03 
960	 3.34494104009949E-03 
961	 5.70471538033569E-03 
962	 6.26812222074182E-03 
963	 2.72141604244433E-03 
964	 2.73031563073747E-03 
965	 3.26619923218762E-03 
966	 2.96582303491385E-03 
967	 2.53706916886968E-03 
968	 3.17213225678106E-03 
969	 3.84122775527442E-03 
970	 3.80893740269515E-03 
971	 3.16241337937744E-03 
972	 5.3453974221706E-03 
973	 4.89871246677679E-03 
974	 2.2771339843877E-03 
975	 3.6287299911034E-03 
976	 3.65820580306934E-03 
977	 4.41607233995229E-03 
978	 5.6302418492751E-03 
979	 4.81656391548799E-03 
980	 3.42019682735517E-03 
981	 2.75640056344198E-03 
982	 2.75424426874194E-03 
983	 2.48326936319987E-03 
984	 3.46598879118689E-03 
985	 5.07408779312243E-03 
986	 5.75115585983717E-03 
987	 4.18389940470414E-03 
988	 4.22268820029792E-03 
989	 4.51451020908299E-03 
990	 4.50621546779353E-03 
991	 4.52763072123911E-03 
992	 3.75098009239944E-03 
993	 4.41146325074939E-03 
994	 5.4792649477608E-03 
995	 0.004278813153653 
996	 3.57387076858088E-03 
997	 3.96965512529349E-03 
998	 4.66482221850663E-03 
999	 4.2594718563677E-03 
1000	 2.59935854213903E-03 
1001	 4.62885908330583E-03 
1002	 4.74204255202424E-03 
1003	 4.67176806409233E-03 
1004	 4.43446811212722E-03 
1005	 4.23943124331429E-03 
1006	 3.95133455008526E-03 
1007	 3.67853028646409E-03 
1008	 0.003763410837666 
1009	 3.79902715598078E-03 
1010	 3.96500989628684E-03 
1011	 4.05277574737847E-03 
1012	 4.07347143295622E-03 
1013	 4.0250225199805E-03 
1014	 3.98726592298051E-03 
1015	 3.99997902162357E-03 
1016	 4.04263001568063E-03 
1017	 4.03214475085499E-03 
1018	 4.0614221339164E-03 
1019	 4.14628669038014E-03 
1020	 4.15503093119702E-03 
1021	 4.23653525293765E-03 
1022	 4.05138961411863E-03 
1023	 4.04109245473519E-03 
1024	 4.1056392058236E-03 
1025	 3.94662753061326E-03 
1026	 4.09361075195401E-03 
1027	 4.0525044904237E-03 
1028	 3.8382112867781E-03 
1029	 3.78480465376094E-03 
1030	 3.74740907916296E-03 
1031	 3.83208468437948E-03 
1032	 4.06175088015305E-03 
1033	 4.24135602109355E-03 
1034	 4.54909955351464E-03 
1035	 4.69022824588323E-03 
1036	 4.80328458932051E-03 
1037	 4.80086328968743E-03 
1038	 4.59851664415587E-03 
1039	 4.51367513803185E-03 
1040	 4.34216722461579E-03 
1041	 4.18166242564215E-03 
1042	 4.20183272219244E-03 
1043	 4.37433996170616E-03 
1044	 4.45085718437587E-03 
1045	 4.60148353216806E-03 
1046	 4.7169119477964E-03 
1047	 4.90042742295962E-03 
1048	 4.86888195139913E-03 
1049	 4.76339277328555E-03 
1050	 4.62096651840261E-03 
1051	 4.07477945884872E-03 
1052	 3.93894479965955E-03 
1053	 3.98313223472836E-03 
1054	 4.10824136119194E-03 
1055	 4.7562990038194E-03 
1056	 4.96956269883075E-03 
1057	 5.02729818262799E-03 
1058	 4.98426990876919E-03 
1059	 4.84817341444235E-03 
1060	 4.30938615664706E-03 
1061	 4.16350247166427E-03 
1062	 4.07711417191966E-03 
1063	 4.15459753060696E-03 
1064	 4.62553774095115E-03 
1065	 4.65522098697057E-03 
1066	 4.56743629066598E-03 
1067	 4.51094396551026E-03 
1068	 4.07385465325367E-03 
1069	 3.95153269142579E-03 
1070	 4.1380356380384E-03 
1071	 4.20151052482333E-03 
1072	 4.28726712966378E-03 
1073	 4.35774476233654E-03 
1074	 4.48998359228134E-03 
1075	 4.68223019446685E-03 
1076	 4.71548903906367E-03 
1077	 4.69458797554586E-03 
1078	 4.74153993525408E-03 
1079	 4.77800575635415E-03 
1080	 4.66596313983923E-03 
1081	 4.5106723916125E-03 
1082	 4.42888121122332E-03 
1083	 4.14076311256787E-03 
1084	 4.02209573713088E-03 
1085	 4.16427268810373E-03 
1086	 4.2122550648807E-03 
1087	 4.12272156725233E-03 
1088	 4.16035385897536E-03 
1089	 4.30940961513676E-03 
1090	 4.53619985854708E-03 
1091	 4.52257710566215E-03 
1092	 4.46410724150799E-03 
1093	 4.4751286471799E-03 
1094	 4.35982489841769E-03 
1095	 4.23359849169732E-03 
1096	 4.13048876903941E-03 
1097	 4.0483564012719E-03 
1098	 3.71372960538681E-03 
1099	 3.7241878681629E-03 
1100	 4.28738028015914E-03 
1101	 4.43438222622139E-03 
1102	 4.6161347236902E-03 
1103	 4.51444098719115E-03 
1104	 3.80169293100071E-03 
1105	 3.38269346782506E-03 
1106	 3.09036924375627E-03 
1107	 2.98661310011487E-03 
1108	 3.74656208562051E-03 
1109	 4.32260591960598E-03 
1110	 4.57116136712558E-03 
1111	 4.90996416929185E-03 
1112	 4.68959940295402E-03 
1113	 3.22599920030322E-03 
1114	 2.81944014024055E-03 
1115	 2.57127672595481E-03 
1116	 2.75874201999999E-03 
1117	 4.81329857577868E-03 
1118	 5.08409941904515E-03 
1119	 3.9724090187807E-03 
1120	 3.32336941446109E-03 
1121	-5.97705704666414E-04 
1122	-7.1267534258738E-04 
1123	 4.65990777050948E-03 
1124	 7.19744758990148E-03 
1125	 6.73282414797981E-03 
1126	 4.30351007956183E-03 
1127	 1.18220646121764E-03 
1128	-5.77007605464404E-04 
1129	-5.8900617061627E-04 
1130	 4.31778136008762E-03 
1131	 5.25740727301026E-03 
1132	 3.63066420420178E-03 
1133	 3.08369383685403E-03 
1134	 3.58527014676996E-03 
1135	 3.28794233030074E-03 
1136	 1.33614916053107E-03 
1137	 1.94279436550775E-03 
1138	 4.81677433402029E-03 
1139	 3.98416200031509E-03 
1140	 3.04913709321616E-03 
1141	 6.20301972109286E-03 
1142	 5.79561739448983E-03 
1143	 3.48150288745128E-03 
1144	 4.41331756821821E-03 
1145	 3.26906234139144E-03 
1146	 1.93110208271966E-03 
1147	 3.37093438331629E-03 
1148	 2.9594839563069E-03 
1149	 2.29575935400993E-03 
1150	 2.76839501652573E-03 
1151	 4.38382889316267E-03 
1152	 4.26125075041119E-03 
1153	 3.49162205534251E-03 
1154	 3.48105376640068E-03 
1155	 3.16024294678132E-03 
1156	 3.25271733974101E-03 
1157	 3.48621361173859E-03 
1158	 3.63314337568701E-03 
1159	 3.20301591917142E-03 
1160	 2.87310413185997E-03 
1161	 3.02696366314335E-03 
1162	 3.41299872859722E-03 
1163	 3.97105262356351E-03 
1164	 3.92860224895252E-03 
1165	 3.32451897104408E-03 
1166	 3.05836569970707E-03 
1167	 3.18449388080164E-03 
1168	 3.21782766857272E-03 
1169	 3.22983041263393E-03 
1170	 3.32688578367699E-03 
1171	 3.34484680965264E-03 
1172	 2.9708423965049E-03 
1173	 3.05149399085213E-03 
1174	 3.46145994887343E-03 
1175	 3.68996952882243E-03 
1176	 3.58789842186955E-03 
1177	 3.56438185117146E-03 
1178	 3.45422393903179E-03 
1179	 3.29091007152742E-03 
1180	 3.55266015509204E-03 
1181	 3.68483936872446E-03 
1182	 3.31428327325878E-03 
1183	 3.16628276453533E-03 
1184	 3.21959959536521E-03 
1185	 3.24677828447431E-03 
1186	 3.48687923207474E-03 
1187	 3.49609411321755E-03 
1188	 3.25081836375768E-03 
1189	 3.30525124463372E-03 
1190	 3.30797382765739E-03 
1191	 3.10097989101363E-03 
1192	 3.09457565084323E-03 
1193	 3.22061236592712E-03 
1194	 3.22569191906393E-03 
1195	 3.09413248783898E-03 
1196	 3.22474553176458E-03 
1197	 3.40804469112976E-03 
1198	 3.2686406861437E-03 
1199	 3.22021403365924E-03 
1200	 3.36021308551033E-03 
1201	 3.21258110974815E-03 
1202	 3.08849512749939E-03 
1203	 3.22151079505167E-03 
1204	 3.29263708298396E-03 
1205	 3.25851016962738E-03 
1206	 3.13511969869943E-03 
1207	 3.00486853136762E-03 
1208	 3.01794373954216E-03 
1209	 3.01402960799191E-03 
1210	 3.00303271820832E-03 
1211	 3.12543439170092E-03 
1212	 3.2137441876841E-03 
1213	 3.24009854310973E-03 
1214	 3.31251150235269E-03 
1215	 3.51497902125912E-03 
1216	 3.62163832535818E-03 
1217	 3.44570436787254E-03 
1218	 3.40945829225296E-03 
1219	 3.6012756410613E-03 
1220	 3.49298287983533E-03 
1221	 3.45765868494338E-03 
1222	 0.003636060335213 
1223	 3.35014997026329E-03 
1224	 3.0665200549524E-03 
1225	 3.21112406701017E-03 
1226	 3.23938445982179E-03 
1227	 3.26237879733871E-03 
1228	 3.3734105066842E-03 
1229	 3.23890869276932E-03 
1230	 3.06091095145987E-03 
1231	 3.14278321716034E-03 
1232	 3.34963411107223E-03 
1233	 3.41404359290821E-03 
1234	 3.3321284017369E-03 
1235	 3.33028464981465E-03 
1236	 3.17652484890756E-03 
1237	 3.17587699862868E-03 
1238	 3.25650370262088E-03 
1239	 3.61530162891972E-03 
1240	 3.59870811157014E-03 
1241	 3.35593834028476E-03 
1242	 3.43551485399422E-03 
1243	 3.38208477159751E-03 
1244	 3.2486988666849E-03 
1245	 3.42830370717266E-03 
1246	 3.41625296000219E-03 
1247	 3.07083886260861E-03 
1248	 3.10248829384157E-03 
1249	 3.3659940505715E-03 
1250	 3.35094909690078E-03 
1251	 3.3488879311218E-03 
1252	 3.32621688829073E-03 
1253	 3.16049130309944E-03 
1254	 3.22295222628161E-03 
1255	 3.39191063309325E-03 
1256	 3.37003183047552E-03 
1257	 3.23279824925486E-03 
1258	 3.17524216081934E-03 
1259	 2.93575689336051E-03 
1260	 2.94348097072549E-03 
1261	 3.29065732224518E-03 
1262	 3.32194600641104E-03 
1263	 3.25643139346462E-03 
1264	 3.23602909982545E-03 
1265	 3.2253603919372E-03 
1266	 3.04906203193732E-03 
1267	 3.07770293557725E-03 
1268	 3.32028808316875E-03 
1269	 3.28384485129833E-03 
1270	 3.30077227408523E-03 
1271	 3.45601935747371E-03 
1272	 3.36581076223661E-03 
1273	 3.31326361712358E-03 
1274	 3.44807515094377E-03 
1275	 3.44977885254428E-03 
1276	 3.28594801792021E-03 
1277	 3.12866648801697E-03 
1278	 3.11440311962208E-03 
1279	 3.28773069846872E-03 
1280	 3.38685460039635E-03 
1281	 3.30870809410731E-03 
1282	 3.01785625999019E-03 
1283	 3.00169808523443E-03 
1284	 2.96166264024885E-03 
1285	 2.91084422666365E-03 
1286	 3.03425841849274E-03 
1287	 3.16030024991753E-03 
1288	 3.32794227224442E-03 
1289	 3.28447319028379E-03 
1290	 3.28869426659713E-03 
1291	 3.09960109109112E-03 
1292	 2.81806109538356E-03 
1293	 2.79383038040448E-03 
1294	 3.07016569704568E-03 
1295	 3.26595008163201E-03 
1296	 3.14488746898094E-03 
1297	 2.91244831626318E-03 
1298	 2.8555400857614E-03 
1299	 2.87281631324666E-03 
1300	 2.88387309351907E-03 
1301	 3.09947082625993E-03 
1302	 3.22273983066906E-03 
1303	 3.00297279570062E-03 
1304	 3.05230780863593E-03 
1305	 3.3099044315236E-03 
1306	 3.34968365277633E-03 
1307	 3.30811461809785E-03 
1308	 3.25161515224324E-03 
1309	 3.00099352339933E-03 
1310	 2.96141085933677E-03 
1311	 2.96572616024056E-03 
1312	 3.04462414759308E-03 
1313	 3.53036805972225E-03 
1314	 3.47834672691125E-03 
1315	 0.002950322962929 
1316	 2.83350501782328E-03 
1317	 2.63784559630754E-03 
1318	 2.52824114830911E-03 
1319	 2.81676591718161E-03 
1320	 2.8982510962603E-03 
1321	 2.94151620279129E-03 
1322	 2.7026575628144E-03 
1323	 2.51439864258669E-03 
1324	 2.70132805166626E-03 
1325	 2.71039398158563E-03 
1326	 2.54728852494705E-03 
1327	 2.49308080441099E-03 
1328	 2.56052466603533E-03 
1329	 3.04069417764071E-03 
1330	 3.1136972275222E-03 
1331	 2.85579616870578E-03 
1332	 2.95460273259301E-03 
1333	 2.53574804711832E-03 
1334	 1.95152860730749E-03 
1335	 1.86355657086601E-03 
1336	 2.36236120225306E-03 
1337	 2.26474613984075E-03 
1338	 2.15920407503266E-03 
1339	 2.13060423528927E-03 
1340	 1.81023691787167E-03 
1341	 1.80026931128551E-03 
1342	 1.95621209212465E-03 
1343	 2.1397749033305E-03 
1344	 2.77834272474209E-03 
1345	 2.87598348869767E-03 
1346	 3.06699653502475E-03 
1347	 2.96496757397067E-03 
1348	 3.68944478464247E-04 
1349	-1.1061508743404E-03 
1350	-2.32560475588768E-03 
1351	-2.29961720474819E-03 
1352	 1.08825381131083E-02 
1353	 1.80813549766145E-02 
1354	 2.50475769288255E-02 
1355	-2.77209419789979E-03 
1356	-3.72334179046496E-02 
1357	-3.35183501252463E-02 
1358	 3.39693410130173E-03 
1359	 2.96258605492277E-02 
1360	 8.09237888963216E-02 
1361	 0.103654109032192 
1362	 8.74431563392615E-02 
1363	 0.176397681878359 
1364	 0.246106800656285 
1365	 0.14150235970503 
1366	-0.121115702190318 
1367	-0.28224569943356 
1368	-0.243306581650521 
1369	-0.03963826462342 
1370	-4.05005633792678E-02 
1371	 0.110946626660318 
1372	 0.18979474305132 
1373	-2.01953840802771E-02 
1374	-2.68202150716236E-02 
1375	 0.244055679703778 
1376	 0.299680279773126 
1377	 0.146680648418532 
1378	 0.141717531064996 
1379	 0.268469865079718 
1380	 0.215539122409231 
1381	-2.38677688532755E-02 
1382	 6.01219869489393E-03 
1383	 0.292464616355435 
1384	 0.218367610083919 
1385	 8.70403940251705E-02 
1386	 0.112360504029862 
1387	-0.18371717341622 
1388	-0.336810319640552 
1389	-0.17671628838296 
1390	-3.14705593738481E-02 
1391	 2.62555906451854E-02 
1392	-0.068304689335418 
1393	-2.37125210122452E-02 
1394	 0.081891056239013 
1395	 4.06758277386901E-02 
1396	-0.110618306391009 
1397	-0.279437710958351 
1398	-0.417375234562548 
1399	-0.289798354630025 
1400	-0.181012359586781 
1401	-0.100532299111479 
1402	 0.137923119123513 
1403	 8.07566211381136E-02 
1404	-0.251520476413054 
1405	-0.238866179034941 
1406	-0.136141374251791 
1407	-0.126607805661778 
1408	-0.055764153160239 
1409	 7.35003173677109E-03 
1410	 3.42416606047379E-02 
1411	 7.23450254027574E-03 
1412	-1.70582019885825E-02 
1413	 1.80388571989852E-02 
1414	 4.82585352493787E-02 
1415	 3.96001262777984E-02 
1416	 6.51404486857057E-02 
1417	 6.96337708443919E-02 
1418	 2.54199399150396E-02 
1419	 1.71743223014842E-02 
1420	 5.11046422336922E-02 
1421	 3.40450715315322E-02 
1422	-1.32089474356306E-02 
1423	-2.10069708310908E-02 
1424	-2.56911922833473E-02 
1425	-2.25685112838783E-02 
1426	-4.70424896116829E-03 
1427	 1.57998226206416E-03 
1428	 7.60389160340908E-03 
1429	 7.08108903618784E-03 
1430	 5.18188169552626E-05 
1431	-1.70780466499262E-03 
1432	-8.38500078403155E-03 
1433	-7.86707070964351E-03 
1434	 5.50890382825565E-03 
1435	 8.71825868362643E-03 
1436	 1.10182661432391E-02 
1437	 5.96872236766777E-03 
1438	 3.63822197179025E-03 
1439	 2.30888500707675E-03 
1440	-2.24399189381397E-04 
1441	 4.91618969393377E-04 
1442	-3.39995252006726E-03 
1443	-8.93993366117697E-03 
1444	-8.86854021150869E-03 
1445	-7.44230169165897E-03 
1446	-1.82368591004226E-03 
1447	 2.09269321155503E-03 
1448	-1.59051160639334E-03 
1449	-1.53160873817835E-03 
1450	 2.07386002012554E-03 
1451	 2.16089454638492E-03 
1452	 2.01941258538127E-03 
1453	 3.39985408784726E-03 
1454	 4.04270770724447E-03 
1455	 2.48997284594809E-03 
1456	 1.82993304647976E-03 
1457	 2.68951804995599E-03 
1458	 2.42866202624138E-03 
1459	 3.97629058848744E-04 
1460	 3.25579942509634E-04 
1461	 1.83281866923758E-03 
1462	 0.001850539192811 
1463	 1.46604355705873E-03 
1464	 1.16913145556194E-03 
1465	 2.42313556731913E-04 
1466	-1.0950915519651E-04 
1467	-2.48976940954463E-04 
1468	-3.63851585159493E-04 
1469	 8.4614393914794E-05 
1470	-4.44833128956245E-06 
1471	-5.45481436333305E-04 
1472	-2.4083728112604E-04 
1473	 1.0459136968517E-04 
1474	 2.34561652170143E-04 
1475	 9.02518896024588E-04 
1476	 1.22197074451898E-03 
1477	 9.39135634060417E-04 
1478	 1.22358236124079E-03 
1479	 2.16540310317206E-03 
1480	 2.24803328166836E-03 
1481	 1.92758210116713E-03 
1482	 1.8765369237466E-03 
1483	 1.6064550248173E-03 
1484	 1.50153337785618E-03 
1485	 1.6415283958832E-03 
1486	 1.66588908419622E-03 
1487	 1.48558435411742E-03 
1488	 1.54790884593081E-03 
1489	 1.84700495964667E-03 
1490	 1.85458843805793E-03 
1491	 1.79398486943561E-03 
1492	 1.86770659946355E-03 
1493	 1.90787891413605E-03 
1494	 1.85101904301397E-03 
1495	 1.67372741804046E-03 
1496	 1.73784013171138E-03 
1497	 2.01572080277976E-03 
1498	 2.03112527235492E-03 
1499	 2.10340978341389E-03 
1500	 2.10882652414321E-03 
1501	 1.69448346624919E-03 
1502	 1.59504944567261E-03 
1503	 1.84819136959973E-03 
1504	 1.92287700525688E-03 
1505	 2.10315292021215E-03 
1506	 1.96685721041082E-03 
1507	 1.79055709383888E-03 
1508	 1.80745482420046E-03 
1509	 1.71922647568661E-03 
1510	 1.82251589076014E-03 
1511	 2.05313016068272E-03 
1512	 1.94502540271032E-03 
1513	 2.05570339770909E-03 
1514	 2.23212038850767E-03 
1515	 2.05222048848115E-03 
1516	 2.04034698978871E-03 
1517	 2.0715798783485E-03 
1518	 2.00023318844724E-03 
1519	 2.0155550346426E-03 
1520	 2.11339273405751E-03 
1521	 2.00254629552136E-03 
1522	 1.71921747908012E-03 
1523	 1.85820340889895E-03 
1524	 2.0002171392466E-03 
1525	 0.001909593393874 
1526	 2.01529614424974E-03 
1527	 2.06491015874203E-03 
1528	 1.93940857863221E-03 
1529	 1.73874223192117E-03 
1530	 1.63316685662444E-03 
1531	 1.85807899000452E-03 
1532	 2.10302956341218E-03 
1533	 2.11555630745329E-03 
1534	 2.19402194856653E-03 
1535	 2.37955553709094E-03 
1536	 2.2318348091112E-03 
1537	 1.96246608456581E-03 
1538	 2.03888594985232E-03 
1539	 1.96362254944682E-03 
1540	 1.62617366615892E-03 
1541	 1.55626482247686E-03 
1542	 1.62833468358078E-03 
1543	 1.68375106186098E-03 
1544	 1.78904289520189E-03 
1545	 1.92309986032746E-03 
1546	 2.0805637132659E-03 
1547	 2.06109779859501E-03 
1548	 1.88650196007774E-03 
1549	 1.87652848731575E-03 
1550	 1.88950011563069E-03 
1551	 1.69980007487589E-03 
1552	 1.63225028956687E-03 
1553	 1.86384102396133E-03 
1554	 2.07239108944145E-03 
1555	 2.02327643584958E-03 
1556	 1.84778165897916E-03 
1557	 1.77262890718588E-03 
1558	 1.68286326096714E-03 
1559	 1.70173660905175E-03 
1560	 2.03961743601214E-03 
1561	 2.24495482725446E-03 
1562	 2.17206558978796E-03 
1563	 2.03204534512512E-03 
1564	 1.90642494679782E-03 
1565	 1.97659705043086E-03 
1566	 1.97365325724593E-03 
1567	 1.73890327924769E-03 
1568	 1.74591738562083E-03 
1569	 1.84211539658964E-03 
1570	 1.7302475903763E-03 
1571	 1.82161713277418E-03 
1572	 1.98714109952327E-03 
1573	 1.77243230782604E-03 
1574	 1.5856925716552E-03 
1575	 1.6786383181941E-03 
1576	 1.86395748511492E-03 
1577	 1.98471513876155E-03 
1578	 1.87605774660756E-03 
1579	 1.85708561726456E-03 
1580	 2.0154831740228E-03 
1581	 2.06796469780541E-03 
1582	 2.03810472859459E-03 
1583	 1.94631590126701E-03 
1584	 1.78552469110758E-03 
1585	 1.6540351381652E-03 
1586	 1.64329645468324E-03 
1587	 1.71438724487631E-03 
1588	 0.00170701855627 
1589	 1.71708089871605E-03 
1590	 1.80179570878774E-03 
1591	 1.74813285460208E-03 
1592	 1.68962799260104E-03 
1593	 1.73874871142173E-03 
1594	 1.75377521001394E-03 
1595	 1.70894420978082E-03 
1596	 1.7553150995169E-03 
1597	 1.8707997902305E-03 
1598	 1.81211821112824E-03 
1599	 1.74862416340674E-03 
1600	 1.77054039319118E-03 
1601	 1.74556654770034E-03 
1602	 1.83561399022483E-03 
1603	 2.03290438475076E-03 
1604	 2.03825287014119E-03 
1605	 1.9353863369492E-03 
1606	 1.99710664074984E-03 
1607	 1.90297018048182E-03 
1608	 1.68489355531434E-03 
1609	 1.69373430299129E-03 
1610	 1.74256816243163E-03 
1611	 1.96643528533968E-03 
1612	 2.31804569999652E-03 
1613	 2.35161145529596E-03 
1614	 2.01097513419714E-03 
1615	 1.66845637433981E-03 
1616	 1.66391400950933E-03 
1617	 1.77028964088797E-03 
1618	 1.80007260377223E-03 
1619	 1.74631778705326E-03 
1620	 1.63373454698408E-03 
1621	 1.53048995374468E-03 
1622	 1.66997289809797E-03 
1623	 2.03007186325418E-03 
1624	 2.06382854638897E-03 
1625	 1.88832547465002E-03 
1626	 1.75957649124237E-03 
1627	 1.73017383645287E-03 
1628	 1.92099824608688E-03 
1629	 2.03405864050087E-03 
1630	 2.00599115480682E-03 
1631	 1.91479574571035E-03 
1632	 1.6941838188002E-03 
1633	 1.69801387597157E-03 
1634	 1.89082012768996E-03 
1635	 1.79578258837961E-03 
1636	 1.58403191078633E-03 
1637	 1.45918482775536E-03 
1638	 1.57384934426381E-03 
1639	 1.85107964239698E-03 
1640	 1.72170928467673E-03 
1641	 1.63178320189611E-03 
1642	 1.7694449341557E-03 
1643	 1.50528305649494E-03 
1644	 1.50074159133751E-03 
1645	 1.92697835010752E-03 
1646	 1.86256520382704E-03 
1647	 1.54432834114163E-03 
1648	 1.72688188177509E-03 
1649	 1.97069485679208E-03 
1650	 1.57770060816263E-03 
1651	 1.42813571995485E-03 
1652	 1.75186512698369E-03 
1653	 1.57940968703028E-03 
1654	 1.61252502936252E-03 
1655	 1.95576935507955E-03 
1656	 2.05711333918576E-03 
1657	 2.03360154754186E-03 
1658	 2.03688291696097E-03 
1659	 2.08867964878397E-03 
1660	 1.96845380250085E-03 
1661	 1.54952827198227E-03 
1662	 1.55075734542073E-03 
1663	 1.78567234757756E-03 
1664	 1.74940937577696E-03 
1665	 1.81712590797029E-03 
1666	 1.85297756591296E-03 
1667	 1.63452004659422E-03 
1668	 1.76588812913665E-03 
1669	 1.81129140997249E-03 
1670	 1.46213444832323E-03 
1671	 1.30754401852574E-03 
1672	 1.3731800766677E-03 
1673	 1.18514847802843E-03 
1674	 1.30769383017842E-03 
1675	 1.62604524460595E-03 
1676	 1.45201790079373E-03 
1677	 1.42645808511799E-03 
1678	 1.59265158021411E-03 
1679	 1.63933656794805E-03 
1680	 1.77163947320616E-03 
1681	 1.81539246070722E-03 
1682	 1.84843578316678E-03 
1683	 1.81050259875353E-03 
1684	 1.40268386497775E-03 
1685	 1.27332446947425E-03 
1686	 1.83908717599453E-03 
1687	 1.95776812239364E-03 
1688	 1.50448791399837E-03 
1689	 1.30487345793989E-03 
1690	 1.28202342030419E-03 
1691	 1.48310274531671E-03 
1692	 1.90248639967481E-03 
1693	 2.10183524191959E-03 
1694	 1.64034181737688E-03 
1695	 9.43543792374577E-04 
1696	 9.22614948338969E-04 
1697	 1.48550378393194E-03 
1698	 1.81491562625207E-03 
1699	 1.73978857571081E-03 
1700	 1.6814078178698E-03 
1701	 1.45486312852334E-03 
1702	 1.17421430653488E-03 
1703	 1.34682253350759E-03 
1704	 1.5132473091903E-03 
1705	 1.76945772167886E-03 
1706	 2.11370067431805E-03 
1707	 1.86109410192082E-03 
1708	 1.7120673963144E-03 
1709	 1.65343874159385E-03 
1710	 1.35806904814252E-03 
1711	 1.38273881537692E-03 
1712	 1.45406624895625E-03 
1713	 1.36734484980036E-03 
1714	 1.40122074878629E-03 
1715	 1.55564144644665E-03 
1716	 1.36631079292449E-03 
1717	 1.43002535102445E-03 
1718	 1.49969507054608E-03 
1719	 1.53133954511699E-03 
1720	 1.88533518544852E-03 
1721	 1.96715363943407E-03 
1722	 1.67491482461655E-03 
1723	 1.51162274238362E-03 
1724	 1.33392907594006E-03 
1725	 1.40136119704242E-03 
1726	 1.5985518087076E-03 
1727	 1.32034001693366E-03 
1728	 9.56400634456529E-04 
1729	 9.51577104072256E-04 
1730	 1.25025486743386E-03 
1731	 1.68651129423326E-03 
1732	 1.59629364602855E-03 
1733	 1.05922814409355E-03 
1734	 9.62350938946576E-04 
1735	 7.44568513700801E-04 
1736	 6.48907914796243E-04 
1737	 1.22706904147338E-03 
1738	 1.22495034627399E-03 
1739	 8.8801236770886E-04 
1740	 1.31552340923025E-03 
1741	 1.49941492412349E-03 
1742	 1.20882301608703E-03 
1743	 1.48870278654309E-03 
1744	 1.46930818567223E-03 
1745	 1.30456909320126E-03 
1746	 1.60854057638862E-03 
1747	 1.55505056392829E-03 
1748	 1.67626317606463E-03 
1749	 1.51330277154186E-03 
1750	 6.37890817761753E-04 
1751	 6.8109233221364E-04 
1752	 1.42867977044873E-03 
1753	 1.38118125374188E-03 
1754	 1.08691940122413E-03 
1755	 1.0778005757377E-03 
1756	 8.25205698085868E-04 
1757	 1.61695678889457E-03 
1758	 2.01802391993189E-03 
1759	 1.6740375742373E-03 
1760	 9.61864469039186E-04 
1761	 4.3501559608101E-04 
1762	 6.8180683336043E-04 
1763	 1.75386117829974E-03 
1764	 2.2227325512639E-03 
1765	 1.29527116352221E-03 
1766	 4.38808056170623E-04 
1767	 1.90052089006543E-04 
1768	-8.16054572445248E-05 
1769	 1.24821189439128E-03 
1770	 2.99022737784518E-03 
1771	 2.44464001563431E-03 
1772	 2.12439026178297E-03 
1773	 1.88198238063922E-03 
1774	 7.94193886089658E-04 
1775	 8.08864472644006E-04 
1776	 8.42761191190765E-04 
1777	 7.28542012335058E-04 
1778	 1.05002158194794E-03 
1779	 2.88469303333145E-03 
1780	 2.86109754615653E-03 
1781	 1.2772386579015E-03 
1782	 9.36447135126163E-04 
1783	-4.92895724386099E-04 
1784	-6.77808236684627E-04 
1785	 1.10239954878684E-03 
1786	 1.72568062382945E-03 
1787	 2.8613442013869E-03 
1788	 2.62824511520522E-03 
1789	 1.06275584948192E-03 
1790	 2.16758459737053E-03 
1791	-2.20301007567296E-04 
1792	 1.80638877256259E-04 
1793	 1.61850675974348E-03 
1794	-1.17538445798754E-03 
1795	 8.59546769530934E-04 
1796	 2.43803599675791E-03 
1797	-8.82611706017272E-04 
1798	-8.17957241406585E-05 
1799	-2.8423096563609E-03 
1800	-6.37684477257384E-04 
1801	 4.9843881402991E-03 
1802	 2.39805569057153E-02 
1803	 2.93553892512439E-02 
1804	 1.76319324157263E-02 
1805	 1.14181267749165E-02 
1806	-2.48555128564468E-02 
1807	-4.51818005024751E-02 
1808	-2.84440663712336E-02 
1809	-2.23967005697535E-04 
1810	 0.10351143704385 
1811	 0.120547897644366 
1812	 5.75196314512588E-02 
1813	 0.024774958506488 
1814	-0.197092724661493 
1815	-0.214024485611497 
1816	 0.122111695773566 
1817	 0.197763311968251 
1818	 0.111256411472621 
1819	-0.255133150209409 
1820	-0.61401235061282 
1821	-0.442290210032792 
1822	-0.384310936192258 
1823	-0.300904815368174 
1824	-0.23828927980083 
1825	-0.100898168857469 
1826	 6.09476589984223E-02 
1827	 0.557290193037792 
1828	 0.601705203351397 
1829	-0.234798903543058 
1830	-0.340814449363238 
1831	-0.202974936594294 
1832	 6.82958520157548E-03 
1833	 2.20928472996427E-02 
1834	-4.27900410082538E-02 
1835	-0.341501563748275 
1836	-0.763590508028854 
1837	-1.27416206099858 
1838	-1.27574898283479 
1839	-1.16650043373431 
1840	-0.583945255183236 
1841	 0.252745879653803 
1842	 0.408795359277802 
1843	 0.643061040404215 
1844	 1.44550631903005 
1845	 4.04212872287974 
1846	-0.691765685715324 
1847	-0.607311029707787 
1848	 2.63618195682297 
1849	 0.657782243817096 
1850	 0.414154155509594 
1851	 0.331724694934366 
1852	 0.222307060551081 
1853	-3.18758734270451 
1854	 1.30243609908905 
1855	-6.03209231145468E-02 
1856	 0.157920138376768 
1857	 0.484621381284221 
1858	 0.567511398320516 
1859	 0.891067123776045 
1860	 1.29477247376754 
1861	 22.9887244731794 
1862	-6.26288139880607 
1863	 9.74089258672946 
1864	-25.476138996811 
1865	-6.53509271520388 
1866	 2.99447232664127 
1867	 2.1033691166022 
1868	-0.22428054600983 
1869	 0.264659885496979 
1870	 0.486162559441031 
1871	 1.13798283547335 
1872	 2.79359561316566 
1873	-2.03274542811755 
1874	-0.36553477213781 
1875	-7.41399461220088 
1876	-8.47434472882728 
1877	-4.61492743755689 
1878	-2.0589736531082 
1879	-0.631020840956025 
1880	-0.269002565607097 
1881	 0.213517679361423 
1882	 0.371827181433842 
1883	 0.150172839325736 
1884	 0.291427168715809 
1885	 1.5287689237825 
1886	 1.90426155264735 
1887	-3.11020558924904 
1888	-1.44592091418438 
1889	-0.493705766515765 
1890	 1.71677807709363 
1891	 3.90978329808364 
1892	-2.54557225557713 
1893	-1.88407177591274 
1894	-1.5088419678615 
1895	-1.2320417397353 
1896	-0.876515249833854 
1897	-0.50199272499549 
1898	-0.140572528654509 
1899	-4.72335106730593E-02 
1900	-2.88287639019525E-03 
1901	 0.10598112488525 
1902	 0.383253069639586 
1903	 2.67879375387448 
1904	 2.29583762487571 
1905	 0.563636856888518 
1906	 1.02801530496595 
1907	 1.70978124536224 
1908	 4.77615896758385 
1909	-3.60665504363249 
1910	 1.60087226580625 
1911	 0.518787086276712 
1912	 0.778234777474943 
1913	 1.05216891020273 
1914	 1.20982363137646 
1915	 2.08339833533883 
1916	-3.39447002896745 
1917	-2.02813630072849 
1918	-8.70858866961488 
1919	-9.86637150036246 
1920	-4.20670553240132 
1921	-0.513625612916985 
1922	 0.279468258230381 
1923	 0.243383266524433 
1924	 0.295356821739586 
1925	 0.283115325670852 
1926	 0.278018826200806 
1927	 0.266062545170782 
1928	 0.463002353640116 
1929	 0.508625244874758 
1930	-0.412287064738272 
1931	-0.691302616958183 
1932	-0.506915714960909 
1933	-0.408007583283422 
1934	-0.120733408474962 
1935	 0.100107265036645 
1936	 5.11484022734826E-02 
1937	 0.171469215283081 
1938	 0.112208806099033 
1939	 6.04590124775473E-02 
1940	-5.82481296173804E-02 
1941	 1.21613109602153E-02 
1942	 7.70065240658288E-03 
1943	 3.49536398933072E-03 
1944	 2.86875450210948E-02 
1945	 6.20371038108102E-03 
1946	 1.87034341641236E-03 
1947	 3.47115674432685E-03 
1948	 1.76448289978164E-02 
1949	 4.56995197318217E-02 
1950	 2.21275018499727E-02 
1951	-6.89884255864496E-03 
1952	-0.010993281880404 
1953	-1.00659695751737E-02 
1954	-3.44133684533811E-02 
1955	-3.11903863526629E-02 
1956	 3.2658764882975E-03 
1957	-1.46115591528106E-03 
1958	-1.58115378686944E-02 
1959	-1.40556461574165E-02 
1960	-1.55010784659949E-02 
1961	-1.71130949572343E-02 
1962	-1.08677900630829E-02 
1963	-5.91258214400774E-03 
1964	-5.44702144486124E-03 
1965	-1.92208516477209E-03 
1966	 3.85589907883655E-04 
1967	 3.26344614140918E-03 
1968	 3.48037018725281E-03 
1969	 2.01751846947841E-03 
1970	 8.63258614060961E-04 
1971	-3.08541174490924E-04 
1972	-1.36072587962078E-03 
1973	-6.9588197957581E-04 
1974	-7.53402012004021E-04 
1975	-0.000178006201704 
1976	 1.98583106695469E-03 
1977	 2.79734189538466E-03 
1978	 2.77993078535809E-03 
1979	 3.27868180714591E-03 
1980	 3.67329300434715E-03 
1981	 3.03760768607376E-03 
1982	 2.63687901510357E-03 
1983	 2.79669042306326E-03 
1984	 2.27679403301305E-03 
1985	 1.2184853785831E-03 
1986	 3.90170980149019E-04 
1987	 7.22759610029307E-04 
1988	 6.26067786593255E-04 
1989	-4.18498478566075E-04 
1990	-3.40978946134151E-04 
1991	-2.47859056923691E-04 
1992	-7.27018168127492E-04 
1993	-1.27273367134706E-04 
1994	 4.0364019029142E-04 
1995	 1.26963967720675E-03 
1996	 1.18510046079115E-03 
1997	 1.10866178852487E-03 
1998	 1.6145679556688E-03 
1999	 1.31974838376426E-03 
2000	 1.07671996610614E-03 
2001	 2.16003604444526E-03 
2002	 2.37656525539413E-03 
2003	 2.72019481150733E-03 
2004	 2.02565666917564E-03 
2005	 4.82575810822132E-04 
2006	 1.08826682201376E-03 
2007	 2.91892412788688E-03 
2008	 3.47427122791236E-03 
2009	 3.36323396846202E-03 
2010	 3.42961263659565E-03 
2011	 3.20057153741782E-03 
2012	 3.22053856803038E-04 
2013	 1.56460638039679E-03 
2014	 4.53930016858107E-03 
2015	 3.30507533109224E-03 
2016	 3.41467555029246E-03 
2017	 3.05761916998697E-03 
2018	 1.70480874017669E-03 
2019	 2.39756828781315E-03 
2020	 2.32377225722026E-03 
2021	 2.61638144413826E-03 
2022	 3.66130998776447E-03 
2023	 3.87229487073278E-03 
2024	 3.9995978430244E-03 
2025	 4.5983157988068E-03 
2026	 4.10046208525501E-03 
2027	 2.59378193188979E-03 
2028	 2.08935953715284E-03 
2029	 2.13567799254093E-03 
2030	 1.85305090499786E-03 
2031	 2.01826358732073E-03 
2032	 2.51082553505421E-03 
2033	 2.12266713627229E-03 
2034	 1.33966937367467E-03 
2035	 1.41520369476116E-03 
2036	 1.6968914380618E-03 
2037	 1.41238706453206E-03 
2038	 1.41235881768488E-03 
2039	 1.35683771587763E-03 
2040	 7.22234001432189E-04 
2041	 4.4447344008464E-04 
2042	 6.27427237643997E-04 
2043	 7.17567680899798E-04 
2044	 8.18684441582256E-04 
2045	 8.97606864317864E-04 
2046	 8.78459940417431E-04 
2047	 1.37965311645016E-03 
2048	 2.35954814775034E-03 
2049	 3.00067648322455E-03 
2050	 2.76658977418955E-03 
2051	 1.72683085632916E-03 
2052	 7.85511530181791E-04 
2053	-2.74803105273016E-04 
2054	-6.28321122576125E-04 
2055	 1.41804168337252E-05 
2056	 1.96209190942644E-04 
2057	-1.77891541801621E-04 
2058	 1.6391791669589E-04 
2059	 1.51260901042329E-03 
2060	 1.61981938378102E-03 
2061	 1.3604796310602E-03 
2062	 8.30431774733359E-04 
2063	 4.26392019112362E-04 
2064	 1.97487194813844E-04 
2065	 8.78881232264921E-04 
2066	 1.77565222811585E-03 
2067	 1.41592027216643E-03 
2068	 1.6466260835114E-03 
2069	 2.55032951121179E-03 
2070	 2.48955810430099E-03 
2071	 2.86974861067797E-03 
2072	 2.8433093181997E-03 
2073	 2.58992644206316E-03 
2074	 1.53952001333623E-03 
2075	 1.6956154917207E-03 
2076	 2.42345185829784E-03 
2077	 0.002689443072622 
2078	 3.31684959418676E-03 
2079	 3.24899536637803E-03 
2080	 2.81228027561582E-03 
2081	 1.98211167728772E-03 
2082	 1.36507373134779E-03 
2083	 1.24144642948162E-03 
2084	 1.09622647020332E-03 
2085	 1.25068250555215E-03 
2086	 9.51105028636502E-04 
2087	 8.08513447266323E-04 
2088	 1.00622811612528E-03 
2089	 9.20838013645891E-04 
2090	 1.13092457417926E-03 
2091	 9.64109323395698E-04 
2092	 1.02800529398804E-03 
2093	 1.16173620244029E-03 
2094	 1.38678971826346E-03 
2095	 1.64156618237902E-03 
2096	 1.91262251305157E-03 
2097	 2.17483935540495E-03 
2098	 2.18792284729191E-03 
2099	 2.09274866380014E-03 
2100	 2.33853294290779E-03 
2101	 2.26453105659438E-03 
2102	 2.20812851115863E-03 
2103	 2.4833785513443E-03 
2104	 3.26384975571095E-03 
2105	 3.63684935369678E-03 
2106	 3.41433754519361E-03 
2107	 3.36776131222802E-03 
2108	 3.00833669193184E-03 
2109	 2.6746520244805E-03 
2110	 2.66323714210485E-03 
2111	 1.9792920816594E-03 
2112	 1.82291677891011E-03 
2113	 1.91359924392117E-03 
2114	 2.55760335643881E-03 
2115	 2.38081665624173E-03 
2116	 2.30222281015884E-03 
2117	 1.98577114837264E-03 
2118	 4.43332756085079E-04 
2119	 1.99388879508538E-04 
2120	 8.72251179104186E-04 
2121	 1.07247941458291E-03 
2122	 1.07068379659565E-03 
2123	 1.54511709536942E-03 
2124	 1.48414700859537E-03 
2125	 8.1857413239014E-04 
2126	 1.24725463838115E-03 
2127	 1.80793013370208E-03 
2128	 1.05804524138125E-03 
2129	 1.24682107195085E-03 
2130	 2.41213176861568E-03 
2131	 2.65737160816129E-03 
2132	 2.49848561430183E-03 
2133	 2.76711230880292E-03 
2134	 2.72397442031522E-03 
2135	 9.07794297933389E-04 
2136	 9.38240955658668E-04 
2137	 2.8387206422841E-03 
2138	 3.09584758371039E-03 
2139	 3.03481323883132E-03 
2140	 2.86078668995745E-03 
2141	 1.65080500264644E-03 
2142	 1.33882298984325E-03 
2143	 1.18263417642959E-03 
2144	 1.67068377104644E-03 
2145	 2.51327278100943E-03 
2146	 2.68789979841012E-03 
2147	 2.66008534196711E-03 
2148	 2.59903305691662E-03 
2149	 2.56851028637399E-03 
2150	 2.68019999356991E-03 
2151	 2.30704282876389E-03 
2152	 1.94215215762618E-03 
2153	 1.42079497587835E-03 
2154	 5.9334832948025E-04 
2155	 5.38510904105214E-04 
2156	 8.22569695482793E-04 
2157	 9.56249293901693E-04 
2158	 1.32585860082147E-03 
2159	 1.52814733124627E-03 
2160	 1.64761072427477E-03 
2161	 1.6749401974059E-03 
2162	 1.50549315945185E-03 
2163	 1.15126935756626E-03 
2164	 4.58116396924405E-04 
2165	 1.24967820910037E-04 
2166	-1.31946740880398E-04 
2167	-6.90995384950911E-05 
2168	 6.54525824131161E-04 
2169	 1.07966526897414E-03 
2170	 1.81812988876995E-03 
2171	 1.37091216188512E-03 
2172	 7.24100341460911E-04 
2173	 8.16564105341939E-04 
2174	 2.62617345465604E-04 
2175	-4.5220973797571E-04 
2176	 4.90011722367459E-04 
2177	 6.83248781375686E-04 
2178	 1.38969141482195E-03 
2179	 3.20048031137556E-03 
2180	 3.18546599472749E-03 
2181	 2.57602439178213E-03 
2182	 1.45564573128709E-03 
2183	-4.9361296553984E-04 
2184	-1.38171495327671E-03 
2185	-1.46637176779846E-03 
2186	-1.25287291426486E-03 
2187	 1.21928150894963E-04 
2188	 6.79098522796083E-04 
2189	 1.43117923072366E-03 
2190	 1.43667392664497E-03 
2191	 6.85693037616064E-04 
2192	 2.67846726607934E-04 
2193	-8.04891684614231E-04 
2194	-8.38814951655289E-04 
2195	-5.00648456987113E-05 
2196	 8.1516760688049E-05 
2197	 3.53629147640468E-04 
2198	 8.82432703069072E-04 
2199	 1.45242484243813E-03 
2200	 1.75884664664654E-03 
2201	 1.17407273817825E-03 
2202	 1.74015617398961E-04 
2203	-8.499253091363E-04 
2204	-1.74337801008002E-04 
2205	 1.21329216396528E-03 
2206	 1.82316202020231E-03 
2207	 2.95995618557579E-03 
2208	 2.56614043133273E-03 
2209	 8.24729230641893E-04 
2210	 1.19224690653827E-03 
2211	 7.93219901407378E-04 
2212	-1.67780849062464E-03 
2213	-1.43590139224738E-03 
2214	 6.22709546054723E-04 
2215	 9.28500270798658E-04 
2216	 1.50017766098095E-03 
2217	 1.86866513273957E-03 
2218	 1.36493562362434E-03 
2219	 1.22786254496964E-03 
2220	 1.32881001362898E-03 
2221	 1.42964296858328E-03 
2222	 1.63832754162672E-03 
2223	 1.38932952337685E-03 
2224	 1.43878818199756E-03 
2225	 8.63811146036385E-04 
2226	-1.20207813580315E-03 
2227	-1.84559044691703E-03 
2228	-2.31298980168045E-03 
2229	-2.12227838860575E-03 
2230	-2.31810970662369E-04 
2231	 6.0399519031854E-04 
2232	 1.52683565860046E-03 
2233	 2.07802799049538E-03 
2234	 2.08539143328073E-03 
2235	 1.55639448584712E-03 
2236	 2.60336320922502E-03 
2237	 0.002086338871538 
2238	 1.17352184816818E-03 
2239	 2.34556300859366E-03 
2240	 2.81535398337981E-03 
2241	 2.49602158907311E-03 
2242	 2.7420869276765E-03 
2243	 1.95635636331906E-03 
2244	 6.30095828901084E-04 
2245	-2.30161315025115E-04 
2246	-6.58884628268929E-04 
2247	 1.40556458611621E-06 
2248	 1.51462170097473E-05 
2249	-1.87629820313139E-04 
2250	-4.10530247167631E-04 
2251	-1.46111721717331E-03 
2252	-1.08621709791636E-03 
2253	 4.34608918809292E-04 
2254	 1.48432064827476E-03 
2255	 1.58134121290539E-03 
2256	 3.07163174384807E-03 
2257	 3.77197981326124E-03 
2258	 2.40383158944104E-03 
2259	 4.5025813988339E-03 
2260	 4.78806180637071E-03 
2261	 2.95717679332506E-03 
2262	 1.33086046308289E-03 
2263	-6.86933822941537E-04 
2264	-1.30235964841995E-03 
2265	-2.07001481532958E-03 
2266	-1.28416939695791E-03 
2267	 2.9107602448561E-03 
2268	 3.88211119835437E-03 
2269	 3.00389741851919E-03 
2270	 3.05418291537109E-03 
2271	 2.3986030932784E-03 
2272	 1.61605226638258E-03 
2273	 1.76858285525769E-03 
2274	 1.02945889530584E-03 
2275	-1.47518285822934E-03 
2276	-2.02814879078139E-03 
2277	-1.38725715368816E-03 
2278	-1.50621749044286E-03 
2279	-2.59318166214648E-03 
2280	-1.41572250037441E-03 
2281	 1.54964794918458E-03 
2282	 2.70855806869524E-03 
2283	 3.16860913675759E-03 
2284	 5.29282559621061E-03 
2285	 4.28145826582009E-03 
2286	 2.39834789727168E-03 
2287	 1.49372298088968E-03 
2288	 4.41478300275298E-04 
2289	-8.9548462010452E-04 
2290	-1.84355152841713E-03 
2291	 3.90940786616026E-04 
2292	 2.81452745070995E-03 
2293	 3.33813110327847E-03 
2294	 3.90123240236999E-03 
2295	 3.11245361424494E-03 
2296	 1.43856971133107E-03 
2297	 2.24804765489771E-03 
2298	 4.03814780619524E-03 
2299	 1.48109630050308E-03 
2300	-2.38135770287499E-04 
2301	 8.96648855353295E-04 
2302	-4.77297341711007E-04 
2303	 7.36187351234031E-04 
2304	 2.44952744666334E-03 
2305	 8.55831740409947E-04 
2306	-7.18164043667933E-05 
2307	-1.64417859997464E-03 
2308	-2.58652034515338E-03 
2309	-1.49879300989994E-03 
2310	-2.13428462333789E-03 
2311	-3.15808836085595E-03 
2312	-7.7142646261496E-04 
2313	 4.82561694418375E-05 
2314	-2.33005974837028E-03 
2315	 1.60669902636561E-04 
2316	 1.2227824727013E-03 
2317	-2.34385118180977E-03 
2318	 2.79042442131134E-04 
2319	 4.58144332935231E-04 
2320	-1.80671133844113E-03 
2321	 3.85126229478241E-03 
2322	 3.13707222766316E-03 
2323	-2.60180340605475E-03 
2324	-4.87740495939336E-04 
2325	-3.21714296863215E-03 
2326	-5.77545349194522E-03 
2327	 1.0333294085481E-03 
2328	 6.48826975793614E-04 
2329	-2.62119618769525E-03 
2330	-8.67320637208301E-04 
2331	-2.30180945367324E-03 
2332	-4.93648133397836E-03 
2333	-5.29834758171356E-03 
2334	-3.5533105891492E-03 
2335	-1.77101562954794E-03 
2336	-2.59690481450929E-04 
2337	 1.19883830098125E-03 
2338	 2.43430145661199E-03 
2339	 6.63405373946975E-03 
2340	 7.71076368613751E-03 
2341	 5.08758470898806E-03 
2342	 6.0932374176155E-03 
2343	 3.41135510305625E-03 
2344	-8.90257875701161E-04 
2345	 2.55291246870278E-03 
2346	 5.00793007913821E-03 
2347	 5.7188430224851E-03 
2348	 7.92982831795021E-03 
2349	 5.76247818882254E-03 
2350	 7.2985330413541E-04 
2351	-5.20893925458868E-05 
2352	 2.20496437223457E-03 
2353	 5.93220606942068E-03 
2354	 1.30764999497558E-02 
2355	 9.56773920791692E-03 
2356	 2.05310234202858E-03 
2357	 9.0703908542611E-03 
2358	 0.01284068480893 
2359	 4.48958465599672E-03 
2360	-3.99666323703931E-03 
2361	-1.14768948926984E-02 
2362	-0.015616003555235 
2363	-5.09483858490498E-03 
2364	 1.29301299659758E-02 
2365	 0.019723150553551 
2366	 2.04481331057571E-02 
2367	 1.52290710016847E-02 
2368	 3.8841107789072E-03 
2369	 1.81030137298425E-03 
2370	-2.34199580515752E-03 
2371	-6.34594440414547E-03 
2372	-2.55802323859566E-04 
2373	-2.36782836724816E-03 
2374	-5.65141529959705E-03 
2375	-1.46110882062483E-02 
2376	-3.02071698474007E-02 
2377	-2.28417502912517E-02 
2378	-1.56320049978795E-02 
2379	-2.93011970490156E-03 
2380	 1.67328990109413E-02 
2381	-4.07804407983215E-03 
2382	-2.03084798359015E-02 
2383	-1.17841635243454E-02 
2384	-2.00982239415113E-02 
2385	-1.05600621227349E-02 
2386	 1.86021830694454E-02 
2387	 6.80369627076134E-03 
2388	-1.70564461780531E-02 
2389	-0.02180896534877 
2390	-3.47974962848974E-02 
2391	-4.49094019607984E-02 
2392	-3.25673486714488E-02 
2393	-2.85726234092011E-02 
2394	-4.33406918010938E-02 
2395	-4.84836599664568E-02 
2396	-5.51896855178498E-02 
2397	-4.28035010857104E-02 
2398	-0.018974094429594 
2399	-2.50480863353057E-02 
2400	-2.25432040830331E-02 
2401	-2.08433477591442E-02 
2402	-0.039670563300355 
2403	-2.09707847773742E-02 
2404	 1.36033719693986E-02 
2405	 2.43612815339923E-02 
2406	 2.55599289242871E-02 
2407	 7.07971642749138E-04 
2408	-3.38907805033743E-02 
2409	-5.78717528710395E-02 
2410	-6.30613388846909E-02 
2411	-3.35537832153663E-02 
2412	-2.22243652044222E-02 
2413	-3.46422493279461E-02 
2414	-0.025007701885225 
2415	 8.35123193657437E-04 
2416	 7.96611714078534E-02 
2417	 0.110292771333054 
2418	 0.096410374018968 
2419	 6.59656730012308E-02 
2420	-7.27403323027155E-02 
2421	-9.54547248899233E-02 
2422	-3.91014558728315E-02 
2423	-4.27219975283128E-02 
2424	-1.60511824961597E-02 
2425	 9.87885498562409E-03 
2426	 2.96887724362806E-02 
2427	 0.027198127006663 
2428	 3.29853426483049E-03 
2429	 1.87735305378814E-02 
2430	 2.71644393527839E-03 
2431	 6.97390069418379E-03 
2432	 5.61327756188533E-02 
2433	 0.094495035534228 
2434	 5.40063125850359E-02 
2435	-5.81966111694478E-02 
2436	-3.50083934023648E-02 
2437	 0.069183037639756 
2438	 0.137972339291199 
2439	 0.318919961700672 
2440	 0.298450516508718 
2441	-2.32962857007476E-02 
2442	-0.274011805217607 
2443	-0.431258609313671 
2444	-0.47809893541978 
2445	-0.251536546426991 
2446	-0.145460403181421 
2447	 2.45036207510791E-02 
2448	 0.074412285752829 
2449	-0.259800467870342 
2450	-0.318001905073675 
2451	-0.161216925997142 
2452	 1.75304422858501E-02 
2453	 1.89508365229107E-02 
2454	-0.179398666313882 
2455	-7.75946389172417E-02 
2456	-4.53946204118334E-02 
2457	-0.014690181219239 
2458	 2.94043989364238E-02 
2459	-0.100125225618007 
2460	-0.212919925216007 
2461	-0.101406929154529 
2462	-1.18601414088961E-02 
2463	 0.034710440368506 
2464	 2.01356126149547E-02 
2465	-1.19435696245381E-02 
2466	-5.60000562147773E-02 
2467	-3.92264805724024E-02 
2468	 0.105863246339731 
2469	 0.188422324732775 
2470	 0.143605233970982 
2471	 7.28829542531031E-02 
2472	-1.8701026018504 
2473	-1.17098167351782 
2474	-0.638127444922682 
2475	-0.591503167482934 
2476	-5.32087325268429E-02 
2477	 0.213873911017658 
2478	 1.06323630132257 
2479	 0.504316703328702 
2480	-0.53933388952237 
2481	-0.713609984236318 
2482	-0.306701948475631 
2483	-0.382653900304075 
2484	 0.391482249200008 
2485	 0.503856472231558 
2486	 0.154480529274413 
2487	 0.276366272157441 
2488	-0.187016702809081 
2489	-0.121942946402032 
2490	 5.89118402477314E-03 
2491	-0.112241667194296 
2492	 0.125145042159712 
2493	-9.51635469146629E-02 
2494	 6.17470261244895E-02 
2495	 0.135511101771382 
2496	 0.65792971771637 
2497	-1.02920233756403 
2498	-0.790443701768388 
2499	-0.405836571217284 
2500	-0.63998148705858 
