Wavelength	rt0721algea00006.asd
350	 4.52210566839911E-02 
351	 4.50576869221156E-02 
352	 4.46349440517806E-02 
353	 0.044686848201029 
354	 0.04526042233388 
355	 4.47337922226395E-02 
356	 0.044666653076553 
357	 4.50911894158574E-02 
358	 4.54967760170678E-02 
359	 4.53552272215668E-02 
360	 4.47061436047653E-02 
361	 4.41888884376095E-02 
362	 4.46151382391656E-02 
363	 4.45776479373427E-02 
364	 4.45237207818811E-02 
365	 4.46452082761474E-02 
366	 4.43992814874388E-02 
367	 4.42983591449066E-02 
368	 0.04441261970024 
369	 4.46472997163199E-02 
370	 4.47983348548603E-02 
371	 4.49276821100648E-02 
372	 4.49752263148728E-02 
373	 0.044864580326782 
374	 4.49739812999537E-02 
375	 4.51183091526338E-02 
376	 4.52166151409124E-02 
377	 0.045410270391553 
378	 4.55384052337538E-02 
379	 4.57255067227491E-02 
380	 4.60522450942934E-02 
381	 4.63325054330701E-02 
382	 4.59612540214396E-02 
383	 4.56461864009277E-02 
384	 4.64299012116195E-02 
385	 4.69905055348942E-02 
386	 4.69698096935646E-02 
387	 4.68091920777245E-02 
388	 4.76257280781919E-02 
389	 4.75493122407685E-02 
390	 4.74325238030288E-02 
391	 4.80106855175275E-02 
392	 4.85251149802402E-02 
393	 4.83838022903375E-02 
394	 4.81043565889307E-02 
395	 4.83993078465689E-02 
396	 0.048584273834231 
397	 0.048708851201251 
398	 4.88723875826461E-02 
399	 4.91607247863591E-02 
400	 4.92871164126532E-02 
401	 4.93355145763048E-02 
402	 4.94315222650407E-02 
403	 4.96760236098918E-02 
404	 4.98086222223131E-02 
405	 4.98623543759331E-02 
406	 4.99648797063384E-02 
407	 5.00811446606527E-02 
408	 5.01917719840357E-02 
409	 5.03184622379108E-02 
410	 5.05164048547043E-02 
411	 5.07114658440209E-02 
412	 0.050855787716315 
413	 5.09732228879654E-02 
414	 5.12546394123488E-02 
415	 5.14228581312805E-02 
416	 5.15349653332389E-02 
417	 5.17646218008769E-02 
418	 5.20884766919966E-02 
419	 5.23852984931682E-02 
420	 5.26096200206848E-02 
421	 5.28064108670135E-02 
422	 5.30107835584011E-02 
423	 5.33181644669448E-02 
424	 5.37176464334216E-02 
425	 5.38694905302353E-02 
426	 5.41530641927855E-02 
427	 5.45429601778206E-02 
428	 5.48383311271697E-02 
429	 5.51195674171647E-02 
430	 0.055512373975184 
431	 5.59749621314935E-02 
432	 5.62756542695775E-02 
433	 5.65803600374839E-02 
434	 5.69527199738917E-02 
435	 5.73728505832422E-02 
436	 5.76440834914726E-02 
437	 5.79470947146891E-02 
438	 5.83109616705694E-02 
439	 0.058677775177303 
440	 5.90435315624355E-02 
441	 5.94037022901413E-02 
442	 0.059748752427902 
443	 6.00597033106355E-02 
444	 6.03574039317776E-02 
445	 6.06661017171315E-02 
446	 6.09967500089243E-02 
447	 6.13214128284346E-02 
448	 6.15791510801276E-02 
449	 6.17980415236906E-02 
450	 6.20610171785868E-02 
451	 6.22431254926939E-02 
452	 6.23872431613702E-02 
453	 6.25505102870265E-02 
454	 6.27738282349382E-02 
455	 6.29384535596119E-02 
456	 6.30711185933261E-02 
457	 6.32308560022778E-02 
458	 6.33453534521529E-02 
459	 6.33581872845105E-02 
460	 6.33978262097077E-02 
461	 6.37442854049618E-02 
462	 6.38486343815866E-02 
463	 6.38546537827993E-02 
464	 6.39555268498266E-02 
465	 6.40753406526699E-02 
466	 6.42124578509148E-02 
467	 6.43562693072577E-02 
468	 6.44922274665645E-02 
469	 6.45986728200787E-02 
470	 6.47089960443141E-02 
471	 6.48269177085673E-02 
472	 6.49097406378466E-02 
473	 6.50279024205893E-02 
474	 0.065199369718953 
475	 6.54049788703442E-02 
476	 6.55509641981695E-02 
477	 0.065725613049705 
478	 6.59276924170469E-02 
479	 6.61027280679023E-02 
480	 0.066331566423791 
481	 6.66138309183684E-02 
482	 6.69104373252517E-02 
483	 6.71224673436174E-02 
484	 6.73339953243562E-02 
485	 6.76027406788476E-02 
486	 6.79426431908458E-02 
487	 6.81904342942555E-02 
488	 6.85143705080182E-02 
489	 6.89311382246646E-02 
490	 6.93025074021931E-02 
491	 6.96847232949783E-02 
492	 7.00517106221544E-02 
493	 7.04016788473339E-02 
494	 7.08331006028479E-02 
495	 7.13667128227137E-02 
496	 7.19058123237913E-02 
497	 7.23216469997185E-02 
498	 0.072769866819256 
499	 7.32440401281127E-02 
500	 7.37636376168178E-02 
501	 7.44155260993523E-02 
502	 7.50428497529259E-02 
503	 0.075616394241806 
504	 7.61709440640758E-02 
505	 7.68036764455323E-02 
506	 0.077509791338738 
507	 7.82358248834499E-02 
508	 7.89023461672662E-02 
509	 7.96137532126299E-02 
510	 8.03621672985148E-02 
511	 8.11249463828849E-02 
512	 8.19049719689907E-02 
513	 8.26155452448245E-02 
514	 8.33648922373302E-02 
515	 8.42879721025446E-02 
516	 8.50672132886828E-02 
517	 8.59384128969268E-02 
518	 8.69073610688485E-02 
519	 8.76506741028312E-02 
520	 8.84605598529368E-02 
521	 8.92504541477924E-02 
522	 8.99541380623946E-02 
523	 9.08681646312133E-02 
524	 9.17690058369889E-02 
525	 9.25481661445924E-02 
526	 9.32159438094364E-02 
527	 9.40473774094825E-02 
528	 9.49141133169454E-02 
529	 9.56949864868071E-02 
530	 9.63945199130104E-02 
531	 9.71532276791096E-02 
532	 9.79422059494268E-02 
533	 9.86826859349444E-02 
534	 0.099447399371021 
535	 0.100223129219937 
536	 0.100975323378035 
537	 0.101648164881718 
538	 0.102420193461535 
539	 0.103172725182527 
540	 0.10382247377489 
541	 0.104653319544162 
542	 0.105437184942574 
543	 0.106151828560182 
544	 0.106900937775545 
545	 0.107592076314358 
546	 0.108342566000175 
547	 0.109165218664073 
548	 0.109820969059827 
549	 0.110526931421422 
550	 0.11128516359005 
551	 0.112017172611666 
552	 0.112636696098032 
553	 0.113286141377533 
554	 0.113996828082575 
555	 0.114658109784837 
556	 0.11532281304888 
557	 0.115948279522323 
558	 0.116500456639809 
559	 0.117061945421935 
560	 0.117590196010073 
561	 0.118096416702646 
562	 0.118615927104205 
563	 0.119042953138557 
564	 0.11941357240897 
565	 0.11976469116426 
566	 0.120097959724395 
567	 0.12042168947731 
568	 0.120726155962309 
569	 0.121000303329173 
570	 0.121271330461388 
571	 0.121544960638811 
572	 0.121812366993597 
573	 0.122051191599717 
574	 0.122274146615562 
575	 0.122470988620573 
576	 0.122642109428665 
577	 0.122838643951061 
578	 0.123052180663597 
579	 0.123244701677978 
580	 0.123365870227308 
581	 0.123438571172896 
582	 0.123502406478623 
583	 0.123575874943816 
584	 0.123648875659794 
585	 0.123523755289934 
586	 0.123314089468656 
587	 0.123202397595716 
588	 0.123008940442203 
589	 0.12285745695917 
590	 0.122813466817419 
591	 0.122841967947585 
592	 0.122812867364715 
593	 0.122740664753681 
594	 0.122657124049472 
595	 0.122537699542544 
596	 0.122386902898186 
597	 0.12221215802761 
598	 0.12202771268135 
599	 0.121877503344607 
600	 0.121751726222993 
601	 0.121628534461457 
602	 0.121473624578723 
603	 0.12137788290107 
604	 0.121373484218987 
605	 0.121438343195208 
606	 0.121394832821928 
607	 0.121381764482574 
608	 0.121415754540012 
609	 0.121376214003828 
610	 0.121346226935409 
611	 0.121321808264501 
612	 0.121283135767997 
613	 0.121208470059088 
614	 0.121203053180765 
615	 0.121204667566286 
616	 0.121087874160242 
617	 0.121090906657441 
618	 0.121077621141554 
619	 0.120985491328664 
620	 0.120934881451439 
621	 0.120870002612364 
622	 0.120807234793513 
623	 0.120775720541015 
624	 0.120771603363116 
625	 0.120668155589005 
626	 0.12052242977556 
627	 0.120554413332666 
628	 0.120560876599385 
629	 0.120533933759172 
630	 0.120488358946886 
631	 0.120397735261496 
632	 0.12024153507718 
633	 0.120106621173623 
634	 0.120078653224665 
635	 0.119810769630428 
636	 0.119575691182754 
637	 0.119431160208444 
638	 0.119040640681629 
639	 0.118696904772538 
640	 0.118421939350455 
641	 0.118158050650025 
642	 0.117865421335262 
643	 0.117496308058538 
644	 0.11706808995722 
645	 0.116649556317442 
646	 0.116154241098048 
647	 0.115780089094162 
648	 0.115619204109377 
649	 0.115387441884166 
650	 0.115252858647533 
651	 0.115160465270296 
652	 0.114999831033236 
653	 0.114848527871849 
654	 0.114568381331701 
655	 0.114211193968744 
656	 0.114139728103766 
657	 0.113935619965031 
658	 0.113641982296494 
659	 0.113355209674375 
660	 0.113054962731998 
661	 0.112733310017988 
662	 0.112406882708588 
663	 0.11211292435672 
664	 0.111852376802574 
665	 0.111654117833145 
666	 0.111474689531606 
667	 0.111130855878269 
668	 0.110956019514836 
669	 0.11087661900023 
670	 0.110728276362411 
671	 0.110625744365833 
672	 0.110574495421302 
673	 0.110581671682783 
674	 0.110653546268997 
675	 0.110658450812543 
676	 0.110661715617065 
677	 0.1107437027864 
678	 0.110918404052283 
679	 0.111178149487368 
680	 0.11152066327792 
681	 0.111944334775505 
682	 0.11242956384097 
683	 0.113088216073121 
684	 0.113848560551773 
685	 0.114440733835491 
686	 0.115297947380209 
687	 0.116388490513008 
688	 0.117471808479779 
689	 0.11853543507113 
690	 0.119588136743048 
691	 0.120586378026855 
692	 0.121474206630688 
693	 0.122368145045899 
694	 0.123341864974424 
695	 0.124337833873739 
696	 0.125245664249784 
697	 0.125787720315566 
698	 0.126208402450309 
699	 0.126767893563494 
700	 0.127094994234742 
701	 0.127424325910598 
702	 0.127791758330921 
703	 0.128058206542536 
704	 0.128105939674928 
705	 0.128100963832707 
706	 0.128123669822949 
707	 0.127994991720005 
708	 0.127611013343289 
709	 0.12712752510894 
710	 0.126736357468243 
711	 0.126215432493834 
712	 0.125466795529377 
713	 0.124482432769685 
714	 0.123314231124938 
715	 0.122069226953761 
716	 0.120592164938465 
717	 0.118905178326041 
718	 0.117509477996645 
719	 0.116400652905965 
720	 0.115524397040447 
721	 0.114591966525298 
722	 0.113352696146617 
723	 0.11174718892724 
724	 0.110046457348078 
725	 0.108490171358526 
726	 0.106920352488829 
727	 0.10511914148341 
728	 0.103008522349248 
729	 0.100829047193184 
730	 9.87252117183613E-02 
731	 9.68084430645421E-02 
732	 9.50453303741952E-02 
733	 9.35834612534298E-02 
734	 9.21379539753245E-02 
735	 9.07276066728471E-02 
736	 8.97743240320005E-02 
737	 8.90755802062824E-02 
738	 8.85890442465692E-02 
739	 8.82943584727273E-02 
740	 8.81134445808879E-02 
741	 8.79756540278703E-02 
742	 8.78538848594923E-02 
743	 8.77625698819388E-02 
744	 8.78358792032728E-02 
745	 8.78512612774574E-02 
746	 8.77687666081255E-02 
747	 8.78371006906251E-02 
748	 8.78423511465603E-02 
749	 8.78156140267317E-02 
750	 8.78256506403247E-02 
751	 8.78541239537421E-02 
752	 8.78791544352802E-02 
753	 8.79134709029003E-02 
754	 8.79843040511018E-02 
755	 8.80777354047524E-02 
756	 8.80794227699281E-02 
757	 8.79787190941012E-02 
758	 8.79069282711642E-02 
759	 8.76242309430254E-02 
760	 8.72515224246951E-02 
761	 8.72604648292628E-02 
762	 8.72745898034745E-02 
763	 8.75030983104722E-02 
764	 8.78545015457776E-02 
765	 8.81950535231707E-02 
766	 0.088654917594216 
767	 8.89519240493756E-02 
768	 8.91127030917895E-02 
769	 8.94312608208662E-02 
770	 8.96742629613707E-02 
771	 8.98707536439077E-02 
772	 9.00859445915415E-02 
773	 9.03409750584703E-02 
774	 9.05676474009322E-02 
775	 9.08260455956554E-02 
776	 9.11982285406916E-02 
777	 9.15324962796932E-02 
778	 9.17733567847873E-02 
779	 9.20157583108591E-02 
780	 9.24762119768917E-02 
781	 9.28559599722625E-02 
782	 9.32271561045464E-02 
783	 9.36441731367258E-02 
784	 9.39681617972398E-02 
785	 9.42208263289652E-02 
786	 9.45202335169348E-02 
787	 9.49659965472549E-02 
788	 9.53502145689743E-02 
789	 9.58202609051261E-02 
790	 9.63426007076278E-02 
791	 9.67532065775508E-02 
792	 9.71950250717085E-02 
793	 9.76900717294267E-02 
794	 9.81623172829577E-02 
795	 9.83819093150055E-02 
796	 9.88601112649523E-02 
797	 9.92936689395656E-02 
798	 9.94089754770223E-02 
799	 9.97914581675329E-02 
800	 0.10009286834194 
801	 0.100276238842914 
802	 0.100501409242108 
803	 0.100887661717029 
804	 0.101231794715167 
805	 0.101405215664465 
806	 0.101403365663189 
807	 0.101344416648251 
808	 0.101189888194486 
809	 0.100907016238957 
810	 0.100558681059265 
811	 0.100132126308924 
812	 9.96039331925032E-02 
813	 9.89955622713758E-02 
814	 9.85892147938777E-02 
815	 9.80239578822081E-02 
816	 9.74202080503552E-02 
817	 9.71862787394272E-02 
818	 9.65099073157877E-02 
819	 9.58941064991188E-02 
820	 9.53736589865586E-02 
821	 9.42902891740523E-02 
822	 9.29050117718635E-02 
823	 0.091544120792723 
824	 9.03507251145919E-02 
825	 8.89265366471266E-02 
826	 8.70670272470922E-02 
827	 8.49616439753212E-02 
828	 8.30556150994843E-02 
829	 8.11706777669104E-02 
830	 7.94558673035719E-02 
831	 7.79085199017113E-02 
832	 7.64861823992126E-02 
833	 7.55384879301473E-02 
834	 7.47854729465447E-02 
835	 7.40024075409487E-02 
836	 0.073164791796829 
837	 7.29582176048499E-02 
838	 7.27441216953292E-02 
839	 7.20731470313503E-02 
840	 7.17297776313188E-02 
841	 7.14054823673634E-02 
842	 7.11235042785621E-02 
843	 7.09430319474902E-02 
844	 7.05690096210156E-02 
845	 7.02353541408792E-02 
846	 6.99608752391097E-02 
847	 6.96055723018599E-02 
848	 6.91471920039086E-02 
849	 6.87928615974151E-02 
850	 6.85879615496807E-02 
851	 6.83367196338341E-02 
852	 6.79977520847999E-02 
853	 6.76392046893273E-02 
854	 6.73297340523736E-02 
855	 6.70524554936359E-02 
856	 6.69028036209443E-02 
857	 6.67015686935917E-02 
858	 6.63337885014677E-02 
859	 6.61936053805127E-02 
860	 6.59431167725816E-02 
861	 6.55834981687441E-02 
862	 6.52967037165338E-02 
863	 6.52122687115345E-02 
864	 0.064980375085809 
865	 6.45542604627856E-02 
866	 6.41924886370168E-02 
867	 6.38512492600364E-02 
868	 6.35992788253345E-02 
869	 6.33983812094414E-02 
870	 6.30784579959856E-02 
871	 6.29763962235272E-02 
872	 6.25814634839063E-02 
873	 6.17653636491634E-02 
874	 6.16469800857974E-02 
875	 6.13215947334057E-02 
876	 0.06085661841088 
877	 0.060506104293665 
878	 0.060052710525091 
879	 5.95942021397426E-02 
880	 0.059167799098027 
881	 5.87620161972881E-02 
882	 5.82493673970848E-02 
883	 5.80221554117041E-02 
884	 5.78585271240073E-02 
885	 0.057178262665043 
886	 5.66067329351278E-02 
887	 5.63424649849713E-02 
888	 5.61250512179348E-02 
889	 5.53393165924187E-02 
890	 5.52215369515206E-02 
891	 5.51393246209824E-02 
892	 0.054594926295933 
893	 5.39962545837195E-02 
894	 5.37967877584037E-02 
895	 5.34394294355555E-02 
896	 5.25793756503062E-02 
897	 5.26262738350091E-02 
898	 5.21698747812185E-02 
899	 0.05130311486757 
900	 5.07730361228447E-02 
901	 5.13987679678354E-02 
902	 5.11005770240712E-02 
903	 5.02463687296041E-02 
904	 4.99756931019889E-02 
905	 5.01466215062716E-02 
906	 4.97821602206395E-02 
907	 4.88350727719382E-02 
908	 4.79939934650456E-02 
909	 4.71973004339327E-02 
910	 4.68811807994373E-02 
911	 4.68061774584213E-02 
912	 4.62438793167359E-02 
913	 4.59870988489575E-02 
914	 4.57507044231421E-02 
915	 4.51813905801765E-02 
916	 4.41408448110624E-02 
917	 4.37919959238701E-02 
918	 4.32280560412982E-02 
919	 4.23211651133651E-02 
920	 4.22655876637485E-02 
921	 4.15967929454539E-02 
922	 4.10655253626165E-02 
923	 4.09454540928342E-02 
924	 3.96163692953101E-02 
925	 3.90342428755888E-02 
926	 3.88063187884052E-02 
927	 3.81077484276213E-02 
928	 3.74638418069655E-02 
929	 3.67487903836367E-02 
930	 3.61161146513936E-02 
931	 3.59564031778213E-02 
932	 3.68852184094199E-02 
933	 3.49556548072815E-02 
934	 3.43476628098541E-02 
935	 3.90949741101467E-02 
936	 3.53545921673015E-02 
937	 3.24591183667916E-02 
938	 3.20235676234183E-02 
939	 3.26177350103492E-02 
940	 3.27841735587031E-02 
941	 3.28969224300401E-02 
942	 3.19042437631294E-02 
943	 2.95624035211503E-02 
944	 3.46371460958001E-02 
945	 3.69513833624281E-02 
946	 3.43091679215337E-02 
947	 3.12521122971282E-02 
948	 3.36027381032088E-02 
949	 3.26367438146225E-02 
950	 0.029559224031924 
951	 3.07326226660912E-02 
952	 3.02214668058415E-02 
953	 3.08843192322606E-02 
954	 3.23029345706247E-02 
955	 3.18019384921838E-02 
956	 2.95268896092415E-02 
957	 0.029786697895175 
958	 3.14751300152688E-02 
959	 0.030381858628228 
960	 2.92292046785315E-02 
961	 2.98844596884573E-02 
962	 3.08320944226333E-02 
963	 2.92919602679706E-02 
964	 2.90954978158209E-02 
965	 2.97232635129274E-02 
966	 2.97511811316365E-02 
967	 2.81279032320601E-02 
968	 2.88707018345413E-02 
969	 3.02255341258342E-02 
970	 3.05329250342369E-02 
971	 2.92255244421285E-02 
972	 2.96892802740657E-02 
973	 3.10458625514187E-02 
974	 3.16403251514825E-02 
975	 3.02457127129392E-02 
976	 3.09849068304073E-02 
977	 3.04933630445282E-02 
978	 2.91989201931217E-02 
979	 3.05959754544838E-02 
980	 2.99556384885653E-02 
981	 3.01856905280495E-02 
982	 3.07550934819803E-02 
983	 0.028867247430603 
984	 3.07619308445489E-02 
985	 0.032104686023476 
986	 3.17621890933478E-02 
987	 3.17327525911914E-02 
988	 0.030918740721856 
989	 3.02097811547794E-02 
990	 3.01636762310709E-02 
991	 3.07536624136795E-02 
992	 3.10787342381488E-02 
993	 3.09689779433411E-02 
994	 3.11976035464284E-02 
995	 3.24736689240838E-02 
996	 0.031591936581767 
997	 0.030691234895077 
998	 3.06817692753926E-02 
999	 3.10367292138303E-02 
1000	 2.97209425711813E-02 
1001	 3.04188112524218E-02 
1002	 2.98687140939165E-02 
1003	 2.97300770090614E-02 
1004	 2.96779118463427E-02 
1005	 0.029667262293648 
1006	 2.97888737560728E-02 
1007	 3.00143371642655E-02 
1008	 3.04582859914393E-02 
1009	 3.05593115631173E-02 
1010	 3.04886581189292E-02 
1011	 3.04391424313405E-02 
1012	 3.03277151997444E-02 
1013	 3.02307023351911E-02 
1014	 3.00847145307029E-02 
1015	 3.00755179367028E-02 
1016	 2.99547232197277E-02 
1017	 2.94540376062765E-02 
1018	 2.94748544573502E-02 
1019	 2.98491106867794E-02 
1020	 3.01704172878408E-02 
1021	 3.08970289218229E-02 
1022	 3.11437836753007E-02 
1023	 3.14803460847559E-02 
1024	 3.13460317078358E-02 
1025	 3.10063514140267E-02 
1026	 3.10644667276381E-02 
1027	 3.10388376959323E-02 
1028	 3.09911392001873E-02 
1029	 3.10357383476284E-02 
1030	 3.11738519820967E-02 
1031	 3.12544473746333E-02 
1032	 3.12728832637053E-02 
1033	 3.13896234067559E-02 
1034	 3.16687322303032E-02 
1035	 3.18097815606549E-02 
1036	 3.18917463139477E-02 
1037	 3.20307736618175E-02 
1038	 3.23385680298044E-02 
1039	 3.22228976659783E-02 
1040	 0.032009233420519 
1041	 3.19953808442105E-02 
1042	 3.20400816689465E-02 
1043	 3.19229607026798E-02 
1044	 3.21107489407301E-02 
1045	 0.032736287965708 
1046	 3.29473422647688E-02 
1047	 3.30590942960354E-02 
1048	 3.31683150581483E-02 
1049	 3.31132681101035E-02 
1050	 3.31349014184131E-02 
1051	 3.31899587202123E-02 
1052	 0.03324205410213 
1053	 3.32582266096785E-02 
1054	 3.33156822262832E-02 
1055	 3.33623136291852E-02 
1056	 3.34768698782101E-02 
1057	 3.36379187202147E-02 
1058	 3.39363636747092E-02 
1059	 0.033959343682081 
1060	 0.033907876578778 
1061	 3.38980003674145E-02 
1062	 3.35508204966681E-02 
1063	 3.36831670661034E-02 
1064	 3.43472134066825E-02 
1065	 3.44795092291807E-02 
1066	 0.034557319899852 
1067	 3.45901313139769E-02 
1068	 3.42574283926937E-02 
1069	 3.40716604059291E-02 
1070	 3.40005243874178E-02 
1071	 3.39343256533793E-02 
1072	 3.39210328946941E-02 
1073	 3.36766347373076E-02 
1074	 3.37242505097882E-02 
1075	 3.40286356316493E-02 
1076	 3.39715629581307E-02 
1077	 3.38238815904277E-02 
1078	 0.033782570825352 
1079	 3.35740724581395E-02 
1080	 3.34463989669299E-02 
1081	 3.35158934867235E-02 
1082	 3.34213278910309E-02 
1083	 3.30801749026625E-02 
1084	 3.29886798004147E-02 
1085	 0.033109430904513 
1086	 3.30779520702638E-02 
1087	 3.30480614993362E-02 
1088	 3.30042695652987E-02 
1089	 3.28963658520666E-02 
1090	 3.27467144790265E-02 
1091	 3.25480465286223E-02 
1092	 3.23961239372032E-02 
1093	 3.21618002022025E-02 
1094	 3.15945416408858E-02 
1095	 3.14737658238828E-02 
1096	 3.17546196828819E-02 
1097	 3.16599331883561E-02 
1098	 3.16608940954526E-02 
1099	 3.15039941151131E-02 
1100	 3.07252977584971E-02 
1101	 3.04480162582431E-02 
1102	 3.07393056740396E-02 
1103	 3.05982495843426E-02 
1104	 3.02462192111488E-02 
1105	 0.030204353293783 
1106	 3.01253213972523E-02 
1107	 2.95434555769162E-02 
1108	 2.98751647840582E-02 
1109	 3.03143959540768E-02 
1110	 3.00760759808449E-02 
1111	 2.92364091219044E-02 
1112	 0.028991813730541 
1113	 2.80150255742529E-02 
1114	 2.78357896718863E-02 
1115	 2.96195034461711E-02 
1116	 2.98100192037507E-02 
1117	 2.92377261882309E-02 
1118	 2.90553828539859E-02 
1119	 2.62955735344608E-02 
1120	 2.51025202310355E-02 
1121	 2.61881241169209E-02 
1122	 2.75481514487196E-02 
1123	 2.71314570683952E-02 
1124	 0.030099657019095 
1125	 3.07649700831281E-02 
1126	 2.77729711307723E-02 
1127	 2.74785174980175E-02 
1128	 2.69415302737112E-02 
1129	 2.64257897723049E-02 
1130	 2.68405590016178E-02 
1131	 2.63114029518501E-02 
1132	 2.46880798540233E-02 
1133	 2.42095509082127E-02 
1134	 2.31595846292672E-02 
1135	 2.36755604705618E-02 
1136	 2.67068284647704E-02 
1137	 2.70267028499453E-02 
1138	 2.68650207705726E-02 
1139	 2.59082520037183E-02 
1140	 2.46864509009616E-02 
1141	 2.37646587192795E-02 
1142	 2.48074385238447E-02 
1143	 2.59661694029157E-02 
1144	 2.54393284232163E-02 
1145	 2.46220302907397E-02 
1146	 0.024164549252901 
1147	 2.42573344297296E-02 
1148	 2.45791321101328E-02 
1149	 2.48922980086286E-02 
1150	 2.50828109847827E-02 
1151	 2.48106205893445E-02 
1152	 2.47614111511229E-02 
1153	 2.48979610802424E-02 
1154	 2.48306193286575E-02 
1155	 2.46417386844237E-02 
1156	 2.46249966781389E-02 
1157	 2.43744292698287E-02 
1158	 2.48135494287196E-02 
1159	 0.025444882202765 
1160	 2.53651068323855E-02 
1161	 2.54793099933049E-02 
1162	 2.54912822895886E-02 
1163	 2.50920251128486E-02 
1164	 2.53415749808446E-02 
1165	 2.56398386100877E-02 
1166	 2.54557765201553E-02 
1167	 2.57719780484432E-02 
1168	 2.60252211978925E-02 
1169	 2.56351536264248E-02 
1170	 2.56544628116591E-02 
1171	 2.57253942064578E-02 
1172	 2.55954246066871E-02 
1173	 2.55085972881537E-02 
1174	 2.56474321813926E-02 
1175	 2.58680005470678E-02 
1176	 2.54487349305507E-02 
1177	 2.52685033645071E-02 
1178	 2.54589822022686E-02 
1179	 2.53468667289903E-02 
1180	 2.54087895277772E-02 
1181	 2.57338782059247E-02 
1182	 2.56064188627506E-02 
1183	 2.53329636394311E-02 
1184	 2.53311365581943E-02 
1185	 2.55362670003902E-02 
1186	 2.57317721950746E-02 
1187	 2.58420577774694E-02 
1188	 0.026000282263637 
1189	 2.57327448423232E-02 
1190	 2.54022905480486E-02 
1191	 2.55401214856831E-02 
1192	 2.55014346881419E-02 
1193	 2.53891730713854E-02 
1194	 2.53837831467872E-02 
1195	 2.55305957731836E-02 
1196	 2.53682994297349E-02 
1197	 2.54182965327255E-02 
1198	 2.56607750403626E-02 
1199	 2.56467857805629E-02 
1200	 2.55839149823753E-02 
1201	 2.55731943993779E-02 
1202	 2.55355503559852E-02 
1203	 2.56111066308334E-02 
1204	 2.56674863877952E-02 
1205	 2.56006542635537E-02 
1206	 2.55195415321278E-02 
1207	 0.025401390179923 
1208	 2.54018836679885E-02 
1209	 2.54896643918505E-02 
1210	 2.54517677614597E-02 
1211	 2.53815704261644E-02 
1212	 2.53394601047032E-02 
1213	 2.52398120353243E-02 
1214	 2.52012733743102E-02 
1215	 2.51988866072454E-02 
1216	 2.52817049631361E-02 
1217	 2.53358197560449E-02 
1218	 2.53896483619932E-02 
1219	 0.025496157949505 
1220	 0.025496295934492 
1221	 2.55232499562126E-02 
1222	 2.57280496883969E-02 
1223	 2.57293959950432E-02 
1224	 0.025621600917591 
1225	 2.56594150338564E-02 
1226	 2.56515195244021E-02 
1227	 2.57064034273094E-02 
1228	 0.025815957973362 
1229	 2.57765489754824E-02 
1230	 2.57741904226077E-02 
1231	 2.57148648941122E-02 
1232	 2.56704254832585E-02 
1233	 2.59340243654258E-02 
1234	 2.59758623158597E-02 
1235	 0.025935323453143 
1236	 2.58868776019786E-02 
1237	 2.59728620032168E-02 
1238	 2.60161823561601E-02 
1239	 2.58949287573225E-02 
1240	 2.59538195074402E-02 
1241	 2.59653239652558E-02 
1242	 2.57766729693501E-02 
1243	 2.57658219382511E-02 
1244	 2.60251649762971E-02 
1245	 2.60755110447764E-02 
1246	 2.59018057400367E-02 
1247	 2.58259995854234E-02 
1248	 2.58523305873863E-02 
1249	 2.60187234526037E-02 
1250	 2.61002139815036E-02 
1251	 2.60239802085268E-02 
1252	 2.60721920050653E-02 
1253	 2.59356010387376E-02 
1254	 2.57221342150043E-02 
1255	 2.58855108482585E-02 
1256	 0.025949007829693 
1257	 2.58829685942352E-02 
1258	 2.58176518499519E-02 
1259	 2.58244332975697E-02 
1260	 2.57808554243151E-02 
1261	 2.56246670889737E-02 
1262	 0.025518356685408 
1263	 2.53799792173405E-02 
1264	 2.55573089485228E-02 
1265	 0.025738124705098 
1266	 2.56414971824112E-02 
1267	 2.56997894547721E-02 
1268	 2.59214394981654E-02 
1269	 2.58342432238705E-02 
1270	 2.56634514797051E-02 
1271	 2.56929666087573E-02 
1272	 2.56894240311007E-02 
1273	 2.56272957655753E-02 
1274	 0.025588795867719 
1275	 2.55511023301637E-02 
1276	 2.53626956618552E-02 
1277	 2.52732811959983E-02 
1278	 2.54386401373201E-02 
1279	 2.55319919730968E-02 
1280	 2.54988253226767E-02 
1281	 2.55126151244431E-02 
1282	 2.54646172946369E-02 
1283	 2.53972583686551E-02 
1284	 0.025336064865772 
1285	 0.025325496036662 
1286	 2.52883720555131E-02 
1287	 2.51901843651294E-02 
1288	 2.50684235132121E-02 
1289	 2.50813207261632E-02 
1290	 2.51175904916115E-02 
1291	 2.51031244678947E-02 
1292	 2.51251318492675E-02 
1293	 2.50560567997716E-02 
1294	 2.49703420815237E-02 
1295	 0.024924667884227 
1296	 2.48472252378321E-02 
1297	 2.48489053626874E-02 
1298	 2.48584073564377E-02 
1299	 2.47155854149379E-02 
1300	 2.44343706571946E-02 
1301	 2.43927285091958E-02 
1302	 2.44414367100956E-02 
1303	 2.42964059471267E-02 
1304	 2.44524100615003E-02 
1305	 2.46894667075543E-02 
1306	 2.46765269117697E-02 
1307	 2.43366880484817E-02 
1308	 2.42760640035153E-02 
1309	 0.024283845121065 
1310	 2.41614383252292E-02 
1311	 2.40264448590116E-02 
1312	 0.023955071350629 
1313	 2.38997978505239E-02 
1314	 2.36952704718593E-02 
1315	 2.34166057984275E-02 
1316	 2.33236224389342E-02 
1317	 2.30043233623149E-02 
1318	 2.29649575343131E-02 
1319	 0.023643784196886 
1320	 2.37341715739508E-02 
1321	 2.35262189709549E-02 
1322	 2.33144008181282E-02 
1323	 2.30305029860184E-02 
1324	 2.25677466513991E-02 
1325	 2.25660104531971E-02 
1326	 2.25604330952818E-02 
1327	 2.21468668298818E-02 
1328	 2.15457406741147E-02 
1329	 2.12950594386536E-02 
1330	 2.13972110149949E-02 
1331	 2.09252165774222E-02 
1332	 2.11483745862816E-02 
1333	 2.18273507696276E-02 
1334	 2.10635242113564E-02 
1335	 2.09817476438571E-02 
1336	 2.18490167850312E-02 
1337	 2.19398191638751E-02 
1338	 0.021352834369002 
1339	 2.11201136149346E-02 
1340	 2.06351924436412E-02 
1341	 2.04002549052386E-02 
1342	 2.02591625090459E-02 
1343	 0.02054104733469 
1344	 2.17830586858547E-02 
1345	 2.23317334859015E-02 
1346	 2.29002033192837E-02 
1347	 2.29125301247593E-02 
1348	 2.19890301660787E-02 
1349	 2.09739973653971E-02 
1350	 1.64296640795376E-02 
1351	 1.42613868480862E-02 
1352	 1.87201063657622E-02 
1353	 1.51557614302104E-02 
1354	-5.05049479976174E-03 
1355	 8.216972626692E-04 
1356	 0.019183065323349 
1357	-6.30357754962017E-03 
1358	 8.97809341138072E-03 
1359	 4.53782395364552E-02 
1360	 1.78885157820738E-02 
1361	 3.58473816267519E-02 
1362	 1.77883722958536E-02 
1363	-5.35513097330157E-02 
1364	-2.89542393663558E-02 
1365	-1.94695417540536E-02 
1366	 6.50459573043519E-02 
1367	 0.247857714481884 
1368	 0.323647332746637 
1369	 0.252300198446623 
1370	 0.24472759966461 
1371	 0.271321628653987 
1372	 0.220358694486888 
1373	-1.22221390321188E-02 
1374	-1.94347325853787E-02 
1375	 0.104768081060586 
1376	 0.156729040916868 
1377	 0.376055534766036 
1378	 0.371164878769377 
1379	 0.141480069917295 
1380	 7.05209076425274E-02 
1381	-2.95610799701481E-04 
1382	-1.44091545758055E-02 
1383	 0.163366814030693 
1384	 0.1734305549144 
1385	-0.147397669145751 
1386	-0.104308430443418 
1387	 0.516852681391927 
1388	 0.467668772166265 
1389	-0.132675462852608 
1390	-1.61837726186725E-03 
1391	 0.576225074370236 
1392	 0.162538603372949 
1393	 4.20363709514274E-02 
1394	 0.309588030339047 
1395	 0.439140792690373 
1396	 0.25897945357939 
1397	 0.406998199344785 
1398	 0.693130257620134 
1399	 0.362172366656662 
1400	 3.38935331747814E-02 
1401	-2.34786864185157E-03 
1402	 8.19445821300185E-02 
1403	 0.121912804866392 
1404	-9.86611600430543E-02 
1405	-6.94716440960304E-02 
1406	 7.47656627149695E-02 
1407	 7.44594938879683E-02 
1408	 5.70748638326542E-02 
1409	 8.90433175969635E-02 
1410	 8.18529646120082E-02 
1411	 5.45755314208016E-02 
1412	 8.73597567098155E-02 
1413	 8.87643929427785E-02 
1414	 2.90454991531524E-02 
1415	 1.49507820213063E-02 
1416	 2.48210037811929E-02 
1417	 4.09675281793704E-02 
1418	 8.51775214781638E-02 
1419	 5.32542789952365E-02 
1420	-2.23790996562028E-02 
1421	-0.012248489325829 
1422	 0.010312144915796 
1423	 1.04742745598387E-02 
1424	 3.35591287453266E-02 
1425	 4.00621102925657E-02 
1426	 2.36264208096524E-02 
1427	 1.53383796071045E-02 
1428	 1.58935029372187E-02 
1429	 0.017219854089813 
1430	 1.46997414052574E-02 
1431	 0.009105757618539 
1432	 1.5489642113443E-03 
1433	 2.81861285529926E-03 
1434	 0.008270432554947 
1435	 5.13251095458764E-03 
1436	-2.47232227930523E-03 
1437	 7.84978973406997E-03 
1438	 1.89308192003141E-02 
1439	 1.67057701797188E-02 
1440	 1.23293692307171E-02 
1441	 8.6599890086901E-03 
1442	 6.90813594880492E-03 
1443	 6.72176632203803E-03 
1444	 9.14862062734328E-03 
1445	 1.19713552156967E-02 
1446	 1.02890600474069E-02 
1447	 8.77139430157829E-03 
1448	 8.42211998188491E-03 
1449	 9.29294907378241E-03 
1450	 1.08043691724365E-02 
1451	 1.12393684084747E-02 
1452	 1.29876617235183E-02 
1453	 0.013442919671273 
1454	 1.25293844477811E-02 
1455	 8.47631681649147E-03 
1456	 8.21583331097041E-03 
1457	 9.28147691902882E-03 
1458	 9.65877012707308E-03 
1459	 1.09005550763159E-02 
1460	 0.010970354550191 
1461	 1.01860699859515E-02 
1462	 1.02358614206698E-02 
1463	 1.00255224314543E-02 
1464	 1.02098029359305E-02 
1465	 1.15837713251725E-02 
1466	 1.16230819113092E-02 
1467	 1.05714301358789E-02 
1468	 1.08068276012534E-02 
1469	 1.15274217637639E-02 
1470	 1.11617713541486E-02 
1471	 1.08262454949762E-02 
1472	 1.07900607244407E-02 
1473	 9.7659271436432E-03 
1474	 9.49316055909035E-03 
1475	 1.00968935870341E-02 
1476	 1.07944548649339E-02 
1477	 1.18740093757998E-02 
1478	 1.17680748143428E-02 
1479	 1.10686845787183E-02 
1480	 1.14211031188209E-02 
1481	 1.15251587487785E-02 
1482	 1.14328728993352E-02 
1483	 1.24434117311345E-02 
1484	 0.012637612940828 
1485	 1.16944492367359E-02 
1486	 0.011536833007704 
1487	 1.18418971409588E-02 
1488	 1.17906871983584E-02 
1489	 1.13319137758237E-02 
1490	 1.15881608636897E-02 
1491	 1.24596685502672E-02 
1492	 1.24993527306978E-02 
1493	 1.23868335960232E-02 
1494	 1.24808517382735E-02 
1495	 1.21466680799048E-02 
1496	 0.012063309088229 
1497	 1.24127194943547E-02 
1498	 1.25584627635395E-02 
1499	 1.25176178234267E-02 
1500	 1.25626536729663E-02 
1501	 1.26401836985258E-02 
1502	 1.27508505149593E-02 
1503	 1.29983391744196E-02 
1504	 1.30657458550171E-02 
1505	 1.29996274430823E-02 
1506	 1.29740821286332E-02 
1507	 1.30949356414139E-02 
1508	 1.32539890028498E-02 
1509	 1.32652193446565E-02 
1510	 1.34706492324991E-02 
1511	 1.36496263015665E-02 
1512	 1.35176679055962E-02 
1513	 1.35166176805403E-02 
1514	 1.36271482520826E-02 
1515	 1.37640341063864E-02 
1516	 1.38883146033673E-02 
1517	 1.38742722911319E-02 
1518	 1.38800017198977E-02 
1519	 1.38594038129292E-02 
1520	 1.38212298350369E-02 
1521	 1.39784404247564E-02 
1522	 1.41306080890729E-02 
1523	 0.014289592432457 
1524	 1.44593291295308E-02 
1525	 0.014481573975611 
1526	 1.45849358304995E-02 
1527	 1.46320784808487E-02 
1528	 0.014638751749806 
1529	 0.014741759096211 
1530	 1.47330806894594E-02 
1531	 1.47628105025261E-02 
1532	 1.48185253539882E-02 
1533	 1.47221884810107E-02 
1534	 1.48383810284102E-02 
1535	 1.49670738779663E-02 
1536	 1.46733436031303E-02 
1537	 1.45236844306421E-02 
1538	 1.47041663299784E-02 
1539	 1.48619483867942E-02 
1540	 0.014974892201091 
1541	 1.51716699001901E-02 
1542	 1.53576598923239E-02 
1543	 1.53408890376862E-02 
1544	 1.53188368633668E-02 
1545	 1.53269430940556E-02 
1546	 1.53685197174703E-02 
1547	 1.54990788757404E-02 
1548	 1.55365267465633E-02 
1549	 1.55942321654113E-02 
1550	 1.56655060549141E-02 
1551	 1.56298588957337E-02 
1552	 1.56224059392565E-02 
1553	 1.56850771290033E-02 
1554	 1.57392811841793E-02 
1555	 1.58247417066734E-02 
1556	 1.59289894370729E-02 
1557	 1.58632862927363E-02 
1558	 1.57929292513353E-02 
1559	 1.58612629734223E-02 
1560	 0.015958174501763 
1561	 1.60580942836765E-02 
1562	 0.016115895232901 
1563	 1.61205862284577E-02 
1564	 1.60776702265564E-02 
1565	 1.61419930397272E-02 
1566	 1.63037706417708E-02 
1567	 0.016254504333865 
1568	 1.61558787384337E-02 
1569	 1.63225729840936E-02 
1570	 1.64620618955499E-02 
1571	 1.64138353964507E-02 
1572	 1.64378039683182E-02 
1573	 1.65017964894191E-02 
1574	 0.01653479685167 
1575	 1.66348169029386E-02 
1576	 0.016738981180597 
1577	 1.67204202944986E-02 
1578	 1.65141368425888E-02 
1579	 0.016409894619818 
1580	 1.65665484630089E-02 
1581	 1.65998930098482E-02 
1582	 1.66369876357639E-02 
1583	 0.016762653604929 
1584	 1.67117292756401E-02 
1585	 0.01661765865712 
1586	 1.65406294568028E-02 
1587	 1.66016420554719E-02 
1588	 1.68107664748618E-02 
1589	 1.69832795229559E-02 
1590	 1.70515336202763E-02 
1591	 1.70286532198984E-02 
1592	 1.69357123810287E-02 
1593	 1.68396511329747E-02 
1594	 1.69661773743694E-02 
1595	 1.70518676668993E-02 
1596	 1.69438267367869E-02 
1597	 0.016887608918016 
1598	 1.69291645289362E-02 
1599	 1.70356217757331E-02 
1600	 1.69362877153871E-02 
1601	 1.68273859526665E-02 
1602	 1.70016199333609E-02 
1603	 1.70323209369884E-02 
1604	 0.016950510553434 
1605	 1.70325680226631E-02 
1606	 1.70550410668713E-02 
1607	 1.69975707897464E-02 
1608	 1.71005932620844E-02 
1609	 1.71804846771111E-02 
1610	 1.71438505608801E-02 
1611	 1.72207167806557E-02 
1612	 1.72882475665546E-02 
1613	 1.73618925775203E-02 
1614	 0.01741950283085 
1615	 1.73755685985649E-02 
1616	 1.73513208886883E-02 
1617	 1.73400924423516E-02 
1618	 1.73418244343552E-02 
1619	 1.73334978563057E-02 
1620	 1.73894595145552E-02 
1621	 0.017520982949026 
1622	 1.74764572482383E-02 
1623	 1.72392705914067E-02 
1624	 0.017235743757153 
1625	 1.74145261020285E-02 
1626	 1.73397599806515E-02 
1627	 1.72679039459995E-02 
1628	 0.017309228544045 
1629	 1.72013380253579E-02 
1630	 1.71900062758066E-02 
1631	 0.017422226492839 
1632	 0.017461091359912 
1633	 1.72956386540111E-02 
1634	 0.01731871908854 
1635	 1.72493152503518E-02 
1636	 1.71747301072429E-02 
1637	 1.72813710744825E-02 
1638	 1.72917810724503E-02 
1639	 1.71291685924141E-02 
1640	 1.69924798717986E-02 
1641	 1.71833232787642E-02 
1642	 1.72395213842372E-02 
1643	 1.74333355048287E-02 
1644	 1.79360794302762E-02 
1645	 1.78983783124719E-02 
1646	 1.76225692760932E-02 
1647	 1.75754061679958E-02 
1648	 1.75879040563175E-02 
1649	 1.75005348515633E-02 
1650	 1.74593968992217E-02 
1651	 1.75446132555492E-02 
1652	 1.75123790173811E-02 
1653	 1.76301363892321E-02 
1654	 1.76709753132227E-02 
1655	 1.75683171161033E-02 
1656	 0.017484917126113 
1657	 0.017385468215254 
1658	 1.73937765234984E-02 
1659	 1.75561771453088E-02 
1660	 1.75582647323783E-02 
1661	 1.74602075337989E-02 
1662	 1.74153666533425E-02 
1663	 1.72876769496624E-02 
1664	 1.72316080856096E-02 
1665	 1.72485065492055E-02 
1666	 1.72166315995472E-02 
1667	 1.71998869845814E-02 
1668	 1.74072828213744E-02 
1669	 1.74408149249705E-02 
1670	 1.76273757629447E-02 
1671	 1.79678516421541E-02 
1672	 1.78581623343402E-02 
1673	 1.73730211778249E-02 
1674	 1.72596078458505E-02 
1675	 1.72545313812665E-02 
1676	 1.71288297068994E-02 
1677	 1.73922890474338E-02 
1678	 1.75629961736446E-02 
1679	 1.71621597267416E-02 
1680	 1.69999719265866E-02 
1681	 1.71908411101125E-02 
1682	 1.72015409349898E-02 
1683	 1.71196420532546E-02 
1684	 1.72436030217095E-02 
1685	 1.74300275920353E-02 
1686	 1.73425325326961E-02 
1687	 1.73189826825302E-02 
1688	 0.017241193306877 
1689	 1.69336990535813E-02 
1690	 1.69261608929759E-02 
1691	 1.71018917586679E-02 
1692	 1.72391612804741E-02 
1693	 1.72415516365299E-02 
1694	 1.71087669753463E-02 
1695	 1.72475734620157E-02 
1696	 1.73532301303673E-02 
1697	 1.72203305803161E-02 
1698	 1.72876693402898E-02 
1699	 1.73402539309015E-02 
1700	 1.73253177771536E-02 
1701	 0.017284268211644 
1702	 1.69521335195943E-02 
1703	 1.66074329007924E-02 
1704	 1.62425520741111E-02 
1705	 1.62492784885241E-02 
1706	 1.68926963807329E-02 
1707	 0.017146969712023 
1708	 1.70386832340317E-02 
1709	 1.70086418167838E-02 
1710	 1.69125925654027E-02 
1711	 1.68679904847679E-02 
1712	 0.016920476087506 
1713	 1.66153747010014E-02 
1714	 1.65365913970743E-02 
1715	 1.64903467743818E-02 
1716	 1.64770524943114E-02 
1717	 0.016661771747438 
1718	 1.67593501392606E-02 
1719	 1.67134819892002E-02 
1720	 0.016528802272979 
1721	 1.65599677294483E-02 
1722	 1.69600931678151E-02 
1723	 1.70357802200445E-02 
1724	 1.67417569296026E-02 
1725	 1.66489733884303E-02 
1726	 1.65468661535292E-02 
1727	 1.60602471070736E-02 
1728	 1.61383804243219E-02 
1729	 1.67586212822162E-02 
1730	 1.65632012838244E-02 
1731	 1.60820408723743E-02 
1732	 1.60572687452081E-02 
1733	 1.58378007156864E-02 
1734	 1.60485180205536E-02 
1735	 1.65251770855025E-02 
1736	 1.63366294748887E-02 
1737	 1.62373969250133E-02 
1738	 1.60456206379448E-02 
1739	 1.57622616595344E-02 
1740	 1.57810970327256E-02 
1741	 1.59747005154049E-02 
1742	 1.58451753672271E-02 
1743	 1.53614672604914E-02 
1744	 1.58351670607692E-02 
1745	 1.59500451329155E-02 
1746	 1.58226126977076E-02 
1747	 1.60195802034406E-02 
1748	 1.60681055502386E-02 
1749	 1.59230386837236E-02 
1750	 1.58431266989871E-02 
1751	 1.56564531723596E-02 
1752	 1.50439662389099E-02 
1753	 1.50645967202007E-02 
1754	 1.55426191915415E-02 
1755	 1.54917791568167E-02 
1756	 1.57166869227664E-02 
1757	 1.58377348927237E-02 
1758	 1.48651036542359E-02 
1759	 1.46416955954411E-02 
1760	 1.50524712685353E-02 
1761	 1.52313279275302E-02 
1762	 1.60695453569085E-02 
1763	 1.64017781415377E-02 
1764	 0.015564355103092 
1765	 0.014623342823272 
1766	 1.40672915210775E-02 
1767	 1.42646307220611E-02 
1768	 1.44574597039821E-02 
1769	 1.45681767279909E-02 
1770	 1.46771124672836E-02 
1771	 1.44978535216932E-02 
1772	 1.44137696070056E-02 
1773	 1.40095423520282E-02 
1774	 1.35817285055847E-02 
1775	 0.014444113599377 
1776	 1.45758819204126E-02 
1777	 1.49739182050059E-02 
1778	 1.49160393570056E-02 
1779	 1.31968683332327E-02 
1780	 1.29804614281854E-02 
1781	 0.01412407889165 
1782	 1.42255781894603E-02 
1783	 1.46118852711662E-02 
1784	 1.46108412228486E-02 
1785	 1.29426424671143E-02 
1786	 1.34673911045254E-02 
1787	 1.64397849689993E-02 
1788	 1.59394362313417E-02 
1789	 0.014308610152894 
1790	 1.24573320629899E-02 
1791	 9.98367354118483E-03 
1792	 1.26956891790545E-02 
1793	 0.015782537889201 
1794	 1.41637199897811E-02 
1795	 1.11748818557977E-02 
1796	 8.04952999509058E-03 
1797	 7.40116695377174E-03 
1798	 1.48847704442262E-02 
1799	 2.35888152507478E-02 
1800	 2.65567175067078E-02 
1801	 2.72666564807403E-02 
1802	 1.38154918387584E-02 
1803	 9.1300585232441E-03 
1804	 1.11145648423592E-02 
1805	 6.29784100423547E-03 
1806	 2.35586365485323E-03 
1807	 5.73035147055895E-03 
1808	 1.35687745958498E-02 
1809	 1.14419508411164E-02 
1810	 1.66127230647313E-02 
1811	 0.019575731390902 
1812	-3.07484354440216E-02 
1813	-2.09045239625487E-02 
1814	 0.122737779224522 
1815	 0.100568876597963 
1816	-5.07136616418794E-02 
1817	-0.247306490199563 
1818	-0.524267787953229 
1819	-0.285175388636751 
1820	-6.75381670994003E-02 
1821	-1.75135192179015E-02 
1822	 4.36811605003625E-02 
1823	 2.16966555976121E-02 
1824	-0.07872657031941 
1825	-0.532584627444644 
1826	-0.641704691317471 
1827	-0.683451049288553 
1828	-0.90155449856062 
1829	-0.431776785048901 
1830	-0.292703151749635 
1831	-0.198540472876644 
1832	-0.314923777374921 
1833	-0.722236216400874 
1834	-0.816062513921432 
1835	-2.18011295292039 
1836	-2.22757715771775 
1837	-5.93634048676566E-03 
1838	 0.515156219179067 
1839	 0.817147027089181 
1840	 1.0223446700407 
1841	 0.668251142353682 
1842	 0.444425181884478 
1843	 0.542609847788415 
1844	 1.62314247379055 
1845	 4.70115800925714 
1846	-1.8837569469104 
1847	-2.01909178084343 
1848	 7.37786297313047 
1849	 0.989060463356937 
1850	 0.634574886657147 
1851	 0.345830286679637 
1852	-0.615526132336039 
1853	-7.14899042902525 
1854	 2.70381549888757 
1855	 1.00957958613509 
1856	 0.724442059323824 
1857	 0.345449570995279 
1858	 0.115202881396746 
1859	 0.165560192088383 
1860	-4.51070803459914E-02 
1861	-2.83267923093312 
1862	 2.36227140099179 
1863	-2.36131081788055 
1864	-11.066987457072 
1865	-3.44593975094653 
1866	 0.663844297282095 
1867	 1.35871205874185 
1868	-1.06081698762191 
1869	-0.783537313961905 
1870	-1.26376873765365 
1871	-2.25717379224759 
1872	-2.26201724971254 
1873	 2.37081076340606 
1874	 2.58494029645492 
1875	-8.15102523761937 
1876	-1.18448003651861 
1877	-4.24421561837943E-02 
1878	-0.216807828292329 
1879	-0.728117747174722 
1880	-0.567448015625005 
1881	-0.336016078572499 
1882	-0.296328048662084 
1883	 0.13089997944992 
1884	 1.15476926126243 
1885	 0.663786260658217 
1886	 0.55358917214483 
1887	-2.30063227726303 
1888	 1.08548533653649 
1889	 1.1834758731197 
1890	-0.536909121606449 
1891	-1.67177055614896 
1892	 0.745796432456454 
1893	 0.493454602013292 
1894	 0.489882663187087 
1895	-0.110006377636866 
1896	-0.443583268024923 
1897	 9.66913256923923E-02 
1898	 0.253678983024248 
1899	-0.116834838596015 
1900	 0.169762940000863 
1901	-1.86034166025742 
1902	-0.993683688603179 
1903	-2.09778923689876 
1904	-3.5816773653707 
1905	-4.06289218230171 
1906	-1.13581026804114 
1907	-2.86354530216628 
1908	-3.24161658882567 
1909	-19.442709260187 
1910	 1.5255165366102 
1911	 0.383518914463037 
1912	 0.833169372481619 
1913	 0.497142345790096 
1914	-1.29170557207782 
1915	-2.48287308904702 
1916	 2.50031132258083 
1917	 1.53761169960911 
1918	 3.28635608239134 
1919	-1.86212202599043 
1920	 0.829450729040779 
1921	 0.824687839798797 
1922	 0.38028426069915 
1923	 0.479250400245546 
1924	 0.254407279447068 
1925	 0.173820318146504 
1926	 0.17896476449683 
1927	 0.252255502449283 
1928	 0.463884508506924 
1929	 1.24155292241826 
1930	 0.8065498386845 
1931	 0.541636140171004 
1932	 0.126567096083334 
1933	-0.258643555008413 
1934	-0.144293571046774 
1935	 0.103061653322352 
1936	 0.113078484740677 
1937	 0.197899310139407 
1938	 0.26521883967573 
1939	 0.208445401965755 
1940	 4.68785140430457E-02 
1941	 2.49146202224007E-02 
1942	 5.05939389702704E-02 
1943	 5.69230624780413E-02 
1944	 5.79248670673071E-02 
1945	 3.93614166897931E-02 
1946	 1.72628564153985E-02 
1947	 3.11255870956155E-03 
1948	 3.79188826485115E-03 
1949	 1.73776787491839E-02 
1950	 2.55656828202456E-02 
1951	 2.29013210154749E-02 
1952	 2.03789881830624E-02 
1953	 1.70563090041613E-02 
1954	 0.016332456299607 
1955	 1.32428044990984E-02 
1956	 7.92911187344613E-03 
1957	 3.60204411816288E-03 
1958	-3.01925380868222E-03 
1959	-3.17623297609644E-03 
1960	 1.09788622810692E-03 
1961	-2.04584419018584E-03 
1962	-5.23804828291434E-03 
1963	-3.09010733994408E-03 
1964	-4.1676523909796E-03 
1965	-4.06968135261973E-03 
1966	-1.87068215464088E-03 
1967	 3.48860318370249E-03 
1968	 2.98332559070664E-03 
1969	 2.86482952732139E-03 
1970	 5.15138955305488E-03 
1971	 4.28107249506979E-03 
1972	 5.23036468418476E-03 
1973	 6.12772816468941E-03 
1974	 5.08957357296287E-03 
1975	 5.3408554389309E-03 
1976	 5.75942308989599E-03 
1977	 6.36494557888069E-03 
1978	 7.6318099625501E-03 
1979	 7.8704206068684E-03 
1980	 7.87105592998101E-03 
1981	 6.81433868355098E-03 
1982	 6.18765107335611E-03 
1983	 5.97447389186907E-03 
1984	 5.88270841163607E-03 
1985	 6.73985587526687E-03 
1986	 7.2953909035698E-03 
1987	 7.20055309881549E-03 
1988	 7.64989327163122E-03 
1989	 7.68823129478695E-03 
1990	 7.26892975301173E-03 
1991	 6.85594703614012E-03 
1992	 6.28070431290613E-03 
1993	 6.58231467216867E-03 
1994	 6.90540692731637E-03 
1995	 8.08503048308695E-03 
1996	 8.59942144099377E-03 
1997	 8.34391524757257E-03 
1998	 8.10947954943363E-03 
1999	 6.62637293803817E-03 
2000	 5.64464023177096E-03 
2001	 7.94121134665167E-03 
2002	 7.65737761908168E-03 
2003	 7.40865393713363E-03 
2004	 9.52389940806889E-03 
2005	 6.13264709871973E-03 
2006	 4.07448494303414E-03 
2007	 5.5296347837309E-03 
2008	 3.66347782681965E-03 
2009	 3.33360638636453E-03 
2010	 6.52406975208712E-03 
2011	 6.84134483048305E-03 
2012	 5.42695322525131E-03 
2013	 3.6719752736324E-03 
2014	 3.54568885602451E-03 
2015	 3.25763028263992E-03 
2016	 3.32144675943992E-03 
2017	 4.56769322546264E-03 
2018	 5.7182751895227E-03 
2019	 5.6578421621363E-03 
2020	 4.42066630152861E-03 
2021	 3.93552340260711E-03 
2022	 4.32684912159901E-03 
2023	 5.29685477488839E-03 
2024	 5.65697319076977E-03 
2025	 6.20485904251131E-03 
2026	 6.81944159677087E-03 
2027	 7.48584762796247E-03 
2028	 7.20727391283573E-03 
2029	 7.32938430777481E-03 
2030	 7.53517142406704E-03 
2031	 7.37117585269138E-03 
2032	 7.44109680002702E-03 
2033	 7.27710144843507E-03 
2034	 7.60029374875871E-03 
2035	 7.82943080169476E-03 
2036	 7.55730060605223E-03 
2037	 8.22329317319034E-03 
2038	 8.79001807360058E-03 
2039	 8.84317540024701E-03 
2040	 8.4945731774222E-03 
2041	 8.67862557186086E-03 
2042	 8.69130902776137E-03 
2043	 8.73022809237613E-03 
2044	 9.40005027344104E-03 
2045	 9.4985361477604E-03 
2046	 8.31207523442632E-03 
2047	 7.72060639888979E-03 
2048	 7.38780349202459E-03 
2049	 6.93418326789093E-03 
2050	 7.67528839049633E-03 
2051	 8.35636165603277E-03 
2052	 9.0274966471137E-03 
2053	 1.02377857981431E-02 
2054	 9.99381399426618E-03 
2055	 9.69999534510945E-03 
2056	 9.98827648889318E-03 
2057	 1.00992875862458E-02 
2058	 9.76077631268582E-03 
2059	 1.00674815863555E-02 
2060	 1.00672523895121E-02 
2061	 9.32273193657931E-03 
2062	 8.48529295253689E-03 
2063	 8.50167893020487E-03 
2064	 8.85261841141225E-03 
2065	 8.50865240693471E-03 
2066	 9.56598420544457E-03 
2067	 1.02920634716599E-02 
2068	 9.6718784925669E-03 
2069	 9.19867708513222E-03 
2070	 7.99673264103571E-03 
2071	 8.36850124383931E-03 
2072	 9.55509891579449E-03 
2073	 9.61901782199546E-03 
2074	 9.7938353344271E-03 
2075	 9.61448644845741E-03 
2076	 8.17889208760926E-03 
2077	 7.91812766430682E-03 
2078	 8.58152475110138E-03 
2079	 8.42790775136276E-03 
2080	 8.04332293378164E-03 
2081	 7.82158607375006E-03 
2082	 0.007959211628552 
2083	 8.04797322474865E-03 
2084	 8.62969897318564E-03 
2085	 9.34124926248877E-03 
2086	 9.31211504119136E-03 
2087	 9.65043968915753E-03 
2088	 1.01139535914431E-02 
2089	 9.73009593871471E-03 
2090	 9.24941566142105E-03 
2091	 8.91286419633253E-03 
2092	 8.75116796358382E-03 
2093	 8.85280936637789E-03 
2094	 9.1101556719707E-03 
2095	 9.36911885685321E-03 
2096	 9.67053599465109E-03 
2097	 1.02290841837255E-02 
2098	 1.05699970367411E-02 
2099	 1.07132240039827E-02 
2100	 1.14858183139459E-02 
2101	 1.19369479427036E-02 
2102	 0.011689334257794 
2103	 0.011263680580836 
2104	 1.01835346926478E-02 
2105	 9.06827635925484E-03 
2106	 8.61955420492084E-03 
2107	 8.60834790723891E-03 
2108	 9.00410946558238E-03 
2109	 9.67712141837685E-03 
2110	 1.02265635723884E-02 
2111	 1.07581387896544E-02 
2112	 1.16372606437457E-02 
2113	 1.17577703551423E-02 
2114	 1.11969264450017E-02 
2115	 1.10397033820405E-02 
2116	 1.04009319299421E-02 
2117	 1.02801793925788E-02 
2118	 1.12038739568838E-02 
2119	 1.11665215072407E-02 
2120	 1.05935150271411E-02 
2121	 1.01403115273559E-02 
2122	 1.01651060626181E-02 
2123	 9.96675023015307E-03 
2124	 1.04813515951405E-02 
2125	 1.09309350122377E-02 
2126	 1.02816253134842E-02 
2127	 9.9802135958162E-03 
2128	 9.83784864075745E-03 
2129	 9.42012355353035E-03 
2130	 9.56891280684269E-03 
2131	 9.47605598246601E-03 
2132	 9.69110562529814E-03 
2133	 1.02106755756058E-02 
2134	 1.05703124023213E-02 
2135	 1.11013786793191E-02 
2136	 1.15488033045034E-02 
2137	 1.18413048917355E-02 
2138	 1.21104343779688E-02 
2139	 1.26231370373806E-02 
2140	 1.26917886977752E-02 
2141	 1.20499502668666E-02 
2142	 1.20580590317845E-02 
2143	 1.25150014098978E-02 
2144	 0.012349490283183 
2145	 1.14906843371435E-02 
2146	 1.14423371565977E-02 
2147	 1.14592625498129E-02 
2148	 1.07521536745933E-02 
2149	 1.08071710508487E-02 
2150	 1.23237184747626E-02 
2151	 0.012413228020143 
2152	 1.22511047867741E-02 
2153	 1.31657953520024E-02 
2154	 1.25720198573789E-02 
2155	 1.20683548446951E-02 
2156	 1.17744073332421E-02 
2157	 1.11009528549492E-02 
2158	 9.50935901465224E-03 
2159	 9.72870973193103E-03 
2160	 1.10620398577067E-02 
2161	 1.10369481237547E-02 
2162	 1.13450454479087E-02 
2163	 1.12687188719973E-02 
2164	 9.9139706190292E-03 
2165	 9.45542875887151E-03 
2166	 9.64492971852121E-03 
2167	 9.7962355102506E-03 
2168	 9.88085231435256E-03 
2169	 1.00861676835737E-02 
2170	 0.010708567312783 
2171	 1.12761376803225E-02 
2172	 1.14411334348751E-02 
2173	 1.13306291674496E-02 
2174	 1.09085748972294E-02 
2175	 1.02424678424205E-02 
2176	 9.95214583017185E-03 
2177	 1.00870132500657E-02 
2178	 1.02991155588653E-02 
2179	 1.06366361052129E-02 
2180	 1.10501423540396E-02 
2181	 1.10553307296798E-02 
2182	 1.13852287830828E-02 
2183	 1.23478457301463E-02 
2184	 0.01234534181507 
2185	 0.011884998881962 
2186	 1.22743589152445E-02 
2187	 0.013071292596236 
2188	 1.30884848508252E-02 
2189	 1.36561734468123E-02 
2190	 1.35727859782921E-02 
2191	 0.012017451207038 
2192	 1.13958369548559E-02 
2193	 1.11072990785465E-02 
2194	 0.011236509754379 
2195	 1.21659743956231E-02 
2196	 1.20994138326937E-02 
2197	 1.12447304080055E-02 
2198	 1.14375080863242E-02 
2199	 1.14762636585242E-02 
2200	 0.012297126974604 
2201	 0.013178964680251 
2202	 1.29648251789502E-02 
2203	 1.24665938773443E-02 
2204	 1.12374943470562E-02 
2205	 1.06014587594361E-02 
2206	 1.24568460840269E-02 
2207	 1.37789455748794E-02 
2208	 1.30496241795867E-02 
2209	 1.25607298163871E-02 
2210	 1.23186693421754E-02 
2211	 1.06809112051292E-02 
2212	 9.47643593639963E-03 
2213	 1.01517440566251E-02 
2214	 1.04001227685833E-02 
2215	 1.02645191157048E-02 
2216	 1.14769149241231E-02 
2217	 1.22900730647299E-02 
2218	 1.29333141641924E-02 
2219	 1.28023507966305E-02 
2220	 0.012329864175065 
2221	 1.26578357783152E-02 
2222	 1.25762811729913E-02 
2223	 1.25153685001401E-02 
2224	 1.39462836974987E-02 
2225	 1.41939855814097E-02 
2226	 1.30214462599709E-02 
2227	 1.18354993366811E-02 
2228	 9.91458497750696E-03 
2229	 9.24984094044694E-03 
2230	 8.81908968546338E-03 
2231	 8.54819550421342E-03 
2232	 9.4224863467845E-03 
2233	 1.02805020914893E-02 
2234	 1.09065522946275E-02 
2235	 1.17611007419473E-02 
2236	 1.22012643389784E-02 
2237	 1.10719203638357E-02 
2238	 9.84749927402715E-03 
2239	 9.07909369945966E-03 
2240	 9.23706928050241E-03 
2241	 1.01483600587783E-02 
2242	 9.97930034917245E-03 
2243	 1.07441713164967E-02 
2244	 1.19105082338338E-02 
2245	 1.17551066485319E-02 
2246	 1.08619836614235E-02 
2247	 9.88517641421052E-03 
2248	 9.61390928311896E-03 
2249	 9.72982040558599E-03 
2250	 1.09924915046169E-02 
2251	 1.19675629780671E-02 
2252	 0.011454731680026 
2253	 1.23399432995981E-02 
2254	 1.40840170685078E-02 
2255	 1.26705792825739E-02 
2256	 1.02839779294905E-02 
2257	 9.04284898261217E-03 
2258	 6.1726770831653E-03 
2259	 4.14154971577985E-03 
2260	 4.12916375630051E-03 
2261	 7.1960688042735E-03 
2262	 7.8993248869861E-03 
2263	 8.97757629470282E-03 
2264	 1.01893980165964E-02 
2265	 0.010642192548685 
2266	 1.10833798901219E-02 
2267	 1.22815694358845E-02 
2268	 1.20959904459124E-02 
2269	 1.00913350889235E-02 
2270	 1.00944000186737E-02 
2271	 1.10415947874938E-02 
2272	 1.09600639787326E-02 
2273	 1.17375626166761E-02 
2274	 1.16314597423004E-02 
2275	 8.9786082589332E-03 
2276	 8.3940772854913E-03 
2277	 9.4903762024577E-03 
2278	 0.009642639357954 
2279	 1.11018105573382E-02 
2280	 1.10861818404157E-02 
2281	 9.25172847711301E-03 
2282	 8.19377097637591E-03 
2283	 8.93817229339438E-03 
2284	 1.01294860860917E-02 
2285	 1.32060553356859E-02 
2286	 1.30002661004199E-02 
2287	 9.92565130564056E-03 
2288	 7.4072709569443E-03 
2289	 6.51144801633238E-03 
2290	 7.88024731314112E-03 
2291	 1.00297109991724E-02 
2292	 1.14565207089315E-02 
2293	 1.24017499485771E-02 
2294	 1.20797202680988E-02 
2295	 1.14001331745669E-02 
2296	 1.28587482825941E-02 
2297	 1.15323402713319E-02 
2298	 1.00925759600522E-02 
2299	 1.08821688795074E-02 
2300	 1.04098556549887E-02 
2301	 1.05552951122402E-02 
2302	 8.7478354944666E-03 
2303	 6.96722576494414E-03 
2304	 7.15758574504551E-03 
2305	 8.15101541744044E-03 
2306	 1.17182495803898E-02 
2307	 1.35400865337462E-02 
2308	 0.011207108168808 
2309	 9.49001309785295E-03 
2310	 9.21822798545036E-03 
2311	 8.46246115593067E-03 
2312	 9.30156962035667E-03 
2313	 1.11337903668901E-02 
2314	 9.3606706369797E-03 
2315	 7.96044575437757E-03 
2316	 9.4119844598409E-03 
2317	 9.07846039021804E-03 
2318	 1.02847063779587E-02 
2319	 9.60122654686735E-03 
2320	 7.05359475413895E-03 
2321	 7.5935915666627E-03 
2322	 6.00529796625108E-03 
2323	 8.02276099267491E-03 
2324	 1.30493808332034E-02 
2325	 1.36630793993389E-02 
2326	 1.44655011690346E-02 
2327	 1.34318726397557E-02 
2328	 8.84361628592212E-03 
2329	 6.84685813741924E-03 
2330	 5.27835807655384E-03 
2331	 5.20112728888928E-03 
2332	 8.33856657417356E-03 
2333	 1.04992324805682E-02 
2334	 1.44778498635651E-02 
2335	 1.62499820535829E-02 
2336	 1.34908652015416E-02 
2337	 1.01206243781592E-02 
2338	 5.73053095895495E-03 
2339	-2.28829994522783E-03 
2340	-1.00684211708817E-02 
2341	-7.46512405624926E-03 
2342	-3.73697445808403E-03 
2343	-2.20008324393684E-03 
2344	 7.61771258520436E-03 
2345	 1.44667582251203E-02 
2346	 9.95973862233502E-03 
2347	 8.20871578916126E-03 
2348	 9.10294431466421E-03 
2349	 5.6416508020414E-03 
2350	 9.81126120154077E-03 
2351	 1.31645492072412E-02 
2352	 1.48712012024487E-02 
2353	 2.61095475561275E-02 
2354	 2.10359243260185E-02 
2355	 8.3372336211891E-03 
2356	 8.18707525827101E-03 
2357	 3.66904897351348E-03 
2358	-3.95699874274321E-03 
2359	-1.18640465652273E-03 
2360	 3.79611113453071E-03 
2361	 2.03560142833352E-03 
2362	 4.92888124664109E-03 
2363	 9.82018109178891E-03 
2364	 1.26228446824483E-02 
2365	 1.53829164070336E-02 
2366	 1.63699661023001E-02 
2367	 1.22737007158209E-02 
2368	 1.75345994595494E-03 
2369	-4.04642753735111E-03 
2370	-9.22853520048839E-03 
2371	-6.40238888685769E-03 
2372	 6.44901778021394E-04 
2373	 5.03309272104848E-03 
2374	 1.05984854817205E-02 
2375	-1.33177141708103E-04 
2376	-8.91540759778801E-03 
2377	-1.73310720614283E-02 
2378	-2.39445350404587E-02 
2379	-1.56737342192984E-02 
2380	-8.82185742925066E-03 
2381	-1.95274041714319E-03 
2382	 3.60341784413337E-03 
2383	 2.43675078714542E-02 
2384	 4.35022129613064E-02 
2385	 4.37403318641773E-02 
2386	 5.62903538196912E-02 
2387	 4.44234781477741E-02 
2388	 1.34032944451635E-02 
2389	 8.62014782640002E-03 
2390	-9.57356420091727E-05 
2391	-1.01840042132695E-02 
2392	-2.02287740708019E-02 
2393	-3.82394397187922E-02 
2394	-3.87780654508753E-02 
2395	-2.36384275769481E-02 
2396	 1.70492056315611E-03 
2397	 9.45466923171592E-03 
2398	-4.61681992080508E-03 
2399	-2.56842413085228E-02 
2400	-4.10604736852528E-02 
2401	-2.43721237981122E-02 
2402	-7.07707692034915E-03 
2403	 7.53006537261976E-03 
2404	 4.13733641859901E-02 
2405	 4.24080366675162E-02 
2406	 0.014175442601656 
2407	-1.91547041044274E-02 
2408	-6.77079278053021E-02 
2409	-9.87979816092274E-02 
2410	-8.06007559920819E-02 
2411	-4.47362746519334E-02 
2412	-2.61379175007628E-02 
2413	-3.59947701194171E-03 
2414	 4.84578668741071E-03 
2415	 2.54507849030913E-02 
2416	 2.04566931045306E-02 
2417	-7.01916322995391E-02 
2418	-0.158234086196591 
2419	-0.163642724579735 
2420	-0.108263120360048 
2421	-3.75223711629775E-02 
2422	 6.24791483614175E-02 
2423	 9.09154486956873E-02 
2424	 1.54588991067746E-02 
2425	-6.38082943856419E-03 
2426	-8.48830457017819E-03 
2427	-9.15126498588683E-02 
2428	-0.105160797465685 
2429	-4.71437585557427E-02 
2430	-2.04777847361914E-02 
2431	-1.67407623755791E-02 
2432	-4.27921408120476E-02 
2433	-0.072612137123455 
2434	-9.72624476476131E-02 
2435	-0.079396289987096 
2436	-6.75445956501898E-03 
2437	 5.65152568320767E-02 
2438	 4.38352850287234E-02 
2439	-3.80398031257974E-02 
2440	 2.00273419965974E-02 
2441	-5.70123093597691E-03 
2442	-0.0504489361674 
2443	 0.105657032781012 
2444	 6.48491414696739E-02 
2445	 1.93907825511817E-02 
2446	-2.73293335553866E-02 
2447	-9.35655598514506E-02 
2448	-8.56527354421302E-02 
2449	-2.83444091381695E-02 
2450	 3.30645465807567E-02 
2451	 0.133691927163078 
2452	 0.235545984437517 
2453	 7.18347463834272E-02 
2454	 0.157694319018326 
2455	 0.152152899798995 
2456	 3.06117513354205E-02 
2457	 6.38801083710141E-02 
2458	-1.23713179584715E-02 
2459	-0.096643470774693 
2460	-0.153990641017668 
2461	-0.225365587529563 
2462	-0.209792008606709 
2463	-0.158505255076416 
2464	-9.67833531489492E-02 
2465	-0.176648630066195 
2466	-0.299906500039764 
2467	-0.357706081429826 
2468	-0.372032136592284 
2469	-0.32390494133933 
2470	-8.04071880959235E-02 
2471	 0.114655324443218 
2472	 0.600548380967809 
2473	 0.217683599436389 
2474	-7.20570172614439E-03 
2475	-0.277837468863401 
2476	-0.369264520117381 
2477	-0.139476802241441 
2478	 0.32584950959435 
2479	 0.499556693171073 
2480	 0.511173728299451 
2481	-0.640440185467205 
2482	-0.858745093526889 
2483	-0.130027308377196 
2484	 0.394048214159153 
2485	 1.01936824777748 
2486	 2.51753737196125 
2487	 2.05113938675314 
2488	 0.6917765650461 
2489	 0.237667104616568 
2490	-0.25252258539917 
2491	-0.134454923504419 
2492	 0.313464043887073 
2493	 1.78254800719836 
2494	 1.50593628436473 
2495	 0.711540201125149 
2496	-2.40546032538322 
2497	-4.78844902242658 
2498	-1.62525451719775 
2499	-0.81983752423796 
2500	 1.52467873261456 
