Wavelength	rt0721algea_nearby_water00003.asd
350	 4.03585292461175E-02 
351	 4.00275472193755E-02 
352	 4.05677892429486E-02 
353	 4.07779877355137E-02 
354	 4.01930849436299E-02 
355	 4.02345279585112E-02 
356	 0.04037460043998 
357	 4.06211679936096E-02 
358	 4.09938896887955E-02 
359	 4.10312142000291E-02 
360	 4.05578206419934E-02 
361	 4.00221605834739E-02 
362	 0.040154117318435 
363	 4.02494482121734E-02 
364	 4.01413105923691E-02 
365	 3.99141753610673E-02 
366	 0.039913708684289 
367	 3.97808843143873E-02 
368	 3.97487173987108E-02 
369	 4.00149795106946E-02 
370	 4.01337720818095E-02 
371	 4.01904383133811E-02 
372	 4.01473759715824E-02 
373	 0.039956101819265 
374	 4.00606071255357E-02 
375	 0.040106923121079 
376	 4.00506054433283E-02 
377	 0.040364929572093 
378	 4.07088527606269E-02 
379	 4.10042172990422E-02 
380	 4.11865037058286E-02 
381	 4.10307495353029E-02 
382	 4.08141036880079E-02 
383	 4.08656475050935E-02 
384	 4.13821866915905E-02 
385	 4.16641458801283E-02 
386	 4.17162916277862E-02 
387	 4.17563789055749E-02 
388	 4.21227039470151E-02 
389	 4.20106403084632E-02 
390	 0.041819450395444 
391	 4.20379389654077E-02 
392	 0.042904165173683 
393	 4.29739523538232E-02 
394	 0.042629971555774 
395	 4.27676938407323E-02 
396	 4.29274642630167E-02 
397	 4.30150570135786E-02 
398	 4.30506726917817E-02 
399	 4.31318244477055E-02 
400	 4.32861846735536E-02 
401	 4.34977021588842E-02 
402	 4.37091356021311E-02 
403	 4.37874638233476E-02 
404	 4.38317734564328E-02 
405	 4.38490175834131E-02 
406	 4.38584647104902E-02 
407	 4.41685108070842E-02 
408	 4.42559896445151E-02 
409	 4.41197966653354E-02 
410	 4.42867386707036E-02 
411	 4.45831698767689E-02 
412	 4.47317776307367E-02 
413	 0.044685485253797 
414	 4.50039975277521E-02 
415	 4.50970564352243E-02 
416	 4.51059659984399E-02 
417	 0.045377350834498 
418	 4.55519708602616E-02 
419	 4.57913445801805E-02 
420	 4.60929835702661E-02 
421	 4.62516085980161E-02 
422	 4.63698882648345E-02 
423	 4.65644503117154E-02 
424	 4.68676816307749E-02 
425	 4.70720351896241E-02 
426	 4.73402520926316E-02 
427	 0.047659124169181 
428	 4.79443370374187E-02 
429	 4.82762066747757E-02 
430	 4.85405305223583E-02 
431	 4.87544940767897E-02 
432	 0.049102763407789 
433	 4.93315946785874E-02 
434	 0.049565619485288 
435	 4.99224216424124E-02 
436	 5.02552756617303E-02 
437	 5.05575457606548E-02 
438	 5.08601782966049E-02 
439	 0.0512030942905 
440	 5.15093530115315E-02 
441	 5.18056721557451E-02 
442	 5.20926913147232E-02 
443	 5.23128260835035E-02 
444	 5.25982747542719E-02 
445	 5.28953830796445E-02 
446	 5.31281411983634E-02 
447	 5.33446651130161E-02 
448	 5.35916500480281E-02 
449	 5.38591918691992E-02 
450	 5.40913345940404E-02 
451	 5.42040742497702E-02 
452	 5.43130436891311E-02 
453	 5.44934860046572E-02 
454	 5.46825686706264E-02 
455	 0.054856685527634 
456	 0.054942208008624 
457	 5.49162260147678E-02 
458	 5.50854805682372E-02 
459	 5.52040754156706E-02 
460	 5.52372453363767E-02 
461	 0.055379781184516 
462	 5.54796974797934E-02 
463	 5.55842359857221E-02 
464	 5.57277413313406E-02 
465	 5.58014355864497E-02 
466	 5.58740001802244E-02 
467	 5.59823714455716E-02 
468	 5.61341450032876E-02 
469	 5.62515836978358E-02 
470	 0.056307870647243 
471	 5.63461491816145E-02 
472	 5.64911196694162E-02 
473	 5.66177975702563E-02 
474	 5.67348551646404E-02 
475	 5.68852830589591E-02 
476	 0.057118345699254 
477	 5.72482077415689E-02 
478	 5.73173069803253E-02 
479	 5.75174450506564E-02 
480	 5.78153234326752E-02 
481	 5.80288280521671E-02 
482	 5.81281494380568E-02 
483	 5.84352093173114E-02 
484	 5.86416237812717E-02 
485	 5.88348375460923E-02 
486	 0.059181794278166 
487	 5.94502955803306E-02 
488	 5.97559287724864E-02 
489	 6.00903161363659E-02 
490	 6.03244652635741E-02 
491	 6.07386414534354E-02 
492	 6.11419022287831E-02 
493	 6.13963627024539E-02 
494	 6.17614885457479E-02 
495	 6.21690532690902E-02 
496	 6.25993744264423E-02 
497	 6.30505533517154E-02 
498	 6.34912251003482E-02 
499	 6.39116737560204E-02 
500	 6.43637233576663E-02 
501	 6.49916585407563E-02 
502	 6.54901836664716E-02 
503	 6.59648348815311E-02 
504	 0.066567184441195 
505	 6.71121938040895E-02 
506	 6.76615795386635E-02 
507	 6.82750442387383E-02 
508	 6.89885839492314E-02 
509	 6.95790414087949E-02 
510	 0.070136120664771 
511	 7.07738007921915E-02 
512	 7.15729528273969E-02 
513	 7.21749530546678E-02 
514	 7.27647808863892E-02 
515	 7.36732651165615E-02 
516	 7.44063919910556E-02 
517	 7.51502077640259E-02 
518	 7.59656999170358E-02 
519	 0.076692646182865 
520	 7.73776349282455E-02 
521	 7.80725467689616E-02 
522	 7.88122701081883E-02 
523	 7.95438860314163E-02 
524	 8.03384839586591E-02 
525	 8.11353716478686E-02 
526	 8.18106149133801E-02 
527	 8.26326479016134E-02 
528	 8.34316230630437E-02 
529	 8.41074491188949E-02 
530	 8.48110289397324E-02 
531	 8.55955932090947E-02 
532	 8.63541258930174E-02 
533	 8.69717664468153E-02 
534	 8.77286906147913E-02 
535	 0.088427349742395 
536	 8.90590761178015E-02 
537	 8.98518808253885E-02 
538	 9.05999689428569E-02 
539	 9.13206097062174E-02 
540	 9.20637744078101E-02 
541	 0.092811121619618 
542	 9.35115125658137E-02 
543	 9.42015741764548E-02 
544	 9.49614383583814E-02 
545	 9.56641071438536E-02 
546	 9.64043124511702E-02 
547	 9.71889987691567E-02 
548	 9.77947284242711E-02 
549	 9.84753121279245E-02 
550	 9.92202254145156E-02 
551	 9.99269657677319E-02 
552	 0.100537059759014 
553	 0.101205498429852 
554	 0.101931606527679 
555	 0.102527556669425 
556	 0.103198766809059 
557	 0.103860121770695 
558	 0.104416643732281 
559	 0.105004005607704 
560	 0.105493730002564 
561	 0.105944929223563 
562	 0.106513924936932 
563	 0.107044707361311 
564	 0.107475796534543 
565	 0.107818287717709 
566	 0.10819617778558 
567	 0.108572473935171 
568	 0.108899523052781 
569	 0.109154364885347 
570	 0.109504773796293 
571	 0.109788626491646 
572	 0.109995980929629 
573	 0.110293952653986 
574	 0.110507072468569 
575	 0.110660470712756 
576	 0.110829273389882 
577	 0.111107288623947 
578	 0.111317372029131 
579	 0.111461348905435 
580	 0.111641061226675 
581	 0.11173766593566 
582	 0.111823005964048 
583	 0.111932864929932 
584	 0.112000593793232 
585	 0.11198085627032 
586	 0.111868457215743 
587	 0.111701779892879 
588	 0.11165167198783 
589	 0.111585352908503 
590	 0.111500611286096 
591	 0.11154027258074 
592	 0.111532175408473 
593	 0.111429287814011 
594	 0.111246655136048 
595	 0.111089540147697 
596	 0.110945182064542 
597	 0.11077146937433 
598	 0.110519664220469 
599	 0.110250441830782 
600	 0.110031061284724 
601	 0.109887839497211 
602	 0.109777492619871 
603	 0.109706801641599 
604	 0.10970486423172 
605	 0.109776573990834 
606	 0.10976702634044 
607	 0.109747755943599 
608	 0.109755472429591 
609	 0.109777740057197 
610	 0.109776216527111 
611	 0.109762966985783 
612	 0.109749287393849 
613	 0.109695492209649 
614	 0.10975333158884 
615	 0.109809276031029 
616	 0.1096520116106 
617	 0.10966091030882 
618	 0.109684159311267 
619	 0.109627469715483 
620	 0.109580125581048 
621	 0.109572176553657 
622	 0.109582040096604 
623	 0.109571451028584 
624	 0.109534956240518 
625	 0.109481151467367 
626	 0.10940749386746 
627	 0.109308100277873 
628	 0.109356731877301 
629	 0.109417942240672 
630	 0.109383709562714 
631	 0.109396050321002 
632	 0.109263381517476 
633	 0.109098737125821 
634	 0.109096992956584 
635	 0.108861026120324 
636	 0.10864810254094 
637	 0.108537722896097 
638	 0.108266981093912 
639	 0.107975896092978 
640	 0.107739128406557 
641	 0.107565380473733 
642	 0.107255518533722 
643	 0.107016489071803 
644	 0.10679710309249 
645	 0.106356871296436 
646	 0.106047669250688 
647	 0.105825695221808 
648	 0.10561556491562 
649	 0.105435991235214 
650	 0.105305116389137 
651	 0.105189869484329 
652	 0.105049600479416 
653	 0.104907103510436 
654	 0.104743582025271 
655	 0.104548122620354 
656	 0.104349933758996 
657	 0.104118619705294 
658	 0.103876510866867 
659	 0.103646538773149 
660	 0.103456946438649 
661	 0.103255697077709 
662	 0.103045559073112 
663	 0.102863807672134 
664	 0.102673843566564 
665	 0.10251902506031 
666	 0.102400660355664 
667	 0.102226970915745 
668	 0.102159814309065 
669	 0.10208947799151 
670	 0.10189915545041 
671	 0.101901750047362 
672	 0.101959876113578 
673	 0.101979566250985 
674	 0.101937409960186 
675	 0.101978246939388 
676	 0.102022891303238 
677	 0.102048066605098 
678	 0.102294243192253 
679	 0.102530188791253 
680	 0.10273553773962 
681	 0.102992485011351 
682	 0.103348923405625 
683	 0.103846389093215 
684	 0.104417093829927 
685	 0.104897877664476 
686	 0.105648307769499 
687	 0.106463427051212 
688	 0.107073724196867 
689	 0.107859604386453 
690	 0.108626875596484 
691	 0.109330835682044 
692	 0.110024674807784 
693	 0.110766330350665 
694	 0.111482796704096 
695	 0.112106384052633 
696	 0.11269098365881 
697	 0.11308188175903 
698	 0.11341245186306 
699	 0.113802565570082 
700	 0.113980329883449 
701	 0.11418341983613 
702	 0.11439983286313 
703	 0.114425334786327 
704	 0.114441585308034 
705	 0.114348283822538 
706	 0.114107731588403 
707	 0.11391709784112 
708	 0.113538093480717 
709	 0.113014530023825 
710	 0.112467193108344 
711	 0.111825574642322 
712	 0.110985178627986 
713	 0.109956300665689 
714	 0.108841110499877 
715	 0.107615474718023 
716	 0.106219301945971 
717	 0.104743373881347 
718	 0.10339407428406 
719	 0.102027647043298 
720	 0.100819582989563 
721	 9.97058246694471E-02 
722	 9.84661972098865E-02 
723	 9.68819541074389E-02 
724	 9.51400555809016E-02 
725	 9.35275347961159E-02 
726	 9.18060325715269E-02 
727	 8.98426729241494E-02 
728	 0.087628563286356 
729	 8.53341049157557E-02 
730	 8.29856063660763E-02 
731	 8.07753572370494E-02 
732	 7.88004440412969E-02 
733	 7.71119499218256E-02 
734	 7.55984544955197E-02 
735	 7.42352091463953E-02 
736	 7.30916169402247E-02 
737	 7.23086405228676E-02 
738	 7.17247433981088E-02 
739	 7.12249695161919E-02 
740	 7.10468491514785E-02 
741	 7.08818956629739E-02 
742	 7.06990055320271E-02 
743	 7.06134523043896E-02 
744	 7.06208651877347E-02 
745	 7.06458537051957E-02 
746	 7.06285897163526E-02 
747	 7.05417998521141E-02 
748	 0.070534367559882 
749	 7.05900186902109E-02 
750	 7.06337708880097E-02 
751	 7.05524877622123E-02 
752	 7.05343801035627E-02 
753	 7.05748351220229E-02 
754	 7.05728823140616E-02 
755	 7.06189176671317E-02 
756	 7.06106354039104E-02 
757	 7.05819362144766E-02 
758	 7.08504238493215E-02 
759	 0.070830370681174 
760	 7.06238443386868E-02 
761	 7.07922514572055E-02 
762	 7.07558470743662E-02 
763	 7.09595391471958E-02 
764	 7.12077059002692E-02 
765	 7.12557600125819E-02 
766	 7.15105119599858E-02 
767	 7.17446009982783E-02 
768	 7.18997828874292E-02 
769	 7.20716624266047E-02 
770	 7.22574204185573E-02 
771	 7.24840547946017E-02 
772	 7.27542710185649E-02 
773	 7.30073141352561E-02 
774	 7.31780115463251E-02 
775	 7.34120810243696E-02 
776	 7.38727830813078E-02 
777	 7.42236267171885E-02 
778	 7.44899752942158E-02 
779	 7.47866064262229E-02 
780	 7.52691940273188E-02 
781	 7.55849893361996E-02 
782	 7.59273811127949E-02 
783	 0.076413259222237 
784	 7.67604270259432E-02 
785	 7.70777830982722E-02 
786	 7.74373479304588E-02 
787	 7.78880519475472E-02 
788	 0.078408563378151 
789	 7.89182423373585E-02 
790	 7.93400357097893E-02 
791	 7.96518737966074E-02 
792	 8.02101373292772E-02 
793	 8.07499611811118E-02 
794	 8.11136869259714E-02 
795	 8.14368807321568E-02 
796	 8.19705068490992E-02 
797	 8.24305044726368E-02 
798	 8.26021068364159E-02 
799	 0.082980893200711 
800	 8.33363028218172E-02 
801	 8.35704293500479E-02 
802	 8.37167556971067E-02 
803	 8.40844053909751E-02 
804	 8.44363880768044E-02 
805	 8.45888974277252E-02 
806	 8.44894938732889E-02 
807	 8.43937653844312E-02 
808	 0.084292223312802 
809	 8.41402686021139E-02 
810	 8.39655500871619E-02 
811	 8.35708370606662E-02 
812	 8.30722050829349E-02 
813	 8.26986442953006E-02 
814	 8.23430117662963E-02 
815	 0.081874648079541 
816	 8.12902411201114E-02 
817	 8.06853970363402E-02 
818	 7.99611340068553E-02 
819	 0.079225907670163 
820	 7.84707969377932E-02 
821	 7.75736082549948E-02 
822	 7.62144202949873E-02 
823	 7.47617880991546E-02 
824	 7.35043184283987E-02 
825	 7.19842643331598E-02 
826	 7.00241537267879E-02 
827	 6.78339502384687E-02 
828	 6.58718894013614E-02 
829	 6.39053210917612E-02 
830	 6.21336380264564E-02 
831	 6.04966152130147E-02 
832	 5.88542126444699E-02 
833	 5.78545420877444E-02 
834	 5.71354269261734E-02 
835	 0.056368365574673 
836	 5.54690760120896E-02 
837	 5.50716578005648E-02 
838	 5.48493997463208E-02 
839	 5.44182620430218E-02 
840	 5.37905973786407E-02 
841	 5.33731733948419E-02 
842	 0.053100144294213 
843	 5.27671553185279E-02 
844	 5.24868671682171E-02 
845	 5.21726767558808E-02 
846	 5.17279227921152E-02 
847	 5.11296996660928E-02 
848	 5.10077432671716E-02 
849	 5.08069795983851E-02 
850	 5.03542761213337E-02 
851	 5.01163951924901E-02 
852	 4.97839033036272E-02 
853	 4.94031844412576E-02 
854	 4.90839485085453E-02 
855	 4.88959547503417E-02 
856	 4.86598238033414E-02 
857	 0.048399442479811 
858	 4.81632110591518E-02 
859	 0.047871355879032 
860	 4.75372536397073E-02 
861	 4.72478129942796E-02 
862	 4.70722351928549E-02 
863	 4.67784117386195E-02 
864	 0.046428065528261 
865	 0.046083749545152 
866	 4.57806646104379E-02 
867	 4.54469086770396E-02 
868	 4.51780364634595E-02 
869	 4.49894789795647E-02 
870	 4.47704621740447E-02 
871	 4.44125276445016E-02 
872	 4.39176949492797E-02 
873	 4.33820522097367E-02 
874	 0.043028839314023 
875	 4.27618389337075E-02 
876	 4.24577549001886E-02 
877	 4.20080622567141E-02 
878	 4.13795260811954E-02 
879	 4.08771283614536E-02 
880	 4.04967312708737E-02 
881	 0.040112354229667 
882	 0.039917580117111 
883	 0.039472330784305 
884	 3.89155983217309E-02 
885	 3.87321369394493E-02 
886	 3.81850653996931E-02 
887	 0.037873986152993 
888	 3.77536655174298E-02 
889	 3.69918689176106E-02 
890	 3.67451907260757E-02 
891	 3.65073540325085E-02 
892	 3.59288319975031E-02 
893	 3.55228445365159E-02 
894	 3.51688645342483E-02 
895	 3.48364537845089E-02 
896	 3.45302094284113E-02 
897	 3.43295942526989E-02 
898	 3.39384405608757E-02 
899	 3.35611663422027E-02 
900	 0.033381753751634 
901	 3.28838563608221E-02 
902	 3.23052455865197E-02 
903	 3.18818389107657E-02 
904	 3.17490197554113E-02 
905	 3.16491499934788E-02 
906	 3.12597855279202E-02 
907	 3.06688130006303E-02 
908	 3.02040716966358E-02 
909	 2.92464597382321E-02 
910	 2.89172551457571E-02 
911	 2.90766656441782E-02 
912	 2.84642498721542E-02 
913	 2.78202867257914E-02 
914	 2.71804942013041E-02 
915	 2.67554829297104E-02 
916	 2.68291423206264E-02 
917	 2.54192280118911E-02 
918	 2.40835130800075E-02 
919	 2.37609817969019E-02 
920	 2.38930595979307E-02 
921	 2.32145860078828E-02 
922	 2.25566061052837E-02 
923	 2.23007906511166E-02 
924	 2.09803405571274E-02 
925	 2.01875691388619E-02 
926	 0.019956203465201 
927	 1.98674020765372E-02 
928	 1.97651206978853E-02 
929	 0.019164555683467 
930	 1.80630761187024E-02 
931	 1.68252491708873E-02 
932	 1.53932314407087E-02 
933	 1.48655107633171E-02 
934	 1.62921059444611E-02 
935	 0.018902311971587 
936	 1.89433411370118E-02 
937	 1.65060091271541E-02 
938	 1.50560492753436E-02 
939	 1.67472565838858E-02 
940	 1.62794250807076E-02 
941	 1.56668888491356E-02 
942	 1.45742188986636E-02 
943	 1.26657540146065E-02 
944	 1.67488885497134E-02 
945	 2.02377925291624E-02 
946	 1.90100191351604E-02 
947	 1.36966584104804E-02 
948	 1.54894051464797E-02 
949	 1.48750384037668E-02 
950	 1.25243419825579E-02 
951	 1.45838085528492E-02 
952	 1.47768154977508E-02 
953	 1.39961852546373E-02 
954	 1.42359926871276E-02 
955	 1.64952414003637E-02 
956	 1.34518136828077E-02 
957	 1.27261037530828E-02 
958	 1.45293369332869E-02 
959	 1.37664984684953E-02 
960	 1.23091357727117E-02 
961	 1.26872630203725E-02 
962	 0.013845263051388 
963	 1.28712592157687E-02 
964	 1.14366836595804E-02 
965	 1.19504084263434E-02 
966	 0.013293232904362 
967	 1.25065800371612E-02 
968	 1.20258715249084E-02 
969	 1.18048378172157E-02 
970	 1.13466654284973E-02 
971	 1.03589894587482E-02 
972	 1.21267586895883E-02 
973	 1.30227700912682E-02 
974	 1.20256114658294E-02 
975	 1.15638555687186E-02 
976	 1.35316976678781E-02 
977	 1.36192561771461E-02 
978	 1.21564177925828E-02 
979	 1.31817926224495E-02 
980	 1.19883019141425E-02 
981	 1.20618845550643E-02 
982	 1.30711492195706E-02 
983	 1.19036272412238E-02 
984	 1.36064492074764E-02 
985	 1.42513189153484E-02 
986	 1.33229838361397E-02 
987	 1.33532518550109E-02 
988	 1.31279089282693E-02 
989	 1.31160145073929E-02 
990	 1.29767777109118E-02 
991	 1.20731266491216E-02 
992	 1.25410232046846E-02 
993	 1.29535831038546E-02 
994	 0.012728791626408 
995	 1.22828250048554E-02 
996	 0.012651108068107 
997	 1.27060262272306E-02 
998	 1.25811980006107E-02 
999	 1.28946821333636E-02 
1000	 1.15571766440504E-02 
1001	 1.33797601117966E-02 
1002	 1.33890699688088E-02 
1003	 1.33839620284883E-02 
1004	 1.31814183488572E-02 
1005	 1.31265532087934E-02 
1006	 1.30983781207979E-02 
1007	 0.013256184730709 
1008	 1.31785740352262E-02 
1009	 1.32060881153091E-02 
1010	 1.30688446785759E-02 
1011	 1.28389314766037E-02 
1012	 1.28387085224385E-02 
1013	 1.27822050932407E-02 
1014	 1.28181268827869E-02 
1015	 0.01296745871386 
1016	 1.30419221645698E-02 
1017	 1.31661939054018E-02 
1018	 1.32203841269398E-02 
1019	 1.30890286166015E-02 
1020	 0.013154768393514 
1021	 1.33594663723007E-02 
1022	 1.34813347404791E-02 
1023	 1.36135488169469E-02 
1024	 1.36119371924615E-02 
1025	 1.33755983529995E-02 
1026	 1.34196884438374E-02 
1027	 1.34658862101554E-02 
1028	 1.36708998730229E-02 
1029	 0.013663175755559 
1030	 1.36168838340027E-02 
1031	 0.01357290113519 
1032	 1.32500583279304E-02 
1033	 1.33100532452231E-02 
1034	 1.37548552415914E-02 
1035	 1.38426443950131E-02 
1036	 1.39645627607271E-02 
1037	 1.40321203745589E-02 
1038	 0.013780157652374 
1039	 0.013689376147902 
1040	 0.013818160390971 
1041	 0.013996508375435 
1042	 1.41261070186031E-02 
1043	 1.43206974004032E-02 
1044	 1.44353186287567E-02 
1045	 1.45697981288671E-02 
1046	 0.014550886776704 
1047	 1.43608547547872E-02 
1048	 1.43817315982487E-02 
1049	 1.42595291544768E-02 
1050	 1.43700037502131E-02 
1051	 1.48747236395269E-02 
1052	 0.015142176259908 
1053	 1.54833914095548E-02 
1054	 1.56435119619346E-02 
1055	 1.56002058753602E-02 
1056	 0.015556132617039 
1057	 1.54553523005045E-02 
1058	 1.51822460695456E-02 
1059	 1.51408260670192E-02 
1060	 1.51157012224105E-02 
1061	 1.52244021504898E-02 
1062	 1.56737587014896E-02 
1063	 0.015668913592821 
1064	 0.015428970756213 
1065	 1.53934425708667E-02 
1066	 1.50603453872968E-02 
1067	 1.50745659696905E-02 
1068	 1.56292511240715E-02 
1069	 1.58119685491718E-02 
1070	 1.59688861941438E-02 
1071	 1.60012417376903E-02 
1072	 1.58509053614919E-02 
1073	 1.55678537724818E-02 
1074	 0.015411393758646 
1075	 1.52356815195357E-02 
1076	 1.51002692837407E-02 
1077	 1.49727146174263E-02 
1078	 1.49226380399283E-02 
1079	 1.48609018120974E-02 
1080	 1.49214999710223E-02 
1081	 1.52301476494986E-02 
1082	 1.53062864099242E-02 
1083	 1.54505410293103E-02 
1084	 1.53668944090198E-02 
1085	 1.48384685385985E-02 
1086	 1.46458368537232E-02 
1087	 1.45604774054266E-02 
1088	 1.44227891454178E-02 
1089	 1.43947986312842E-02 
1090	 1.45712811999757E-02 
1091	 1.43231050078764E-02 
1092	 1.35639658646614E-02 
1093	 1.35468010369732E-02 
1094	 1.37047617105489E-02 
1095	 1.37674849366114E-02 
1096	 1.44914460023474E-02 
1097	 1.45225577296178E-02 
1098	 1.39301980194554E-02 
1099	 1.36606780707003E-02 
1100	 1.31970980101636E-02 
1101	 1.29575473388979E-02 
1102	 1.28118232694813E-02 
1103	 1.28109943685598E-02 
1104	 1.32020491527737E-02 
1105	 1.33421534182625E-02 
1106	 1.31739442461595E-02 
1107	 1.32945916723885E-02 
1108	 0.012817428558033 
1109	 1.24983978813935E-02 
1110	 1.25078577447019E-02 
1111	 1.30345545616732E-02 
1112	 1.29748063109152E-02 
1113	 1.26434107431891E-02 
1114	 1.27946760535515E-02 
1115	 1.33631547823308E-02 
1116	 1.31200492488072E-02 
1117	 1.28434678261119E-02 
1118	 1.25553507981132E-02 
1119	 9.40619633698755E-03 
1120	 8.2516691696584E-03 
1121	 9.8486201568499E-03 
1122	 1.27362054506656E-02 
1123	 1.30599302931056E-02 
1124	 1.14412922801904E-02 
1125	 8.63611692868748E-03 
1126	 5.4631263162059E-03 
1127	 7.89986158777582E-03 
1128	 1.44936185447214E-02 
1129	 1.47418987608558E-02 
1130	 0.0125302930586 
1131	 0.012379632941033 
1132	 1.06476583883424E-02 
1133	 9.7795489807354E-03 
1134	 1.07355812286163E-02 
1135	 1.10004021226723E-02 
1136	 9.67253587950419E-03 
1137	 9.46578643550216E-03 
1138	 9.65972866905565E-03 
1139	 0.011475214701474 
1140	 1.23394805708017E-02 
1141	 1.11209336966832E-02 
1142	 9.52965055837196E-03 
1143	 8.93351751729399E-03 
1144	 9.83797677195304E-03 
1145	 1.10342579780556E-02 
1146	 1.20624634202968E-02 
1147	 1.27984540214415E-02 
1148	 1.14365492101735E-02 
1149	 9.99623434025514E-03 
1150	 9.51760706753058E-03 
1151	 9.17550376550402E-03 
1152	 9.2980069751683E-03 
1153	 1.05524423186363E-02 
1154	 1.05649159948101E-02 
1155	 1.01480239907879E-02 
1156	 9.99895916675707E-03 
1157	 1.03095885862509E-02 
1158	 1.05313893788965E-02 
1159	 1.09237352996793E-02 
1160	 1.10727874857325E-02 
1161	 1.07547270597717E-02 
1162	 1.06463714972265E-02 
1163	 0.010733440150089 
1164	 0.010932194768583 
1165	 1.11446195292182E-02 
1166	 1.11188317698818E-02 
1167	 0.010938757828339 
1168	 1.07558786293843E-02 
1169	 1.07573431865687E-02 
1170	 1.07955672513561E-02 
1171	 1.07100402492383E-02 
1172	 1.05346606239016E-02 
1173	 1.05338949618024E-02 
1174	 1.05289134280153E-02 
1175	 0.010597582078135 
1176	 1.06164611255747E-02 
1177	 0.010747000699273 
1178	 1.09258943428055E-02 
1179	 1.10139660370347E-02 
1180	 1.10363496385214E-02 
1181	 1.09660719398902E-02 
1182	 1.09438975822854E-02 
1183	 1.08301785195778E-02 
1184	 1.06228317298024E-02 
1185	 1.06943473355521E-02 
1186	 0.010812422490597 
1187	 1.07281814866385E-02 
1188	 1.07553379370005E-02 
1189	 1.08024651847925E-02 
1190	 1.08034343009987E-02 
1191	 1.06767543020448E-02 
1192	 1.05809693196977E-02 
1193	 1.04190699901869E-02 
1194	 1.05682548094517E-02 
1195	 1.06985758644212E-02 
1196	 1.07182990297035E-02 
1197	 1.08754665672456E-02 
1198	 1.08904683020025E-02 
1199	 1.05524638006175E-02 
1200	 1.04909945214796E-02 
1201	 1.06216059981065E-02 
1202	 1.03769480170445E-02 
1203	 1.03199574862476E-02 
1204	 1.04641030574793E-02 
1205	 1.02917259073677E-02 
1206	 1.01052647701533E-02 
1207	 1.03537248624528E-02 
1208	 0.010496905238036 
1209	 1.02509416148374E-02 
1210	 1.04194985090495E-02 
1211	 1.07360854281156E-02 
1212	 1.06046779375267E-02 
1213	 1.04605614754283E-02 
1214	 1.04475985571527E-02 
1215	 1.04519044015864E-02 
1216	 1.02679088983818E-02 
1217	 1.03018071700355E-02 
1218	 1.06063273650124E-02 
1219	 1.07763535753734E-02 
1220	 0.010686033386387 
1221	 0.010704958896637 
1222	 0.010698228320448 
1223	 1.03508312052332E-02 
1224	 1.02836181950178E-02 
1225	 1.04464880487498E-02 
1226	 1.03745662119601E-02 
1227	 1.03535974394429E-02 
1228	 1.04051244645463E-02 
1229	 1.03211732108527E-02 
1230	 0.010244989617937 
1231	 1.03430756638895E-02 
1232	 0.01051626982518 
1233	 1.05820374251323E-02 
1234	 1.05489163485338E-02 
1235	 1.05589771991075E-02 
1236	 0.010670310104802 
1237	 1.06456003972159E-02 
1238	 1.05077926483186E-02 
1239	 1.04432038031333E-02 
1240	 1.03850303665471E-02 
1241	 1.03246364384356E-02 
1242	 1.04231775242865E-02 
1243	 1.06180480319646E-02 
1244	 1.05657999331985E-02 
1245	 1.04093968232551E-02 
1246	 1.04178758243492E-02 
1247	 1.03935487174994E-02 
1248	 1.04276380147503E-02 
1249	 1.05996481327552E-02 
1250	 1.05882455674218E-02 
1251	 1.04379370923124E-02 
1252	 1.04991072438312E-02 
1253	 1.05863787756667E-02 
1254	 1.04848152747763E-02 
1255	 1.04190181637707E-02 
1256	 1.03779724059625E-02 
1257	 1.02990384986906E-02 
1258	 1.01881802886591E-02 
1259	 9.95250331274112E-03 
1260	 1.00611399661794E-02 
1261	 0.010550788815993 
1262	 1.04912177942453E-02 
1263	 0.01032185513734 
1264	 0.010314252669403 
1265	 0.01011038315275 
1266	 9.89285284417571E-03 
1267	 1.01115522249716E-02 
1268	 1.05135033090387E-02 
1269	 1.04680073775066E-02 
1270	 1.02019425348922E-02 
1271	 0.010312125961436 
1272	 0.010528439731748 
1273	 1.05666907385142E-02 
1274	 1.05064916499664E-02 
1275	 1.04020769021985E-02 
1276	 1.02493237959659E-02 
1277	 1.03076237355897E-02 
1278	 1.04002451197774E-02 
1279	 1.02982504133157E-02 
1280	 1.02645961959009E-02 
1281	 0.010264375474522 
1282	 0.010137479692393 
1283	 1.00952134999362E-02 
1284	 1.01894199592127E-02 
1285	 1.02508488403372E-02 
1286	 1.03182554384769E-02 
1287	 1.02714198274068E-02 
1288	 1.01672764406169E-02 
1289	 1.02038574078991E-02 
1290	 1.02230134856749E-02 
1291	 1.01711081449119E-02 
1292	 1.00821858050716E-02 
1293	 1.01404729737902E-02 
1294	 1.00770669758031E-02 
1295	 9.73214217837871E-03 
1296	 9.80053384239043E-03 
1297	 1.00501518292896E-02 
1298	 9.77957321524492E-03 
1299	 9.75790939656112E-03 
1300	 1.00482323227301E-02 
1301	 9.83345168705613E-03 
1302	 9.69063961959946E-03 
1303	 9.87008948202874E-03 
1304	 9.86000111888388E-03 
1305	 9.87266253392299E-03 
1306	 9.8777327595015E-03 
1307	 1.00352015056801E-02 
1308	 9.96949309961748E-03 
1309	 9.59845683946451E-03 
1310	 9.64779028728541E-03 
1311	 9.99780228228985E-03 
1312	 9.94219859038284E-03 
1313	 9.84687313876898E-03 
1314	 9.89612905552782E-03 
1315	 9.60118897026895E-03 
1316	 9.57448127080163E-03 
1317	 1.01865346783732E-02 
1318	 1.02720348548197E-02 
1319	 9.91568523419596E-03 
1320	 9.84153693965042E-03 
1321	 9.91607636919979E-03 
1322	 9.49963736481573E-03 
1323	 9.27944570319697E-03 
1324	 9.50211830590156E-03 
1325	 9.89428377759092E-03 
1326	 9.85591842862621E-03 
1327	 9.14328687304735E-03 
1328	 8.85086023046263E-03 
1329	 9.12326838363467E-03 
1330	 9.30491935983469E-03 
1331	 9.27354081563456E-03 
1332	 9.32050707593824E-03 
1333	 9.18510495343508E-03 
1334	 8.69717267023888E-03 
1335	 8.37562652260354E-03 
1336	 8.86066911498308E-03 
1337	 9.11660253674075E-03 
1338	 8.66226320346366E-03 
1339	 8.78720546658587E-03 
1340	 1.01655643153019E-02 
1341	 1.05601470197925E-02 
1342	 1.02746482669938E-02 
1343	 9.99781237433581E-03 
1344	 9.03354824959879E-03 
1345	 8.31560509962561E-03 
1346	 6.91712673345116E-03 
1347	 6.53929041210494E-03 
1348	 8.84862715405935E-03 
1349	 8.91113011268178E-03 
1350	 4.91475566784623E-03 
1351	 6.07673641225668E-03 
1352	 1.85126538293858E-02 
1353	 1.94663386275141E-02 
1354	 6.38987119775325E-03 
1355	 7.85892081590282E-03 
1356	 3.73394491838404E-03 
1357	-5.60473319281135E-02 
1358	-4.07884878767395E-02 
1359	 3.66933349997028E-02 
1360	-1.42117018742549E-03 
1361	-3.94809395897005E-02 
1362	-1.31704247764274E-02 
1363	-5.24672005532865E-02 
1364	-0.120457455771092 
1365	-0.124192280610868 
1366	-2.16842771593374E-02 
1367	 6.98968087293939E-02 
1368	 7.72168977811909E-02 
1369	 2.12004147007538E-02 
1370	-3.35039450395503E-03 
1371	-0.135321448475817 
1372	-0.153493776431376 
1373	-7.15470055930093E-02 
1374	-5.8535712782865E-03 
1375	 9.47169538599292E-02 
1376	 9.64587991369866E-02 
1377	 7.90971944476003E-02 
1378	 3.41459913493541E-02 
1379	-0.23206674848833 
1380	-0.187503985575372 
1381	 0.217687823791347 
1382	 0.183120325730706 
1383	-0.128151593465038 
1384	-0.114173399769281 
1385	-8.25618445336459E-02 
1386	-0.220248764018196 
1387	-0.204276728750966 
1388	-9.81853399740478E-02 
1389	-0.278202341041546 
1390	-0.532366367185431 
1391	-0.63072666451266 
1392	-0.251942844583691 
1393	-0.149424809081337 
1394	-0.151146294960089 
1395	-3.69636793834276E-02 
1396	 0.111459245774934 
1397	 2.34460251020924E-02 
1398	-0.140040193237364 
1399	-0.20111521844071 
1400	-0.27046076112142 
1401	-0.27912450459233 
1402	-0.185832660639151 
1403	-4.56370725541026E-02 
1404	-1.78068513325711E-02 
1405	-0.124226908834962 
1406	-0.560187006174144 
1407	-0.433416466669757 
1408	-0.108014383945752 
1409	-7.35958314158075E-02 
1410	 2.56175717351819E-02 
1411	 4.75515353209995E-02 
1412	-8.47045141979414E-02 
1413	-0.078696173961351 
1414	 2.67370351630218E-02 
1415	 4.17639244636584E-02 
1416	 0.01980294267282 
1417	 1.79595343604674E-02 
1418	 2.11285693262534E-02 
1419	 6.64901044241564E-03 
1420	-0.012387489729171 
1421	-1.65913045556399E-02 
1422	-3.35443682285201E-02 
1423	-2.78313187223964E-02 
1424	 5.37242790166601E-03 
1425	 4.20555042579154E-03 
1426	-1.68605943787411E-02 
1427	-1.33517363277825E-02 
1428	-5.77681014338739E-03 
1429	-5.44587535201248E-03 
1430	 6.97392633495385E-03 
1431	 1.19621038719611E-02 
1432	 2.78431740539993E-03 
1433	-1.12234049370129E-04 
1434	-5.70770008115248E-04 
1435	 1.73736242225938E-03 
1436	 1.06673504581965E-02 
1437	 1.00908333917552E-02 
1438	 2.91386721028776E-03 
1439	 5.58701034976847E-03 
1440	 7.32275737309199E-03 
1441	 6.37895939087795E-03 
1442	 6.05236798091211E-03 
1443	 6.0685127273913E-03 
1444	 7.60609131898272E-03 
1445	 7.20087649463025E-03 
1446	 6.61096348581371E-03 
1447	 7.13868322487923E-03 
1448	 4.78556873388592E-03 
1449	 2.92615509893369E-03 
1450	 4.57516343672666E-03 
1451	 5.91425880650039E-03 
1452	 5.1564206823056E-03 
1453	 4.21676547687051E-03 
1454	 4.70301125013198E-03 
1455	 5.52164026724048E-03 
1456	 5.39560130610732E-03 
1457	 5.57215840126008E-03 
1458	 6.48340949242229E-03 
1459	 7.45686196525488E-03 
1460	 6.90049812851182E-03 
1461	 6.12682709482785E-03 
1462	 6.69639780613801E-03 
1463	 6.51515401842103E-03 
1464	 6.14131921261977E-03 
1465	 7.52555111109506E-03 
1466	 8.45578421370931E-03 
1467	 7.78862050284076E-03 
1468	 6.96875098029112E-03 
1469	 7.34544843154432E-03 
1470	 7.52007843298601E-03 
1471	 6.33168101178378E-03 
1472	 4.91408148295572E-03 
1473	 3.59533113941015E-03 
1474	 4.20853376871709E-03 
1475	 4.63291632789909E-03 
1476	 4.82425272273457E-03 
1477	 7.40401664717315E-03 
1478	 7.95862875011153E-03 
1479	 6.18275073389127E-03 
1480	 5.85789163792931E-03 
1481	 6.40156163868075E-03 
1482	 6.51558493105889E-03 
1483	 6.2792516866049E-03 
1484	 6.22583015488804E-03 
1485	 6.0637307754279E-03 
1486	 6.51414539829348E-03 
1487	 7.64176026045028E-03 
1488	 7.74098397631965E-03 
1489	 7.74738371974804E-03 
1490	 7.57977014414622E-03 
1491	 6.57050109990596E-03 
1492	 6.46389030516179E-03 
1493	 6.88245872930608E-03 
1494	 6.97122352208446E-03 
1495	 7.32820735921754E-03 
1496	 7.28269999820922E-03 
1497	 6.74555626515247E-03 
1498	 6.68878012952042E-03 
1499	 6.79119420830837E-03 
1500	 6.72532171050327E-03 
1501	 6.77954252847086E-03 
1502	 6.87706582584178E-03 
1503	 6.86706020338171E-03 
1504	 6.83177317846332E-03 
1505	 6.87974370610605E-03 
1506	 6.91955224789193E-03 
1507	 6.88191330876583E-03 
1508	 6.82562375994889E-03 
1509	 6.91533737126434E-03 
1510	 7.20922976514419E-03 
1511	 7.34482181450157E-03 
1512	 7.2532705595282E-03 
1513	 7.21882400426915E-03 
1514	 7.25524433304665E-03 
1515	 7.29675818330845E-03 
1516	 7.25727287631618E-03 
1517	 7.2755338130376E-03 
1518	 7.33689460255975E-03 
1519	 7.25600504509578E-03 
1520	 7.26549546476392E-03 
1521	 7.39464633369819E-03 
1522	 7.27777519292111E-03 
1523	 7.20761346657859E-03 
1524	 7.47792222714578E-03 
1525	 7.47642368511091E-03 
1526	 7.3482169690054E-03 
1527	 7.4897697427489E-03 
1528	 7.50329116545444E-03 
1529	 7.44971809455358E-03 
1530	 7.57611891995897E-03 
1531	 7.60209576487488E-03 
1532	 7.39111114670851E-03 
1533	 7.41735671838247E-03 
1534	 7.65130354592188E-03 
1535	 7.68326647176884E-03 
1536	 7.6245528909557E-03 
1537	 7.59402801283596E-03 
1538	 7.59329298911124E-03 
1539	 7.43639965343968E-03 
1540	 7.34044915111998E-03 
1541	 7.64119167889139E-03 
1542	 7.72023130553523E-03 
1543	 7.59549028087858E-03 
1544	 7.81969682908258E-03 
1545	 7.99624866402744E-03 
1546	 7.89868816834016E-03 
1547	 7.84424746509743E-03 
1548	 7.82751036551191E-03 
1549	 7.69973730200739E-03 
1550	 7.6309934501446E-03 
1551	 7.58898208581703E-03 
1552	 7.62890399241836E-03 
1553	 7.75112681930196E-03 
1554	 7.59602704922505E-03 
1555	 7.52560344461627E-03 
1556	 7.82043053134034E-03 
1557	 7.9246790748477E-03 
1558	 7.77772602281764E-03 
1559	 7.70108811121001E-03 
1560	 7.62204907630598E-03 
1561	 7.67944773279954E-03 
1562	 7.82593045897664E-03 
1563	 7.90727898347907E-03 
1564	 8.01224776254769E-03 
1565	 7.97835589119981E-03 
1566	 7.76394703900948E-03 
1567	 7.65196374638838E-03 
1568	 7.82874367667423E-03 
1569	 7.84493130103433E-03 
1570	 7.64735224320365E-03 
1571	 7.69622463931283E-03 
1572	 7.7579775071046E-03 
1573	 7.7421473358621E-03 
1574	 7.96553723644878E-03 
1575	 8.1463708631324E-03 
1576	 8.06105286281899E-03 
1577	 7.95292585524549E-03 
1578	 7.80658536880599E-03 
1579	 7.84253073711834E-03 
1580	 7.92377835117329E-03 
1581	 7.83976549213787E-03 
1582	 7.98611412430695E-03 
1583	 8.0768547000707E-03 
1584	 7.91599505548131E-03 
1585	 7.93958137054596E-03 
1586	 8.03298917350318E-03 
1587	 7.84877755655803E-03 
1588	 7.75458237724206E-03 
1589	 7.89443506337693E-03 
1590	 7.88257209723889E-03 
1591	 7.86729140335904E-03 
1592	 7.96431887375428E-03 
1593	 7.94803133375975E-03 
1594	 7.94884813855311E-03 
1595	 7.98057950963185E-03 
1596	 7.99466738756457E-03 
1597	 8.08606735444892E-03 
1598	 8.01487612175805E-03 
1599	 7.88653838841786E-03 
1600	 7.96657843243042E-03 
1601	 7.96175389716529E-03 
1602	 7.8387314569505E-03 
1603	 7.95587959391844E-03 
1604	 8.07050000063308E-03 
1605	 7.97572800768672E-03 
1606	 8.06551885998897E-03 
1607	 8.11288570504063E-03 
1608	 7.82908665220207E-03 
1609	 7.71370348693866E-03 
1610	 7.78202290986442E-03 
1611	 7.8612258613475E-03 
1612	 7.88074875430854E-03 
1613	 7.73837370134778E-03 
1614	 7.7645475189928E-03 
1615	 7.81648959379214E-03 
1616	 7.99386785476901E-03 
1617	 8.34728212999992E-03 
1618	 8.15371697795639E-03 
1619	 7.69846776153789E-03 
1620	 7.73499622837273E-03 
1621	 8.00017302484521E-03 
1622	 8.04803802828365E-03 
1623	 8.10022034057277E-03 
1624	 8.17770723260698E-03 
1625	 8.03912204841748E-03 
1626	 7.97890113833121E-03 
1627	 8.14649579523008E-03 
1628	 8.03976963507106E-03 
1629	 0.007689568683408 
1630	 7.6610963616464E-03 
1631	 7.77351917870275E-03 
1632	 7.79207775433449E-03 
1633	 7.85195642800089E-03 
1634	 7.7501966753073E-03 
1635	 7.55767848683554E-03 
1636	 7.63285866653044E-03 
1637	 7.87047882044272E-03 
1638	 7.95924475623169E-03 
1639	 7.83803390820017E-03 
1640	 7.79513399974779E-03 
1641	 7.71596462774638E-03 
1642	 7.6498097753085E-03 
1643	 8.03033507493725E-03 
1644	 8.06394601987989E-03 
1645	 7.68285824505972E-03 
1646	 7.79635453771138E-03 
1647	 7.86596545445342E-03 
1648	 7.76610126372335E-03 
1649	 7.84386470156714E-03 
1650	 7.79800530244811E-03 
1651	 7.6948044910594E-03 
1652	 7.72940466886911E-03 
1653	 7.89624885007616E-03 
1654	 7.92778705515569E-03 
1655	 7.78585475535187E-03 
1656	 7.86038740201361E-03 
1657	 8.10289677611739E-03 
1658	 8.25531805490159E-03 
1659	 8.41703269880036E-03 
1660	 8.3529913999865E-03 
1661	 8.28395868686314E-03 
1662	 8.12417330864849E-03 
1663	 7.58964247564143E-03 
1664	 7.65869350955859E-03 
1665	 8.02099035282762E-03 
1666	 7.96200186460376E-03 
1667	 8.07609283515492E-03 
1668	 7.82384388470942E-03 
1669	 7.55027443807089E-03 
1670	 7.69694036184154E-03 
1671	 8.01372873764077E-03 
1672	 7.99213064257181E-03 
1673	 7.7775811063173E-03 
1674	 7.80076770670393E-03 
1675	 7.87142323692404E-03 
1676	 7.90684793173685E-03 
1677	 8.06640389165576E-03 
1678	 7.99093522315057E-03 
1679	 7.83085140080648E-03 
1680	 7.9629316521632E-03 
1681	 7.82544848181915E-03 
1682	 7.69635186834879E-03 
1683	 7.89268211494286E-03 
1684	 7.72989089055273E-03 
1685	 7.77856261629543E-03 
1686	 8.16545006534982E-03 
1687	 7.94633711682391E-03 
1688	 7.61471045886723E-03 
1689	 7.64432761187635E-03 
1690	 7.52619829904139E-03 
1691	 7.56518393178457E-03 
1692	 7.89772176547674E-03 
1693	 8.12655952756822E-03 
1694	 8.1613449594872E-03 
1695	 8.02434864378659E-03 
1696	 8.05571474662623E-03 
1697	 8.07470350346402E-03 
1698	 7.93469671647551E-03 
1699	 7.90897772285031E-03 
1700	 7.96382311375449E-03 
1701	 8.16346339002627E-03 
1702	 8.3347884338992E-03 
1703	 8.21900599954759E-03 
1704	 7.81416837342889E-03 
1705	 7.42651158801774E-03 
1706	 7.56856025834272E-03 
1707	 8.04988811652268E-03 
1708	 8.41388013396049E-03 
1709	 8.30217407182157E-03 
1710	 7.87133524712386E-03 
1711	 7.74542985893547E-03 
1712	 7.80962386542479E-03 
1713	 8.06409003737744E-03 
1714	 8.18720556010998E-03 
1715	 7.93657710702241E-03 
1716	 7.78968161348105E-03 
1717	 7.93902479485135E-03 
1718	 7.80690103377681E-03 
1719	 7.4481560025417E-03 
1720	 7.37414377477809E-03 
1721	 7.36455172733245E-03 
1722	 7.40165667963032E-03 
1723	 7.84554591492297E-03 
1724	 7.95342872117121E-03 
1725	 7.44578680119432E-03 
1726	 7.30501287993014E-03 
1727	 7.47116403909438E-03 
1728	 7.36595629392305E-03 
1729	 7.56981248215323E-03 
1730	 7.51218569750369E-03 
1731	 6.58163552374814E-03 
1732	 6.50997377352072E-03 
1733	 7.26464380565354E-03 
1734	 7.67237567916346E-03 
1735	 8.01389192476404E-03 
1736	 7.88491751471695E-03 
1737	 7.36209177581814E-03 
1738	 7.45579604740837E-03 
1739	 7.73281485413338E-03 
1740	 7.6472223630619E-03 
1741	 7.6636398768719E-03 
1742	 7.42137528122385E-03 
1743	 6.79378356966621E-03 
1744	 6.8367672902068E-03 
1745	 7.27358274107022E-03 
1746	 6.97776321984429E-03 
1747	 6.96457691194951E-03 
1748	 6.87436080350153E-03 
1749	 6.83349409394034E-03 
1750	 7.10647928431692E-03 
1751	 7.19465002793765E-03 
1752	 7.56326177737335E-03 
1753	 7.56282116366553E-03 
1754	 6.91714156073022E-03 
1755	 6.67874856800506E-03 
1756	 6.35169122076362E-03 
1757	 6.47983976148928E-03 
1758	 7.05141395944543E-03 
1759	 7.39238409653614E-03 
1760	 7.45456043048598E-03 
1761	 6.95121530397591E-03 
1762	 6.54244961071381E-03 
1763	 7.26123344056443E-03 
1764	 7.09702029390091E-03 
1765	 6.47626595996026E-03 
1766	 7.23461385246814E-03 
1767	 7.09354789402088E-03 
1768	 6.97960317536245E-03 
1769	 7.96549331068981E-03 
1770	 7.57876027894756E-03 
1771	 0.006177609058629 
1772	 5.54204946863282E-03 
1773	 5.93113420850425E-03 
1774	 5.93057683152352E-03 
1775	 6.36741799438283E-03 
1776	 6.62890307069217E-03 
1777	 6.02945031820955E-03 
1778	 5.91551995523008E-03 
1779	 6.23041024002038E-03 
1780	 6.45675741464742E-03 
1781	 7.05238183763188E-03 
1782	 7.29561924292871E-03 
1783	 7.58814806835999E-03 
1784	 7.09419420101611E-03 
1785	 5.38851919285533E-03 
1786	 4.32209315598865E-03 
1787	 2.77641289040556E-03 
1788	 2.58333293306755E-03 
1789	 3.88110944840237E-03 
1790	 6.02951061424285E-03 
1791	 7.15372769667888E-03 
1792	 5.83349588006456E-03 
1793	 3.17542582542278E-03 
1794	 2.93366712131494E-03 
1795	 4.92504572156442E-05 
1796	 2.35436672798283E-03 
1797	 9.26837376227201E-03 
1798	 6.48232020502818E-03 
1799	 9.66781647679774E-03 
1800	 3.32954530595773E-03 
1801	-1.63910294180327E-03 
1802	-5.81251693266733E-03 
1803	-9.86074108220834E-03 
1804	-8.89658688169965E-03 
1805	-9.96780641409922E-03 
1806	-1.41277626318852E-02 
1807	-5.89775302969188E-03 
1808	 3.06074754489196E-02 
1809	 0.025065872898374 
1810	-1.56379457577323E-02 
1811	-0.053720797960277 
1812	-0.216547643139602 
1813	-0.263924377008952 
1814	-9.04672338909089E-02 
1815	-6.04130121076072E-02 
1816	-4.35106733993653E-02 
1817	-0.183194608722284 
1818	-5.38800163330729E-02 
1819	 5.10635996064747E-02 
1820	 0.128198014792384 
1821	-0.251200967484572 
1822	-0.390495021788691 
1823	-0.478935441459088 
1824	-0.405776532285533 
1825	 0.166998333144875 
1826	 0.423931234366096 
1827	 0.935623185626877 
1828	 1.04632961828577 
1829	-0.38746789414232 
1830	-0.549798366418567 
1831	 0.142481151872499 
1832	 3.66238654628665E-02 
1833	-0.149479252441917 
1834	-6.24550034762652E-02 
1835	 0.795545734449724 
1836	 1.04746982699877 
1837	 0.668844131226354 
1838	 0.539817601980212 
1839	 5.84234697362028E-02 
1840	-0.12591895327453 
1841	-0.361190024772947 
1842	-0.422045750873245 
1843	-0.405125511610676 
1844	-0.318530003233888 
1845	 1.11953723134173 
1846	-1.8791266244175 
1847	-2.25672886420404 
1848	 7.63262811768535 
1849	 0.726383884732224 
1850	 0.481029504002778 
1851	 0.548427601974192 
1852	 0.525664066554068 
1853	 5.39037161714262 
1854	-1.60189797138083 
1855	 0.187197619721557 
1856	 0.320711947482729 
1857	 0.11290895653064 
1858	 0.136465887382805 
1859	 0.110172851075119 
1860	 0.260007963204489 
1861	 9.72738251688915 
1862	-0.424266161088514 
1863	-7.02964056312732 
1864	 29.4996164701559 
1865	 7.16945119729403 
1866	-1.56960699447047 
1867	-1.03172771753126 
1868	-1.3191482388853 
1869	-1.13888350073514 
1870	-0.285809665778169 
1871	 3.74442265497962E-02 
1872	-1.06418017345905 
1873	 0.162554430182905 
1874	-0.31571747087677 
1875	 1.13089461168024 
1876	 3.44169909294776 
1877	 3.5374265880817 
1878	 1.96552113075166 
1879	 1.15488676909234 
1880	 0.999456608946308 
1881	 0.731554177160528 
1882	 0.402520528903243 
1883	 0.218249741266721 
1884	 0.57723939555605 
1885	 1.0820283045762 
1886	 0.315771434630671 
1887	 1.73695890521785 
1888	-0.281837779769141 
1889	-0.524161922108879 
1890	-0.663050552764765 
1891	-1.13566438708304 
1892	 1.54626720849123 
1893	 6.41469004472205E-02 
1894	-0.249324653190425 
1895	 0.210764081839688 
1896	 0.185063140137164 
1897	 0.720704272080336 
1898	 1.05590240573597 
1899	 0.296403360561452 
1900	 0.389591611838549 
1901	-2.28911786335313 
1902	-0.866867565722906 
1903	-0.196657604857203 
1904	-3.17544297768907E-02 
1905	-1.00396463724177E-02 
1906	 1.17050624888688 
1907	 5.99593309548176 
1908	 17.0183375044936 
1909	 56.5708336641715 
1910	-3.35059596610548 
1911	-1.04995480518059 
1912	-1.1765326685053 
1913	-1.04823790846271 
1914	-3.90463385566441E-02 
1915	-1.32327665131239E-02 
1916	 1.41025894561986 
1917	 1.73676353729629 
1918	 11.4593426813129 
1919	 13.572505687294 
1920	 6.78008262724059 
1921	 3.24672252314019 
1922	 0.806063126983417 
1923	 0.256481549825446 
1924	 0.175364914573297 
1925	 5.84047503991124E-02 
1926	-1.99258161523799E-02 
1927	-0.14130735318302 
1928	-0.101086288747447 
1929	-0.143847429965619 
1930	-0.283379062100928 
1931	-7.92437125970617E-02 
1932	-0.100717272498991 
1933	-0.020547361179128 
1934	 8.22648830003523E-02 
1935	 0.169530405561846 
1936	 0.112352674644451 
1937	 7.06144133073682E-02 
1938	 0.1707687813217 
1939	 0.17794158097923 
1940	 0.158382139115843 
1941	 0.165296115255745 
1942	 0.130186338155513 
1943	 4.73130999505555E-02 
1944	 0.023978045172405 
1945	 2.32674949740943E-02 
1946	 2.20816253973321E-02 
1947	 1.38331509005358E-02 
1948	 1.13205955101319E-02 
1949	 1.20318721023214E-02 
1950	 1.69271628747605E-03 
1951	 3.1076337680855E-03 
1952	 4.4006333006861E-03 
1953	 1.13957076154254E-03 
1954	-1.11156928624274E-02 
1955	-1.86873011694834E-03 
1956	 3.00969134978488E-03 
1957	-5.22709784624802E-03 
1958	-4.19061538737522E-03 
1959	 4.09810505204827E-03 
1960	 6.59854648585767E-03 
1961	 2.93864735023289E-03 
1962	 2.30967874347154E-03 
1963	 4.34933923076559E-03 
1964	 5.30852260019112E-03 
1965	 7.30298776871632E-03 
1966	 7.9095962886524E-03 
1967	 8.58806120343502E-03 
1968	 5.09124283581419E-03 
1969	 3.31232856049585E-03 
1970	 4.17986792972087E-03 
1971	 4.14453481333541E-03 
1972	 3.23085758438496E-03 
1973	 3.16767379956313E-03 
1974	 3.12572459909887E-03 
1975	 3.13074028124858E-03 
1976	 4.25018683727969E-03 
1977	 3.13571081496271E-03 
1978	 2.14955749198094E-03 
1979	 2.38616469810142E-03 
1980	 3.37596490978169E-03 
1981	 2.8241696676351E-03 
1982	 3.15648937579602E-03 
1983	 3.64188385041527E-03 
1984	 3.18523545878081E-03 
1985	 3.4055899548621E-03 
1986	 3.64797257333966E-03 
1987	 3.79076680212669E-03 
1988	 3.17978442035151E-03 
1989	 2.34928396143341E-03 
1990	 2.58458605833324E-03 
1991	 2.43273701916091E-03 
1992	 3.05697931896972E-03 
1993	 4.54040220128756E-03 
1994	 4.49161986485263E-03 
1995	 3.32581165842642E-03 
1996	 2.56281101263086E-03 
1997	 2.21987773991446E-03 
1998	 9.43352653561199E-04 
1999	 1.23507782921395E-03 
2000	 3.44786211081859E-03 
2001	 3.52120144893886E-03 
2002	 8.60389849730919E-04 
2003	 1.02135555722658E-03 
2004	 1.30222327823301E-03 
2005	-3.74143830950356E-04 
2006	 3.17836508781558E-03 
2007	 7.02656306666736E-03 
2008	 5.86652280832259E-03 
2009	 5.58651905355957E-03 
2010	 4.82194487288706E-03 
2011	 4.42706189498951E-03 
2012	 2.03923727217103E-03 
2013	 4.81758035183739E-03 
2014	 6.83016202675669E-03 
2015	 5.44904181482584E-03 
2016	 5.34192448745123E-03 
2017	 3.34957110358108E-03 
2018	 3.24990051235204E-04 
2019	 1.22371113103973E-03 
2020	 2.80590608240812E-03 
2021	 2.06543536859958E-03 
2022	 1.85410407367554E-03 
2023	 2.43768759047195E-03 
2024	 2.81641680809221E-03 
2025	 2.80216094880615E-03 
2026	 3.06830123244428E-03 
2027	 3.99495224971221E-03 
2028	 4.09367086037316E-03 
2029	 3.30262041963088E-03 
2030	 3.33321533329723E-03 
2031	 3.90435815552223E-03 
2032	 3.65054788755787E-03 
2033	 2.83451159836908E-03 
2034	 2.65160374991185E-03 
2035	 3.25569011763905E-03 
2036	 3.43528275484885E-03 
2037	 3.74009222643819E-03 
2038	 4.10706799945293E-03 
2039	 4.21938364515282E-03 
2040	 3.30377646035664E-03 
2041	 3.20396277172136E-03 
2042	 3.78591770561592E-03 
2043	 3.97021818722438E-03 
2044	 3.98082828346806E-03 
2045	 3.89585697499903E-03 
2046	 4.25236429321399E-03 
2047	 4.28289823352269E-03 
2048	 3.9052070925162E-03 
2049	 4.33638827328518E-03 
2050	 4.24175592869396E-03 
2051	 3.43420671215948E-03 
2052	 3.41236502311703E-03 
2053	 3.13723554374599E-03 
2054	 2.60435621334223E-03 
2055	 3.22016066405638E-03 
2056	 3.63285680638638E-03 
2057	 4.39142271402627E-03 
2058	 4.36753606539465E-03 
2059	 4.42946390441657E-03 
2060	 4.04487455365917E-03 
2061	 2.82700612039425E-03 
2062	 1.55294938954188E-03 
2063	 2.32168634309602E-03 
2064	 2.2162214706171E-03 
2065	 2.20565246229421E-03 
2066	 3.31575181002479E-03 
2067	 3.20079916262584E-03 
2068	 2.85391579707837E-03 
2069	 3.48089701929788E-03 
2070	 4.65187150556263E-03 
2071	 4.84563290808582E-03 
2072	 4.41932521679624E-03 
2073	 4.20863512621084E-03 
2074	 3.24538404645528E-03 
2075	 3.05078989395147E-03 
2076	 3.71157514243922E-03 
2077	 3.55970090349886E-03 
2078	 2.99583393117248E-03 
2079	 3.00908134670821E-03 
2080	 2.9298944632147E-03 
2081	 2.84228908460204E-03 
2082	 3.06655651298213E-03 
2083	 3.49904740395387E-03 
2084	 3.61139704976492E-03 
2085	 3.99851064633917E-03 
2086	 5.04360987209057E-03 
2087	 5.25386464682343E-03 
2088	 4.67256017807296E-03 
2089	 4.72663112979434E-03 
2090	 5.13562737592608E-03 
2091	 5.38899075446992E-03 
2092	 5.41818669543849E-03 
2093	 5.53999084422746E-03 
2094	 5.71059132128679E-03 
2095	 5.56929281211555E-03 
2096	 5.43608413181486E-03 
2097	 6.03600637002488E-03 
2098	 5.66752038850137E-03 
2099	 4.13132994776719E-03 
2100	 3.32412995576485E-03 
2101	 3.73002622952764E-03 
2102	 3.38455889263489E-03 
2103	 3.7229670245131E-03 
2104	 4.9810485247011E-03 
2105	 5.32554453544385E-03 
2106	 5.81887266438867E-03 
2107	 6.07371134592559E-03 
2108	 5.66276210974262E-03 
2109	 5.40597240526646E-03 
2110	 4.96619729087923E-03 
2111	 5.02256829246538E-03 
2112	 5.1700801172374E-03 
2113	 5.04414279440743E-03 
2114	 4.59978273503612E-03 
2115	 4.37939342113941E-03 
2116	 4.21733954633401E-03 
2117	 3.98441975282107E-03 
2118	 3.55519885384518E-03 
2119	 3.54344578407831E-03 
2120	 3.60146609872153E-03 
2121	 3.95375578618068E-03 
2122	 4.5761861854644E-03 
2123	 4.56130763508225E-03 
2124	 4.77076510752432E-03 
2125	 4.74344518032733E-03 
2126	 4.32864688748358E-03 
2127	 4.47008356691018E-03 
2128	 4.19999595101812E-03 
2129	 4.1371897652825E-03 
2130	 4.63484488371598E-03 
2131	 4.7154365056953E-03 
2132	 4.93025060047707E-03 
2133	 4.71063103684075E-03 
2134	 4.73050022283434E-03 
2135	 4.74837718643523E-03 
2136	 4.62334314753104E-03 
2137	 4.70071335162877E-03 
2138	 4.6957744443264E-03 
2139	 3.96990611306672E-03 
2140	 3.96419467205565E-03 
2141	 4.48390787244044E-03 
2142	 4.78688897426542E-03 
2143	 5.05739682218031E-03 
2144	 6.08662752903927E-03 
2145	 6.61091144470289E-03 
2146	 6.48145031152753E-03 
2147	 5.77999052371395E-03 
2148	 5.49723790947989E-03 
2149	 6.21097627980316E-03 
2150	 6.15221134179354E-03 
2151	 6.14250525361689E-03 
2152	 6.60499212118422E-03 
2153	 5.96794603932433E-03 
2154	 5.07504796192192E-03 
2155	 5.07696296304194E-03 
2156	 0.005443947722106 
2157	 6.00827181464439E-03 
2158	 7.46363050467726E-03 
2159	 7.56496971330888E-03 
2160	 7.14062110245009E-03 
2161	 7.03842166189017E-03 
2162	 6.02504515808131E-03 
2163	 5.62992983299737E-03 
2164	 6.29741611864265E-03 
2165	 6.14528481288775E-03 
2166	 5.01885968487394E-03 
2167	 4.7103244279047E-03 
2168	 4.82264801975048E-03 
2169	 4.67728289505409E-03 
2170	 4.17347104818298E-03 
2171	 5.19098136928628E-03 
2172	 5.73997313061862E-03 
2173	 5.42850590797075E-03 
2174	 6.03512746564062E-03 
2175	 5.64073917484118E-03 
2176	 4.60117368809877E-03 
2177	 5.16003305664005E-03 
2178	 5.02763676735263E-03 
2179	 4.64337675635694E-03 
2180	 5.38164277087207E-03 
2181	 4.86695627615179E-03 
2182	 4.12068994151774E-03 
2183	 3.8427129954169E-03 
2184	 3.19871094599681E-03 
2185	 2.87154510162857E-03 
2186	 2.97712935510919E-03 
2187	 4.01353229101582E-03 
2188	 4.53450132656259E-03 
2189	 5.0517023848359E-03 
2190	 5.32865011934972E-03 
2191	 5.24931642261387E-03 
2192	 5.44185277081492E-03 
2193	 6.00221290462092E-03 
2194	 6.19540694943378E-03 
2195	 6.90301117408692E-03 
2196	 6.43959254588447E-03 
2197	 3.67534921576313E-03 
2198	 2.82661005410326E-03 
2199	 2.16740352312814E-03 
2200	 2.69442534134844E-03 
2201	 3.27156005831582E-03 
2202	 3.78138227520176E-03 
2203	 3.74175712793851E-03 
2204	 2.18110647151922E-03 
2205	 5.7902230341701E-04 
2206	 7.22411593483197E-04 
2207	 2.69593207594514E-03 
2208	 4.18382366004974E-03 
2209	 5.11450230829729E-03 
2210	 6.45575283423232E-03 
2211	 5.57993660333824E-03 
2212	 3.78922819474259E-03 
2213	 4.20508227472984E-03 
2214	 4.5189854955457E-03 
2215	 4.85979131793233E-03 
2216	 5.77859710093425E-03 
2217	 5.39081635975753E-03 
2218	 3.61297362161081E-03 
2219	 3.50359048034705E-03 
2220	 2.63565209131833E-03 
2221	 3.23652723135533E-03 
2222	 6.38417119096456E-03 
2223	 7.04871643207809E-03 
2224	 7.51664637768959E-03 
2225	 7.57300983694524E-03 
2226	 5.96432452789426E-03 
2227	 5.08657515369756E-03 
2228	 4.0871972073213E-03 
2229	 3.72782191491175E-03 
2230	 3.39467634350623E-03 
2231	 3.74679008074254E-03 
2232	 5.80451389457667E-03 
2233	 6.19494771868129E-03 
2234	 6.48889740802669E-03 
2235	 5.5454381246542E-03 
2236	 3.16246672531005E-03 
2237	 3.64630000373032E-03 
2238	 5.81004374757098E-03 
2239	 6.91847369965332E-03 
2240	 8.41146426817626E-03 
2241	 7.51068394164449E-03 
2242	 4.0791199438781E-03 
2243	 2.9229689218501E-03 
2244	 4.1304078298449E-03 
2245	 5.44542681194212E-03 
2246	 5.24425603956091E-03 
2247	 5.38115191562849E-03 
2248	 5.94132707043254E-03 
2249	 4.29300441543844E-03 
2250	 4.44193617844191E-03 
2251	 6.29872840794233E-03 
2252	 4.17208075773525E-03 
2253	 2.25760107103122E-03 
2254	 3.27061055022176E-03 
2255	 2.6981660282686E-03 
2256	 2.39830286688066E-03 
2257	 4.00481925638006E-03 
2258	 4.50792581098704E-03 
2259	 2.83542156164873E-03 
2260	 2.41910238230964E-03 
2261	 3.0550248788452E-03 
2262	 3.10574768733207E-03 
2263	 2.33015382820367E-03 
2264	 3.22140033166133E-03 
2265	 5.37046058502803E-03 
2266	 5.69027449269856E-03 
2267	 6.28777680621068E-03 
2268	 6.02188132921995E-03 
2269	 3.58101279538948E-03 
2270	 3.75640632282463E-03 
2271	 5.82197774474923E-03 
2272	 5.0846387670592E-03 
2273	 3.08742735758313E-03 
2274	 2.75975443639608E-03 
2275	 1.69411713980121E-03 
2276	 1.40805017293337E-03 
2277	 4.01773913270648E-03 
2278	 4.62408263928516E-03 
2279	 2.8581543070582E-03 
2280	 2.59959184393026E-03 
2281	 3.00409741183606E-03 
2282	 3.81060387709507E-03 
2283	 4.8947197459902E-03 
2284	 2.77488643771092E-03 
2285	-2.88913977339529E-04 
2286	-2.24437737275551E-03 
2287	-2.90691898793772E-03 
2288	-1.8104191237707E-03 
2289	 1.79967758964993E-03 
2290	 4.47305535956312E-03 
2291	 3.06618000597016E-03 
2292	 2.08823636780733E-03 
2293	 2.70101378758008E-03 
2294	 1.70420082094124E-03 
2295	-7.33062002993915E-04 
2296	-3.59101804985621E-04 
2297	 1.71240019440352E-04 
2298	-1.16767477853709E-03 
2299	 3.63974186527488E-04 
2300	 4.04873559083601E-04 
2301	-1.48714304195229E-03 
2302	 2.1188449153342E-03 
2303	 5.67879222199821E-03 
2304	 5.6909345764411E-03 
2305	 6.46904913107422E-03 
2306	 4.40423855250356E-03 
2307	 1.06618377916711E-03 
2308	 1.1134433101155E-03 
2309	 3.13857870212859E-03 
2310	 3.79948589156162E-03 
2311	 4.25017544460486E-03 
2312	 5.57708681468888E-03 
2313	 5.0607434451662E-03 
2314	 4.11684394272257E-03 
2315	 2.12140478620255E-03 
2316	 2.15144690082675E-03 
2317	 3.29508549965228E-03 
2318	 1.16417777749696E-03 
2319	 8.2299251834489E-04 
2320	 9.76238548051651E-04 
2321	 7.31905533269925E-04 
2322	 1.54547167758703E-03 
2323	 3.09103525530479E-03 
2324	 3.08242595094329E-03 
2325	-4.63666271994775E-04 
2326	 8.51309197062439E-05 
2327	 2.68076879175946E-03 
2328	 2.1024115542469E-03 
2329	 3.99273407842763E-03 
2330	 5.13405963835321E-03 
2331	 5.22166553185781E-03 
2332	 7.91595448833674E-03 
2333	 6.77140674563882E-03 
2334	 2.76089769016818E-03 
2335	-0.002632070873606 
2336	-8.16842087575093E-03 
2337	-1.15346959152851E-02 
2338	-8.83075508437459E-03 
2339	 2.1907922569033E-03 
2340	 4.62224129375359E-03 
2341	 6.21215933367105E-03 
2342	 1.39102149841589E-02 
2343	 1.38213448874645E-02 
2344	 0.017456924151096 
2345	 1.84022398551503E-02 
2346	 1.03236883853794E-02 
2347	 1.11994316456492E-03 
2348	-1.04522042912308E-02 
2349	-0.010691527595632 
2350	-4.19719681865393E-03 
2351	-1.01140377961241E-02 
2352	-1.48979427410224E-02 
2353	-9.90621815975794E-03 
2354	-1.59364055708243E-02 
2355	-1.99829785842066E-02 
2356	-1.46537779533491E-02 
2357	-1.90521218484006E-02 
2358	-1.50557999736636E-02 
2359	-9.43875529597363E-03 
2360	-1.02175441457021E-02 
2361	-2.67363201541371E-03 
2362	-4.93417050781634E-03 
2363	-4.99483847098784E-03 
2364	 5.07055330675547E-03 
2365	 5.4052097545648E-03 
2366	 4.83525164997423E-03 
2367	 4.47570259710937E-03 
2368	 4.13384351307461E-03 
2369	 3.69832050687966E-03 
2370	 6.56698690917851E-03 
2371	 1.65221638837567E-02 
2372	 1.57481086673969E-02 
2373	 1.09483304889048E-02 
2374	 8.13910722974931E-03 
2375	 2.33339672618288E-03 
2376	-8.14081866961992E-03 
2377	-1.60523907207339E-02 
2378	-1.51356681992617E-02 
2379	-0.024987286544317 
2380	-3.30030566314692E-02 
2381	-4.03799470229024E-02 
2382	-4.28346401074601E-02 
2383	-1.74841924656944E-02 
2384	-5.62600686643895E-03 
2385	-6.5444225333052E-03 
2386	-3.35815698608538E-03 
2387	-2.19174271923257E-02 
2388	-1.96168635650648E-02 
2389	 1.31577887243726E-02 
2390	 2.89515230450108E-02 
2391	 2.03674192409705E-02 
2392	 1.67568465992896E-02 
2393	 3.21354571018002E-02 
2394	 2.81100935397029E-02 
2395	 1.59702792594196E-02 
2396	 0.01193566697307 
2397	-1.03755368632548E-02 
2398	-2.98374211019674E-02 
2399	-3.54890861131057E-02 
2400	-3.22559056116082E-02 
2401	-2.78375400921018E-02 
2402	-0.017082134720424 
2403	-1.08945551985389E-02 
2404	-1.06631061097877E-02 
2405	-9.95589729681037E-03 
2406	-5.05943623534715E-02 
2407	-9.42017163115752E-02 
2408	-0.111838854701827 
2409	-0.132349218057937 
2410	-0.123113213459251 
2411	-5.64607110593309E-02 
2412	-2.62701403303236E-03 
2413	 1.94874705781197E-03 
2414	-0.015703356560548 
2415	-7.07053340173937E-02 
2416	-9.36896029774442E-02 
2417	-5.00153624639438E-02 
2418	-4.7985535513388E-03 
2419	 2.87643248519153E-02 
2420	 1.21373077592681E-02 
2421	-3.28460108500382E-02 
2422	-2.49087926641422E-02 
2423	-8.83295000236276E-04 
2424	-5.39340931624921E-04 
2425	-1.58650017881778E-02 
2426	-6.69640902076546E-02 
2427	-9.28608648072816E-02 
2428	-9.29429631479092E-02 
2429	-5.78803562889471E-02 
2430	 1.71449755193042E-03 
2431	-7.29087811628388E-02 
2432	-0.133620318766732 
2433	-0.115747306662834 
2434	-0.135361854348606 
2435	-4.27985977321201E-02 
2436	 2.87033632537109E-03 
2437	-9.56681666254444E-02 
2438	-0.13385776265439 
2439	-0.233352700564653 
2440	-0.132234367476121 
2441	 4.80714047779446E-02 
2442	-8.90349419052106E-03 
2443	-3.13940755768398E-02 
2444	-6.86078766252521E-02 
2445	-0.157361016463091 
2446	-0.111404119086679 
2447	-9.24918015170201E-02 
2448	-0.117064124375861 
2449	-0.18922967968782 
2450	-0.355271353903575 
2451	-0.383767486922575 
2452	-0.142616405982128 
2453	-0.52004170747455 
2454	-0.764415156243865 
2455	-0.506182232727059 
2456	-0.384124363241082 
2457	-0.182416722452654 
2458	-2.99268315856734E-02 
2459	 0.082641321514706 
2460	 5.43590354836298E-03 
2461	-0.226724204073176 
2462	-0.269498208407508 
2463	-0.231547995309574 
2464	-0.152245506908762 
2465	-4.50487167295094E-02 
2466	 2.27138735866085E-02 
2467	 0.138344055722234 
2468	 4.45400966100464E-02 
2469	-5.58260124797805E-02 
2470	-0.163638733528285 
2471	-0.859778316698023 
2472	-3.5237989824929 
2473	-1.54208200690468 
2474	-0.949366912560306 
2475	-0.633860318839005 
2476	-0.655684966712785 
2477	-0.85489712464029 
2478	-2.10736399330393 
2479	-2.66347590945283 
2480	-1.97553793135394 
2481	-2.0319344038918 
2482	-1.02739334041262 
2483	-0.508703614249766 
2484	-0.680468611977513 
2485	-0.658882739102194 
2486	-0.949032924624701 
2487	-1.85087212036797 
2488	-1.25526991148478 
2489	-0.820544143358826 
2490	-0.824084894219606 
2491	-0.500473679126673 
2492	-0.313050998986864 
2493	 0.117889764338708 
2494	 9.61397666387178E-02 
2495	-0.955125612748485 
2496	-5.62153138850184 
2497	-3.73368918384598 
2498	-1.21876201971509 
2499	-1.56341373624055 
2500	-2.65506175937977 
