Wavelength	rt0721algea_nearby_water00002.asd
350	 4.44198037967697E-02 
351	 4.46819800841738E-02 
352	 0.044519605872637 
353	 4.44715422352775E-02 
354	 4.47725093921279E-02 
355	 4.44726561407684E-02 
356	 4.45023583041512E-02 
357	 4.48247442610446E-02 
358	 4.50580228782047E-02 
359	 4.47535989406265E-02 
360	 4.45318637826667E-02 
361	 4.43665413139634E-02 
362	 4.38778358817548E-02 
363	 4.40804045828011E-02 
364	 4.42218108448588E-02 
365	 4.40328175284278E-02 
366	 4.42902578943654E-02 
367	 4.42243149145283E-02 
368	 4.41416892569742E-02 
369	 4.43410026829471E-02 
370	 4.40382758254899E-02 
371	 0.044126181460252 
372	 4.43656024358916E-02 
373	 4.40141338441848E-02 
374	 4.42114367391312E-02 
375	 4.42973342552814E-02 
376	 4.41148693999653E-02 
377	 4.44165032498165E-02 
378	 4.46516144890058E-02 
379	 0.044910834362739 
380	 4.52281295121944E-02 
381	 4.49676856632549E-02 
382	 4.50463446725489E-02 
383	 0.045239918699445 
384	 4.49698915315372E-02 
385	 4.53858148933993E-02 
386	 4.56963784370508E-02 
387	 4.56434605498844E-02 
388	 4.57186149728311E-02 
389	 4.56808933082952E-02 
390	 4.58652079827827E-02 
391	 0.046380877781025 
392	 0.046626147422747 
393	 4.65189149895156E-02 
394	 4.63151230715302E-02 
395	 4.63416958281475E-02 
396	 4.65395241149863E-02 
397	 4.66272246024925E-02 
398	 4.66397347905838E-02 
399	 4.68649449827376E-02 
400	 4.70199916276866E-02 
401	 4.70450141861674E-02 
402	 4.70255653631598E-02 
403	 4.72982597526706E-02 
404	 4.74539751545401E-02 
405	 4.74624001178739E-02 
406	 4.74522822301424E-02 
407	 4.75479768230141E-02 
408	 4.77287732859694E-02 
409	 4.78814807741404E-02 
410	 4.78405186709944E-02 
411	 4.80484196876633E-02 
412	 4.81969766195385E-02 
413	 4.81253790164576E-02 
414	 4.83640928381519E-02 
415	 4.84485767480733E-02 
416	 4.84923559300724E-02 
417	 0.048758666710716 
418	 4.88983885355452E-02 
419	 4.90857850485054E-02 
420	 4.93665730984012E-02 
421	 4.96122614496532E-02 
422	 4.97066992596951E-02 
423	 4.98555341688527E-02 
424	 5.01666159041991E-02 
425	 5.02753600980997E-02 
426	 5.04866600652973E-02 
427	 5.07910340027485E-02 
428	 5.10424976113506E-02 
429	 5.13151304273414E-02 
430	 5.15664669894804E-02 
431	 0.051776752410967 
432	 5.19645003345618E-02 
433	 5.22861849684199E-02 
434	 5.26260161574084E-02 
435	 5.28688718786544E-02 
436	 5.30786016958902E-02 
437	 5.33412114649932E-02 
438	 5.36464016590656E-02 
439	 0.053933530254677 
440	 5.42493324048102E-02 
441	 0.054496774166282 
442	 5.46835192179223E-02 
443	 0.054988096894296 
444	 5.52990059190398E-02 
445	 5.55414666653467E-02 
446	 5.56974307228015E-02 
447	 5.59194752757373E-02 
448	 0.05616613174 
449	 5.63686144541909E-02 
450	 5.64592567476849E-02 
451	 5.65989155949223E-02 
452	 5.67293454231609E-02 
453	 5.68285589149199E-02 
454	 5.70184672671873E-02 
455	 5.72032045163955E-02 
456	 5.72932575720457E-02 
457	 5.72626017092765E-02 
458	 5.73892928076549E-02 
459	 5.74854213781772E-02 
460	 5.75362019238943E-02 
461	 0.057711482328633 
462	 5.78074766283103E-02 
463	 5.78426413013101E-02 
464	 5.78868270192382E-02 
465	 5.80324720236409E-02 
466	 5.80924777948573E-02 
467	 5.81161730231656E-02 
468	 5.82463915448332E-02 
469	 0.058358161113367 
470	 5.84748211175976E-02 
471	 5.85835074366205E-02 
472	 5.86066129156072E-02 
473	 5.86743748326955E-02 
474	 5.88499688938461E-02 
475	 5.90957578860733E-02 
476	 5.90891095264173E-02 
477	 5.91840717886867E-02 
478	 5.94118575198175E-02 
479	 5.95856180173227E-02 
480	 5.98006592931773E-02 
481	 5.99627613341157E-02 
482	 0.060059504797942 
483	 6.02891640010729E-02 
484	 6.05017342099194E-02 
485	 6.07221633878648E-02 
486	 6.10113065240644E-02 
487	 6.12750621175032E-02 
488	 6.15345418554688E-02 
489	 6.18004687177879E-02 
490	 0.06207077689742 
491	 6.24053648947828E-02 
492	 6.27630895971255E-02 
493	 6.30971089052177E-02 
494	 6.34000242555891E-02 
495	 6.37422990503015E-02 
496	 6.41549249828588E-02 
497	 6.46254959545633E-02 
498	 6.49838562986099E-02 
499	 6.53135437169347E-02 
500	 6.57541262144939E-02 
501	 6.64929218007197E-02 
502	 6.70389278989375E-02 
503	 6.74514581661253E-02 
504	 6.79200783049088E-02 
505	 6.84124607114907E-02 
506	 6.89921297951437E-02 
507	 6.96276553431377E-02 
508	 7.02144726588641E-02 
509	 7.07404539821711E-02 
510	 7.13299602971536E-02 
511	 0.072033325225351 
512	 7.26898875820271E-02 
513	 7.33317542089099E-02 
514	 7.40215530203953E-02 
515	 7.48053098187135E-02 
516	 7.54989807355238E-02 
517	 7.62839118274214E-02 
518	 7.71485996107702E-02 
519	 7.78178009355091E-02 
520	 0.078460081310974 
521	 7.91458047918854E-02 
522	 7.99051626873062E-02 
523	 8.07117226134546E-02 
524	 8.14625673646453E-02 
525	 8.21543737707428E-02 
526	 8.28634851158496E-02 
527	 0.083654060495162 
528	 8.43728546956245E-02 
529	 8.49822141346135E-02 
530	 0.085735124997244 
531	 8.64789740935006E-02 
532	 8.71750599686045E-02 
533	 8.78353008926498E-02 
534	 8.85459475837321E-02 
535	 8.91996805316189E-02 
536	 8.98328475241061E-02 
537	 9.06466325914927E-02 
538	 9.13433628477453E-02 
539	 9.19905000456372E-02 
540	 9.26982755470257E-02 
541	 9.34108540194057E-02 
542	 9.41157911829063E-02 
543	 9.48029994313515E-02 
544	 9.54735692470223E-02 
545	 9.61821419365268E-02 
546	 9.68915921791955E-02 
547	 9.75750530342881E-02 
548	 0.098251721438134 
549	 0.098904055584517 
550	 0.099563442146644 
551	 0.100257478114923 
552	 0.100882057070736 
553	 0.10150153759026 
554	 0.102144536332088 
555	 0.10278449608378 
556	 0.103388952942093 
557	 0.103966763209438 
558	 0.104531840603847 
559	 0.105103093150653 
560	 0.105582262159985 
561	 0.106027654072142 
562	 0.106574091692004 
563	 0.107028394975282 
564	 0.107409174299588 
565	 0.107748749163002 
566	 0.108045958002044 
567	 0.108374467657011 
568	 0.108699680862893 
569	 0.108960858300116 
570	 0.109218233171269 
571	 0.109444861211422 
572	 0.109659004853758 
573	 0.10992744721962 
574	 0.110114226453291 
575	 0.110250031659515 
576	 0.110396967757762 
577	 0.110587041145268 
578	 0.110776807353018 
579	 0.110946674006283 
580	 0.11109194988577 
581	 0.111195010317997 
582	 0.111264789406083 
583	 0.111324751133538 
584	 0.111426146462466 
585	 0.111428433788635 
586	 0.11132035775957 
587	 0.111165489207726 
588	 0.11114579773493 
589	 0.111143948157467 
590	 0.111094072442362 
591	 0.111015352895451 
592	 0.1110059332048 
593	 0.110992434518816 
594	 0.110892990849231 
595	 0.110708900413949 
596	 0.110511722123635 
597	 0.110325909016794 
598	 0.110145629786681 
599	 0.109958157464184 
600	 0.109792515569825 
601	 0.109665811215163 
602	 0.109563271791623 
603	 0.109530780771208 
604	 0.10953512975784 
605	 0.109528901870483 
606	 0.109536716779999 
607	 0.109548315358988 
608	 0.10955489027431 
609	 0.109553156055002 
610	 0.10962870925586 
611	 0.109654150946117 
612	 0.10955580105454 
613	 0.109539626108361 
614	 0.109595248546988 
615	 0.10960609450327 
616	 0.109442933217975 
617	 0.10947475789898 
618	 0.109503450460621 
619	 0.109424146604401 
620	 0.109380823120835 
621	 0.109313772658989 
622	 0.109286595591066 
623	 0.109350308222119 
624	 0.109323706143129 
625	 0.10925333496704 
626	 0.109187408902809 
627	 0.109163043020063 
628	 0.10912563993411 
629	 0.109109422685523 
630	 0.109124260597074 
631	 0.109083949259028 
632	 0.108941841786309 
633	 0.108787244040862 
634	 0.108731909471345 
635	 0.108491375525453 
636	 0.108256063452904 
637	 0.10809626385671 
638	 0.107844769727415 
639	 0.107600229521579 
640	 0.107338036335686 
641	 0.107024300454359 
642	 0.106703380637333 
643	 0.106473440120104 
644	 0.106253565788433 
645	 0.105837892714075 
646	 0.105485540290099 
647	 0.105224975668042 
648	 0.105033097788632 
649	 0.104855170007647 
650	 0.10478925074328 
651	 0.104732113873329 
652	 0.104550587289319 
653	 0.10444338436194 
654	 0.104260544957446 
655	 0.1039941966778 
656	 0.103890519131568 
657	 0.103765126269716 
658	 0.103566302508271 
659	 0.103311144120634 
660	 0.103151088174223 
661	 0.102966048487514 
662	 0.102756297066545 
663	 0.102592736677679 
664	 0.102397394319862 
665	 0.102263572303689 
666	 0.102202872656526 
667	 0.102048403944108 
668	 0.101909968053794 
669	 0.101814903084182 
670	 0.101760979381832 
671	 0.101726438594974 
672	 0.101735503677199 
673	 0.101782979671355 
674	 0.101836105825269 
675	 0.101903024576662 
676	 0.101946631596442 
677	 0.101993430902886 
678	 0.102259538231304 
679	 0.102498322821122 
680	 0.102708039036315 
681	 0.103004551567592 
682	 0.103455333505165 
683	 0.103995421024367 
684	 0.104557509217859 
685	 0.105139274106548 
686	 0.105933280228755 
687	 0.106815073176958 
688	 0.107593905605645 
689	 0.108476532881038 
690	 0.109370351660157 
691	 0.110215465102261 
692	 0.110988796997929 
693	 0.11180314795035 
694	 0.112707637447793 
695	 0.113604610346618 
696	 0.114304992434284 
697	 0.114865884289069 
698	 0.115433478568245 
699	 0.116068391855614 
700	 0.116479633369774 
701	 0.116831041764641 
702	 0.117187521084783 
703	 0.117514411813361 
704	 0.117673736328978 
705	 0.117746070156814 
706	 0.117781001058884 
707	 0.117704289045859 
708	 0.117454288194355 
709	 0.117099729852262 
710	 0.116730561461719 
711	 0.116241418018572 
712	 0.115628615068883 
713	 0.114848012714839 
714	 0.113792810484754 
715	 0.112807786490873 
716	 0.111695822686027 
717	 0.110321862377538 
718	 0.109084861648147 
719	 0.107834520410606 
720	 0.106691962679572 
721	 0.105574267141875 
722	 0.10435973022789 
723	 0.102909884420394 
724	 0.101345276538691 
725	 9.97081086417437E-02 
726	 9.80875660446331E-02 
727	 9.62297709129017E-02 
728	 9.40039692337819E-02 
729	 9.17627620967324E-02 
730	 8.94347560034656E-02 
731	 8.71867888903046E-02 
732	 8.51389036034434E-02 
733	 8.34032729203379E-02 
734	 8.18264796161512E-02 
735	 8.03912926100645E-02 
736	 0.079247198302367 
737	 7.84892470468585E-02 
738	 7.79416478629562E-02 
739	 7.74587170081111E-02 
740	 7.71590881511844E-02 
741	 7.69832633922888E-02 
742	 7.68566613501836E-02 
743	 7.67174871859331E-02 
744	 7.66825474433899E-02 
745	 7.66992399971232E-02 
746	 7.67217977647007E-02 
747	 7.67381368401775E-02 
748	 7.66798249285953E-02 
749	 7.66458008223564E-02 
750	 7.67053574830598E-02 
751	 7.66774552463298E-02 
752	 0.076715903961252 
753	 7.67742116146758E-02 
754	 7.67223295756089E-02 
755	 7.67103872544061E-02 
756	 7.67727984474646E-02 
757	 7.68814326591797E-02 
758	 7.69443977079182E-02 
759	 7.71000116882495E-02 
760	 7.73057568669104E-02 
761	 7.73202357043972E-02 
762	 0.077247679439192 
763	 7.71638166643231E-02 
764	 7.72331609845555E-02 
765	 7.75115861098183E-02 
766	 0.077686191786072 
767	 7.78405888181679E-02 
768	 7.80146361526509E-02 
769	 7.81893147574706E-02 
770	 7.83977940307884E-02 
771	 7.86478311735914E-02 
772	 0.078918718196534 
773	 7.91281937224952E-02 
774	 7.93636609479586E-02 
775	 7.96743418452125E-02 
776	 8.00613628781046E-02 
777	 8.03489943816518E-02 
778	 0.080644316881149 
779	 8.10026147087886E-02 
780	 8.14042535917444E-02 
781	 8.18080715185171E-02 
782	 8.22171812274856E-02 
783	 0.082616033268849 
784	 8.29180453486776E-02 
785	 0.083283936832428 
786	 8.36995133526703E-02 
787	 8.41072145463524E-02 
788	 8.45998047243948E-02 
789	 8.51224377630342E-02 
790	 8.56030782021993E-02 
791	 0.085989818327124 
792	 8.64034228464394E-02 
793	 8.69232936334284E-02 
794	 8.74904805976624E-02 
795	 8.78170639217476E-02 
796	 8.83010594460953E-02 
797	 8.87494950883088E-02 
798	 8.89725312965297E-02 
799	 8.93012456814402E-02 
800	 0.089652744378729 
801	 8.99083516318919E-02 
802	 0.090000306867188 
803	 0.090308501230031 
804	 9.06941855046753E-02 
805	 9.09423348211391E-02 
806	 9.08392113312159E-02 
807	 9.07542201966474E-02 
808	 9.06480669066069E-02 
809	 9.04531170692625E-02 
810	 9.02552087315109E-02 
811	 8.99186888061954E-02 
812	 8.94381448292717E-02 
813	 8.89065660115195E-02 
814	 8.85731983856587E-02 
815	 0.088128631205293 
816	 8.75276148950844E-02 
817	 8.69564051526323E-02 
818	 8.62619814789135E-02 
819	 8.54590333549485E-02 
820	 8.46110567446288E-02 
821	 8.38770960170136E-02 
822	 8.24736935358951E-02 
823	 8.08793693710756E-02 
824	 7.95577266824063E-02 
825	 7.79573247517214E-02 
826	 7.59992527286406E-02 
827	 7.37585299921944E-02 
828	 7.15623395975495E-02 
829	 6.96042297495042E-02 
830	 6.77826783984395E-02 
831	 6.60391613640148E-02 
832	 6.44445845659358E-02 
833	 6.33375109382739E-02 
834	 6.24533380009899E-02 
835	 6.15881404392718E-02 
836	 6.07425686225247E-02 
837	 6.02522947018327E-02 
838	 5.98810814330152E-02 
839	 5.94032345261519E-02 
840	 5.89630846403999E-02 
841	 5.84836333398376E-02 
842	 5.80879677958797E-02 
843	 5.78769947816407E-02 
844	 5.75284459215819E-02 
845	 5.70434671216412E-02 
846	 5.65311597182622E-02 
847	 5.61410777414215E-02 
848	 5.57230926983336E-02 
849	 5.54694651544742E-02 
850	 5.53335969209648E-02 
851	 5.49430652187318E-02 
852	 5.45149515650036E-02 
853	 5.41908791549459E-02 
854	 5.39742721523854E-02 
855	 5.35962225765013E-02 
856	 5.33966203019344E-02 
857	 5.31555161645265E-02 
858	 5.26801062341763E-02 
859	 0.052443838494136 
860	 5.21828715699582E-02 
861	 5.18371406989479E-02 
862	 5.14737849000454E-02 
863	 5.12468744795808E-02 
864	 5.09530889697825E-02 
865	 5.05955511625667E-02 
866	 5.03491113703283E-02 
867	 4.98583760874438E-02 
868	 4.93891100444526E-02 
869	 4.90875144072252E-02 
870	 4.88392056503943E-02 
871	 4.87627343126272E-02 
872	 0.048383604381784 
873	 4.75580541868881E-02 
874	 4.71260470161252E-02 
875	 4.67753898031013E-02 
876	 4.63370374376305E-02 
877	 4.57779533960018E-02 
878	 4.54198961553864E-02 
879	 4.50733491526795E-02 
880	 4.46244599884539E-02 
881	 4.40446887220855E-02 
882	 4.34852880002193E-02 
883	 4.30511004337112E-02 
884	 4.27417932739277E-02 
885	 4.24451914294771E-02 
886	 4.18380778900386E-02 
887	 0.041280018737764 
888	 4.09338178514102E-02 
889	 4.06394532272906E-02 
890	 0.040261279865517 
891	 3.99516856480843E-02 
892	 3.97120443989862E-02 
893	 0.039159128124236 
894	 3.84849762572476E-02 
895	 0.038119621554863 
896	 3.81792310537649E-02 
897	 0.037567334133816 
898	 0.037122608216684 
899	 3.67930891790864E-02 
900	 3.63553535992555E-02 
901	 3.62312650952102E-02 
902	 3.56451743849253E-02 
903	 3.49513126865815E-02 
904	 3.47598375468654E-02 
905	 3.46830349025892E-02 
906	 0.034369534747136 
907	 3.39099595617433E-02 
908	 3.35869705936017E-02 
909	 3.22817850362464E-02 
910	 3.16786110557977E-02 
911	 3.19460475431941E-02 
912	 3.16776780948897E-02 
913	 3.06578675024145E-02 
914	 2.98956438095949E-02 
915	 2.94679326924639E-02 
916	 2.83422364336793E-02 
917	 2.77132475608232E-02 
918	 2.70340259392238E-02 
919	 2.61388298248365E-02 
920	 2.56571281816419E-02 
921	 2.52694816891696E-02 
922	 2.45971540800103E-02 
923	 2.36309683727739E-02 
924	 2.31684070841056E-02 
925	 2.22298140136599E-02 
926	 2.15682360513297E-02 
927	 0.021788294261244 
928	 2.07155102075845E-02 
929	 2.02976836971478E-02 
930	 1.99260985851219E-02 
931	 1.82886910291746E-02 
932	 0.020613179577151 
933	 1.98304046700449E-02 
934	 1.83380179520115E-02 
935	 2.09744126087831E-02 
936	 0.016803854634233 
937	 1.65940265126503E-02 
938	 1.82398660744635E-02 
939	 1.70713764679678E-02 
940	 1.46399515876674E-02 
941	 1.52827113765845E-02 
942	 1.68066518155734E-02 
943	 1.50870574719591E-02 
944	 1.63081833906617E-02 
945	 0.018296244240322 
946	 1.73973749051466E-02 
947	 1.24011426874286E-02 
948	 1.67766063930988E-02 
949	 0.017161915982895 
950	 1.32812647681451E-02 
951	 1.30200721551067E-02 
952	 1.40818709740456E-02 
953	 1.43396152256519E-02 
954	 0.014083282378622 
955	 1.49021827047568E-02 
956	 1.54890396911285E-02 
957	 1.41168074406882E-02 
958	 1.25774374288569E-02 
959	 1.38455128908723E-02 
960	 1.20538974575939E-02 
961	 1.25278268936957E-02 
962	 1.46001076652754E-02 
963	 1.37285565244177E-02 
964	 1.29552440279397E-02 
965	 1.26829141785028E-02 
966	 1.23312640887396E-02 
967	 1.11446354458735E-02 
968	 1.10049611549057E-02 
969	 1.16719342073978E-02 
970	 0.012287186147304 
971	 1.20044270254118E-02 
972	 1.30729236051111E-02 
973	 1.32256890270456E-02 
974	 1.21128296463061E-02 
975	 1.17210247621315E-02 
976	 1.26837995154752E-02 
977	 1.28971522161724E-02 
978	 1.23837600746618E-02 
979	 0.012885303574672 
980	 1.21218462500911E-02 
981	 1.20908512879382E-02 
982	 1.23513361200445E-02 
983	 1.09753709559462E-02 
984	 1.26879515615882E-02 
985	 1.38324819566538E-02 
986	 1.31986363315906E-02 
987	 1.23660359207875E-02 
988	 1.31315979563703E-02 
989	 1.20880137749341E-02 
990	 1.04480938379314E-02 
991	 1.21177121359259E-02 
992	 1.20864447820962E-02 
993	 1.22900797840147E-02 
994	 1.28646431516064E-02 
995	 1.26037681197153E-02 
996	 1.26847597005529E-02 
997	 1.21249612000356E-02 
998	 1.16732709475854E-02 
999	 1.24274803194913E-02 
1000	 0.010729382883747 
1001	 1.31078787077518E-02 
1002	 1.29476954812744E-02 
1003	 1.29778918690119E-02 
1004	 1.31347879438404E-02 
1005	 1.31181797811035E-02 
1006	 1.30529840201295E-02 
1007	 1.30833449681334E-02 
1008	 0.012854930445171 
1009	 1.26103149820843E-02 
1010	 1.24155594449671E-02 
1011	 1.20642452428889E-02 
1012	 0.01185045688929 
1013	 1.17441655827712E-02 
1014	 1.17724843408579E-02 
1015	 1.20393029807051E-02 
1016	 1.21554443298877E-02 
1017	 1.23646090195582E-02 
1018	 1.24753664049071E-02 
1019	 1.24903304965029E-02 
1020	 0.012394732823117 
1021	 1.22720989121224E-02 
1022	 1.20721877271031E-02 
1023	 1.16473113360522E-02 
1024	 1.15950422423692E-02 
1025	 1.17787423991032E-02 
1026	 1.18584466597564E-02 
1027	 1.19383986702451E-02 
1028	 1.20315051773709E-02 
1029	 1.22663736108687E-02 
1030	 1.25666690299547E-02 
1031	 1.28124132329788E-02 
1032	 1.33331624800143E-02 
1033	 1.34485852054949E-02 
1034	 1.32592217447745E-02 
1035	 1.31631784322117E-02 
1036	 1.28523476383651E-02 
1037	 0.012713827450648 
1038	 1.26931534418545E-02 
1039	 1.25550509151146E-02 
1040	 1.27041920208719E-02 
1041	 1.29066498749096E-02 
1042	 1.30284702438433E-02 
1043	 1.32349734704232E-02 
1044	 1.33695359158843E-02 
1045	 1.33473992843078E-02 
1046	 1.35255845470901E-02 
1047	 1.39355168820942E-02 
1048	 1.40665749870909E-02 
1049	 1.40697735535534E-02 
1050	 1.41783018158449E-02 
1051	 1.41862308049422E-02 
1052	 1.42283179273181E-02 
1053	 0.014465980604291 
1054	 1.45470862563744E-02 
1055	 1.42830818439375E-02 
1056	 1.43455883227719E-02 
1057	 1.45277853929524E-02 
1058	 1.48921935775461E-02 
1059	 1.49777345195768E-02 
1060	 1.52113568729104E-02 
1061	 1.52029094985599E-02 
1062	 1.47301354574908E-02 
1063	 1.46981583967342E-02 
1064	 1.48428206438899E-02 
1065	 1.49621166962912E-02 
1066	 0.015337547702019 
1067	 1.54475609586999E-02 
1068	 1.54479245614376E-02 
1069	 1.54241312524609E-02 
1070	 1.51959305916587E-02 
1071	 1.50823139251735E-02 
1072	 1.50569618198386E-02 
1073	 0.0149168161661 
1074	 1.49022371285784E-02 
1075	 1.49810823887764E-02 
1076	 1.49531573256912E-02 
1077	 1.49664131749168E-02 
1078	 1.48791830380987E-02 
1079	 1.46746346366344E-02 
1080	 1.45130842463057E-02 
1081	 1.43381001537301E-02 
1082	 1.41355988480418E-02 
1083	 1.38165953402245E-02 
1084	 1.37085127626988E-02 
1085	 1.37716799205886E-02 
1086	 1.36787832294689E-02 
1087	 1.34207896554393E-02 
1088	 1.34615646934134E-02 
1089	 0.013630679799277 
1090	 1.38768103937986E-02 
1091	 1.38505482679981E-02 
1092	 1.40492958486576E-02 
1093	 1.39391403151945E-02 
1094	 1.32271322834769E-02 
1095	 1.29728203111872E-02 
1096	 0.013030254576329 
1097	 1.29356375890768E-02 
1098	 1.28353841136028E-02 
1099	 1.25874076686075E-02 
1100	 1.20281664674383E-02 
1101	 0.011848200300684 
1102	 1.19581291068161E-02 
1103	 1.19489639786262E-02 
1104	 1.24465790993682E-02 
1105	 1.21675882473293E-02 
1106	 0.012024471368434 
1107	 1.18156526449788E-02 
1108	 1.12257217557912E-02 
1109	 1.15587505690766E-02 
1110	 1.15321002032089E-02 
1111	 0.011166011531456 
1112	 1.09253777564639E-02 
1113	 1.10127124889179E-02 
1114	 1.08628178805694E-02 
1115	 1.04105846916089E-02 
1116	 1.05170937949874E-02 
1117	 1.11593789581505E-02 
1118	 1.08185710599972E-02 
1119	 9.89867634557464E-03 
1120	 9.75937667590768E-03 
1121	 8.5332671387635E-03 
1122	 9.34938034733127E-03 
1123	 0.012311724973068 
1124	 1.19736229351064E-02 
1125	 1.07727531300056E-02 
1126	 9.77413196672895E-03 
1127	 9.70288413701778E-03 
1128	 1.18001140278272E-02 
1129	 1.10579764825119E-02 
1130	 7.64645907864195E-03 
1131	 8.55599740334375E-03 
1132	 1.11034466062356E-02 
1133	 0.011176056995719 
1134	 0.012671726791274 
1135	 1.30763208939528E-02 
1136	 1.00021706437088E-02 
1137	 9.96663461907437E-03 
1138	 0.012008063568124 
1139	 1.34232073340586E-02 
1140	 1.25267884816274E-02 
1141	 1.13607707647071E-02 
1142	 8.17645951489161E-03 
1143	 7.0666869858143E-03 
1144	 9.57258174831428E-03 
1145	 1.17407452141593E-02 
1146	 1.25252500390415E-02 
1147	 1.10571728386085E-02 
1148	 9.34172213945091E-03 
1149	 9.30758794783099E-03 
1150	 8.72539204940407E-03 
1151	 8.33193258997423E-03 
1152	 8.73711202536518E-03 
1153	 9.82873290724735E-03 
1154	 9.70971835810597E-03 
1155	 9.35028456031741E-03 
1156	 9.75401038965771E-03 
1157	 1.03593735539817E-02 
1158	 9.92382967099428E-03 
1159	 9.99397854612999E-03 
1160	 1.08799470957417E-02 
1161	 1.06368902232905E-02 
1162	 9.76171417213516E-03 
1163	 9.80444279392247E-03 
1164	 0.010216351202926 
1165	 1.01250880222374E-02 
1166	 1.01618360617091E-02 
1167	 1.01967504986555E-02 
1168	 9.78180910311598E-03 
1169	 0.009945347716672 
1170	 1.02947935625801E-02 
1171	 1.01767951921427E-02 
1172	 9.61131503843297E-03 
1173	 9.58649532432045E-03 
1174	 9.54146008448523E-03 
1175	 9.52991805902456E-03 
1176	 9.88641399650171E-03 
1177	 1.00720876186732E-02 
1178	 9.84051195816598E-03 
1179	 9.83647161269423E-03 
1180	 9.79520404663127E-03 
1181	 9.8642235209551E-03 
1182	 1.02810865336548E-02 
1183	 1.00378500103082E-02 
1184	 9.55857935124431E-03 
1185	 9.76342166330385E-03 
1186	 9.94377578501836E-03 
1187	 9.85774272438563E-03 
1188	 1.00175373166488E-02 
1189	 1.00575403127563E-02 
1190	 9.67937673717853E-03 
1191	 9.53017032202299E-03 
1192	 9.53540106594186E-03 
1193	 9.76907231611181E-03 
1194	 9.77173708836277E-03 
1195	 9.74608050671375E-03 
1196	 9.73135161944662E-03 
1197	 9.76554463691163E-03 
1198	 9.84247637209232E-03 
1199	 9.74130942065436E-03 
1200	 9.76453445631396E-03 
1201	 9.88335377794154E-03 
1202	 9.88452001606417E-03 
1203	 1.01080100874636E-02 
1204	 1.01602427478307E-02 
1205	 9.95149765868637E-03 
1206	 9.88141602433073E-03 
1207	 9.67535207982654E-03 
1208	 9.70146111675755E-03 
1209	 1.01507802718187E-02 
1210	 1.01631802490434E-02 
1211	 9.91480646973447E-03 
1212	 9.97347280708301E-03 
1213	 9.92228931310712E-03 
1214	 9.82117762202668E-03 
1215	 9.68679761488278E-03 
1216	 9.84171371068674E-03 
1217	 9.96641312747746E-03 
1218	 1.00162613437535E-02 
1219	 9.9620291111427E-03 
1220	 9.92234593583769E-03 
1221	 9.9959386719556E-03 
1222	 9.85250247178957E-03 
1223	 9.79628022777296E-03 
1224	 1.00552078879321E-02 
1225	 1.01143477597547E-02 
1226	 1.00300189249776E-02 
1227	 9.9359684923147E-03 
1228	 9.89860379312591E-03 
1229	 9.93910175092359E-03 
1230	 9.79655542210006E-03 
1231	 9.85065807388362E-03 
1232	 1.00577464848354E-02 
1233	 9.85804915547997E-03 
1234	 9.82620815057186E-03 
1235	 9.89402356471228E-03 
1236	 9.96918272209719E-03 
1237	 9.88718011101403E-03 
1238	 9.79277842887525E-03 
1239	 1.00130585364234E-02 
1240	 1.00531840577938E-02 
1241	 1.00453955964002E-02 
1242	 1.00648346796259E-02 
1243	 9.99895599370374E-03 
1244	 9.81620272780774E-03 
1245	 9.79719642436806E-03 
1246	 9.98661271625369E-03 
1247	 9.9982769080602E-03 
1248	 9.94971042510155E-03 
1249	 9.94745840762442E-03 
1250	 9.85510750283791E-03 
1251	 9.79403415936787E-03 
1252	 9.7773901601506E-03 
1253	 9.73084366807703E-03 
1254	 9.73755281688613E-03 
1255	 9.78800438764125E-03 
1256	 9.80076275730783E-03 
1257	 9.67249596878645E-03 
1258	 9.69273978278983E-03 
1259	 9.84761283364829E-03 
1260	 9.89472293830264E-03 
1261	 1.00081984814599E-02 
1262	 9.99131729006072E-03 
1263	 9.89152264432979E-03 
1264	 9.6376101711937E-03 
1265	 9.53129096833242E-03 
1266	 9.54904123794297E-03 
1267	 9.50060252186454E-03 
1268	 9.53326750184478E-03 
1269	 9.75969103552881E-03 
1270	 9.82121274930462E-03 
1271	 9.51885045861334E-03 
1272	 9.51082194416034E-03 
1273	 9.58243239773361E-03 
1274	 9.21229384028031E-03 
1275	 9.26799156636564E-03 
1276	 9.72641664121794E-03 
1277	 9.76079977218871E-03 
1278	 9.57395753405776E-03 
1279	 9.46231415737779E-03 
1280	 9.46071781762332E-03 
1281	 9.46390132813119E-03 
1282	 9.54251704505204E-03 
1283	 9.60807622017955E-03 
1284	 9.74162517424358E-03 
1285	 9.7101474792146E-03 
1286	 9.64291973187798E-03 
1287	 9.59389947713636E-03 
1288	 9.26658115324276E-03 
1289	 9.2639752185464E-03 
1290	 9.47950834333107E-03 
1291	 9.66821550767697E-03 
1292	 9.54634286651815E-03 
1293	 9.6485650045269E-03 
1294	 9.84743460460635E-03 
1295	 9.78937272099602E-03 
1296	 9.66066695387584E-03 
1297	 9.61199242489062E-03 
1298	 9.52460620145006E-03 
1299	 9.32261371380711E-03 
1300	 9.34635432621862E-03 
1301	 9.61634757381291E-03 
1302	 9.43627899595299E-03 
1303	 8.99381753287632E-03 
1304	 9.18892944299539E-03 
1305	 9.43310520124352E-03 
1306	 9.42434652408282E-03 
1307	 9.35349210247951E-03 
1308	 9.38745211133607E-03 
1309	 9.17400746174698E-03 
1310	 9.15200447171472E-03 
1311	 9.46661411399179E-03 
1312	 9.3965724526001E-03 
1313	 9.01752872482762E-03 
1314	 8.96924525039477E-03 
1315	 8.96591431350822E-03 
1316	 9.0062607695284E-03 
1317	 9.16460551832529E-03 
1318	 9.33053785210896E-03 
1319	 9.68437171842817E-03 
1320	 9.71505576310515E-03 
1321	 9.41230334760735E-03 
1322	 9.82714544969613E-03 
1323	 9.72313662711924E-03 
1324	 8.93877275647662E-03 
1325	 0.009036097710958 
1326	 9.17977369333118E-03 
1327	 9.04665586242038E-03 
1328	 9.29209981484486E-03 
1329	 9.70367987422108E-03 
1330	 9.68838183334099E-03 
1331	 9.02133576340204E-03 
1332	 8.69353987304564E-03 
1333	 8.85206000742512E-03 
1334	 8.7261072989749E-03 
1335	 8.65472455195489E-03 
1336	 9.57803039236721E-03 
1337	 9.73900193739571E-03 
1338	 8.87531771415005E-03 
1339	 8.55071516897392E-03 
1340	 8.60758420266238E-03 
1341	 8.44632547021772E-03 
1342	 7.79710083620329E-03 
1343	 7.55189934726209E-03 
1344	 8.11475421682929E-03 
1345	 8.0144253677041E-03 
1346	 7.01358126203294E-03 
1347	 6.99550082083207E-03 
1348	 7.54001140614693E-03 
1349	 7.35816324968845E-03 
1350	 8.18306520953183E-03 
1351	 0.010052320262682 
1352	 1.33874859447646E-02 
1353	 1.39049277588088E-02 
1354	 8.70497529801994E-03 
1355	 9.17292770256339E-03 
1356	 9.00059880811195E-03 
1357	-2.39085171415721E-02 
1358	-5.19507602595532E-02 
1359	-6.73685135265552E-02 
1360	-5.06417241655439E-02 
1361	 8.36130153115844E-03 
1362	 3.61646073747812E-02 
1363	 6.17980305709054E-02 
1364	 5.22041629402424E-02 
1365	 2.15120496183188E-02 
1366	 0.102761842873044 
1367	 0.157472875054686 
1368	 0.177255686738177 
1369	 0.146811195762617 
1370	 0.121030437210457 
1371	 1.03366475866974E-02 
1372	 2.57671904901253E-02 
1373	 0.178783598369164 
1374	 0.142984894423269 
1375	 1.06402315176656E-02 
1376	 6.16743638552487E-02 
1377	 0.183660151914752 
1378	 0.175109491750634 
1379	 0.271467171171808 
1380	 0.318138571735161 
1381	 7.12791421507269E-02 
1382	 2.27985842965326E-02 
1383	 0.230936631438693 
1384	 0.353784045930952 
1385	 0.350167867053342 
1386	 0.402663614398948 
1387	 0.405046096212668 
1388	 0.378566555049936 
1389	 0.337520241515451 
1390	 0.358202730696656 
1391	 0.491192950168014 
1392	 0.419321445333943 
1393	 7.46992369990091E-02 
1394	-2.88638068117216E-02 
1395	 3.36689347006978E-02 
1396	-3.88684968327614E-02 
1397	-0.106017348415222 
1398	 9.05285043699568E-02 
1399	 0.137553682814803 
1400	-3.68311668136442E-02 
1401	 0.098018897431005 
1402	 0.314881586606272 
1403	 0.23738598295906 
1404	 0.330536530970534 
1405	 0.34760802614644 
1406	 0.493755517345409 
1407	 0.409733002683749 
1408	 0.208259968840945 
1409	 0.122445310826386 
1410	 2.53903632392014E-02 
1411	-0.016257328777258 
1412	-1.26018803954741E-02 
1413	-3.39118494026837E-02 
1414	-8.12979687632034E-02 
1415	-5.86349347782504E-02 
1416	 8.80546076101021E-03 
1417	-3.04498216116622E-03 
1418	-2.53151703789511E-02 
1419	-8.44448960153199E-03 
1420	-7.02568708850918E-03 
1421	-1.08783420375089E-02 
1422	-1.27851910485882E-03 
1423	 1.33355276687929E-02 
1424	 2.40728852338924E-02 
1425	 1.76881124000771E-02 
1426	 1.23936908539769E-02 
1427	 1.63871490664188E-02 
1428	 9.38203600295392E-03 
1429	 7.85840568103996E-03 
1430	 2.52843700978061E-02 
1431	 2.81033253840342E-02 
1432	 1.56254759659524E-02 
1433	 1.27386795417286E-02 
1434	 0.013146355979955 
1435	 1.22888290417178E-02 
1436	 0.016380909873122 
1437	 1.18622364093827E-02 
1438	 6.17462014647185E-03 
1439	 8.76430405915786E-03 
1440	 1.59037755131354E-02 
1441	 1.89996192977219E-02 
1442	 1.45063539268347E-02 
1443	 1.39160781732775E-02 
1444	 1.26720432269371E-02 
1445	 9.67940313067967E-03 
1446	 8.66265105123838E-03 
1447	 5.86411329118089E-03 
1448	 5.51049756025739E-03 
1449	 8.46434840363427E-03 
1450	 9.24641993719565E-03 
1451	 8.1276579474371E-03 
1452	 7.03678377191091E-03 
1453	 7.57154165678659E-03 
1454	 7.60705365998534E-03 
1455	 9.24300004942945E-03 
1456	 9.86276310198096E-03 
1457	 9.67154194491089E-03 
1458	 9.04873682254984E-03 
1459	 8.55885228590825E-03 
1460	 8.61840847729603E-03 
1461	 8.06701379295859E-03 
1462	 7.63692250235596E-03 
1463	 8.17078382710279E-03 
1464	 8.20376323174676E-03 
1465	 6.99556088176472E-03 
1466	 6.90706354247332E-03 
1467	 8.60377859034646E-03 
1468	 0.00839668909201 
1469	 6.86739812233489E-03 
1470	 6.1559460768518E-03 
1471	 4.13969344131367E-03 
1472	 4.37308665497989E-03 
1473	 7.26921692787536E-03 
1474	 7.76209595657265E-03 
1475	 7.5903342285073E-03 
1476	 7.80607455074707E-03 
1477	 0.007662765279795 
1478	 7.1027040089452E-03 
1479	 6.12896993201952E-03 
1480	 6.58149560913937E-03 
1481	 7.07470824131621E-03 
1482	 7.23848403669731E-03 
1483	 8.93681017171239E-03 
1484	 9.15677405649149E-03 
1485	 7.67028235187675E-03 
1486	 7.49230819139312E-03 
1487	 7.88905387688985E-03 
1488	 7.82885981721614E-03 
1489	 7.8283606473607E-03 
1490	 7.90109017416696E-03 
1491	 7.77454152740131E-03 
1492	 7.6655968275849E-03 
1493	 7.7682525496501E-03 
1494	 7.78641984441831E-03 
1495	 7.63074972719873E-03 
1496	 7.56787883576719E-03 
1497	 7.53795823598671E-03 
1498	 7.55906871460159E-03 
1499	 7.79441850969467E-03 
1500	 7.72695913905102E-03 
1501	 7.25403953013942E-03 
1502	 7.2447705806448E-03 
1503	 7.48647687733009E-03 
1504	 7.48735710587589E-03 
1505	 7.67384536750518E-03 
1506	 0.007709453441446 
1507	 7.71575278252597E-03 
1508	 7.71723177252926E-03 
1509	 7.6764189128376E-03 
1510	 7.81932023224755E-03 
1511	 7.66894447976519E-03 
1512	 7.41186631664286E-03 
1513	 7.52721216882446E-03 
1514	 7.58830808198595E-03 
1515	 7.54471288084917E-03 
1516	 0.007613638501224 
1517	 7.71023703789856E-03 
1518	 7.66951695108528E-03 
1519	 7.61463960804887E-03 
1520	 7.68061495376881E-03 
1521	 7.83377781327489E-03 
1522	 7.95603432136596E-03 
1523	 7.92680890861385E-03 
1524	 7.83682264603495E-03 
1525	 7.66674612845158E-03 
1526	 7.57622196492833E-03 
1527	 7.8194719590822E-03 
1528	 7.99329701782135E-03 
1529	 7.82186711703148E-03 
1530	 7.78480951847643E-03 
1531	 7.98203021471955E-03 
1532	 7.97228414891156E-03 
1533	 7.86207712688646E-03 
1534	 7.94881455347493E-03 
1535	 7.97915705997499E-03 
1536	 7.89140745108462E-03 
1537	 7.96254606012722E-03 
1538	 8.07459427502654E-03 
1539	 8.1250039316888E-03 
1540	 8.02847553543595E-03 
1541	 7.8233127304646E-03 
1542	 7.83564051547566E-03 
1543	 7.7401888645419E-03 
1544	 7.55671551079962E-03 
1545	 7.76521268637445E-03 
1546	 7.99884300407564E-03 
1547	 7.97347576720339E-03 
1548	 7.96882214017306E-03 
1549	 8.09069656609828E-03 
1550	 8.02034616493573E-03 
1551	 7.79405869074771E-03 
1552	 7.81919427166141E-03 
1553	 7.75032915916219E-03 
1554	 7.54193477949973E-03 
1555	 7.67268613582013E-03 
1556	 7.79596268864721E-03 
1557	 7.85534784276631E-03 
1558	 8.01394334931025E-03 
1559	 7.91347299905643E-03 
1560	 7.75170928301732E-03 
1561	 7.82386425951292E-03 
1562	 7.92156413118305E-03 
1563	 7.95337938583528E-03 
1564	 7.93519227792336E-03 
1565	 7.88706070266147E-03 
1566	 7.87819758975404E-03 
1567	 7.89372407916537E-03 
1568	 7.92765133741106E-03 
1569	 7.87962962585351E-03 
1570	 7.73534440543231E-03 
1571	 7.75877248941968E-03 
1572	 7.98550899526218E-03 
1573	 8.08923237039149E-03 
1574	 7.76895593918183E-03 
1575	 7.36372965034922E-03 
1576	 7.27755299955913E-03 
1577	 7.30096145129153E-03 
1578	 7.38482571669018E-03 
1579	 7.59872848143636E-03 
1580	 7.70099577513132E-03 
1581	 7.54145637988391E-03 
1582	 7.45564709296543E-03 
1583	 7.58256470400006E-03 
1584	 7.55698698345171E-03 
1585	 7.63867019002813E-03 
1586	 7.92017071080034E-03 
1587	 7.86076691863845E-03 
1588	 7.82003922739047E-03 
1589	 7.96137207594091E-03 
1590	 7.92375811019738E-03 
1591	 7.86830302992237E-03 
1592	 7.81369382014092E-03 
1593	 7.71950977498721E-03 
1594	 7.67763456632049E-03 
1595	 7.75620605094418E-03 
1596	 7.79333465736557E-03 
1597	 7.56439816575163E-03 
1598	 7.43039469787138E-03 
1599	 7.49446410904865E-03 
1600	 7.44657196428081E-03 
1601	 7.47568969256192E-03 
1602	 7.65546194167528E-03 
1603	 7.65258897469625E-03 
1604	 7.52906186477494E-03 
1605	 7.65229035537126E-03 
1606	 7.73199950727167E-03 
1607	 7.50778675953583E-03 
1608	 7.49312408234035E-03 
1609	 7.59326946661383E-03 
1610	 7.46993714280818E-03 
1611	 7.37707968973613E-03 
1612	 7.39777632703662E-03 
1613	 7.52241588116684E-03 
1614	 7.63323673986146E-03 
1615	 7.57634117827695E-03 
1616	 7.47529243863753E-03 
1617	 7.32669053539067E-03 
1618	 7.23243257094981E-03 
1619	 7.36876880116554E-03 
1620	 7.45216555150163E-03 
1621	 7.48705135346551E-03 
1622	 7.52609136641452E-03 
1623	 7.38447544859998E-03 
1624	 7.42049818390929E-03 
1625	 7.52851762365435E-03 
1626	 7.38197213818645E-03 
1627	 7.46778936411027E-03 
1628	 7.76037302295404E-03 
1629	 7.63154269620296E-03 
1630	 7.29684447028285E-03 
1631	 7.22104828271583E-03 
1632	 7.17803065095635E-03 
1633	 7.17693731536437E-03 
1634	 7.5232189481942E-03 
1635	 7.78873321041046E-03 
1636	 7.58315050323849E-03 
1637	 7.59630208849207E-03 
1638	 7.77236325279891E-03 
1639	 7.38828681348591E-03 
1640	 7.25449165071469E-03 
1641	 7.60909570324841E-03 
1642	 7.5870540775243E-03 
1643	 7.47779693019422E-03 
1644	 7.58292830368553E-03 
1645	 7.53670838472641E-03 
1646	 7.3865984967698E-03 
1647	 7.50493199597642E-03 
1648	 7.77943756574183E-03 
1649	 7.66378954758693E-03 
1650	 7.43264506097666E-03 
1651	 7.50354144642086E-03 
1652	 7.53301610557253E-03 
1653	 7.8448409193682E-03 
1654	 7.87371010435084E-03 
1655	 7.62373629838326E-03 
1656	 7.57924643982916E-03 
1657	 7.43769767374138E-03 
1658	 7.39512377262841E-03 
1659	 7.66022088754363E-03 
1660	 7.64495294554977E-03 
1661	 7.37585552778149E-03 
1662	 7.36259831888614E-03 
1663	 7.46636024252066E-03 
1664	 7.48285977193894E-03 
1665	 7.52499033653722E-03 
1666	 7.54736662684265E-03 
1667	 7.49479074139579E-03 
1668	 7.47566899028846E-03 
1669	 7.47344297484322E-03 
1670	 7.47833110205742E-03 
1671	 7.45681774639608E-03 
1672	 7.50421219882648E-03 
1673	 7.53432751173805E-03 
1674	 7.56257330506663E-03 
1675	 7.48833274170245E-03 
1676	 7.19654005251473E-03 
1677	 7.28891078117946E-03 
1678	 7.67503788181444E-03 
1679	 7.61522189817247E-03 
1680	 7.71948652651205E-03 
1681	 7.91333846884329E-03 
1682	 7.53578523047797E-03 
1683	 7.42498862668345E-03 
1684	 7.77718184718891E-03 
1685	 7.80233486626775E-03 
1686	 7.52632946623116E-03 
1687	 7.69162787323464E-03 
1688	 7.8241071821543E-03 
1689	 7.50026854146303E-03 
1690	 7.78100812083127E-03 
1691	 8.01677824962454E-03 
1692	 7.49665462596827E-03 
1693	 7.45749652210839E-03 
1694	 7.83043226356144E-03 
1695	 7.86124824725253E-03 
1696	 7.74757152170359E-03 
1697	 7.72782435939458E-03 
1698	 7.6739919979667E-03 
1699	 7.5443630683754E-03 
1700	 7.55656651541721E-03 
1701	 7.5589668545026E-03 
1702	 7.25553362983727E-03 
1703	 6.89356967083243E-03 
1704	 6.86563329327769E-03 
1705	 6.99390585634405E-03 
1706	 7.23859282968255E-03 
1707	 7.4214988418606E-03 
1708	 7.20323073060713E-03 
1709	 6.96745600302509E-03 
1710	 6.74700402893071E-03 
1711	 6.59727424168506E-03 
1712	 6.88224791180019E-03 
1713	 7.32986964653505E-03 
1714	 7.44606841154506E-03 
1715	 7.52932031510862E-03 
1716	 7.61459096942208E-03 
1717	 7.26626218058885E-03 
1718	 7.3013200041701E-03 
1719	 7.23278417055434E-03 
1720	 6.90438712227989E-03 
1721	 6.94252104063349E-03 
1722	 6.70930484494617E-03 
1723	 6.51872499418655E-03 
1724	 6.68898704494151E-03 
1725	 6.88484602839162E-03 
1726	 7.31075966748465E-03 
1727	 7.38801261988799E-03 
1728	 7.04133648526701E-03 
1729	 6.88573636304718E-03 
1730	 7.01894989262095E-03 
1731	 6.97009499655988E-03 
1732	 6.91936445989382E-03 
1733	 6.96892336999252E-03 
1734	 6.50507875796257E-03 
1735	 6.36554382833161E-03 
1736	 6.99333505657935E-03 
1737	 7.48038409597479E-03 
1738	 7.19959342749168E-03 
1739	 6.80273666336787E-03 
1740	 6.73539394803302E-03 
1741	 6.40676537072581E-03 
1742	 6.79337784099222E-03 
1743	 7.52050140149803E-03 
1744	 6.90803917328813E-03 
1745	 6.42642063442393E-03 
1746	 6.75657850360649E-03 
1747	 6.65382513498054E-03 
1748	 6.98341001145218E-03 
1749	 7.11561921761656E-03 
1750	 6.56237371036376E-03 
1751	 6.4205546662224E-03 
1752	 6.79807025451316E-03 
1753	 6.67497498765156E-03 
1754	 6.12937817705805E-03 
1755	 6.18514195691013E-03 
1756	 6.50301375346367E-03 
1757	 6.4116871797499E-03 
1758	 6.49399533121839E-03 
1759	 6.48482822621299E-03 
1760	 6.02304736501105E-03 
1761	 6.18591352786375E-03 
1762	 6.56621020937172E-03 
1763	 6.05282056937202E-03 
1764	 6.24255491436411E-03 
1765	 7.46105384400528E-03 
1766	 7.8229206149504E-03 
1767	 7.66344771288906E-03 
1768	 7.92682593020359E-03 
1769	 7.30730619959682E-03 
1770	 6.39407544245336E-03 
1771	 7.24710499779121E-03 
1772	 7.53122827741134E-03 
1773	 6.70874614753434E-03 
1774	 7.4634148013004E-03 
1775	 6.68607916527682E-03 
1776	 6.47060384064678E-03 
1777	 6.98875088994966E-03 
1778	 6.58983522611892E-03 
1779	 6.07137457727032E-03 
1780	 6.08801221995453E-03 
1781	 5.49326541061887E-03 
1782	 5.04322508281228E-03 
1783	 5.22832057011678E-03 
1784	 5.32550076369547E-03 
1785	 5.18670336052368E-03 
1786	 5.65723017976054E-03 
1787	 7.34511050150435E-03 
1788	 6.72035648156244E-03 
1789	 4.22388761278623E-03 
1790	 3.87683874410128E-03 
1791	 4.12279351198816E-03 
1792	 8.25475735896195E-03 
1793	 1.07503959709514E-02 
1794	 7.46146647230002E-03 
1795	 5.65450051901164E-03 
1796	 6.13568103489808E-03 
1797	 6.87197196600379E-03 
1798	 1.18326101621004E-02 
1799	 1.62051495064805E-02 
1800	 1.50447048587577E-02 
1801	 1.29761024724448E-02 
1802	 4.11069185388204E-03 
1803	 1.09616144455913E-03 
1804	-1.12753009055838E-03 
1805	-5.66597346118734E-03 
1806	 7.16539667527228E-03 
1807	 1.71367016926752E-02 
1808	 1.80178168555967E-02 
1809	 1.96838357586938E-02 
1810	 2.48010200420751E-02 
1811	 2.81855385405139E-03 
1812	-0.109468628468441 
1813	-0.117186123150386 
1814	 5.24189692812336E-03 
1815	-5.77162350023604E-04 
1816	 4.73949174439611E-02 
1817	 6.93878212860053E-02 
1818	-0.134573948574022 
1819	-3.98806352274911E-03 
1820	-0.33006251849103 
1821	-0.966885753583533 
1822	-0.873879238741669 
1823	-0.102140068397098 
1824	 0.119386230705635 
1825	 0.737875569943773 
1826	 0.964051870320756 
1827	 0.665540437968 
1828	 0.49494941872436 
1829	-0.121204923579563 
1830	-0.228676217435374 
1831	-0.644296777727538 
1832	-0.725536567585845 
1833	-0.630701387315299 
1834	-0.646571933839699 
1835	-1.18211903999192 
1836	-1.34251573469069 
1837	-0.877115604557588 
1838	-0.570661860464167 
1839	 0.144786514659006 
1840	 0.257934271599426 
1841	-0.405793198939776 
1842	-0.61699401276147 
1843	-0.874803671823889 
1844	-3.92383846306917 
1845	-10.3101349002375 
1846	 0.842281841039531 
1847	 0.267779089203275 
1848	-1.32986425271221 
1849	-8.50808310001215E-03 
1850	 0.221763402688823 
1851	 0.167698948537876 
1852	 0.314748505342725 
1853	 1.90113689436011 
1854	-0.538446480066668 
1855	 0.344810956966815 
1856	 7.87497344868933E-02 
1857	-0.754643654521935 
1858	-0.850825784777621 
1859	-0.800944679593329 
1860	-0.961324422224147 
1861	-12.281468142439 
1862	-1.106101148739 
1863	 9.47363783227513 
1864	-18.9846328229382 
1865	-5.28952425478069 
1866	 3.10627074000677 
1867	 2.70957933542148 
1868	 8.51527328920373E-02 
1869	 5.02055383180037E-02 
1870	-0.519540637546132 
1871	-0.505837627482743 
1872	-1.39083743159441 
1873	 3.41157706712609 
1874	 3.37303900947111 
1875	-22.76647347587 
1876	-11.1235704073321 
1877	-3.3476650718663 
1878	-1.54060774653887 
1879	-0.791037117923919 
1880	-0.568323401079109 
1881	-0.375746136515364 
1882	-0.286539503627577 
1883	-0.216312575181985 
1884	-0.306978975941093 
1885	 0.460752782177576 
1886	 2.77846230620969 
1887	-2.2050389502487 
1888	-0.326834477586909 
1889	-0.186013091607551 
1890	 0.661196605371791 
1891	 1.15562658733407 
1892	 0.765713589158897 
1893	 0.73679513537166 
1894	 0.180833017459467 
1895	-0.276096062636064 
1896	-0.692029313517459 
1897	-1.46934650901576 
1898	-1.43047254540262 
1899	 3.47611381563188E-02 
1900	 0.373907377175879 
1901	-2.62147570541721 
1902	-1.93658732740776 
1903	-3.13918459129445 
1904	 0.264762686980527 
1905	-1.35360534860863 
1906	 2.1883006008002 
1907	 0.799444315558512 
1908	 1.99346961705076 
1909	-3.43256838955096 
1910	 1.67874351017031 
1911	 8.27507355027026E-02 
1912	-0.903814920692157 
1913	-0.942029176052637 
1914	-0.66843252709153 
1915	-0.681483783197205 
1916	-0.972539041568409 
1917	-2.17411903404961 
1918	-11.707773875525 
1919	-11.5528601148939 
1920	-7.95183610562379 
1921	-5.18935131623327 
1922	-1.87260273372042 
1923	-0.967738985436156 
1924	-0.613290543510529 
1925	-0.335843176226088 
1926	-0.289264073567743 
1927	-0.394905806117779 
1928	-0.781821440805532 
1929	-1.66013466163907 
1930	-1.28934432189561 
1931	-0.721810990195532 
1932	-0.1566898826376 
1933	 9.70252741944217E-02 
1934	 0.146528531683004 
1935	 7.4512342338832E-03 
1936	-5.34947099121414E-02 
1937	-2.90659146422002E-02 
1938	-0.142882476524409 
1939	-0.161020891143434 
1940	-0.143804365571608 
1941	-8.07270610619403E-02 
1942	-4.40689270135982E-02 
1943	-0.02397041242635 
1944	-2.19808119380815E-02 
1945	 1.04157997560905E-02 
1946	 0.017276393063681 
1947	 2.61216442675881E-02 
1948	 5.72523872216817E-02 
1949	 3.08194196542697E-02 
1950	-3.83545884043369E-03 
1951	-8.36941141217946E-03 
1952	-1.22060731056817E-02 
1953	-1.58103733049549E-02 
1954	-8.15895585368522E-03 
1955	-1.32780785812209E-04 
1956	-1.03285839016069E-02 
1957	-1.64151322688174E-02 
1958	-9.49908874453642E-03 
1959	-6.5179505344179E-03 
1960	-3.6099558921899E-04 
1961	 2.96445196889789E-03 
1962	 2.95423070951659E-03 
1963	 4.7888907451901E-03 
1964	 3.31824718081118E-03 
1965	 4.47463607546429E-03 
1966	 5.24199909442423E-03 
1967	 6.06646627345661E-03 
1968	 5.01073267570272E-03 
1969	 5.66150091897441E-03 
1970	 5.85583314829644E-03 
1971	 6.13990610478112E-03 
1972	 6.3320446884352E-03 
1973	 5.4485205168028E-03 
1974	 5.0768254742128E-03 
1975	 4.66174976321031E-03 
1976	 4.32149358352365E-03 
1977	 5.16865928761427E-03 
1978	 6.44370527527816E-03 
1979	 0.006360968472261 
1980	 5.39774139348632E-03 
1981	 4.40563351141341E-03 
1982	 0.003677877786677 
1983	 2.42193151153915E-03 
1984	 1.96003116551148E-03 
1985	 2.23702402322987E-03 
1986	 2.84043497091913E-03 
1987	 3.46134857455774E-03 
1988	 3.90827228398021E-03 
1989	 4.0759254935599E-03 
1990	 3.46594153972809E-03 
1991	 2.54971057403242E-03 
1992	 1.90042904365286E-03 
1993	 1.94064364615023E-03 
1994	 1.89381498475857E-03 
1995	 2.39470303219869E-03 
1996	 2.74938623195555E-03 
1997	 3.05235491050455E-03 
1998	 3.01166714542168E-03 
1999	 2.50993001623238E-03 
2000	 2.8172984546431E-03 
2001	 2.69706797443069E-03 
2002	 6.21655746559017E-04 
2003	 3.18320742221927E-04 
2004	-9.7410313960535E-05 
2005	 4.55316634097409E-04 
2006	 3.19265141270869E-03 
2007	 1.39912047823888E-03 
2008	-2.04739014881343E-03 
2009	-1.76322211006282E-03 
2010	-4.32372264368768E-04 
2011	 4.48361206092735E-04 
2012	 3.19302753782535E-03 
2013	 7.28860641605171E-03 
2014	 8.90512807781376E-03 
2015	 5.90303881915204E-03 
2016	 3.45252432754545E-03 
2017	 2.82137803047399E-03 
2018	 2.03156359192763E-03 
2019	 1.07040729541953E-03 
2020	 2.0872620582024E-03 
2021	 3.65016528799903E-03 
2022	 3.2338986822846E-03 
2023	 3.19769969055059E-03 
2024	 3.64171731850193E-03 
2025	 4.28845811704589E-03 
2026	 4.24888681002486E-03 
2027	 4.2114800137534E-03 
2028	 4.42302050732984E-03 
2029	 4.35190125656519E-03 
2030	 4.49497669505896E-03 
2031	 4.34780452800908E-03 
2032	 4.47089280193134E-03 
2033	 4.72504204247136E-03 
2034	 4.22903390625147E-03 
2035	 4.37283662807917E-03 
2036	 0.004310318926966 
2037	 3.83095622129584E-03 
2038	 3.99683684212965E-03 
2039	 4.15812716514898E-03 
2040	 4.74940511092546E-03 
2041	 4.90477501021785E-03 
2042	 4.83840683501882E-03 
2043	 4.84389371162825E-03 
2044	 4.60658179229877E-03 
2045	 4.65983213296887E-03 
2046	 4.76992849333057E-03 
2047	 4.65376975446259E-03 
2048	 4.46409667163306E-03 
2049	 4.77763901850474E-03 
2050	 4.88383373927836E-03 
2051	 4.75539158772985E-03 
2052	 4.60642525947017E-03 
2053	 3.55687836926498E-03 
2054	 3.76259290704997E-03 
2055	 5.12413819303239E-03 
2056	 5.64689009758041E-03 
2057	 6.83206972768252E-03 
2058	 6.94449366517527E-03 
2059	 5.41900674783372E-03 
2060	 4.9007887825852E-03 
2061	 4.35951443166417E-03 
2062	 4.46438896620775E-03 
2063	 4.24180344109471E-03 
2064	 4.68026916476929E-03 
2065	 5.65605417633142E-03 
2066	 5.41300693346919E-03 
2067	 5.10474058264219E-03 
2068	 5.58693414889292E-03 
2069	 5.6120564251196E-03 
2070	 5.01094691566248E-03 
2071	 5.63853969274269E-03 
2072	 5.95901035449474E-03 
2073	 5.60313793727892E-03 
2074	 4.67968509905005E-03 
2075	 0.004681468978601 
2076	 4.41474225559561E-03 
2077	 4.23018914769576E-03 
2078	 4.38450420677055E-03 
2079	 4.57217224429587E-03 
2080	 4.88986072570729E-03 
2081	 5.0253596453101E-03 
2082	 4.38589460603454E-03 
2083	 4.43101342256112E-03 
2084	 4.2130245760366E-03 
2085	 4.18767313942806E-03 
2086	 4.91852745385249E-03 
2087	 5.08508848688268E-03 
2088	 4.79162825595444E-03 
2089	 4.27087298300213E-03 
2090	 4.24710744412165E-03 
2091	 4.54193283377916E-03 
2092	 4.40281964798228E-03 
2093	 4.00316553883752E-03 
2094	 3.98397259456378E-03 
2095	 3.85923727700883E-03 
2096	 3.70461286750764E-03 
2097	 3.80441006403781E-03 
2098	 3.87155191711473E-03 
2099	 3.5650693751115E-03 
2100	 0.003930196507155 
2101	 4.58540481758444E-03 
2102	 4.82902401721113E-03 
2103	 5.39029735835077E-03 
2104	 5.86519449637459E-03 
2105	 5.51082190957861E-03 
2106	 5.33294599449535E-03 
2107	 5.37466432093951E-03 
2108	 5.07828043040214E-03 
2109	 5.2922252084494E-03 
2110	 0.005464990230101 
2111	 4.93245278963382E-03 
2112	 4.21247642660718E-03 
2113	 4.19985538342342E-03 
2114	 4.83974519912183E-03 
2115	 4.93492338666088E-03 
2116	 5.08540649738004E-03 
2117	 5.4232025480242E-03 
2118	 5.32132797389575E-03 
2119	 5.49837274978952E-03 
2120	 6.16341263473988E-03 
2121	 7.01745647803705E-03 
2122	 7.07313937708146E-03 
2123	 6.81326021117333E-03 
2124	 6.73261266367669E-03 
2125	 6.20190069692617E-03 
2126	 5.33546766662092E-03 
2127	 5.06481863356111E-03 
2128	 4.84383039390311E-03 
2129	 4.80365696602984E-03 
2130	 6.09002447030047E-03 
2131	 6.67156589966916E-03 
2132	 6.03944130085199E-03 
2133	 5.69155526259751E-03 
2134	 5.47859912243622E-03 
2135	 4.85072508253508E-03 
2136	 4.4914607899043E-03 
2137	 4.42451508031539E-03 
2138	 4.61383238773942E-03 
2139	 4.67666630097519E-03 
2140	 4.67775655033285E-03 
2141	 5.40127180330771E-03 
2142	 5.4882779276411E-03 
2143	 5.00269835660522E-03 
2144	 4.72551327282452E-03 
2145	 4.04605766538387E-03 
2146	 4.33905481967354E-03 
2147	 4.19969144893502E-03 
2148	 3.6315315274268E-03 
2149	 4.02663292662274E-03 
2150	 4.12177032979171E-03 
2151	 4.31264100527083E-03 
2152	 4.81574852977085E-03 
2153	 4.81731440815915E-03 
2154	 4.63569860913326E-03 
2155	 4.65253126142969E-03 
2156	 4.59780441860779E-03 
2157	 4.59387067243754E-03 
2158	 4.5225473565794E-03 
2159	 4.5786284351111E-03 
2160	 4.90603767702447E-03 
2161	 5.2126753739871E-03 
2162	 5.5111221051499E-03 
2163	 5.72651005077844E-03 
2164	 6.10529306109709E-03 
2165	 5.82381831575721E-03 
2166	 5.08131200070564E-03 
2167	 4.81342860670553E-03 
2168	 4.28893070958206E-03 
2169	 3.66894273269493E-03 
2170	 2.79339896960221E-03 
2171	 3.11060884973081E-03 
2172	 3.32683064720021E-03 
2173	 3.75621096687539E-03 
2174	 0.003983388944276 
2175	 3.14197953341787E-03 
2176	 1.82137021914799E-03 
2177	 1.09668235779062E-03 
2178	 2.05069567462583E-03 
2179	 2.92512783787073E-03 
2180	 3.2110563552739E-03 
2181	 3.65012947933638E-03 
2182	 3.75510829961559E-03 
2183	 3.94953941046061E-03 
2184	 4.81857585737168E-03 
2185	 5.05080817881688E-03 
2186	 5.39572470609596E-03 
2187	 5.61317306274742E-03 
2188	 6.11144767865915E-03 
2189	 7.29595407029807E-03 
2190	 7.38857188794516E-03 
2191	 6.54029971173848E-03 
2192	 6.11712498109743E-03 
2193	 4.87665007100538E-03 
2194	 4.3453664168396E-03 
2195	 4.81796416817443E-03 
2196	 4.65387460541041E-03 
2197	 4.29933132399497E-03 
2198	 4.20238817805545E-03 
2199	 3.64087140810474E-03 
2200	 3.98749367588314E-03 
2201	 5.87965477744465E-03 
2202	 5.95112259336105E-03 
2203	 4.60482508075505E-03 
2204	 4.19775297733506E-03 
2205	 4.05456771292851E-03 
2206	 3.42473401286297E-03 
2207	 3.12454963981439E-03 
2208	 3.67686182380178E-03 
2209	 2.84030522833937E-03 
2210	 1.69169344386297E-03 
2211	 2.32711202242017E-03 
2212	 1.55187469688101E-03 
2213	 1.6148939673093E-03 
2214	 3.19001707024463E-03 
2215	 2.31463625530913E-03 
2216	 3.07317323559795E-03 
2217	 3.34039993287513E-03 
2218	 1.87805995805723E-03 
2219	 1.87475511097847E-03 
2220	 3.76743652260445E-03 
2221	 3.84021877269397E-03 
2222	 3.75062906921396E-03 
2223	 3.2770574479276E-03 
2224	 9.73648734771253E-04 
2225	 2.98939404981814E-04 
2226	 7.12874267775654E-04 
2227	 5.59946451686345E-04 
2228	 5.58291384142451E-04 
2229	 1.13962348627285E-03 
2230	 1.66479464139298E-03 
2231	 1.81910937290433E-03 
2232	 2.97326044287207E-03 
2233	 3.32060364574597E-03 
2234	 2.52493078509253E-03 
2235	 2.21981515717139E-03 
2236	 3.12139547310834E-03 
2237	 2.7862655910427E-03 
2238	 2.64758866429794E-03 
2239	 2.76291461590349E-03 
2240	 2.68028687211451E-03 
2241	 4.12314082796651E-03 
2242	 6.61884482811657E-03 
2243	 7.17387700147951E-03 
2244	 6.62714496002115E-03 
2245	 6.40230649778692E-03 
2246	 4.56771714034643E-03 
2247	 4.5128300409487E-03 
2248	 6.24200471717906E-03 
2249	 6.00058282543912E-03 
2250	 5.36933775107126E-03 
2251	 5.29330648646244E-03 
2252	 3.07518016981838E-03 
2253	-3.13890871620707E-04 
2254	-2.99844294962049E-04 
2255	 1.94382396333452E-03 
2256	 1.87618914309189E-03 
2257	 4.51839415898599E-04 
2258	 7.75568305025182E-04 
2259	-6.96719868345161E-04 
2260	-1.59306324901886E-03 
2261	-2.79987963445202E-04 
2262	 8.41542848487012E-04 
2263	 3.28332179152242E-04 
2264	 7.42425143076842E-04 
2265	 3.65965841251757E-03 
2266	 3.66696779964181E-03 
2267	 1.43674757548154E-03 
2268	 1.14973845903322E-03 
2269	-2.41138868872841E-04 
2270	-5.33888788454907E-05 
2271	 3.17265846904387E-03 
2272	 3.69670539640035E-03 
2273	 2.84407044563332E-03 
2274	 3.30757377138692E-03 
2275	 4.21787639940101E-03 
2276	 3.44742698703185E-03 
2277	 1.2634607262278E-03 
2278	 1.41788667027755E-03 
2279	 1.80990825969387E-03 
2280	 8.71974712742668E-04 
2281	 3.80421508839749E-04 
2282	 2.54314384689575E-03 
2283	 2.97689019836966E-04 
2284	-5.32662042500223E-05 
2285	 3.92426857599386E-03 
2286	 3.95074615593807E-03 
2287	 2.94611417359103E-03 
2288	 2.63341500950474E-03 
2289	 1.50353374719105E-03 
2290	 2.97608795989889E-03 
2291	 4.7329796207167E-03 
2292	 3.02544732662491E-03 
2293	 2.48797539124216E-03 
2294	 2.07072652869498E-03 
2295	 3.60460031809753E-03 
2296	 7.88777079074251E-03 
2297	 5.61441845984947E-03 
2298	 1.87009285111345E-03 
2299	-8.20428026305229E-04 
2300	-2.10014767575604E-03 
2301	 2.5741868067875E-04 
2302	 9.48367816817954E-04 
2303	 1.16679937909239E-03 
2304	 4.77627499076116E-04 
2305	 5.24472320840947E-04 
2306	 3.04428640008847E-03 
2307	 3.79804031947015E-03 
2308	 3.52845146756971E-03 
2309	 1.66108606415247E-03 
2310	-3.01887334594263E-03 
2311	-3.71371597212807E-03 
2312	-4.04171507990744E-03 
2313	-5.28183186619219E-03 
2314	 2.17739045274733E-04 
2315	 0.002195785967298 
2316	 4.16675033502375E-04 
2317	 3.5842469025716E-03 
2318	 2.68955877550079E-03 
2319	-1.55622132701454E-03 
2320	-4.63831117775912E-05 
2321	 5.16300247624955E-04 
2322	-4.8702394090354E-04 
2323	 1.77287793769217E-03 
2324	 3.45260887515512E-03 
2325	 2.51135372597356E-03 
2326	 1.93610873587699E-03 
2327	 4.44685747824216E-03 
2328	 1.02341050921333E-03 
2329	-7.46955293321709E-03 
2330	-8.58062935898007E-03 
2331	-6.06791633127483E-03 
2332	-2.96181365003423E-03 
2333	 4.03004170491438E-03 
2334	 7.51584412118186E-03 
2335	 3.97709970542375E-03 
2336	 8.71325044015201E-04 
2337	 1.96469517121038E-04 
2338	-2.73996997801054E-03 
2339	-3.53663773374872E-03 
2340	-4.80972393719864E-03 
2341	-7.93103963625847E-03 
2342	-5.29290731714675E-03 
2343	-7.85867226863896E-03 
2344	-8.99578167178926E-03 
2345	 4.53773743423128E-04 
2346	 1.61520744204957E-03 
2347	-3.02812623518706E-03 
2348	-1.61441349962733E-03 
2349	-7.18690947971513E-03 
2350	-8.41889358274646E-03 
2351	 1.66668801832904E-03 
2352	 2.74137052546663E-03 
2353	 5.03533327193261E-03 
2354	 7.4754838228364E-03 
2355	 4.77433898208458E-03 
2356	 4.67061500882709E-03 
2357	-1.0393192180631E-03 
2358	-9.94624510128479E-03 
2359	-1.12054691599917E-02 
2360	-1.98477791197188E-02 
2361	-2.97279686958158E-02 
2362	-1.02163958432685E-02 
2363	 4.10076382151341E-03 
2364	 2.12805015261164E-03 
2365	 8.49647637199009E-03 
2366	-6.43953601216135E-04 
2367	-1.33087592823491E-02 
2368	-6.06471413156567E-03 
2369	 1.97820892514129E-03 
2370	 7.78540291720281E-04 
2371	-9.31768097082706E-03 
2372	-2.09762031022083E-02 
2373	-2.17821340851733E-02 
2374	-2.32771239550791E-02 
2375	-1.83928784697898E-02 
2376	-1.33010901339665E-02 
2377	-2.69817623838008E-02 
2378	-3.27159838328919E-02 
2379	-4.66295726607425E-02 
2380	-5.81346227272043E-02 
2381	-3.46018983322106E-02 
2382	-3.57847170887261E-02 
2383	-0.044395970249622 
2384	-2.12597707294262E-02 
2385	-3.61512427208981E-02 
2386	-4.68843343247731E-02 
2387	-2.59277145764745E-02 
2388	-4.48510295299696E-02 
2389	-4.37944276351194E-02 
2390	-2.04494920179272E-02 
2391	-3.20782490899645E-02 
2392	-0.035393680159285 
2393	-3.20060407738191E-02 
2394	-3.50240624909226E-02 
2395	-3.29553382600343E-02 
2396	-2.35986296629263E-02 
2397	-4.14395688239508E-03 
2398	-1.90308793947338E-03 
2399	-1.77032798485651E-02 
2400	-2.53691118811477E-02 
2401	-4.08761036248393E-02 
2402	-5.30278288780976E-02 
2403	-3.23135383946598E-02 
2404	-2.42123624215288E-02 
2405	-3.43665697389456E-02 
2406	-3.15753024585398E-02 
2407	-5.79913311648635E-02 
2408	-8.09095728872748E-02 
2409	-5.21010832931427E-02 
2410	-4.48975734616955E-02 
2411	-3.22059370382486E-02 
2412	-1.4905452948296E-03 
2413	-0.065775567088442 
2414	-0.118621373976042 
2415	-9.34834394375671E-02 
2416	-6.20135737520246E-02 
2417	-6.60740742750726E-04 
2418	-1.89170455697702E-02 
2419	-0.109160099004914 
2420	-0.127963575561937 
2421	-9.44843307632719E-02 
2422	-4.49461998788938E-02 
2423	-6.68212832463394E-02 
2424	-8.60526787336941E-02 
2425	-0.106887227048719 
2426	-0.13720247741448 
2427	-3.21828524080207E-02 
2428	 4.38260928711081E-02 
2429	 8.07986058633735E-03 
2430	-1.75078094574309E-02 
2431	-0.112577905102449 
2432	-0.258509978897885 
2433	-0.233810557367703 
2434	-0.166199778816804 
2435	-0.145270910835404 
2436	-6.38929766720782E-02 
2437	-0.11201490987258 
2438	-0.164325120161156 
2439	-0.10478407812273 
2440	-6.32326826712263E-02 
2441	-3.24962792735042E-02 
2442	-6.62971185443833E-02 
2443	-0.269043027009809 
2444	-0.279319470196442 
2445	-0.162091391890998 
2446	-0.20928264143268 
2447	-8.35080322932494E-02 
2448	-2.37359406313947E-02 
2449	-0.145057944611615 
2450	-0.212805274791158 
2451	-0.135838152740413 
2452	-0.443551678331729 
2453	-0.882777927256759 
2454	-0.648347257510718 
2455	-0.306233990301068 
2456	-0.228894080642912 
2457	 4.61274178705412E-02 
2458	 2.11232563003729E-03 
2459	-0.321870940441837 
2460	-0.348650112973772 
2461	-0.324964243730931 
2462	-0.22609511661836 
2463	-6.62419528670117E-02 
2464	-5.23496782198296E-02 
2465	-0.138976330450879 
2466	-0.201603288913327 
2467	-0.182171188332508 
2468	-0.249290643888346 
2469	-0.320732813161044 
2470	-0.332529896214951 
2471	-0.85791709949683 
2472	-3.65951592837318 
2473	-1.19515657346169 
2474	-0.317775795746373 
2475	 0.165999877523445 
2476	 0.282460297118877 
2477	 0.274491921312922 
2478	-0.199801114944796 
2479	-0.878527446797771 
2480	-0.297000850562872 
2481	 0.240920132490614 
2482	 0.105425564136917 
2483	-0.266528418995669 
2484	-0.346042150590061 
2485	-0.275039740451757 
2486	-0.953705050919974 
2487	-0.357874205807717 
2488	-0.472250460136971 
2489	-0.874611976681578 
2490	-0.364200063985612 
2491	-0.419340086606929 
2492	-0.738560375839527 
2493	-0.82420004650743 
2494	-1.26226670152731 
2495	-2.62085602247972 
2496	-6.32838802349366 
2497	-4.08874127286118 
2498	-1.19859379014742 
2499	-1.07115449507802 
2500	-1.3612714587398 
