Wavelength	rt0721algea_nearby_water00009.asd
350	 4.79294242750466E-02 
351	 4.83021299399903E-02 
352	 4.81874021474296E-02 
353	 4.81652137869384E-02 
354	 4.84743966534844E-02 
355	 4.82050313824138E-02 
356	 4.75532838561393E-02 
357	 4.73481844540625E-02 
358	 4.80897924384264E-02 
359	 4.82430207380392E-02 
360	 4.76596499719996E-02 
361	 4.71080936001739E-02 
362	 4.76671370626582E-02 
363	 4.73980404600932E-02 
364	 0.047156862750582 
365	 4.73874051936969E-02 
366	 4.74210486633762E-02 
367	 4.68678165787089E-02 
368	 4.67536811659468E-02 
369	 4.76836222949472E-02 
370	 4.74660690661159E-02 
371	 4.73809814179477E-02 
372	 4.75006479121912E-02 
373	 0.047258287947836 
374	 4.71622482071969E-02 
375	 4.72936933346111E-02 
376	 4.75977386933917E-02 
377	 0.047902863979544 
378	 4.77082092935697E-02 
379	 4.77404581171283E-02 
380	 0.048407599573776 
381	 4.82312394059059E-02 
382	 4.81164049248466E-02 
383	 4.83096913510013E-02 
384	 4.86639508778296E-02 
385	 0.04879895288304 
386	 4.85982028090316E-02 
387	 4.85157771505095E-02 
388	 4.94822505506345E-02 
389	 4.92524176667418E-02 
390	 4.90182808290547E-02 
391	 4.96954717219528E-02 
392	 4.99158708883291E-02 
393	 4.99839016515374E-02 
394	 5.00288642799814E-02 
395	 5.00817190889016E-02 
396	 4.98739633971482E-02 
397	 4.98796296807118E-02 
398	 0.050095782147382 
399	 5.01105246078498E-02 
400	 5.02006844441191E-02 
401	 5.02978922858778E-02 
402	 5.03610894970694E-02 
403	 5.05339563218523E-02 
404	 5.06451274611993E-02 
405	 5.07252722524066E-02 
406	 5.08566292527655E-02 
407	 5.09682618372761E-02 
408	 5.09549066224627E-02 
409	 5.08755851009429E-02 
410	 5.09391246917116E-02 
411	 5.11816897746718E-02 
412	 0.051316947217761 
413	 5.12373701517474E-02 
414	 0.051381217255462 
415	 5.15598374940808E-02 
416	 5.16976870016771E-02 
417	 5.17924126738479E-02 
418	 5.20124555374347E-02 
419	 5.22749707710133E-02 
420	 5.25033980083433E-02 
421	 5.26529076663632E-02 
422	 5.27585221741105E-02 
423	 5.29645364862691E-02 
424	 5.32840985398211E-02 
425	 5.32940969292525E-02 
426	 0.053467552061584 
427	 5.38029976262758E-02 
428	 0.054077425805987 
429	 5.43168132243945E-02 
430	 5.45631773523969E-02 
431	 5.48288488972569E-02 
432	 5.50883733789672E-02 
433	 5.52763770630161E-02 
434	 0.055473905397697 
435	 0.055746731614717 
436	 5.60233435643415E-02 
437	 5.62853668946394E-02 
438	 5.65306835384363E-02 
439	 5.67766433550916E-02 
440	 5.71306637948908E-02 
441	 5.74027963969462E-02 
442	 5.75589080176868E-02 
443	 5.78350800957416E-02 
444	 0.058098962003491 
445	 5.83366339768007E-02 
446	 5.85654643802258E-02 
447	 5.88074615107185E-02 
448	 5.90160863940746E-02 
449	 5.91960668794874E-02 
450	 5.93871086096363E-02 
451	 0.059542610253882 
452	 0.059659876692105 
453	 5.97636478792973E-02 
454	 5.99209844627362E-02 
455	 6.00732347499659E-02 
456	 6.01829651296428E-02 
457	 6.02398303517786E-02 
458	 6.03357245370347E-02 
459	 6.03564567996953E-02 
460	 0.060345766096374 
461	 6.05002470115447E-02 
462	 6.05823033107207E-02 
463	 6.06511213265566E-02 
464	 6.07666384333677E-02 
465	 6.08176286762222E-02 
466	 6.09179241138684E-02 
467	 6.10544716595177E-02 
468	 0.061152594498825 
469	 6.11911445368885E-02 
470	 6.12344840551045E-02 
471	 6.13172630160274E-02 
472	 0.061423142714456 
473	 6.15011352282285E-02 
474	 0.061628603305475 
475	 6.18547802967207E-02 
476	 6.20195647129652E-02 
477	 6.20970887202566E-02 
478	 6.21826402702422E-02 
479	 6.24292783997717E-02 
480	 6.26492341570398E-02 
481	 0.062833021302019 
482	 6.30236998951298E-02 
483	 6.33313095545624E-02 
484	 6.34665554659776E-02 
485	 6.35876465508576E-02 
486	 6.39380621855484E-02 
487	 0.06425489513857 
488	 0.064458473070748 
489	 6.46481837843156E-02 
490	 6.50643330996003E-02 
491	 6.53887694713716E-02 
492	 6.56789816400663E-02 
493	 0.066031598270114 
494	 6.64400431506332E-02 
495	 6.69403650501383E-02 
496	 6.74743183624886E-02 
497	 6.79440277406318E-02 
498	 6.83598620167741E-02 
499	 0.068762114985771 
500	 6.92410834238023E-02 
501	 6.99590465777744E-02 
502	 7.06110569770608E-02 
503	 7.11599188961284E-02 
504	 7.16745331286977E-02 
505	 7.22610950995662E-02 
506	 7.29557213116725E-02 
507	 0.073700979452789 
508	 7.43758562204957E-02 
509	 7.50413871085515E-02 
510	 7.57735820399087E-02 
511	 7.65888288986809E-02 
512	 7.73795327294564E-02 
513	 7.80902301894675E-02 
514	 7.88659677520977E-02 
515	 7.98670959076803E-02 
516	 8.06908915838019E-02 
517	 8.15324278758329E-02 
518	 8.24459805604301E-02 
519	 8.32537768873051E-02 
520	 0.084004542305465 
521	 8.47386062468615E-02 
522	 8.55045891416629E-02 
523	 8.63697236162121E-02 
524	 8.72154309065005E-02 
525	 8.80010713903292E-02 
526	 8.87498993640789E-02 
527	 8.94539464031862E-02 
528	 9.02011820403711E-02 
529	 9.09921672290961E-02 
530	 9.16229864079896E-02 
531	 9.23675068376616E-02 
532	 9.31194905826338E-02 
533	 9.37002151507134E-02 
534	 9.44213096118119E-02 
535	 9.51031978668705E-02 
536	 9.57237515746113E-02 
537	 9.64640714400826E-02 
538	 9.70918452303937E-02 
539	 9.76873377812878E-02 
540	 0.098354814161602 
541	 9.90154217593395E-02 
542	 9.97244309576043E-02 
543	 0.100390465338277 
544	 0.100874664677716 
545	 0.10150897835481 
546	 0.10220596095308 
547	 0.102843688410454 
548	 0.103333884769443 
549	 0.103894753447509 
550	 0.104519153211596 
551	 0.105117730936755 
552	 0.105645821309498 
553	 0.106186371453045 
554	 0.106738020466858 
555	 0.107196239628718 
556	 0.107697784147478 
557	 0.108232831944685 
558	 0.108735225334933 
559	 0.109096647574036 
560	 0.109449827110762 
561	 0.109820940764805 
562	 0.110166034000137 
563	 0.11045715098546 
564	 0.110713861651991 
565	 0.110944041904053 
566	 0.111119196623313 
567	 0.111268724771995 
568	 0.111401309905226 
569	 0.111507490529175 
570	 0.11151564782977 
571	 0.111584314373695 
572	 0.111721395098949 
573	 0.11176319629743 
574	 0.111780423278921 
575	 0.111769986517483 
576	 0.111747235030948 
577	 0.111840866751537 
578	 0.111865454726946 
579	 0.111821011964374 
580	 0.111813179470326 
581	 0.111740112227477 
582	 0.11167223002581 
583	 0.111630233066118 
584	 0.11150815469824 
585	 0.111357513427889 
586	 0.111157420739133 
587	 0.110884900645604 
588	 0.110655391994299 
589	 0.110478075623043 
590	 0.110319393808281 
591	 0.110103324615574 
592	 0.109929487087695 
593	 0.109706094205402 
594	 0.109381276879199 
595	 0.109126091912728 
596	 0.108839958378278 
597	 0.108484952623567 
598	 0.108078062054789 
599	 0.107771380130191 
600	 0.107506102829669 
601	 0.107235928868838 
602	 0.106976058426456 
603	 0.106850599365138 
604	 0.106789059864466 
605	 0.106687939502534 
606	 0.106644113601437 
607	 0.106572189656386 
608	 0.106464730068416 
609	 0.106402835625548 
610	 0.106426607479055 
611	 0.106387389823232 
612	 0.106198384987352 
613	 0.106058568270062 
614	 0.106001222907553 
615	 0.105930219738931 
616	 0.105717135330721 
617	 0.105695465008593 
618	 0.105644976651139 
619	 0.105462744253793 
620	 0.10532679038206 
621	 0.105238086275746 
622	 0.105173965647023 
623	 0.105099644287094 
624	 0.105002341203078 
625	 0.104879426335224 
626	 0.10477320877008 
627	 0.104756235807228 
628	 0.104630888510157 
629	 0.104506761502251 
630	 0.104450788063468 
631	 0.104258563611827 
632	 0.104050354090381 
633	 0.10386311473975 
634	 0.103672001013035 
635	 0.103309335048127 
636	 0.102908738450244 
637	 0.102541233541034 
638	 0.102141718285968 
639	 0.101711030031449 
640	 0.101235183196831 
641	 0.100722257358871 
642	 0.100250174794035 
643	 0.099787232034808 
644	 9.93023493871775E-02 
645	 9.87754133954748E-02 
646	 9.82530515877628E-02 
647	 9.78179421671116E-02 
648	 9.74982285857554E-02 
649	 9.71605175293164E-02 
650	 9.69427509852625E-02 
651	 9.67605140854134E-02 
652	 9.64913249842086E-02 
653	 9.63077223605839E-02 
654	 9.60633338059152E-02 
655	 9.57517356970903E-02 
656	 9.56161873999048E-02 
657	 9.53479466916717E-02 
658	 9.50261792367322E-02 
659	 9.47327356870793E-02 
660	 9.43347401016187E-02 
661	 9.39586276719045E-02 
662	 9.36385210639468E-02 
663	 9.33454249049228E-02 
664	 9.29716737496551E-02 
665	 9.26318995335269E-02 
666	 9.23835624298895E-02 
667	 9.21374121836386E-02 
668	 9.19880913966118E-02 
669	 9.18341706958503E-02 
670	 0.091584064894613 
671	 9.15160674307954E-02 
672	 9.15047217863044E-02 
673	 9.14696540554327E-02 
674	 9.14016057527243E-02 
675	 9.14797296450363E-02 
676	 9.15866532468655E-02 
677	 9.16538280122636E-02 
678	 9.18890331331572E-02 
679	 9.21216864221203E-02 
680	 9.24281888469803E-02 
681	 9.29533772686264E-02 
682	 9.34704580050242E-02 
683	 9.41776056030757E-02 
684	 9.50962770959035E-02 
685	 0.096052996039808 
686	 9.72900092156918E-02 
687	 9.85755032716003E-02 
688	 9.96352653565904E-02 
689	 0.10088553189491 
690	 0.10205940646988 
691	 0.103179471449615 
692	 0.104424317828883 
693	 0.10554186615867 
694	 0.106602665676178 
695	 0.107623697549911 
696	 0.108582437922282 
697	 0.109233840319899 
698	 0.10982051187949 
699	 0.110565496134263 
700	 0.111042968374087 
701	 0.111404423054552 
702	 0.111727604577499 
703	 0.112008245738372 
704	 0.112163539134953 
705	 0.11215291858619 
706	 0.111983528029135 
707	 0.111755667910718 
708	 0.111357098873985 
709	 0.11084782716013 
710	 0.110312508734396 
711	 0.109616151418157 
712	 0.108665056313195 
713	 0.107533872697495 
714	 0.10643576532837 
715	 0.105299589633046 
716	 0.103962699012413 
717	 0.102408356571971 
718	 0.100936118109274 
719	 0.099372681968232 
720	 9.79928505484077E-02 
721	 9.67876397888836E-02 
722	 9.54751539602621E-02 
723	 9.38172331171215E-02 
724	 9.19897380443296E-02 
725	 9.02542687243686E-02 
726	 8.84778532278578E-02 
727	 8.65572684900858E-02 
728	 8.44296706520851E-02 
729	 8.20120752593329E-02 
730	 7.96513555887307E-02 
731	 7.75328204633322E-02 
732	 7.55974206433158E-02 
733	 7.38610109641956E-02 
734	 0.072328632975795 
735	 7.10237589970355E-02 
736	 6.99612685494734E-02 
737	 0.069194762862253 
738	 6.86585769070827E-02 
739	 6.82744444716371E-02 
740	 6.79899685904032E-02 
741	 6.77683353986024E-02 
742	 6.75889369162469E-02 
743	 0.067448577131458 
744	 6.74170000030954E-02 
745	 0.067385983818627 
746	 6.73170433738453E-02 
747	 0.067287664745121 
748	 6.72351092131346E-02 
749	 6.71634399146107E-02 
750	 6.71097901563166E-02 
751	 6.71703663322499E-02 
752	 6.71448451054375E-02 
753	 6.70539086886801E-02 
754	 6.70350864847283E-02 
755	 6.70714115140786E-02 
756	 0.067035368975859 
757	 6.69495304754263E-02 
758	 6.71079781490709E-02 
759	 6.73431201572701E-02 
760	 6.75549649610738E-02 
761	 6.75694400668548E-02 
762	 6.73995395531921E-02 
763	 6.73969976925989E-02 
764	 6.74999463628011E-02 
765	 6.75329169547731E-02 
766	 6.75097860931709E-02 
767	 6.76306295996047E-02 
768	 6.78602119458789E-02 
769	 6.79443841279665E-02 
770	 6.80634720575582E-02 
771	 6.82268422059193E-02 
772	 6.84087119410637E-02 
773	 6.85801181846843E-02 
774	 6.87764299095602E-02 
775	 6.90441526198409E-02 
776	 6.93944457056492E-02 
777	 6.96031812257464E-02 
778	 6.98125947597089E-02 
779	 7.01071185592033E-02 
780	 7.04777831526896E-02 
781	 0.070800499556956 
782	 7.11418681787627E-02 
783	 7.15347264039421E-02 
784	 7.18545793278302E-02 
785	 7.21449874401899E-02 
786	 7.24739671591117E-02 
787	 7.28840914466306E-02 
788	 7.32250932156627E-02 
789	 7.36643788681148E-02 
790	 7.41481123148264E-02 
791	 7.44728973254666E-02 
792	 7.48996703186223E-02 
793	 7.54110549522325E-02 
794	 7.58816104805055E-02 
795	 7.60517623789044E-02 
796	 7.65525217402979E-02 
797	 7.70452307184086E-02 
798	 7.71861217268757E-02 
799	 0.077522217488159 
800	 0.077878448316885 
801	 0.078114188742834 
802	 0.078183753644636 
803	 0.078500689689191 
804	 7.88144534222873E-02 
805	 7.89509908893973E-02 
806	 7.88986624769107E-02 
807	 7.87852169545186E-02 
808	 7.86773276633557E-02 
809	 7.85801516374255E-02 
810	 0.078389092282875 
811	 7.80242913477456E-02 
812	 7.75893929969823E-02 
813	 7.72536100542071E-02 
814	 7.69478294157002E-02 
815	 7.63757040048153E-02 
816	 7.56908098971856E-02 
817	 7.53237489404112E-02 
818	 7.47504651540402E-02 
819	 7.40855841274938E-02 
820	 7.33426879297538E-02 
821	 7.23628400135478E-02 
822	 7.11326438129913E-02 
823	 6.98544817762655E-02 
824	 6.86376474280352E-02 
825	 6.71247777448893E-02 
826	 6.53426127828134E-02 
827	 0.063427564048759 
828	 6.16583354174412E-02 
829	 5.98760434976063E-02 
830	 0.058378983506768 
831	 5.70915021113066E-02 
832	 5.57621882620993E-02 
833	 5.49716166734914E-02 
834	 5.43493485074929E-02 
835	 5.36113218216579E-02 
836	 5.27616941998512E-02 
837	 5.25468240150021E-02 
838	 5.24360946535233E-02 
839	 5.19684643504574E-02 
840	 5.16033566059628E-02 
841	 0.051249127928715 
842	 5.09482665249525E-02 
843	 5.07499014113938E-02 
844	 5.05760088186256E-02 
845	 5.02118916821998E-02 
846	 4.97680580927255E-02 
847	 4.95461002057448E-02 
848	 4.93850905669528E-02 
849	 4.91379267628325E-02 
850	 4.88377244225656E-02 
851	 4.87204540336313E-02 
852	 0.048425602256146 
853	 4.80579999497823E-02 
854	 4.77751381009876E-02 
855	 4.76025134506842E-02 
856	 4.74939622674911E-02 
857	 4.72658214960614E-02 
858	 4.68594401232274E-02 
859	 4.67707027697301E-02 
860	 4.66826787926497E-02 
861	 0.046403281401598 
862	 4.59164759224424E-02 
863	 4.57765441457125E-02 
864	 4.56323750687653E-02 
865	 4.54134952688104E-02 
866	 4.53215222594536E-02 
867	 4.49797852503984E-02 
868	 4.46786488679541E-02 
869	 0.044532109850295 
870	 4.43160896897976E-02 
871	 0.044122192582514 
872	 4.37212836962005E-02 
873	 4.31507348010308E-02 
874	 0.043184500674162 
875	 4.29143657742577E-02 
876	 4.25072371627544E-02 
877	 4.22982044111386E-02 
878	 4.19191705939701E-02 
879	 4.16293865444215E-02 
880	 4.14084476792415E-02 
881	 4.10980529957892E-02 
882	 4.05836770052209E-02 
883	 4.03439930440943E-02 
884	 0.040266387045126 
885	 3.98618597614653E-02 
886	 3.96967443164675E-02 
887	 3.93946415530137E-02 
888	 3.88743210814861E-02 
889	 3.84987590687274E-02 
890	 3.84271380417893E-02 
891	 3.84011003284874E-02 
892	 3.81925321719901E-02 
893	 3.77973875443517E-02 
894	 3.73615989093036E-02 
895	 3.70567688769475E-02 
896	 3.69999883801195E-02 
897	 3.71380474134131E-02 
898	 0.036789981790565 
899	 3.62721927813184E-02 
900	 3.61102255493982E-02 
901	 0.036112032762119 
902	 3.57856783777324E-02 
903	 3.53407219601539E-02 
904	 3.51647723543187E-02 
905	 3.50679574524524E-02 
906	 3.49056495288508E-02 
907	 3.47224145891407E-02 
908	 3.45533655699367E-02 
909	 3.31401496653459E-02 
910	 3.29461946905499E-02 
911	 3.39573812232542E-02 
912	 3.37827915583108E-02 
913	 3.29363367905434E-02 
914	 3.20552085775192E-02 
915	 3.15660990473102E-02 
916	 3.14771147982422E-02 
917	 3.12177937509696E-02 
918	 0.03079959199162 
919	 3.04209985991596E-02 
920	 3.03606230976407E-02 
921	 3.00066244175014E-02 
922	 0.030025190586793 
923	 3.04541337307238E-02 
924	 0.029510111491763 
925	 2.83659151243781E-02 
926	 2.82148205747248E-02 
927	 2.93743077582089E-02 
928	 2.86256777527308E-02 
929	 2.83466395873186E-02 
930	 2.87963720229627E-02 
931	 2.90269035859116E-02 
932	 2.88820005688037E-02 
933	 2.75402866178913E-02 
934	 2.72528430580931E-02 
935	 2.96963860299472E-02 
936	 2.91818047740398E-02 
937	 2.73783384550951E-02 
938	 2.58137812689939E-02 
939	 0.0256630280246 
940	 2.82317041392359E-02 
941	 2.77428436997176E-02 
942	 2.44410863748327E-02 
943	 2.23482455907167E-02 
944	 2.68828176130323E-02 
945	 3.11218046950505E-02 
946	 2.99965002699949E-02 
947	 2.34497288016649E-02 
948	 2.44102853798311E-02 
949	 2.61676913476457E-02 
950	 0.026654296454857 
951	 2.73792675371415E-02 
952	 2.77229897639616E-02 
953	 2.63116505344597E-02 
954	 2.45346246370175E-02 
955	 2.49778049412444E-02 
956	 0.025522691595878 
957	 2.57400714730253E-02 
958	 2.48022561174098E-02 
959	 2.23685301810817E-02 
960	 2.29730840361027E-02 
961	 2.50357923716756E-02 
962	 2.58195770852248E-02 
963	 0.02357177338326 
964	 2.35994314269825E-02 
965	 2.35631113143773E-02 
966	 2.28295810454712E-02 
967	 2.24174928400913E-02 
968	 2.21899802381002E-02 
969	 2.30890612243565E-02 
970	 2.41015908162587E-02 
971	 2.31331744794874E-02 
972	 2.39856706479516E-02 
973	 2.39115885251214E-02 
974	 2.27490570742886E-02 
975	 0.023217720547944 
976	 2.40358816307316E-02 
977	 2.35075959273834E-02 
978	 2.27250029854343E-02 
979	 2.43735891068042E-02 
980	 2.47647836793248E-02 
981	 2.39761498424334E-02 
982	 2.31180367281424E-02 
983	 2.34844834106123E-02 
984	 2.42814583651986E-02 
985	 2.46279482476559E-02 
986	 2.43517889407338E-02 
987	 2.39299542584413E-02 
988	 2.39841665251148E-02 
989	 2.37450753917897E-02 
990	 2.32585708017635E-02 
991	 2.32592909968987E-02 
992	 2.39701818217334E-02 
993	 2.46521454978428E-02 
994	 0.024431891494417 
995	 2.30878918999652E-02 
996	 2.39078284916778E-02 
997	 0.024737372412489 
998	 2.41579643166821E-02 
999	 2.23542257358469E-02 
1000	 0.023121109141715 
1001	 0.027428228088241 
1002	 2.75556951717196E-02 
1003	 0.02761317141164 
1004	 2.76044070419496E-02 
1005	 2.75682586153316E-02 
1006	 2.75065901799083E-02 
1007	 2.75626765551618E-02 
1008	 0.027535618388212 
1009	 2.76904134211737E-02 
1010	 2.77231957931309E-02 
1011	 2.77523692077219E-02 
1012	 2.78154909742497E-02 
1013	 2.77411575541268E-02 
1014	 2.76921339335356E-02 
1015	 2.76871917504522E-02 
1016	 2.76166139901197E-02 
1017	 0.027375522580098 
1018	 2.73457495320648E-02 
1019	 0.027452848184637 
1020	 2.74279664152379E-02 
1021	 2.74022911409175E-02 
1022	 2.74934618684526E-02 
1023	 2.72848640394938E-02 
1024	 2.74011491517181E-02 
1025	 2.74311809318104E-02 
1026	 2.72860694611691E-02 
1027	 2.72935928815134E-02 
1028	 2.73099313119963E-02 
1029	 2.72672118211878E-02 
1030	 2.74220580134642E-02 
1031	 2.72337671744191E-02 
1032	 2.66434969444752E-02 
1033	 2.64059988551315E-02 
1034	 2.60825363526482E-02 
1035	 0.025984564881135 
1036	 2.63053344177293E-02 
1037	 2.63889859863434E-02 
1038	 2.65312468887705E-02 
1039	 2.65151710357442E-02 
1040	 2.61893317046564E-02 
1041	 2.59554648122056E-02 
1042	 2.57398059804978E-02 
1043	 2.53793698170853E-02 
1044	 2.52304151660977E-02 
1045	 2.51566371548212E-02 
1046	 2.52325953645195E-02 
1047	 2.55898072021646E-02 
1048	 2.56294572843403E-02 
1049	 2.57002449690606E-02 
1050	 2.56791938845183E-02 
1051	 0.025226788156355 
1052	 0.02515491732246 
1053	 2.54225988683664E-02 
1054	 2.54667975341475E-02 
1055	 2.54829156714483E-02 
1056	 2.55728932827592E-02 
1057	 2.56517743870556E-02 
1058	 2.55934031752003E-02 
1059	 2.56925225016469E-02 
1060	 2.60546650366953E-02 
1061	 2.60527504033151E-02 
1062	 2.58710521617588E-02 
1063	 2.57631299834195E-02 
1064	 2.54078696433456E-02 
1065	 2.53430764385294E-02 
1066	 2.54267136605008E-02 
1067	 0.02554086289384 
1068	 2.59905297552312E-02 
1069	 2.60832632289607E-02 
1070	 2.60190284571781E-02 
1071	 2.59763748987197E-02 
1072	 2.57085338613118E-02 
1073	 2.53825930887283E-02 
1074	 2.54455688132373E-02 
1075	 2.57795777422463E-02 
1076	 0.02588215076975 
1077	 2.62858590141777E-02 
1078	 2.61784852490665E-02 
1079	 2.55624147066879E-02 
1080	 2.53869404365801E-02 
1081	 2.49809132960793E-02 
1082	 2.50145148148834E-02 
1083	 2.59103914184285E-02 
1084	 2.59851551449742E-02 
1085	 2.55554082802015E-02 
1086	 2.55548629884656E-02 
1087	 2.53778220694002E-02 
1088	 2.51755194020054E-02 
1089	 2.51665579091992E-02 
1090	 2.56167847253046E-02 
1091	 2.54281853558308E-02 
1092	 2.45599989082741E-02 
1093	 2.45007428947846E-02 
1094	 2.46654621611098E-02 
1095	 0.024729016913701 
1096	 0.025351602742604 
1097	 2.54042742667764E-02 
1098	 2.49047589888977E-02 
1099	 2.47382898020465E-02 
1100	 2.44577077230893E-02 
1101	 2.43338074442978E-02 
1102	 2.45677611254745E-02 
1103	 2.45831494007382E-02 
1104	 0.024509010586682 
1105	 2.44169557465783E-02 
1106	 2.45736843830694E-02 
1107	 2.46199650785338E-02 
1108	 2.43399393888695E-02 
1109	 0.024346751347262 
1110	 2.41702971438526E-02 
1111	 2.32521317715306E-02 
1112	 2.29898415417327E-02 
1113	 2.35790135703628E-02 
1114	 2.34936707679421E-02 
1115	 2.30821228141209E-02 
1116	 2.31438890664327E-02 
1117	 2.26234865749009E-02 
1118	 2.29025851552829E-02 
1119	 2.61158861727373E-02 
1120	 2.72163249836457E-02 
1121	 0.026878406237054 
1122	 0.026262197658489 
1123	 0.026428992436889 
1124	 2.53646113525741E-02 
1125	 2.59625619243237E-02 
1126	 2.93200338213275E-02 
1127	 2.90899382226401E-02 
1128	 2.38479831332276E-02 
1129	 2.31486704092148E-02 
1130	 0.024930569698759 
1131	 2.48588582462402E-02 
1132	 2.57673226018317E-02 
1133	 2.55084746491819E-02 
1134	 2.29157788192814E-02 
1135	 2.17586605749746E-02 
1136	 2.10774457286273E-02 
1137	 2.11643333968197E-02 
1138	 2.16251071174337E-02 
1139	 0.023014568582027 
1140	 2.48099681854089E-02 
1141	 2.44127330685695E-02 
1142	 0.022721432491245 
1143	 0.021397492270596 
1144	 2.09697416102024E-02 
1145	 2.16280971948446E-02 
1146	 2.22178509025109E-02 
1147	 2.29393603933372E-02 
1148	 2.24577374458739E-02 
1149	 2.04578823774498E-02 
1150	 1.99274418444255E-02 
1151	 2.04348442353372E-02 
1152	 0.020141238477089 
1153	 1.95871637511428E-02 
1154	 1.97149134056966E-02 
1155	 0.019711234915737 
1156	 2.00798689132774E-02 
1157	 2.09664378432564E-02 
1158	 2.10229816757813E-02 
1159	 0.020717932023389 
1160	 2.07734233561333E-02 
1161	 2.05271452886497E-02 
1162	 2.04702716240344E-02 
1163	 2.09025977685656E-02 
1164	 2.09293148857953E-02 
1165	 0.020725105077396 
1166	 0.02062414624101 
1167	 2.04570335421738E-02 
1168	 2.04832513847349E-02 
1169	 2.07414034040314E-02 
1170	 2.06445662035469E-02 
1171	 2.05950508690076E-02 
1172	 2.05777971077291E-02 
1173	 2.05330794466554E-02 
1174	 2.02292973416869E-02 
1175	 2.04156898734551E-02 
1176	 2.08002948327433E-02 
1177	 2.04947656212164E-02 
1178	 0.020607011059748 
1179	 2.08083747000033E-02 
1180	 2.03867570838132E-02 
1181	 2.03722480438724E-02 
1182	 0.02058884673956 
1183	 2.05421639636263E-02 
1184	 2.06023837788005E-02 
1185	 2.05892079617131E-02 
1186	 2.04764411137311E-02 
1187	 2.04468760304897E-02 
1188	 2.05937227726128E-02 
1189	 2.07668440546172E-02 
1190	 2.06452615606779E-02 
1191	 2.04324160107604E-02 
1192	 0.020345278813577 
1193	 0.020279122201481 
1194	 2.03865139207592E-02 
1195	 2.04932075308284E-02 
1196	 2.05035581141171E-02 
1197	 2.04128674481042E-02 
1198	 0.020163673625054 
1199	 2.01341046981429E-02 
1200	 2.02667702518915E-02 
1201	 2.01979119620186E-02 
1202	 2.02123369516101E-02 
1203	 2.02693396563268E-02 
1204	 2.01327129495926E-02 
1205	 2.00953134440117E-02 
1206	 2.01027965286984E-02 
1207	 2.00230022080789E-02 
1208	 1.99944148292267E-02 
1209	 1.99537211747388E-02 
1210	 0.019938889795522 
1211	 1.99205006373241E-02 
1212	 1.97279848932925E-02 
1213	 1.96492183595914E-02 
1214	 1.95852996336893E-02 
1215	 1.95972061114184E-02 
1216	 1.94251198917855E-02 
1217	 1.94700232397812E-02 
1218	 1.96192098556786E-02 
1219	 1.95117310742542E-02 
1220	 0.019468394020058 
1221	 1.95135738877004E-02 
1222	 1.94339124462734E-02 
1223	 1.93829588256072E-02 
1224	 1.95097959772326E-02 
1225	 1.95188090229264E-02 
1226	 1.92886019884975E-02 
1227	 1.93793821270103E-02 
1228	 1.95769230665219E-02 
1229	 1.95077480292222E-02 
1230	 1.96237206507669E-02 
1231	 1.97458993007718E-02 
1232	 1.96808242621568E-02 
1233	 1.96911689211946E-02 
1234	 1.96917343564154E-02 
1235	 1.96818556341998E-02 
1236	 1.95136225297492E-02 
1237	 1.95215248161653E-02 
1238	 1.96415251910427E-02 
1239	 1.98030976742411E-02 
1240	 1.98342513104281E-02 
1241	 1.98753384667403E-02 
1242	 0.020020980004557 
1243	 1.99704984455566E-02 
1244	 1.97481119288454E-02 
1245	 1.97145321923322E-02 
1246	 1.96981675420523E-02 
1247	 0.019584590844711 
1248	 1.96725445875841E-02 
1249	 1.97924468642024E-02 
1250	 1.96819661826816E-02 
1251	 1.94098766468631E-02 
1252	 1.92410293159305E-02 
1253	 1.93810576010547E-02 
1254	 1.94987596564725E-02 
1255	 1.94445574401421E-02 
1256	 1.95156715280692E-02 
1257	 1.97294134580053E-02 
1258	 1.97266599893249E-02 
1259	 1.96109141073898E-02 
1260	 1.96169276148452E-02 
1261	 1.95590285590816E-02 
1262	 1.94612764385579E-02 
1263	 1.92965512463586E-02 
1264	 0.019465641936144 
1265	 1.94358175463533E-02 
1266	 1.91717461863714E-02 
1267	 1.92903684165739E-02 
1268	 1.94288431789224E-02 
1269	 1.93420512774471E-02 
1270	 1.93936149094138E-02 
1271	 1.93149171356599E-02 
1272	 1.90943451235665E-02 
1273	 1.91937360684645E-02 
1274	 1.93656234470717E-02 
1275	 1.94000809274378E-02 
1276	 1.94010901271391E-02 
1277	 1.92010482503912E-02 
1278	 1.91235297247762E-02 
1279	 1.91928240795497E-02 
1280	 1.90077454649154E-02 
1281	 1.89041204198923E-02 
1282	 1.88889204722336E-02 
1283	 1.88199886228377E-02 
1284	 1.86441653351914E-02 
1285	 1.86118710476116E-02 
1286	 1.86894135097662E-02 
1287	 1.86822291333762E-02 
1288	 1.86261722591478E-02 
1289	 1.86448934666713E-02 
1290	 0.018706962483442 
1291	 1.87685200983009E-02 
1292	 1.87685044643075E-02 
1293	 1.87174927526747E-02 
1294	 1.85451570131224E-02 
1295	 1.84724113633955E-02 
1296	 1.85889150502739E-02 
1297	 1.86826976330248E-02 
1298	 1.87430010291779E-02 
1299	 1.87217117944554E-02 
1300	 1.85334128446907E-02 
1301	 1.83647034432554E-02 
1302	 0.018415251951369 
1303	 1.83986155047701E-02 
1304	 1.82607411223008E-02 
1305	 1.82392665642195E-02 
1306	 1.82135232046185E-02 
1307	 1.81704539685569E-02 
1308	 1.81451852180264E-02 
1309	 1.81743731024298E-02 
1310	 1.82173308277327E-02 
1311	 1.82884906015717E-02 
1312	 1.82610242022161E-02 
1313	 1.82467365237815E-02 
1314	 1.81795009919703E-02 
1315	 1.78944255160243E-02 
1316	 1.78260732471716E-02 
1317	 1.79920247104722E-02 
1318	 1.79861760403419E-02 
1319	 1.79396055084918E-02 
1320	 0.017847407397684 
1321	 1.75231358813943E-02 
1322	 1.74004457963865E-02 
1323	 1.78126090772972E-02 
1324	 1.80337016811914E-02 
1325	 1.73967749302536E-02 
1326	 1.72004169340362E-02 
1327	 1.73529255632513E-02 
1328	 0.017183452770308 
1329	 1.76021471296135E-02 
1330	 1.81030425882415E-02 
1331	 1.78162306681263E-02 
1332	 1.73196293504081E-02 
1333	 1.72998845829318E-02 
1334	 1.71706123106548E-02 
1335	 0.017143870430199 
1336	 1.68350207200475E-02 
1337	 1.67131978107225E-02 
1338	 1.67386459554073E-02 
1339	 0.017134231673195 
1340	 1.78000711783868E-02 
1341	 1.78075496596801E-02 
1342	 1.83410462669588E-02 
1343	 1.85643469521563E-02 
1344	 1.70697946312953E-02 
1345	 1.65553468503374E-02 
1346	 1.67859094414954E-02 
1347	 1.73975486689164E-02 
1348	 2.03377299376182E-02 
1349	 2.17402521537805E-02 
1350	 0.023263669566329 
1351	 2.33444463983972E-02 
1352	 8.87457111392022E-03 
1353	 2.70637433100196E-03 
1354	 1.02946735396576E-02 
1355	 2.98705919878463E-02 
1356	 5.08211955275085E-02 
1357	 5.64144230198368E-02 
1358	 3.48806894387385E-02 
1359	 2.85388827584517E-02 
1360	 2.90017020050879E-02 
1361	-1.20082440315103E-02 
1362	-8.31946172585961E-02 
1363	-0.148994481788779 
1364	-0.118262566122297 
1365	 0.021202639844231 
1366	 5.53191636007395E-02 
1367	-2.79545247896643E-02 
1368	-5.50931943660263E-03 
1369	 5.51570856229109E-02 
1370	 3.07591228794653E-02 
1371	 5.68155515074437E-03 
1372	 3.29218534293656E-03 
1373	-0.169262157503951 
1374	-0.130969498644643 
1375	 0.138797374811866 
1376	 0.253190659579727 
1377	 0.451063087251262 
1378	 0.461792359726011 
1379	 0.244962698562322 
1380	 0.175454033422988 
1381	 4.58029370513279E-02 
1382	 9.6922344348524E-03 
1383	 0.247497880327377 
1384	 0.333350148041892 
1385	 0.128216335990948 
1386	 0.166397311591319 
1387	 0.469213089345133 
1388	 0.398971545857022 
1389	 4.18491881346985E-02 
1390	-1.79524427632295E-02 
1391	 1.00724166916405E-02 
1392	-0.115965731963938 
1393	-0.244761900206256 
1394	 5.03208533043616E-02 
1395	 0.577798825660002 
1396	 0.673124692834351 
1397	 0.415608667054588 
1398	 0.336526871262603 
1399	 0.232238840143721 
1400	 3.28243282735998E-02 
1401	 0.1642187539882 
1402	 0.297979570568212 
1403	 6.41708984370555E-02 
1404	 1.54230409527243E-02 
1405	 5.25170039059537E-02 
1406	 0.388093256078765 
1407	 0.291030892117092 
1408	 2.74151517588186E-03 
1409	-5.43839585419145E-03 
1410	-1.32889367493499E-02 
1411	-2.05791181764018E-02 
1412	 6.55746688839425E-02 
1413	 0.106895171586133 
1414	 9.84524354465239E-02 
1415	 8.55186855336318E-02 
1416	 0.104382666442993 
1417	 0.102822036316198 
1418	 0.077127003157467 
1419	 5.40727746023444E-02 
1420	 3.09984523662629E-02 
1421	 3.24094362186179E-02 
1422	 5.18050395819862E-02 
1423	 3.18991661443219E-02 
1424	-8.31782870103476E-03 
1425	-3.88828326406028E-03 
1426	 6.49345895999839E-03 
1427	 4.19906625963129E-03 
1428	 2.08825419679638E-02 
1429	 2.80481102783789E-02 
1430	 1.26002292933211E-02 
1431	 8.17660047487429E-03 
1432	 0.015882156106866 
1433	 2.07097418838192E-02 
1434	 2.64269538283714E-02 
1435	 2.70732330102386E-02 
1436	 2.54043539743655E-02 
1437	 2.46219412173515E-02 
1438	 2.82898459187933E-02 
1439	 2.23010584027404E-02 
1440	 1.39177536457782E-02 
1441	 1.88750230779706E-02 
1442	 2.31652248801063E-02 
1443	 1.66303591676567E-02 
1444	 1.56612242818763E-02 
1445	 0.021577774768339 
1446	 1.85411386419891E-02 
1447	 1.24217415456598E-02 
1448	 1.29835220568093E-02 
1449	 1.44914868035991E-02 
1450	 1.26873242342576E-02 
1451	 0.012420722793588 
1452	 1.47066959709305E-02 
1453	 1.38251890444352E-02 
1454	 0.012559982061661 
1455	 1.23488686026195E-02 
1456	 1.26888581822914E-02 
1457	 0.011129503378841 
1458	 1.06536227464669E-02 
1459	 1.20638103696384E-02 
1460	 1.31935162674376E-02 
1461	 1.38291295402718E-02 
1462	 0.013589469808629 
1463	 0.014275264517215 
1464	 1.41374057954157E-02 
1465	 1.10359304514826E-02 
1466	 1.06516750187833E-02 
1467	 1.29136273769558E-02 
1468	 1.35643674367992E-02 
1469	 1.43574266868222E-02 
1470	 1.40161268432189E-02 
1471	 1.20508676899999E-02 
1472	 1.16362718816348E-02 
1473	 1.11739438312708E-02 
1474	 1.16507018918421E-02 
1475	 1.38000238255976E-02 
1476	 0.014059287258934 
1477	 1.38342202429359E-02 
1478	 1.33887010747515E-02 
1479	 1.21932344844128E-02 
1480	 1.17584651865155E-02 
1481	 1.11208168010624E-02 
1482	 1.10381773666953E-02 
1483	 1.16869043590948E-02 
1484	 1.19152874265676E-02 
1485	 1.22265822050357E-02 
1486	 1.21416202679607E-02 
1487	 1.17752767324582E-02 
1488	 1.15516070974587E-02 
1489	 1.13155909079175E-02 
1490	 1.10847186428394E-02 
1491	 1.06055733744417E-02 
1492	 1.06654235844151E-02 
1493	 1.13145010324236E-02 
1494	 0.011264053867916 
1495	 1.08271311992154E-02 
1496	 1.09205700892993E-02 
1497	 0.010978017924162 
1498	 1.09486262579809E-02 
1499	 1.13450773308103E-02 
1500	 1.15287729938431E-02 
1501	 1.13651470249269E-02 
1502	 1.12685066439331E-02 
1503	 1.12207269550138E-02 
1504	 1.12700821473424E-02 
1505	 1.13350134877194E-02 
1506	 1.12784373282679E-02 
1507	 1.13970821759429E-02 
1508	 1.16249365515746E-02 
1509	 1.15917714309486E-02 
1510	 1.13739492762188E-02 
1511	 1.13657392584458E-02 
1512	 1.14728105564521E-02 
1513	 1.14032141666363E-02 
1514	 1.13884223771231E-02 
1515	 1.14044770758803E-02 
1516	 1.13743304186666E-02 
1517	 1.16295264130329E-02 
1518	 1.19115790527365E-02 
1519	 1.18453988925502E-02 
1520	 1.17217501538805E-02 
1521	 1.16580982555372E-02 
1522	 1.16092833182172E-02 
1523	 1.17027757389007E-02 
1524	 1.17689692263157E-02 
1525	 0.011812400726264 
1526	 1.20017493229437E-02 
1527	 1.20060274075147E-02 
1528	 1.18838458828259E-02 
1529	 1.19940748971538E-02 
1530	 1.19735642127319E-02 
1531	 1.18631875193996E-02 
1532	 1.20685535891373E-02 
1533	 1.22545476594656E-02 
1534	 1.21696317057191E-02 
1535	 0.012024757902095 
1536	 1.20224266706016E-02 
1537	 1.21364970612128E-02 
1538	 1.21641095753031E-02 
1539	 1.21052057734784E-02 
1540	 1.21741076318504E-02 
1541	 1.21896548362932E-02 
1542	 1.20243118404038E-02 
1543	 1.21287806804086E-02 
1544	 1.23375100085123E-02 
1545	 1.21437149886108E-02 
1546	 1.20030329114526E-02 
1547	 0.012174760423303 
1548	 1.22541041980033E-02 
1549	 1.23402503669018E-02 
1550	 1.24911861068378E-02 
1551	 1.24221123897369E-02 
1552	 1.22658093025087E-02 
1553	 1.22662798301274E-02 
1554	 1.23756107304449E-02 
1555	 0.012462458464922 
1556	 1.24891914798248E-02 
1557	 1.25601756814442E-02 
1558	 1.26135306037069E-02 
1559	 1.25619248234714E-02 
1560	 1.25440828348083E-02 
1561	 1.25171535756378E-02 
1562	 1.24916154322115E-02 
1563	 1.25639785651081E-02 
1564	 1.25763579445193E-02 
1565	 1.25705757749018E-02 
1566	 1.25930670882969E-02 
1567	 1.24938443044761E-02 
1568	 1.24733105805673E-02 
1569	 1.25726319428869E-02 
1570	 1.26106612866352E-02 
1571	 1.25004246346198E-02 
1572	 1.25129776249336E-02 
1573	 1.28859431049154E-02 
1574	 1.30460398585338E-02 
1575	 1.31576636940471E-02 
1576	 1.33220211024782E-02 
1577	 1.29403026306778E-02 
1578	 1.26119593056213E-02 
1579	 1.27453018062095E-02 
1580	 1.29011541931602E-02 
1581	 1.30387708859319E-02 
1582	 1.30020493755988E-02 
1583	 1.27866002609911E-02 
1584	 1.29043642447522E-02 
1585	 1.28504590337785E-02 
1586	 1.24715950099041E-02 
1587	 1.26107349098445E-02 
1588	 1.25600557363888E-02 
1589	 0.012439152155579 
1590	 0.012942002211821 
1591	 1.28114698881488E-02 
1592	 1.24407152348489E-02 
1593	 1.27227539128617E-02 
1594	 1.27788266849921E-02 
1595	 1.26524361711505E-02 
1596	 1.26773539141835E-02 
1597	 1.25921689059767E-02 
1598	 1.24650256893886E-02 
1599	 1.24978338249905E-02 
1600	 1.26789316048275E-02 
1601	 1.25282835794955E-02 
1602	 1.24329144069043E-02 
1603	 0.012887886012805 
1604	 1.28607522526225E-02 
1605	 1.24069267511007E-02 
1606	 0.012406764661071 
1607	 0.012606700339574 
1608	 1.26953615673358E-02 
1609	 0.012711670953068 
1610	 1.27274245067106E-02 
1611	 1.26990835608222E-02 
1612	 1.25706035920883E-02 
1613	 1.27133783316196E-02 
1614	 1.29901012036884E-02 
1615	 1.27933138859193E-02 
1616	 1.26036994738278E-02 
1617	 1.25867978028327E-02 
1618	 1.24531364061663E-02 
1619	 1.24628300817091E-02 
1620	 1.24160954335332E-02 
1621	 1.24703744538406E-02 
1622	 0.012687486202882 
1623	 1.25868035535155E-02 
1624	 1.25192435418652E-02 
1625	 1.27308851211195E-02 
1626	 1.28370555687647E-02 
1627	 1.27481258570502E-02 
1628	 1.26820056313678E-02 
1629	 1.27228282081141E-02 
1630	 1.27572917643339E-02 
1631	 0.012721683713888 
1632	 1.27452322507341E-02 
1633	 1.27872704960696E-02 
1634	 1.27459892867602E-02 
1635	 1.27540273542835E-02 
1636	 1.28024986880089E-02 
1637	 1.28398667641978E-02 
1638	 1.27703032735914E-02 
1639	 1.26074644456456E-02 
1640	 1.27320215801357E-02 
1641	 1.28374560333092E-02 
1642	 1.25900460320974E-02 
1643	 1.25827759289921E-02 
1644	 1.27448213509031E-02 
1645	 1.25747284370822E-02 
1646	 1.24850881175326E-02 
1647	 1.28261402808306E-02 
1648	 1.30839474954732E-02 
1649	 1.29065581989099E-02 
1650	 1.27410399388437E-02 
1651	 0.012827613034675 
1652	 1.27896818210836E-02 
1653	 0.013013074506809 
1654	 1.31055953917249E-02 
1655	 1.27049123405971E-02 
1656	 1.26255384894797E-02 
1657	 1.28508439729504E-02 
1658	 1.28576084325394E-02 
1659	 0.01281410196245 
1660	 1.28655097790591E-02 
1661	 1.29726355933327E-02 
1662	 1.30204112827815E-02 
1663	 1.31267062405756E-02 
1664	 1.29387243279598E-02 
1665	 1.23692239294574E-02 
1666	 1.22612277452021E-02 
1667	 1.23818001525681E-02 
1668	 1.25145421445506E-02 
1669	 1.24455413758242E-02 
1670	 1.24628038766353E-02 
1671	 1.25088785809779E-02 
1672	 1.25101020734468E-02 
1673	 1.26382611929117E-02 
1674	 0.01289103849843 
1675	 1.29116691426948E-02 
1676	 1.26923278399682E-02 
1677	 1.29343755638358E-02 
1678	 1.30834216897529E-02 
1679	 1.26562332842452E-02 
1680	 1.25942264376041E-02 
1681	 1.28265329294209E-02 
1682	 1.26798809820767E-02 
1683	 1.25015899802705E-02 
1684	 1.26039995063998E-02 
1685	 1.26788123551553E-02 
1686	 1.26886275413205E-02 
1687	 1.27605524534748E-02 
1688	 1.28413621387039E-02 
1689	 1.26976251254359E-02 
1690	 1.23851259478376E-02 
1691	 1.23934451694525E-02 
1692	 0.012573264920835 
1693	 0.012691403730327 
1694	 1.28967367818051E-02 
1695	 1.28589689482111E-02 
1696	 1.26698405753441E-02 
1697	 1.27641576616303E-02 
1698	 1.26294646323122E-02 
1699	 1.25714041519679E-02 
1700	 1.32476784868362E-02 
1701	 1.32584372893942E-02 
1702	 1.25663014550318E-02 
1703	 1.26396117151801E-02 
1704	 1.27049640095003E-02 
1705	 1.23497299645478E-02 
1706	 1.27642108905464E-02 
1707	 1.31957459683546E-02 
1708	 1.26370123325707E-02 
1709	 0.012363276707782 
1710	 1.25170373837893E-02 
1711	 1.24473251722736E-02 
1712	 1.24073307124098E-02 
1713	 1.21921502093748E-02 
1714	 1.23165967958862E-02 
1715	 1.27013123520023E-02 
1716	 1.27809701293422E-02 
1717	 1.28405387376859E-02 
1718	 1.23970624306737E-02 
1719	 1.21674998439856E-02 
1720	 1.26745570612402E-02 
1721	 1.28841165287496E-02 
1722	 1.26353048259096E-02 
1723	 1.23219256032656E-02 
1724	 1.25727005269639E-02 
1725	 1.27253672954671E-02 
1726	 1.22564408944436E-02 
1727	 1.24579661211761E-02 
1728	 1.25448172008148E-02 
1729	 1.20427737557895E-02 
1730	 1.23415588337739E-02 
1731	 0.012619823121429 
1732	 0.011899527640578 
1733	 1.17701080188111E-02 
1734	 1.24304722933799E-02 
1735	 1.23557146088676E-02 
1736	 1.21201227408314E-02 
1737	 1.23680292429695E-02 
1738	 1.24069848377217E-02 
1739	 1.25486074311785E-02 
1740	 1.27614831201202E-02 
1741	 1.24367358899654E-02 
1742	 1.20199196055975E-02 
1743	 1.18556251626095E-02 
1744	 1.20744863605499E-02 
1745	 1.22911900176359E-02 
1746	 1.20216239498879E-02 
1747	 1.19688547729462E-02 
1748	 1.17011104041993E-02 
1749	 1.17341670553088E-02 
1750	 1.23949394773454E-02 
1751	 1.24273873704526E-02 
1752	 0.012147815325284 
1753	 1.21679769248462E-02 
1754	 1.18374793884569E-02 
1755	 1.17205218966345E-02 
1756	 1.23150399422139E-02 
1757	 1.25735137404623E-02 
1758	 1.19968931988892E-02 
1759	 1.18390845612137E-02 
1760	 1.12995094960967E-02 
1761	 1.12166139937016E-02 
1762	 1.23200023623893E-02 
1763	 1.28182383732874E-02 
1764	 1.27924201422278E-02 
1765	 1.22833431361755E-02 
1766	 1.13193681415719E-02 
1767	 1.12396420127206E-02 
1768	 1.16798330771565E-02 
1769	 1.19728644829617E-02 
1770	 1.24084542500442E-02 
1771	 1.19510033114807E-02 
1772	 1.07818238553793E-02 
1773	 1.05030766980251E-02 
1774	 1.00940632591518E-02 
1775	 1.10287634782163E-02 
1776	 1.14660201004065E-02 
1777	 1.18336281082103E-02 
1778	 1.19232260942568E-02 
1779	 1.12350737066567E-02 
1780	 1.06955541908576E-02 
1781	 9.91718690349232E-03 
1782	 9.45448312168335E-03 
1783	 9.44079374436462E-03 
1784	 9.75728744288704E-03 
1785	 1.02764782241353E-02 
1786	 1.03813640154167E-02 
1787	 1.04728237277352E-02 
1788	 1.05181167295347E-02 
1789	 1.04432587648993E-02 
1790	 1.17907093638559E-02 
1791	 1.24173650326232E-02 
1792	 1.25647820678879E-02 
1793	 1.25984477610899E-02 
1794	 1.08474610434515E-02 
1795	 8.35831621241723E-03 
1796	 9.6073324815983E-03 
1797	 1.15011917921789E-02 
1798	 1.23526318703982E-02 
1799	 1.41729989376923E-02 
1800	 6.62409182008972E-03 
1801	 4.50929364468948E-03 
1802	 1.24882135629182E-02 
1803	 1.53877140588514E-02 
1804	 0.019948234164512 
1805	 2.54718610545419E-02 
1806	 2.75483485841902E-02 
1807	 2.70049624627015E-02 
1808	 2.03113040596256E-02 
1809	 1.61625901591766E-02 
1810	-0.021885070606947 
1811	-4.24595262186363E-03 
1812	 0.143961473035397 
1813	 0.205507474004249 
1814	 0.269978389975659 
1815	 0.224426014527857 
1816	-0.141007970908154 
1817	-0.412974923725734 
1818	-0.658291315724259 
1819	-0.4667653157665 
1820	-0.420306271569259 
1821	-0.289984121214927 
1822	-0.106663930507511 
1823	-8.95632177272742E-02 
1824	 8.66419757075484E-03 
1825	 0.459859523262856 
1826	 0.723304681687111 
1827	 1.24209664149842 
1828	 1.33444523928502 
1829	 0.24888253333838 
1830	-0.08726701958719 
1831	 0.512715737828379 
1832	 0.260870791462083 
1833	-0.191196305456002 
1834	-0.383923687547464 
1835	-1.13900608102921 
1836	-1.26763557681316 
1837	-9.40929557347964E-02 
1838	 7.37608737049097E-02 
1839	 9.33503212084722E-02 
1840	 0.182289671978738 
1841	 0.320425423167302 
1842	-0.150626426337525 
1843	-0.352452388862786 
1844	-0.844168305632953 
1845	-3.00972567086845 
1846	 1.68852662876887 
1847	 1.43508901224181 
1848	-0.3518338549002 
1849	 0.302465729377996 
1850	 0.113779085279618 
1851	-0.150661129290736 
1852	-1.44761222328365 
1853	-17.4198047781151 
1854	 6.32633869315243 
1855	 1.36609717763506 
1856	 0.573793181610517 
1857	 2.71009486417419E-02 
1858	-0.240235039388199 
1859	-0.143548116814769 
1860	-0.265509738519329 
1861	-13.8542841023976 
1862	 0.478648938170971 
1863	 5.44254194034728 
1864	-24.6346378868832 
1865	-8.53020484783422 
1866	 5.187075545354 
1867	 5.29167889950687 
1868	-3.14017735203774 
1869	-1.65554303554274 
1870	-0.696329502006042 
1871	-0.756376536894766 
1872	-3.12686934345997 
1873	 2.52989119997471 
1874	 2.72745901334428 
1875	-33.6914853538095 
1876	-16.7336039844985 
1877	-2.76820560444329 
1878	-1.38529212563631 
1879	-1.26836994049164 
1880	-0.915264756516766 
1881	-0.447467698613163 
1882	-0.344135518478464 
1883	-0.399615407545868 
1884	-0.608434310531962 
1885	-1.9135457997573 
1886	-6.38105169418546 
1887	 9.28432824823171 
1888	 3.20203581269776 
1889	 2.9743091620454 
1890	 3.43825142300446 
1891	 5.59526974981457 
1892	-2.99435576109051 
1893	-1.07906052944229 
1894	-0.891127759088959 
1895	-1.74960011999355 
1896	-1.53871526374127 
1897	-1.7667303124942 
1898	-3.03342954512126 
1899	-1.97901911519714 
1900	-2.40893521908493 
1901	 8.37160769559683 
1902	 4.15763713073949 
1903	 5.59957082992229 
1904	 1.85785273908054 
1905	 1.49170309376869 
1906	-0.229393192300668 
1907	-1.42044128154149 
1908	-12.4878182186988 
1909	-23.0086278818905 
1910	-0.105646176548482 
1911	-0.170066515313462 
1912	-0.910971863601698 
1913	-1.10856542636022 
1914	-0.274704689171308 
1915	 0.488839914902147 
1916	-2.23847993210611 
1917	-1.8775209237995 
1918	-10.4523786578134 
1919	-15.9815389138346 
1920	-5.60586512069474 
1921	-1.54545748886703 
1922	-1.27773155362318 
1923	-0.450702081504421 
1924	-0.250919175322752 
1925	-0.284149986817646 
1926	-0.225306964438374 
1927	 5.32859488322269E-02 
1928	 0.214733588332395 
1929	 0.130696609187819 
1930	-0.579340210507227 
1931	-1.34430023166569 
1932	-0.889846203237399 
1933	-0.27119774996494 
1934	-0.267738727295389 
1935	-0.147291188293071 
1936	 5.78040383303249E-02 
1937	 8.31249084623196E-02 
1938	 0.093815487142065 
1939	 9.23589909931216E-02 
1940	 6.92335874553128E-02 
1941	 5.86567678209518E-03 
1942	-1.23085725857566E-02 
1943	 1.61200191213581E-02 
1944	 2.72365270098723E-02 
1945	 2.01957943981442E-02 
1946	 3.00864927700448E-02 
1947	 2.72586554444322E-02 
1948	 2.99871717466569E-02 
1949	 2.72056041707043E-02 
1950	-1.49307642558189E-02 
1951	-2.99754256047181E-02 
1952	-3.22927628639003E-02 
1953	-2.55771767942066E-02 
1954	-3.24237525001649E-02 
1955	-1.95997810349606E-02 
1956	-1.07887071665919E-02 
1957	-1.99000791320611E-02 
1958	-1.47125420100718E-02 
1959	 5.33513380420345E-04 
1960	 2.22208474420962E-03 
1961	 4.46048219613387E-03 
1962	 8.39281008836469E-03 
1963	 2.02156505720363E-03 
1964	-1.67346871488802E-03 
1965	-8.05727926351409E-04 
1966	-1.22443979108228E-04 
1967	-2.67380851413677E-04 
1968	 2.85390024963476E-03 
1969	 6.2084255769323E-03 
1970	 6.64115658979247E-03 
1971	 7.06216862325581E-03 
1972	 8.16071870271294E-03 
1973	 8.59942229613972E-03 
1974	 8.50040896183858E-03 
1975	 8.41509637815516E-03 
1976	 7.24032992937392E-03 
1977	 5.60872314020673E-03 
1978	 5.33207405809726E-03 
1979	 4.93827801979478E-03 
1980	 4.88659322071493E-03 
1981	 4.61314703707761E-03 
1982	 4.87252391009156E-03 
1983	 5.14975121603044E-03 
1984	 5.16430577688373E-03 
1985	 5.25744268045038E-03 
1986	 5.91298699384347E-03 
1987	 6.31139188821317E-03 
1988	 6.21334176958136E-03 
1989	 5.84675519500223E-03 
1990	 5.39702691822516E-03 
1991	 5.25617092008368E-03 
1992	 5.91156510705971E-03 
1993	 6.90377715211747E-03 
1994	 6.78069073320948E-03 
1995	 5.69337187139957E-03 
1996	 4.29078287013088E-03 
1997	 3.0922377164614E-03 
1998	 1.88775998603115E-03 
1999	 3.41498758873955E-03 
2000	 4.52012252675529E-03 
2001	 4.03239155399266E-03 
2002	 4.30696324545094E-03 
2003	 4.93192873608684E-03 
2004	 6.92135050535782E-03 
2005	 6.92048111807326E-03 
2006	 6.52398439282584E-03 
2007	 7.26616600535578E-03 
2008	 5.23568506993124E-03 
2009	 3.75951374619304E-03 
2010	 2.77827595673604E-03 
2011	 3.02222831129615E-03 
2012	 3.14301103751468E-03 
2013	 3.45728192369131E-03 
2014	 5.20894009432205E-03 
2015	 6.72871881891888E-03 
2016	 6.07885349675565E-03 
2017	 5.2743156458646E-03 
2018	 5.0056434200793E-03 
2019	 4.28356936662409E-03 
2020	 4.02774256816726E-03 
2021	 4.37625945261663E-03 
2022	 5.19189361755947E-03 
2023	 5.62992372184376E-03 
2024	 5.9648963548063E-03 
2025	 6.58499663070381E-03 
2026	 6.78529607192924E-03 
2027	 6.37103857659897E-03 
2028	 6.86218851821373E-03 
2029	 7.13661475126446E-03 
2030	 6.81527241053126E-03 
2031	 6.96272821591145E-03 
2032	 7.22210903117912E-03 
2033	 7.6701234249359E-03 
2034	 7.84176485552674E-03 
2035	 7.9150952549934E-03 
2036	 7.65950009978419E-03 
2037	 7.10905600511162E-03 
2038	 0.007494295764524 
2039	 7.66126264582278E-03 
2040	 8.07370046643833E-03 
2041	 7.96936253221397E-03 
2042	 7.34433271366713E-03 
2043	 7.29646145591959E-03 
2044	 7.1693540275724E-03 
2045	 7.65910190276976E-03 
2046	 8.30706422704038E-03 
2047	 8.79395839619265E-03 
2048	 8.47532752176008E-03 
2049	 7.44784566220398E-03 
2050	 7.08618845421254E-03 
2051	 6.72386721976228E-03 
2052	 6.41200552678284E-03 
2053	 7.04631555459038E-03 
2054	 6.94206516791756E-03 
2055	 6.48687655024399E-03 
2056	 6.64932144109279E-03 
2057	 7.09089671655064E-03 
2058	 7.10490846229317E-03 
2059	 7.69213655947821E-03 
2060	 7.93642685909518E-03 
2061	 7.47712614141628E-03 
2062	 7.63143497366765E-03 
2063	 8.30410013715692E-03 
2064	 6.92805061449955E-03 
2065	 6.09154189060838E-03 
2066	 6.28424444338305E-03 
2067	 5.75959552750912E-03 
2068	 6.23124753233558E-03 
2069	 7.60419922660202E-03 
2070	 8.31936295336998E-03 
2071	 8.78175577099124E-03 
2072	 8.88905403177462E-03 
2073	 8.6306469031492E-03 
2074	 7.17470830121302E-03 
2075	 6.96792846831215E-03 
2076	 7.24993195947505E-03 
2077	 7.31568821666545E-03 
2078	 7.81585622316081E-03 
2079	 8.03825179497181E-03 
2080	 7.74235755045703E-03 
2081	 8.09496788449224E-03 
2082	 8.89439706340788E-03 
2083	 8.86904391066885E-03 
2084	 8.74637229203735E-03 
2085	 8.14350434919755E-03 
2086	 7.50104033634121E-03 
2087	 7.44796593253548E-03 
2088	 7.65476346854403E-03 
2089	 7.91823099449431E-03 
2090	 7.20796439021265E-03 
2091	 6.76889541465292E-03 
2092	 6.94062294610159E-03 
2093	 7.43137501798656E-03 
2094	 7.55565679168219E-03 
2095	 8.22846341330568E-03 
2096	 8.25974904068479E-03 
2097	 7.37843517657929E-03 
2098	 7.30323393977597E-03 
2099	 7.75067854900494E-03 
2100	 7.97985441793089E-03 
2101	 7.44057321994523E-03 
2102	 6.7830321176836E-03 
2103	 5.81829008332773E-03 
2104	 5.49237524151468E-03 
2105	 6.5373877978697E-03 
2106	 7.60311788992347E-03 
2107	 7.76165628208833E-03 
2108	 7.61476818472276E-03 
2109	 7.61021486407521E-03 
2110	 7.34179781197363E-03 
2111	 7.71678845623812E-03 
2112	 8.17743118529597E-03 
2113	 8.23419259802138E-03 
2114	 7.75379070332237E-03 
2115	 7.80534807727576E-03 
2116	 7.89018469510671E-03 
2117	 8.14208736767894E-03 
2118	 9.0489129101323E-03 
2119	 9.01549857489182E-03 
2120	 8.14625872910381E-03 
2121	 8.16280194116915E-03 
2122	 8.39558744795072E-03 
2123	 8.38530751247185E-03 
2124	 9.03990684448216E-03 
2125	 9.29949630323271E-03 
2126	 9.13878827354162E-03 
2127	 9.05208090165043E-03 
2128	 8.73310138114379E-03 
2129	 8.37596956883779E-03 
2130	 7.86973699910957E-03 
2131	 7.92465534194961E-03 
2132	 8.59818255175276E-03 
2133	 8.88060522572065E-03 
2134	 9.07204381549612E-03 
2135	 9.31744274268002E-03 
2136	 9.10371829917397E-03 
2137	 8.18091943650125E-03 
2138	 8.08436847570881E-03 
2139	 8.0288990516606E-03 
2140	 8.30735347761433E-03 
2141	 0.009868074432072 
2142	 9.93578657941478E-03 
2143	 9.34792587926428E-03 
2144	 8.58233600288672E-03 
2145	 7.60091237997761E-03 
2146	 7.18683855336289E-03 
2147	 7.43175807369916E-03 
2148	 7.56998273474497E-03 
2149	 7.82818855765196E-03 
2150	 8.34501109611879E-03 
2151	 9.04917168811352E-03 
2152	 9.44498849420361E-03 
2153	 1.00378324873832E-02 
2154	 9.78131538266206E-03 
2155	 8.77422873670894E-03 
2156	 9.18268288330066E-03 
2157	 9.15832974612278E-03 
2158	 8.69303872701117E-03 
2159	 8.30605158596096E-03 
2160	 8.00995346755379E-03 
2161	 7.96168655352527E-03 
2162	 7.61897416334293E-03 
2163	 7.78307172473754E-03 
2164	 9.32411785129904E-03 
2165	 9.62326003355241E-03 
2166	 8.98344573846733E-03 
2167	 8.82551994421974E-03 
2168	 8.38941391049368E-03 
2169	 8.03016045437741E-03 
2170	 7.52828031505524E-03 
2171	 7.9062155392976E-03 
2172	 8.80670997236491E-03 
2173	 9.48826315678769E-03 
2174	 9.07444296127895E-03 
2175	 8.82728022183089E-03 
2176	 8.54543323125569E-03 
2177	 7.42967310355677E-03 
2178	 7.33104029262953E-03 
2179	 8.16105325485746E-03 
2180	 9.42075239860653E-03 
2181	 1.01056516831512E-02 
2182	 9.24348104937891E-03 
2183	 8.72936653928282E-03 
2184	 8.39176222091114E-03 
2185	 7.71227761427613E-03 
2186	 6.8186418970591E-03 
2187	 6.5194315846842E-03 
2188	 6.47596814020278E-03 
2189	 5.40862514774401E-03 
2190	 5.17926255283621E-03 
2191	 7.36617503034232E-03 
2192	 7.31814022379922E-03 
2193	 4.85149972808212E-03 
2194	 4.80310387539582E-03 
2195	 5.64919914478789E-03 
2196	 5.7555137360809E-03 
2197	 7.59189082084562E-03 
2198	 7.99928864610157E-03 
2199	 6.9181671919133E-03 
2200	 5.06487307110873E-03 
2201	 4.94825841331849E-03 
2202	 5.00664793933329E-03 
2203	 6.57525956295033E-03 
2204	 8.39095562269766E-03 
2205	 7.48848883446714E-03 
2206	 6.07530320093638E-03 
2207	 5.74857215348184E-03 
2208	 5.18402620727411E-03 
2209	 4.68865325947554E-03 
2210	 5.93110822981398E-03 
2211	 5.9162115538669E-03 
2212	 4.14487110891888E-03 
2213	 5.14948820914041E-03 
2214	 0.006778540923965 
2215	 6.04628624448438E-03 
2216	 6.2812191976895E-03 
2217	 6.7370536561685E-03 
2218	 6.78977287572325E-03 
2219	 6.83767876608508E-03 
2220	 8.03833196569763E-03 
2221	 7.68058974225068E-03 
2222	 5.70513637358715E-03 
2223	 5.6816879496219E-03 
2224	 6.37073269211495E-03 
2225	 6.54146169976974E-03 
2226	 7.18985575091068E-03 
2227	 7.80633651346644E-03 
2228	 7.63392142807189E-03 
2229	 8.00522783668702E-03 
2230	 1.03464341651918E-02 
2231	 1.06716179148629E-02 
2232	 8.89624757800586E-03 
2233	 8.29931966057442E-03 
2234	 7.51434634691832E-03 
2235	 6.75693229244135E-03 
2236	 6.03839755376165E-03 
2237	 6.91560185175295E-03 
2238	 7.82488155381265E-03 
2239	 7.59665158503399E-03 
2240	 8.45986016344741E-03 
2241	 9.47523955733606E-03 
2242	 9.42490609044077E-03 
2243	 8.97294452492241E-03 
2244	 8.10729683932468E-03 
2245	 7.80932601767145E-03 
2246	 7.16653667304163E-03 
2247	 7.20048065444683E-03 
2248	 8.54260705314536E-03 
2249	 8.42774071171367E-03 
2250	 7.33134803885244E-03 
2251	 7.06077246724451E-03 
2252	 6.33884189260663E-03 
2253	 4.63158601481758E-03 
2254	 4.43268427592355E-03 
2255	 4.39677941565374E-03 
2256	 3.56595671702706E-03 
2257	 4.44668445735201E-03 
2258	 4.36851465595047E-03 
2259	 2.63555944536969E-03 
2260	 0.002517699837611 
2261	 2.73325854272145E-03 
2262	 2.26137266757504E-03 
2263	 2.44120958416801E-03 
2264	 3.68699006337951E-03 
2265	 4.55424842952424E-03 
2266	 5.16650550551593E-03 
2267	 8.00775317418224E-03 
2268	 7.61777655721163E-03 
2269	 3.71238474878564E-03 
2270	 3.39231317478999E-03 
2271	 0.003793337427317 
2272	 3.25158704743657E-03 
2273	 3.77103434203092E-03 
2274	 4.83008345650786E-03 
2275	 5.74789733075022E-03 
2276	 5.64292159219023E-03 
2277	 6.53338821988091E-03 
2278	 6.49192162710967E-03 
2279	 2.87687153142396E-03 
2280	 2.78475688207102E-03 
2281	 6.20337431816437E-03 
2282	 6.43502543055405E-03 
2283	 6.19298464166237E-03 
2284	 8.31662701151518E-03 
2285	 7.30405130019961E-03 
2286	 7.92489717565803E-03 
2287	 9.25569236621086E-03 
2288	 7.99585140384006E-03 
2289	 9.19931670595575E-03 
2290	 9.16390701452142E-03 
2291	 7.51189077197598E-03 
2292	 8.14232743945432E-03 
2293	 7.21031328312247E-03 
2294	 5.95729521514947E-03 
2295	 4.73552640988642E-03 
2296	 2.5957320099572E-03 
2297	 3.46707063877249E-03 
2298	 5.33885789399011E-03 
2299	 5.94389345650786E-03 
2300	 6.9174839054654E-03 
2301	 7.85274566805748E-03 
2302	 7.02791554364854E-03 
2303	 7.46604014503811E-03 
2304	 9.85878803788784E-03 
2305	 1.10670355505123E-02 
2306	 1.06812795670965E-02 
2307	 7.51244907189759E-03 
2308	 4.75551250969127E-03 
2309	 1.7190018135419E-03 
2310	-2.21918280427252E-03 
2311	 8.64924939359886E-04 
2312	 5.2319880738738E-03 
2313	 6.45681365622091E-03 
2314	 8.07089638542435E-03 
2315	 6.8734596916857E-03 
2316	 3.95076613195862E-03 
2317	-1.77949870349413E-03 
2318	-7.36984196748933E-03 
2319	-6.83898835665786E-03 
2320	-8.4720689966418E-03 
2321	-1.02700104639858E-02 
2322	-7.60910693175241E-03 
2323	-7.83096044473527E-03 
2324	-6.89894560946701E-03 
2325	-9.33962404358219E-04 
2326	 5.28967370051511E-03 
2327	 9.74840388953626E-03 
2328	 1.23595123609413E-02 
2329	 1.15790802185053E-02 
2330	 5.47895352971952E-03 
2331	-2.94487458821792E-04 
2332	-5.15110848002953E-03 
2333	-9.20338627776775E-03 
2334	-5.38552519829526E-03 
2335	-1.27687908378623E-03 
2336	 4.14280117946145E-04 
2337	 2.05618365082248E-03 
2338	 2.13257513510054E-03 
2339	 5.36841983720845E-03 
2340	 4.54358782541563E-03 
2341	-1.53224822564144E-03 
2342	-1.03492294733537E-03 
2343	-1.44221352453042E-03 
2344	-7.97792480449412E-03 
2345	-7.41886200762007E-03 
2346	-5.96134629479524E-03 
2347	-1.15298533021741E-02 
2348	-1.08290022998905E-02 
2349	-2.36052955988253E-03 
2350	 1.52133396809613E-03 
2351	-5.97770806346591E-03 
2352	-1.47592743332079E-02 
2353	-1.71630914557786E-02 
2354	-1.72563899754166E-02 
2355	-1.06929607077185E-02 
2356	-2.98128584015409E-03 
2357	-6.46346453753254E-03 
2358	-1.60332030809535E-02 
2359	-1.73999572957568E-02 
2360	-1.09052866516834E-02 
2361	-1.56958067916958E-03 
2362	 5.92183194806842E-03 
2363	 1.31453239076205E-03 
2364	-3.92731517733527E-03 
2365	-2.96189763279342E-03 
2366	 2.2459805543336E-03 
2367	 1.38721097528162E-02 
2368	 1.68639625269266E-02 
2369	 1.19412538021634E-02 
2370	 1.36420807181015E-02 
2371	 1.68559751953297E-02 
2372	 1.69277287880223E-02 
2373	 8.41328452592014E-03 
2374	-9.75662186016156E-03 
2375	-2.35861527762894E-02 
2376	-2.88172330116201E-02 
2377	-3.15597177402558E-02 
2378	-2.50912815414653E-02 
2379	-2.16746899093807E-02 
2380	-2.24823029386388E-02 
2381	-2.01820401692679E-02 
2382	-2.01136216263891E-02 
2383	-6.99074377289075E-04 
2384	 2.57976869019183E-02 
2385	 3.37106360266356E-02 
2386	 2.30638298444096E-02 
2387	 6.67530988763236E-03 
2388	-2.47557552047142E-02 
2389	-4.67668864358261E-02 
2390	-3.20191330395934E-02 
2391	-3.90861043754601E-02 
2392	-6.03790709449093E-02 
2393	-5.63296006932492E-02 
2394	-3.40786126187565E-02 
2395	-2.53897236860915E-02 
2396	-2.56968290319863E-02 
2397	-2.48985440707997E-02 
2398	-4.24533955670592E-02 
2399	-4.02784478606444E-02 
2400	-2.12656302458992E-02 
2401	-1.81461889570648E-02 
2402	-1.55395721619866E-02 
2403	-1.07834691303033E-02 
2404	-1.19757762385247E-02 
2405	-2.26873360253874E-02 
2406	-3.68731576347658E-02 
2407	-5.48711564499111E-02 
2408	-7.38984834538444E-02 
2409	-5.67494065828804E-02 
2410	-3.13047437252873E-02 
2411	-3.52500531568143E-02 
2412	-5.00628440707994E-02 
2413	-5.87866365632748E-02 
2414	-4.51777006605626E-02 
2415	-6.14787997633666E-02 
2416	-3.23006543271652E-02 
2417	 7.59031653141487E-03 
2418	-0.060053582915194 
2419	-0.120877823207874 
2420	-0.145192909024409 
2421	-0.150805267874302 
2422	-9.82812180752203E-02 
2423	-3.00534116308936E-02 
2424	-2.23558237222392E-02 
2425	-2.65897202747405E-02 
2426	-5.75896876988231E-02 
2427	-9.10783699883746E-02 
2428	-6.33678349729338E-02 
2429	-3.25992584933943E-02 
2430	-3.87168158410041E-02 
2431	-7.51329991338787E-02 
2432	-8.77101564394127E-02 
2433	-0.121673964641291 
2434	-0.181081658088441 
2435	-0.187589622764999 
2436	-0.203767518590376 
2437	-0.262752562726232 
2438	-0.212165226402672 
2439	-8.59633449525251E-02 
2440	-1.44481379473314E-02 
2441	 3.09191804768552E-02 
2442	 3.21023549269332E-03 
2443	-7.96623410753967E-02 
2444	-7.22209190015362E-02 
2445	-2.63077354054492E-02 
2446	-5.83422511344443E-02 
2447	-0.146594951195861 
2448	-0.195430718187411 
2449	-0.264623167811185 
2450	-0.382001908170659 
2451	-0.246127072211344 
2452	-0.346143987856807 
2453	-0.649432474510071 
2454	-0.517615955882951 
2455	-0.425872974740675 
2456	-0.330242112566849 
2457	-0.196030169147574 
2458	-0.28184359110429 
2459	-0.459847522004985 
2460	-0.654768114191438 
2461	-0.677782594919003 
2462	-0.580902451799713 
2463	-0.412527878567457 
2464	-0.287118529090181 
2465	-0.24008465193077 
2466	-0.291603870717064 
2467	-0.419516775650718 
2468	-0.533884141461997 
2469	-0.816568540439953 
2470	-0.944194347074717 
2471	-1.02249418100295 
2472	-3.34484931069988 
2473	-0.762502967934255 
2474	-0.194996097213865 
2475	-0.243965722371922 
2476	-0.135067731525279 
2477	-0.444602790330804 
2478	-2.3745216564924 
2479	-1.87267710478335 
2480	-1.4588044307624 
2481	-2.40016737920723 
2482	-1.42407316819865 
2483	-1.2747989094893 
2484	-1.30442992060813 
2485	-0.543502550394599 
2486	-0.254814354957774 
2487	-0.679237164179051 
2488	-0.779644857594161 
2489	-0.883403116592881 
2490	-0.931328369870606 
2491	-0.674866339322384 
2492	-0.812079601358588 
2493	-0.428731589222328 
2494	-0.102508299142502 
2495	 0.118499233366956 
2496	-0.351881559196177 
2497	-2.39373210368011 
2498	-0.511998320683357 
2499	-0.660356720332151 
2500	-2.14181686046552 
