Wavelength	rt0721algea00009.asd
350	 4.20986436370912E-02 
351	 4.20493215210929E-02 
352	 4.22353156630648E-02 
353	 4.23418881663783E-02 
354	 4.22751032111441E-02 
355	 4.24259419701657E-02 
356	 4.23146101520952E-02 
357	 4.23322096022131E-02 
358	 4.27952166374914E-02 
359	 4.26058554421786E-02 
360	 4.21962565532797E-02 
361	 4.18965938172251E-02 
362	 4.18908428792771E-02 
363	 0.042105960259933 
364	 4.20963771169216E-02 
365	 4.18666839930412E-02 
366	 4.21534644288436E-02 
367	 4.18987025373289E-02 
368	 0.041598181472014 
369	 4.18789648152765E-02 
370	 4.23983635996293E-02 
371	 4.25049927978347E-02 
372	 0.04223794259047 
373	 4.20979447138096E-02 
374	 4.25199327084742E-02 
375	 4.28962413893007E-02 
376	 4.29626287126245E-02 
377	 4.30791504802392E-02 
378	 4.31892177707042E-02 
379	 4.35053446851212E-02 
380	 4.39812580373777E-02 
381	 4.35891904352605E-02 
382	 0.043647792436848 
383	 4.41359746750015E-02 
384	 4.44195022708652E-02 
385	 4.47332785712438E-02 
386	 4.46790432035043E-02 
387	 4.45381503584738E-02 
388	 4.52878039140981E-02 
389	 4.52019619251636E-02 
390	 4.51128454616688E-02 
391	 4.56768474781868E-02 
392	 4.59289666549372E-02 
393	 4.60908817553692E-02 
394	 4.61855509625865E-02 
395	 4.62076494384885E-02 
396	 4.62883622092472E-02 
397	 4.64236579526303E-02 
398	 4.66004309158429E-02 
399	 4.68057408192901E-02 
400	 4.69813777808219E-02 
401	 4.70937949588646E-02 
402	 4.71718495945844E-02 
403	 4.73684111645383E-02 
404	 0.047531243884725 
405	 4.77138742491103E-02 
406	 4.79804392450198E-02 
407	 4.79943092502016E-02 
408	 4.81037124011842E-02 
409	 4.83308195191669E-02 
410	 4.83652095128444E-02 
411	 4.86272760189117E-02 
412	 4.88698954051822E-02 
413	 4.89090590788148E-02 
414	 4.89586458197993E-02 
415	 4.92526028222782E-02 
416	 4.95624030070318E-02 
417	 4.95944005277027E-02 
418	 4.99431953610097E-02 
419	 5.03123422845381E-02 
420	 5.05558853475774E-02 
421	 5.07591919051572E-02 
422	 5.09853878077322E-02 
423	 5.13267794099348E-02 
424	 5.17662688691668E-02 
425	 5.19838792124592E-02 
426	 0.052251729059462 
427	 5.25421740058243E-02 
428	 5.27380136938423E-02 
429	 5.31884728519456E-02 
430	 5.36217182845051E-02 
431	 5.39324600758024E-02 
432	 5.42789384732556E-02 
433	 5.46283556145866E-02 
434	 5.49978089082189E-02 
435	 5.53759276192588E-02 
436	 5.56251850968585E-02 
437	 5.60043988640652E-02 
438	 0.056472136501062 
439	 5.68404579155317E-02 
440	 5.72579536253641E-02 
441	 5.75581588818813E-02 
442	 5.77640056712961E-02 
443	 5.82200603510133E-02 
444	 5.85976898160756E-02 
445	 5.88539500419596E-02 
446	 5.90695523105766E-02 
447	 5.94814576693472E-02 
448	 5.98283123377769E-02 
449	 6.00591787155182E-02 
450	 0.060286546181077 
451	 6.04853094317564E-02 
452	 6.06696955440644E-02 
453	 6.08544010017347E-02 
454	 6.10459065124677E-02 
455	 6.12477480230207E-02 
456	 6.14065584121185E-02 
457	 6.14869254575642E-02 
458	 0.061665883307072 
459	 6.17370938379236E-02 
460	 6.17568377444894E-02 
461	 0.062035676726178 
462	 6.21031197377841E-02 
463	 0.062160001710791 
464	 0.062375446970314 
465	 6.24513967997212E-02 
466	 6.25542746007214E-02 
467	 6.27397466606426E-02 
468	 6.29761982499851E-02 
469	 6.30072012552109E-02 
470	 6.31098573123056E-02 
471	 0.063326017539616 
472	 6.33224558232793E-02 
473	 6.34436923532074E-02 
474	 6.36898316600551E-02 
475	 6.39526945128579E-02 
476	 6.40795484451584E-02 
477	 6.42705058828828E-02 
478	 6.44960311460502E-02 
479	 6.46006782853099E-02 
480	 6.49198595601641E-02 
481	 6.52445737771465E-02 
482	 0.065429765069819 
483	 6.55959163843102E-02 
484	 6.57984910981681E-02 
485	 6.60922417220243E-02 
486	 6.64967288860598E-02 
487	 6.69247656345135E-02 
488	 6.72413949237668E-02 
489	 6.74926865739563E-02 
490	 6.78869812298367E-02 
491	 6.82493780851327E-02 
492	 6.86329912652252E-02 
493	 6.90908769510925E-02 
494	 6.95655093053784E-02 
495	 7.00675494228774E-02 
496	 7.05724836038552E-02 
497	 7.10433153851435E-02 
498	 0.071467949865048 
499	 7.19377925064198E-02 
500	 7.25302076586069E-02 
501	 7.32918082058044E-02 
502	 7.39032117752738E-02 
503	 0.074429178940518 
504	 7.50249999922919E-02 
505	 7.56888017273972E-02 
506	 7.63528318973115E-02 
507	 7.70282502659428E-02 
508	 7.77794297625494E-02 
509	 7.84498562881675E-02 
510	 7.91723212418883E-02 
511	 8.00143956099748E-02 
512	 8.07969397360461E-02 
513	 8.15493031479092E-02 
514	 8.23290818234936E-02 
515	 8.31837620890948E-02 
516	 0.083968850651813 
517	 8.48980174248316E-02 
518	 8.59205020439054E-02 
519	 8.66416397581367E-02 
520	 8.74078895317551E-02 
521	 8.82104969046222E-02 
522	 8.89982682713391E-02 
523	 8.98607786959733E-02 
524	 0.09067439495422 
525	 0.091437195468857 
526	 9.22365204783927E-02 
527	 9.30568617970686E-02 
528	 9.38692923284974E-02 
529	 9.46568249368382E-02 
530	 9.54374017870426E-02 
531	 9.61608067099499E-02 
532	 9.68836166828132E-02 
533	 9.76797629305508E-02 
534	 9.84909515608948E-02 
535	 9.92041962348164E-02 
536	 9.98593907186421E-02 
537	 0.100659875154632 
538	 0.101416361761019 
539	 0.10213071107614 
540	 0.102858156909127 
541	 0.103682348024222 
542	 0.104425495124285 
543	 0.105113654073699 
544	 0.1058889125852 
545	 0.106617101972072 
546	 0.107344357856732 
547	 0.108090332473565 
548	 0.108779313924952 
549	 0.109489246098251 
550	 0.110217615289112 
551	 0.110935227724925 
552	 0.111633187383451 
553	 0.112289609513461 
554	 0.112924808764467 
555	 0.113600845867265 
556	 0.114240893990678 
557	 0.114850647779656 
558	 0.11544218543786 
559	 0.116006344488531 
560	 0.116501844557567 
561	 0.116955304478948 
562	 0.11743306028888 
563	 0.117909958963596 
564	 0.118329268689021 
565	 0.118673172367942 
566	 0.119006402971364 
567	 0.119319320622867 
568	 0.119623860912997 
569	 0.119920425430846 
570	 0.12011409999875 
571	 0.120338120154999 
572	 0.120643887918685 
573	 0.120976971438088 
574	 0.121170291498345 
575	 0.12127148467561 
576	 0.121389113324126 
577	 0.121653930029591 
578	 0.121835642134248 
579	 0.12190377009897 
580	 0.121961582563985 
581	 0.122062233816627 
582	 0.122167875479774 
583	 0.122227955224682 
584	 0.12219541774633 
585	 0.122036448917308 
586	 0.121814853690433 
587	 0.121614459618831 
588	 0.12137649376359 
589	 0.12125289227009 
590	 0.121245964173114 
591	 0.121184042686384 
592	 0.121076061218343 
593	 0.120928230236524 
594	 0.120752909666409 
595	 0.120556837192042 
596	 0.120362681150727 
597	 0.12015735280949 
598	 0.119909460546445 
599	 0.119612314363365 
600	 0.119352617324235 
601	 0.119175647145909 
602	 0.119037934911988 
603	 0.118925323961039 
604	 0.118847541254303 
605	 0.118819294028657 
606	 0.118833779625239 
607	 0.118812535534839 
608	 0.118759461695856 
609	 0.118763387498436 
610	 0.118761408829909 
611	 0.118735436378773 
612	 0.118678704074355 
613	 0.118576833997 
614	 0.118557313647867 
615	 0.118561007681688 
616	 0.118451140148926 
617	 0.118443147338589 
618	 0.118430045556584 
619	 0.118351385940198 
620	 0.118275730419271 
621	 0.118202529243485 
622	 0.118163768728103 
623	 0.118171886745283 
624	 0.11811635225908 
625	 0.118027573989264 
626	 0.11793782294724 
627	 0.117875603274361 
628	 0.117868974407152 
629	 0.117855242314166 
630	 0.117797986478559 
631	 0.117789274994225 
632	 0.117672350106663 
633	 0.117511282584375 
634	 0.117434008086461 
635	 0.117169126269096 
636	 0.116896132039652 
637	 0.116687963117582 
638	 0.116402151911431 
639	 0.116111561832548 
640	 0.115832664509785 
641	 0.115555386757113 
642	 0.115219528876557 
643	 0.114852769245443 
644	 0.114429474690498 
645	 0.113894944830368 
646	 0.113413879897532 
647	 0.113119550584374 
648	 0.112983617099932 
649	 0.11260286544402 
650	 0.112443389906461 
651	 0.112380477465359 
652	 0.112135723386839 
653	 0.112008942382956 
654	 0.111750042794604 
655	 0.111342030819265 
656	 0.111180337424174 
657	 0.11086701876849 
658	 0.110537842417049 
659	 0.110318076435767 
660	 0.110010501267682 
661	 0.109642884430867 
662	 0.109274087946897 
663	 0.108978237107369 
664	 0.10865364960887 
665	 0.108417916159693 
666	 0.108275080657995 
667	 0.107980587869588 
668	 0.107797007465859 
669	 0.107669483556531 
670	 0.107490185637818 
671	 0.107431876733086 
672	 0.107413385150022 
673	 0.107411473488677 
674	 0.107463434141499 
675	 0.107482590692109 
676	 0.107450124393539 
677	 0.1074388480964 
678	 0.107726130309538 
679	 0.108018525833715 
680	 0.108268471360073 
681	 0.108568710888852 
682	 0.109117052201308 
683	 0.109769066916164 
684	 0.110424624803526 
685	 0.111145445366494 
686	 0.112007838447918 
687	 0.112997211273867 
688	 0.113996314525919 
689	 0.114953698735581 
690	 0.115896359406953 
691	 0.116800855831139 
692	 0.117622763692176 
693	 0.118385582825734 
694	 0.119196477165567 
695	 0.120035025524919 
696	 0.120773927956109 
697	 0.121245704927875 
698	 0.1215158555676 
699	 0.121710818492736 
700	 0.121990333503392 
701	 0.122222947571703 
702	 0.122354435543405 
703	 0.122409767097744 
704	 0.122329445333817 
705	 0.122146172846278 
706	 0.121887960245923 
707	 0.121541628222082 
708	 0.1210085260668 
709	 0.120385983382146 
710	 0.119788142247385 
711	 0.118989214974423 
712	 0.117987594840064 
713	 0.116817777960678 
714	 0.115505980998853 
715	 0.114138663784133 
716	 0.112472236950642 
717	 0.110515641672233 
718	 0.109139406327943 
719	 0.107711938899141 
720	 0.106440149616395 
721	 0.105413883924161 
722	 0.104027999717289 
723	 0.102293712846377 
724	 0.10048501972714 
725	 9.86692073721151E-02 
726	 0.096933535157105 
727	 0.095012143955637 
728	 9.27572616761185E-02 
729	 9.04802478310949E-02 
730	 8.81773206507143E-02 
731	 8.60562087030313E-02 
732	 8.42209624811703E-02 
733	 8.25604564141503E-02 
734	 8.10980490832868E-02 
735	 0.079821236621453 
736	 7.86322497402792E-02 
737	 7.79874182298544E-02 
738	 7.75349242901622E-02 
739	 7.69873358601564E-02 
740	 7.68395718135516E-02 
741	 7.67269960948581E-02 
742	 7.65754190912443E-02 
743	 7.64726286925178E-02 
744	 7.64553440842649E-02 
745	 7.64963434483199E-02 
746	 0.076542146309657 
747	 7.65175276313554E-02 
748	 7.64494414434828E-02 
749	 7.64218454582467E-02 
750	 7.64768518800069E-02 
751	 7.64766227647704E-02 
752	 7.64469208365527E-02 
753	 7.64336527400188E-02 
754	 7.64766659137068E-02 
755	 7.64558142321686E-02 
756	 7.65119987684503E-02 
757	 7.66370581091329E-02 
758	 7.65470566715918E-02 
759	 7.62768271647431E-02 
760	 7.59963647018799E-02 
761	 7.60533283533951E-02 
762	 7.61122315579737E-02 
763	 7.62845910540918E-02 
764	 7.65779194430065E-02 
765	 7.69251528778586E-02 
766	 7.70744945097851E-02 
767	 7.72985061093873E-02 
768	 7.76344395133191E-02 
769	 7.78865423855427E-02 
770	 7.80092663359946E-02 
771	 7.81948270424718E-02 
772	 7.85268202163509E-02 
773	 7.86473521943526E-02 
774	 7.88474275529142E-02 
775	 7.91892679813654E-02 
776	 7.96007621360516E-02 
777	 7.98616551255934E-02 
778	 8.01360302633292E-02 
779	 8.04666112723832E-02 
780	 8.07558478761178E-02 
781	 8.11620522035114E-02 
782	 8.15814780497406E-02 
783	 8.19331516566888E-02 
784	 8.22968328242215E-02 
785	 8.26618285855994E-02 
786	 8.29825276142839E-02 
787	 0.083248920127715 
788	 8.36984500349411E-02 
789	 8.42359067729273E-02 
790	 8.47067297048732E-02 
791	 0.084984928951556 
792	 8.54880353837656E-02 
793	 8.61095293928519E-02 
794	 8.66377353811721E-02 
795	 8.67893665906495E-02 
796	 8.72652183981013E-02 
797	 8.77328019119504E-02 
798	 0.087858975530527 
799	 8.83013104636956E-02 
800	 8.86742961337479E-02 
801	 8.88892659547749E-02 
802	 8.90702444753282E-02 
803	 0.089447390272703 
804	 8.98074424911952E-02 
805	 8.99440901734268E-02 
806	 8.97368764805589E-02 
807	 0.089803074767972 
808	 0.089777833211167 
809	 8.94000315604321E-02 
810	 8.92246146338575E-02 
811	 8.87374146461185E-02 
812	 8.81438905858709E-02 
813	 8.78408351129864E-02 
814	 8.72892711538436E-02 
815	 0.086597765387959 
816	 8.59661876208456E-02 
817	 8.55478011443921E-02 
818	 8.49818395605302E-02 
819	 0.084469289509592 
820	 8.38835978315445E-02 
821	 8.26463255845016E-02 
822	 0.081451990923077 
823	 8.02245903885646E-02 
824	 7.88176964405756E-02 
825	 7.72820035684818E-02 
826	 7.54466678469987E-02 
827	 7.33782112872522E-02 
828	 7.13904598726571E-02 
829	 0.069635831645957 
830	 0.067938702029935 
831	 6.63296716668012E-02 
832	 6.50451852673275E-02 
833	 6.41801938927569E-02 
834	 6.34720644581728E-02 
835	 6.27526224287295E-02 
836	 6.20544689783054E-02 
837	 6.17991967656426E-02 
838	 6.15347992324677E-02 
839	 0.060945402364189 
840	 6.05579382454864E-02 
841	 6.01272765286263E-02 
842	 5.98669950016881E-02 
843	 5.99413165501278E-02 
844	 5.95623471613973E-02 
845	 0.059104768031877 
846	 5.87502245660386E-02 
847	 5.84872594970208E-02 
848	 5.81269344439001E-02 
849	 5.78236845526411E-02 
850	 5.76034592556301E-02 
851	 5.72838630179445E-02 
852	 5.69490312415154E-02 
853	 5.66816048913965E-02 
854	 0.056498441796461 
855	 5.62658503201476E-02 
856	 5.61398238641402E-02 
857	 5.59254834961151E-02 
858	 5.54942749327643E-02 
859	 5.52850793919071E-02 
860	 5.51599180739058E-02 
861	 5.49297545825641E-02 
862	 5.44915538013036E-02 
863	 5.44229030856442E-02 
864	 5.42113134900109E-02 
865	 5.38261900701773E-02 
866	 5.36902896901069E-02 
867	 5.33831920507078E-02 
868	 5.31081837709975E-02 
869	 5.29097841227815E-02 
870	 5.25391004340941E-02 
871	 5.24726763345641E-02 
872	 5.22135193062957E-02 
873	 5.15337059723929E-02 
874	 5.12625670450185E-02 
875	 5.10018876046895E-02 
876	 5.06040530332968E-02 
877	 5.01013286996465E-02 
878	 0.049912505329962 
879	 4.94904393212839E-02 
880	 0.048902118912489 
881	 0.048497602187268 
882	 4.83235078670074E-02 
883	 4.80481847470221E-02 
884	 4.76461530792264E-02 
885	 4.73234303758199E-02 
886	 4.69677342864043E-02 
887	 4.65935863569191E-02 
888	 4.62480972179036E-02 
889	 4.59922854354603E-02 
890	 4.57668826615228E-02 
891	 4.55055476877665E-02 
892	 4.51697883900948E-02 
893	 4.47786987880537E-02 
894	 0.044376263555057 
895	 4.40190612002899E-02 
896	 4.37027929924241E-02 
897	 4.32275775862657E-02 
898	 4.28518459161331E-02 
899	 4.26061340788819E-02 
900	 4.24270967027958E-02 
901	 4.23134028558095E-02 
902	 4.21406230003918E-02 
903	 4.17904356618711E-02 
904	 4.12743317977511E-02 
905	 4.12139351463063E-02 
906	 4.07512984464278E-02 
907	 3.99323393562741E-02 
908	 3.94442014200324E-02 
909	 3.88153906300484E-02 
910	 3.86245456776677E-02 
911	 3.87029618787023E-02 
912	 3.82658040198034E-02 
913	 3.80179902438263E-02 
914	 3.77059464867627E-02 
915	 3.72666993169885E-02 
916	 0.03693247049887 
917	 3.61894642626778E-02 
918	 3.55217150127339E-02 
919	 3.52149310433279E-02 
920	 3.51079337368207E-02 
921	 0.034633166795434 
922	 3.40006175235729E-02 
923	 3.35587666938195E-02 
924	 3.36198915808244E-02 
925	 3.27308947508402E-02 
926	 3.18203968282607E-02 
927	 3.19846334286289E-02 
928	 3.17957248698436E-02 
929	 3.13140420749433E-02 
930	 3.10355522189497E-02 
931	 3.14129245272496E-02 
932	 2.98737372917323E-02 
933	 2.72697428212276E-02 
934	 2.77617895798522E-02 
935	 3.26180298366397E-02 
936	 0.030375938935376 
937	 2.78349690977252E-02 
938	 2.76976820096748E-02 
939	 2.95311748055266E-02 
940	 2.80491404998018E-02 
941	 2.80236132018318E-02 
942	 2.84383386762704E-02 
943	 2.66648117307279E-02 
944	 2.94237287030836E-02 
945	 3.15354397416174E-02 
946	 3.06215836630324E-02 
947	 2.80793615538424E-02 
948	 3.15475995246796E-02 
949	 3.06648842666854E-02 
950	 2.68662701927062E-02 
951	 2.77783767581061E-02 
952	 2.67188440945362E-02 
953	 2.74946222018834E-02 
954	 2.91721006498183E-02 
955	 2.79818219670768E-02 
956	 2.63590232984275E-02 
957	 2.61753250257206E-02 
958	 0.027008281224762 
959	 0.027238630992874 
960	 2.85942896844656E-02 
961	 2.88761919200234E-02 
962	 2.72553653381311E-02 
963	 2.47079431354087E-02 
964	 2.51413252409939E-02 
965	 2.52714105500049E-02 
966	 2.48044671180585E-02 
967	 2.56264844479558E-02 
968	 2.56791085008438E-02 
969	 0.025875024063981 
970	 2.62273528347864E-02 
971	 2.59931604674724E-02 
972	 0.026851995238509 
973	 2.68973294129455E-02 
974	 2.60359395455135E-02 
975	 0.026088716654991 
976	 2.58673401068757E-02 
977	 2.56945516741552E-02 
978	 0.025739532985323 
979	 2.58648437112447E-02 
980	 2.57485205444571E-02 
981	 2.67118299622314E-02 
982	 2.75826943105385E-02 
983	 2.60460761740165E-02 
984	 2.70886873631002E-02 
985	 2.83667507163553E-02 
986	 2.82725183184193E-02 
987	 2.68970882708184E-02 
988	 2.72431903232715E-02 
989	 0.026907354851458 
990	 2.58628193481984E-02 
991	 2.61134917567571E-02 
992	 0.027936470147515 
993	 2.77875156986909E-02 
994	 2.65641115165362E-02 
995	 0.027549112460629 
996	 2.69974397787429E-02 
997	 2.69363197455709E-02 
998	 2.73521658335383E-02 
999	 2.69285996299064E-02 
1000	 0.026024753318637 
1001	 2.63952967631453E-02 
1002	 2.62333374151305E-02 
1003	 0.026208584163476 
1004	 2.59288141476955E-02 
1005	 2.58664195939504E-02 
1006	 0.026019981130041 
1007	 2.63352575061324E-02 
1008	 2.63954783949568E-02 
1009	 2.67409956410633E-02 
1010	 2.70352344746117E-02 
1011	 2.71461631205372E-02 
1012	 2.73253446839283E-02 
1013	 2.74497848184466E-02 
1014	 2.74300149467827E-02 
1015	 2.73026327234139E-02 
1016	 2.71759837463023E-02 
1017	 0.026820513823819 
1018	 2.66612162140128E-02 
1019	 2.65530848928214E-02 
1020	 2.65036272714864E-02 
1021	 2.65789371607786E-02 
1022	 2.66749422465564E-02 
1023	 2.65146021912011E-02 
1024	 2.64425408434342E-02 
1025	 2.65299588236833E-02 
1026	 2.67928492608466E-02 
1027	 2.70985035537574E-02 
1028	 2.78260781629983E-02 
1029	 2.80881110741376E-02 
1030	 2.82460649257561E-02 
1031	 2.81693852041104E-02 
1032	 2.77333402414926E-02 
1033	 2.75191625096496E-02 
1034	 0.027054214719301 
1035	 2.69441642087925E-02 
1036	 2.70717345526802E-02 
1037	 2.72568950662694E-02 
1038	 2.76602060725676E-02 
1039	 2.81510183686103E-02 
1040	 2.82586194386533E-02 
1041	 2.82795333347102E-02 
1042	 2.81596252803813E-02 
1043	 2.76437334645168E-02 
1044	 0.027495151096836 
1045	 2.73368086047091E-02 
1046	 2.74198022427764E-02 
1047	 2.76707454042905E-02 
1048	 2.79358887052154E-02 
1049	 2.86200924917148E-02 
1050	 2.88218906359539E-02 
1051	 2.87912660307975E-02 
1052	 2.88267205911083E-02 
1053	 2.85209778190096E-02 
1054	 2.84458551990863E-02 
1055	 2.86832220442086E-02 
1056	 2.86985405087116E-02 
1057	 2.86504777285307E-02 
1058	 0.028488069797691 
1059	 2.85481118795084E-02 
1060	 2.85581125622897E-02 
1061	 2.86924523671926E-02 
1062	 2.91977833480849E-02 
1063	 2.92855281183167E-02 
1064	 2.91066377278413E-02 
1065	 2.91043515719768E-02 
1066	 2.90120852633124E-02 
1067	 2.89725310794434E-02 
1068	 2.90876648260394E-02 
1069	 2.91084924461751E-02 
1070	 2.91412677274448E-02 
1071	 2.90299768314039E-02 
1072	 2.86760198839078E-02 
1073	 2.85000617030264E-02 
1074	 0.02849700398408 
1075	 0.028489872262732 
1076	 0.028581630717656 
1077	 2.90626126633758E-02 
1078	 2.91568879205703E-02 
1079	 2.90576648875048E-02 
1080	 2.89562989494429E-02 
1081	 2.87628055156531E-02 
1082	 2.85703645777202E-02 
1083	 2.81272406591943E-02 
1084	 0.028090391782962 
1085	 2.83215553834105E-02 
1086	 2.83853490443237E-02 
1087	 2.88748375280821E-02 
1088	 2.89038856974496E-02 
1089	 2.83796649930554E-02 
1090	 2.80742140208724E-02 
1091	 2.78632753606052E-02 
1092	 2.75189852051368E-02 
1093	 2.73236680202308E-02 
1094	 2.74980330241372E-02 
1095	 2.73365098694503E-02 
1096	 2.67719291544901E-02 
1097	 2.67236055635262E-02 
1098	 0.027007665111139 
1099	 2.69769014148338E-02 
1100	 2.71559614121953E-02 
1101	 2.71410167220009E-02 
1102	 2.66417877862709E-02 
1103	 2.63610941063759E-02 
1104	 2.60590927152873E-02 
1105	 0.026105009585604 
1106	 2.61127068656006E-02 
1107	 2.58962159125298E-02 
1108	 2.55215472035408E-02 
1109	 2.56246665805357E-02 
1110	 2.56785249496956E-02 
1111	 2.58189119152966E-02 
1112	 0.02574358080367 
1113	 2.58306459171485E-02 
1114	 2.55988848502628E-02 
1115	 2.44237565074809E-02 
1116	 2.43709125567693E-02 
1117	 2.55417474033355E-02 
1118	 2.57099654106188E-02 
1119	 0.02618826326251 
1120	 2.63343224562713E-02 
1121	 2.41276321049467E-02 
1122	 2.41786758738905E-02 
1123	 2.39061012956271E-02 
1124	 2.25147470476954E-02 
1125	 2.52875552312441E-02 
1126	 2.51891247334142E-02 
1127	 2.30581237658062E-02 
1128	 2.37973904048481E-02 
1129	 2.36190012767514E-02 
1130	 2.10397929519162E-02 
1131	 2.04944165292325E-02 
1132	 2.21265790708314E-02 
1133	 2.29283424168402E-02 
1134	 2.38984934681866E-02 
1135	 2.37426895050718E-02 
1136	 2.24474210838615E-02 
1137	 2.20415171968368E-02 
1138	 2.13932312511037E-02 
1139	 2.13800370645596E-02 
1140	 2.02388282813795E-02 
1141	 2.12281270268271E-02 
1142	 2.22729314736292E-02 
1143	 2.15501156104332E-02 
1144	 2.26115493818941E-02 
1145	 2.38159393433069E-02 
1146	 2.30622085289535E-02 
1147	 2.18200071467863E-02 
1148	 2.13548436234541E-02 
1149	 2.14141570808121E-02 
1150	 2.11920771382992E-02 
1151	 2.13485510781903E-02 
1152	 2.14162590768243E-02 
1153	 2.09300719378396E-02 
1154	 2.07377225422995E-02 
1155	 2.04293564907276E-02 
1156	 2.12831306765535E-02 
1157	 2.17361172162162E-02 
1158	 2.16231933326359E-02 
1159	 2.19403457075731E-02 
1160	 2.20330761976081E-02 
1161	 2.18043925450676E-02 
1162	 2.21949847622384E-02 
1163	 2.23870860578199E-02 
1164	 2.18969557169121E-02 
1165	 0.021779882808164 
1166	 2.18601788880369E-02 
1167	 0.02167919578493 
1168	 2.18153498228272E-02 
1169	 2.19740138967768E-02 
1170	 2.18888208734706E-02 
1171	 2.19366680980003E-02 
1172	 2.22533919485519E-02 
1173	 2.23096278397341E-02 
1174	 2.21711917611793E-02 
1175	 2.21847151230573E-02 
1176	 2.24061113283186E-02 
1177	 2.25252028695954E-02 
1178	 0.022611953404345 
1179	 2.27699281581765E-02 
1180	 2.26191981833146E-02 
1181	 2.23036680126472E-02 
1182	 2.22835468144787E-02 
1183	 2.22180377110121E-02 
1184	 2.20581041262226E-02 
1185	 2.21612652233983E-02 
1186	 2.22164997217405E-02 
1187	 2.22635676491949E-02 
1188	 2.24845127968494E-02 
1189	 2.25983620552531E-02 
1190	 2.26555460772446E-02 
1191	 2.25346492742918E-02 
1192	 2.23637848185504E-02 
1193	 2.20195229217374E-02 
1194	 2.18572476464475E-02 
1195	 2.18942716107999E-02 
1196	 2.20301529311495E-02 
1197	 2.21018278213703E-02 
1198	 2.22391276776862E-02 
1199	 2.23800089327738E-02 
1200	 2.22450638315376E-02 
1201	 2.22461207567825E-02 
1202	 2.22968930490492E-02 
1203	 2.19822201175886E-02 
1204	 0.02187517419054 
1205	 2.21093220897766E-02 
1206	 2.22374925029886E-02 
1207	 2.22671747836793E-02 
1208	 2.22201798415174E-02 
1209	 2.21261731895756E-02 
1210	 2.20787102411536E-02 
1211	 2.21343795199819E-02 
1212	 2.21952781780434E-02 
1213	 2.21036809139924E-02 
1214	 2.21357378038225E-02 
1215	 2.21722949529998E-02 
1216	 2.22293675480351E-02 
1217	 2.22942481627423E-02 
1218	 2.24972033253925E-02 
1219	 2.23991623418778E-02 
1220	 2.22537965021143E-02 
1221	 2.22813858418874E-02 
1222	 2.22001225162966E-02 
1223	 2.23268878375356E-02 
1224	 2.24118228710676E-02 
1225	 2.22242979440379E-02 
1226	 0.022270281853603 
1227	 2.24585431721077E-02 
1228	 2.25656764413483E-02 
1229	 2.26304977405499E-02 
1230	 2.25446281518939E-02 
1231	 2.23547566118022E-02 
1232	 2.22983271464635E-02 
1233	 0.022481182794861 
1234	 2.26307349565502E-02 
1235	 2.26677325885189E-02 
1236	 2.25002710441658E-02 
1237	 2.25828106230437E-02 
1238	 2.27564078055298E-02 
1239	 2.28531649385244E-02 
1240	 2.26620287382584E-02 
1241	 2.26009175113893E-02 
1242	 2.25908190306495E-02 
1243	 2.23353965964775E-02 
1244	 2.24420623309337E-02 
1245	 2.28914322817375E-02 
1246	 2.29483538099686E-02 
1247	 2.27540076277671E-02 
1248	 2.27352838446264E-02 
1249	 2.27667039905941E-02 
1250	 2.27223832218933E-02 
1251	 2.27729812245266E-02 
1252	 2.28190987673337E-02 
1253	 2.26637332418475E-02 
1254	 2.25081174210016E-02 
1255	 2.24638284677678E-02 
1256	 2.23814422107846E-02 
1257	 2.24203091929147E-02 
1258	 2.25092102658329E-02 
1259	 2.25742039553786E-02 
1260	 2.25243613259833E-02 
1261	 0.022578230354381 
1262	 2.26362372384546E-02 
1263	 2.25542051028887E-02 
1264	 2.24022695429616E-02 
1265	 0.02240530259794 
1266	 2.25602209824882E-02 
1267	 2.24964590606907E-02 
1268	 2.23224483542499E-02 
1269	 2.24210251958942E-02 
1270	 0.022480015169325 
1271	 2.24493124524865E-02 
1272	 2.25108305916102E-02 
1273	 2.24895929288017E-02 
1274	 2.24412073941318E-02 
1275	 2.23661571977662E-02 
1276	 2.22836833126919E-02 
1277	 2.23445106620635E-02 
1278	 2.24610497982056E-02 
1279	 2.25398858878814E-02 
1280	 2.25077350244038E-02 
1281	 2.24542233307476E-02 
1282	 2.23573190298028E-02 
1283	 2.23296323902555E-02 
1284	 0.022243549288989 
1285	 2.22195257816986E-02 
1286	 2.23212503545028E-02 
1287	 2.22767362478324E-02 
1288	 2.21051744930299E-02 
1289	 2.20969013688616E-02 
1290	 0.022214430661602 
1291	 2.21552398141873E-02 
1292	 2.19935074636568E-02 
1293	 2.19675439020085E-02 
1294	 2.20420819306885E-02 
1295	 2.20229919523662E-02 
1296	 2.19486911254519E-02 
1297	 2.19586677668767E-02 
1298	 0.021807833219991 
1299	 2.15456709504418E-02 
1300	 2.17130928117321E-02 
1301	 2.17977694144305E-02 
1302	 2.14503580747752E-02 
1303	 2.14728869746391E-02 
1304	 2.16604584587769E-02 
1305	 0.021360804280681 
1306	 2.12559434432335E-02 
1307	 2.14148224150947E-02 
1308	 2.14190983706436E-02 
1309	 2.11674300003156E-02 
1310	 2.10914414214395E-02 
1311	 2.11521530233238E-02 
1312	 2.10069182101675E-02 
1313	 2.08140280007192E-02 
1314	 2.06967003310134E-02 
1315	 2.04242590403507E-02 
1316	 2.02926168835654E-02 
1317	 2.03338962449356E-02 
1318	 2.02815013677396E-02 
1319	 2.02957292702949E-02 
1320	 2.03255129984557E-02 
1321	 0.020435006278034 
1322	 2.01309342929683E-02 
1323	 1.98116687997778E-02 
1324	 1.96702510368522E-02 
1325	 1.96864693306991E-02 
1326	 0.01987309824048 
1327	 2.00295157544691E-02 
1328	 2.01040094473818E-02 
1329	 2.02372231313405E-02 
1330	 2.02108059101837E-02 
1331	 1.99570129997569E-02 
1332	 1.96612816465592E-02 
1333	 1.90967777599834E-02 
1334	 1.85199172637305E-02 
1335	 1.85257604002873E-02 
1336	 1.97717381341968E-02 
1337	 1.98500848354522E-02 
1338	 1.93584851092097E-02 
1339	 1.95103073022109E-02 
1340	 1.97178964961416E-02 
1341	 1.95151544225844E-02 
1342	 1.95644330674259E-02 
1343	 1.94439479126769E-02 
1344	 1.77952164104112E-02 
1345	 1.74926998388376E-02 
1346	 1.95007473007123E-02 
1347	 2.03047266253885E-02 
1348	 2.13227724174887E-02 
1349	 2.22636212866105E-02 
1350	 2.01617399775541E-02 
1351	 1.95806683267828E-02 
1352	 0.023070594273894 
1353	 2.50151786426378E-02 
1354	 0.02769737287864 
1355	 2.81084883701324E-02 
1356	 3.16265140679566E-02 
1357	 2.11103492131119E-02 
1358	-2.34763544948961E-03 
1359	 9.2552318133237E-03 
1360	 4.64706629620401E-02 
1361	 1.90805920552304E-02 
1362	 4.22713978729388E-03 
1363	 9.83234975139134E-02 
1364	 7.46392096596566E-02 
1365	-3.76961962123733E-03 
1366	-9.33795489211969E-03 
1367	-0.124386154920701 
1368	-0.114625738503966 
1369	 4.46597283129383E-02 
1370	 6.70335993019611E-02 
1371	 7.79020365497961E-02 
1372	 6.11018633836932E-02 
1373	-0.124686394180392 
1374	-0.134943653791156 
1375	-4.59481998956916E-02 
1376	 1.05742230271047E-02 
1377	 0.229675895371134 
1378	 0.255067694013371 
1379	 0.122158559352927 
1380	 9.46518803062408E-02 
1381	-3.71876526462924E-02 
1382	-3.13584927743816E-02 
1383	 0.286645767033558 
1384	 0.412614117452802 
1385	 0.30871153689846 
1386	 0.330134449817531 
1387	 0.252729297626392 
1388	 0.231522924814837 
1389	 0.365462071348136 
1390	 0.402170584557727 
1391	 0.335827692602696 
1392	 0.166718907604467 
1393	 0.178089375815207 
1394	 0.288042921155489 
1395	 0.267489634135397 
1396	 0.191990716021444 
1397	 0.356967303668208 
1398	 0.309413814740975 
1399	 7.87737713340208E-02 
1400	 6.07780437205791E-02 
1401	 5.54103211831402E-02 
1402	-0.08393593004078 
1403	-0.223095667453237 
1404	-0.208580676705611 
1405	-0.120068406366869 
1406	-6.49055004179203E-02 
1407	-0.161345250785583 
1408	-0.176368953788453 
1409	-0.142581897535777 
1410	-0.219870460413352 
1411	-0.224339946187115 
1412	-0.126784385659569 
1413	-9.77867044658212E-02 
1414	-0.128912005272872 
1415	-0.10332362656224 
1416	-1.25593492125192E-02 
1417	 8.4498659584924E-03 
1418	-2.35247204629201E-02 
1419	-2.06763482640584E-02 
1420	-1.03118254248421E-02 
1421	-1.04548434344541E-02 
1422	-1.80056632963018E-03 
1423	 6.49480665563274E-04 
1424	-1.64928837000626E-02 
1425	-8.98479049978748E-03 
1426	 2.04552370167869E-02 
1427	 1.98309957514011E-02 
1428	 9.35400936230689E-03 
1429	 9.4371866488073E-03 
1430	-3.35868709510255E-04 
1431	-4.4593134254919E-03 
1432	 2.77465581017611E-03 
1433	 7.50482079157358E-03 
1434	 1.46978829518802E-02 
1435	 1.33438999971501E-02 
1436	 7.58225669051968E-03 
1437	 3.21676119985662E-03 
1438	 2.93697953400569E-03 
1439	 1.1765329600382E-03 
1440	 7.86481243765741E-03 
1441	 1.59629833628042E-02 
1442	 1.46246180888815E-02 
1443	 1.37767878835961E-02 
1444	 1.24707810521558E-02 
1445	 1.00608535077456E-02 
1446	 1.04237197845067E-02 
1447	 1.01620287133452E-02 
1448	 7.4406815709136E-03 
1449	 6.49376905109775E-03 
1450	 1.00462547031375E-02 
1451	 1.16910519987488E-02 
1452	 1.07642194514929E-02 
1453	 1.23298907644007E-02 
1454	 0.012420701598867 
1455	 9.61181485492084E-03 
1456	 8.91105131295467E-03 
1457	 1.03064977408839E-02 
1458	 9.64491555116116E-03 
1459	 7.05897132967408E-03 
1460	 7.00560700454543E-03 
1461	 7.7427714309109E-03 
1462	 8.72114619086392E-03 
1463	 1.17996686507083E-02 
1464	 1.21036026205729E-02 
1465	 1.06725989898342E-02 
1466	 1.06771500701766E-02 
1467	 1.00638805611844E-02 
1468	 9.43172780152321E-03 
1469	 9.6538924018992E-03 
1470	 1.00779832357824E-02 
1471	 9.98199974572992E-03 
1472	 9.44562724881023E-03 
1473	 9.61811546011867E-03 
1474	 9.87941323920772E-03 
1475	 9.11206917004669E-03 
1476	 8.85580540515965E-03 
1477	 9.81653131121424E-03 
1478	 9.81470531789266E-03 
1479	 8.72549133309851E-03 
1480	 8.72321134964963E-03 
1481	 8.94484228658835E-03 
1482	 9.36722768154252E-03 
1483	 1.07028892864979E-02 
1484	 1.08185951607561E-02 
1485	 9.9658055356284E-03 
1486	 1.02674816032887E-02 
1487	 1.09666600963303E-02 
1488	 1.09436185620269E-02 
1489	 1.10837535022133E-02 
1490	 1.12861428398026E-02 
1491	 0.010976499437188 
1492	 1.07917990265491E-02 
1493	 1.09056939625332E-02 
1494	 1.10589489668405E-02 
1495	 1.12111419688548E-02 
1496	 1.11766101787296E-02 
1497	 1.09356193075964E-02 
1498	 1.11116279542491E-02 
1499	 1.15688564750129E-02 
1500	 1.15477090495822E-02 
1501	 1.15005376119312E-02 
1502	 1.16423821184778E-02 
1503	 1.15321335645439E-02 
1504	 1.14290197833557E-02 
1505	 1.15636981001279E-02 
1506	 1.16630803592667E-02 
1507	 1.16280537395592E-02 
1508	 1.16439352731749E-02 
1509	 0.011527782824643 
1510	 1.15152388201784E-02 
1511	 1.18504208037929E-02 
1512	 1.19888935360734E-02 
1513	 1.20598080790298E-02 
1514	 1.23613052639053E-02 
1515	 1.24847748262562E-02 
1516	 1.23213144366197E-02 
1517	 1.22627555891413E-02 
1518	 1.24763325044075E-02 
1519	 1.26171672373416E-02 
1520	 1.25485835158229E-02 
1521	 1.25544845979969E-02 
1522	 1.27658454196864E-02 
1523	 1.28685475628351E-02 
1524	 1.28267772784693E-02 
1525	 1.28051841932309E-02 
1526	 1.28000993233345E-02 
1527	 0.012870210873401 
1528	 1.29024940022699E-02 
1529	 1.30262635650531E-02 
1530	 1.32957167796052E-02 
1531	 1.32758900450998E-02 
1532	 1.31233782776036E-02 
1533	 1.32479689960144E-02 
1534	 1.33479161764364E-02 
1535	 1.32564376331362E-02 
1536	 1.32608650863057E-02 
1537	 1.34319687414511E-02 
1538	 1.35373605526284E-02 
1539	 1.34573212658192E-02 
1540	 1.35278374896735E-02 
1541	 1.38212496902378E-02 
1542	 1.38384209418403E-02 
1543	 1.36170149532015E-02 
1544	 0.013712692935076 
1545	 1.39355705699322E-02 
1546	 1.38909691870838E-02 
1547	 1.39963754155807E-02 
1548	 0.01426879297638 
1549	 1.41133161871761E-02 
1550	 1.38408113644789E-02 
1551	 1.39643203242454E-02 
1552	 1.42075818055674E-02 
1553	 1.42796074995958E-02 
1554	 1.42082420412757E-02 
1555	 1.41932690884159E-02 
1556	 1.42062539356967E-02 
1557	 1.42833476446727E-02 
1558	 0.014426408098945 
1559	 1.43986742357109E-02 
1560	 1.43996805131516E-02 
1561	 1.44080217448072E-02 
1562	 0.014408493577454 
1563	 1.46217010661373E-02 
1564	 1.47887814771382E-02 
1565	 1.46885047685484E-02 
1566	 1.46295780977829E-02 
1567	 1.46764328084293E-02 
1568	 0.014500053623411 
1569	 1.47345756785012E-02 
1570	 1.52002825174995E-02 
1571	 1.48847689622366E-02 
1572	 1.46442031267194E-02 
1573	 1.48621180841504E-02 
1574	 1.50111655037049E-02 
1575	 1.51828503800836E-02 
1576	 1.52801911191167E-02 
1577	 0.01530009424662 
1578	 1.51782773911984E-02 
1579	 1.50887485405747E-02 
1580	 1.52344607297217E-02 
1581	 1.51367591259173E-02 
1582	 1.49882820320979E-02 
1583	 1.51171102160416E-02 
1584	 1.52602863773082E-02 
1585	 1.53599120364659E-02 
1586	 1.52956819540123E-02 
1587	 1.51904134180713E-02 
1588	 1.52101874651091E-02 
1589	 1.51735868261649E-02 
1590	 1.51613212807247E-02 
1591	 1.52013249854439E-02 
1592	 1.52123804516578E-02 
1593	 1.52582518969836E-02 
1594	 1.54926974527677E-02 
1595	 1.56782945408903E-02 
1596	 0.015547309796727 
1597	 1.55951605579077E-02 
1598	 0.015675789553861 
1599	 1.54918063775216E-02 
1600	 1.55664043358526E-02 
1601	 0.015912093324328 
1602	 1.60598746060459E-02 
1603	 0.015897909687191 
1604	 1.57292108370272E-02 
1605	 1.55628960527529E-02 
1606	 1.54158842891613E-02 
1607	 1.55262859740674E-02 
1608	 1.56873101984851E-02 
1609	 1.56688192020811E-02 
1610	 1.55075712996083E-02 
1611	 1.54719238082909E-02 
1612	 1.57409216094005E-02 
1613	 1.60073326602977E-02 
1614	 1.59555149942426E-02 
1615	 1.58126082297737E-02 
1616	 1.58416444345421E-02 
1617	 1.58996719527802E-02 
1618	 0.015982545806983 
1619	 1.61067830005983E-02 
1620	 0.016129956132175 
1621	 1.60719195205113E-02 
1622	 1.60175945058744E-02 
1623	 1.60193379805773E-02 
1624	 0.016142123867393 
1625	 1.61641487966248E-02 
1626	 1.61640129526019E-02 
1627	 1.63988419292725E-02 
1628	 1.63745047824922E-02 
1629	 1.60874110424098E-02 
1630	 1.60380004920152E-02 
1631	 1.60920511414729E-02 
1632	 1.59139470680727E-02 
1633	 1.58671501568752E-02 
1634	 1.62192938459467E-02 
1635	 0.016285620739205 
1636	 1.61944210696408E-02 
1637	 1.64506338539037E-02 
1638	 1.65372978264133E-02 
1639	 1.62060964130841E-02 
1640	 1.60637422292738E-02 
1641	 1.62585418444049E-02 
1642	 1.62158944850535E-02 
1643	 1.62071685994501E-02 
1644	 1.64233045586473E-02 
1645	 1.64738190111285E-02 
1646	 0.01651629850126 
1647	 1.64587975527433E-02 
1648	 1.61821949491296E-02 
1649	 1.60438300045521E-02 
1650	 1.61856074679495E-02 
1651	 1.63351923967196E-02 
1652	 1.63426565818212E-02 
1653	 1.62147332213584E-02 
1654	 1.61579615266362E-02 
1655	 1.62495083677392E-02 
1656	 1.63603238109305E-02 
1657	 0.016474362752229 
1658	 1.64022224319219E-02 
1659	 0.016151542744834 
1660	 1.62101718020201E-02 
1661	 1.64541869803514E-02 
1662	 1.64287408676527E-02 
1663	 1.63958857410605E-02 
1664	 1.64575019515458E-02 
1665	 1.63190428191067E-02 
1666	 1.62547094417773E-02 
1667	 1.64950939727964E-02 
1668	 1.64210761404734E-02 
1669	 1.63563319552476E-02 
1670	 1.65524865614921E-02 
1671	 1.65057316150185E-02 
1672	 1.62639215449138E-02 
1673	 1.60843637131175E-02 
1674	 1.60972345807163E-02 
1675	 1.61493877196986E-02 
1676	 1.62697252132071E-02 
1677	 1.65183438761948E-02 
1678	 1.64570777180918E-02 
1679	 1.62233795543843E-02 
1680	 1.63227336932716E-02 
1681	 0.016582438980084 
1682	 1.66319715067403E-02 
1683	 1.64682887735501E-02 
1684	 1.63204190106938E-02 
1685	 0.016333952643394 
1686	 1.63862354676134E-02 
1687	 1.66314365702324E-02 
1688	 1.67780455981164E-02 
1689	 1.62623625999972E-02 
1690	 1.59236234213561E-02 
1691	 1.61942814885179E-02 
1692	 1.65499665281331E-02 
1693	 1.67975628927618E-02 
1694	 1.65891901924586E-02 
1695	 0.016250569487437 
1696	 1.60623227994772E-02 
1697	 1.60437868520435E-02 
1698	 1.65620957029122E-02 
1699	 0.016842958808623 
1700	 1.66188825629463E-02 
1701	 1.64395037749631E-02 
1702	 1.63085040457202E-02 
1703	 1.62241941785342E-02 
1704	 1.63603587827442E-02 
1705	 1.66404815023224E-02 
1706	 0.016493870446491 
1707	 1.61619122708388E-02 
1708	 1.61329477717268E-02 
1709	 1.60488932206775E-02 
1710	 1.59713982799526E-02 
1711	 1.63369952815637E-02 
1712	 1.66696104188485E-02 
1713	 1.63146250399024E-02 
1714	 1.63631680388174E-02 
1715	 1.65121056328651E-02 
1716	 1.61900142119029E-02 
1717	 1.59554602540464E-02 
1718	 1.58417439773279E-02 
1719	 1.58081370598685E-02 
1720	 0.015804768615616 
1721	 1.61346534787297E-02 
1722	 1.61769464888335E-02 
1723	 1.55981661299804E-02 
1724	 1.56473078045475E-02 
1725	 1.60510922834355E-02 
1726	 1.58171910018854E-02 
1727	 1.59909711288908E-02 
1728	 1.63874024567489E-02 
1729	 1.60233177541335E-02 
1730	 0.015792104269082 
1731	 1.58046259819754E-02 
1732	 1.54486657618736E-02 
1733	 1.50124256117905E-02 
1734	 0.015430725601227 
1735	 1.59883799089471E-02 
1736	 1.55364305029541E-02 
1737	 0.015597354199574 
1738	 1.58114823074797E-02 
1739	 1.50688758272593E-02 
1740	 1.50464547973856E-02 
1741	 1.54746053018279E-02 
1742	 1.52010649146586E-02 
1743	 1.53142109073528E-02 
1744	 1.56298425554194E-02 
1745	 1.53392025579304E-02 
1746	 1.59424459470363E-02 
1747	 1.60876851493358E-02 
1748	 1.59038773358417E-02 
1749	 1.57714774880705E-02 
1750	 1.52531638791462E-02 
1751	 0.015138942668931 
1752	 1.56309475756035E-02 
1753	 1.57172489201839E-02 
1754	 1.55771640248326E-02 
1755	 1.53170968987119E-02 
1756	 1.45982519873826E-02 
1757	 1.43399767601621E-02 
1758	 1.46678367650648E-02 
1759	 1.55495216614596E-02 
1760	 1.57110279663224E-02 
1761	 1.47627203433737E-02 
1762	 0.014686480577275 
1763	 0.0149664002363 
1764	 1.45341405003915E-02 
1765	 1.46277774900997E-02 
1766	 1.46193075592633E-02 
1767	 1.39307923346157E-02 
1768	 1.42094721009206E-02 
1769	 1.50326857005261E-02 
1770	 1.48775749550078E-02 
1771	 1.43536738526241E-02 
1772	 1.36085061390631E-02 
1773	 1.30323181876264E-02 
1774	 1.32369849771549E-02 
1775	 1.33951513214802E-02 
1776	 1.36963721992038E-02 
1777	 0.014984817109486 
1778	 0.015087030209508 
1779	 1.39054401866555E-02 
1780	 0.013782182474912 
1781	 1.34810006164163E-02 
1782	 1.35334495266138E-02 
1783	 1.49891111855602E-02 
1784	 1.54060665143491E-02 
1785	 1.54159248026094E-02 
1786	 0.014558786349777 
1787	 1.26069799879034E-02 
1788	 1.20738007969387E-02 
1789	 1.07986157631488E-02 
1790	 1.04195901836688E-02 
1791	 0.011749684950455 
1792	 0.010966169943114 
1793	 0.011491777067913 
1794	 1.62001351274168E-02 
1795	 1.82054227941826E-02 
1796	 1.62023794732749E-02 
1797	 1.57401756599588E-02 
1798	 0.011550890795241 
1799	 7.05723540930462E-03 
1800	 1.37693464584158E-02 
1801	 1.65190553284635E-02 
1802	 1.91176617199192E-02 
1803	 2.15918130460764E-02 
1804	 2.09784273686907E-02 
1805	 1.83508763681131E-02 
1806	 3.86890123842455E-03 
1807	-1.17539241258055E-03 
1808	 5.14597276362691E-03 
1809	 4.72835372192141E-03 
1810	 2.55879408128469E-02 
1811	 5.01496877689831E-02 
1812	 0.050222886953624 
1813	 6.42731675323098E-02 
1814	 0.112267622086857 
1815	 0.138360146145758 
1816	 0.141821522456943 
1817	 0.121520991408533 
1818	 7.75211965252049E-02 
1819	-0.207915886755073 
1820	-0.954357484283052 
1821	-0.198863507511197 
1822	-2.61699899056766E-02 
1823	 0.321491313769075 
1824	 0.416107302687422 
1825	-0.105959072703938 
1826	-0.257991053259896 
1827	-0.132045600100155 
1828	-9.60135425813701E-03 
1829	 0.510415554937984 
1830	 0.601167136123831 
1831	-9.27528571603979E-02 
1832	-9.72486672127189E-02 
1833	 3.45803435806707E-02 
1834	 1.31394822900491E-02 
1835	-0.345655688292064 
1836	-0.483555150684952 
1837	-0.553409229137125 
1838	-0.465519874245213 
1839	-0.259546093374775 
1840	 1.04602232484446E-02 
1841	 0.482976391427868 
1842	 0.822894527660716 
1843	 1.04790561899289 
1844	 1.82088318463204 
1845	 4.71507926864073 
1846	-0.641294928283337 
1847	-0.560847880262616 
1848	 6.0384724816423 
1849	 1.12021220461291 
1850	 0.216186084293245 
1851	-0.156801199431502 
1852	-0.992429940549803 
1853	-13.2750616136572 
1854	 4.67989034817848 
1855	 0.248516163260294 
1856	 7.01478471071549E-02 
1857	 0.474255784093901 
1858	 0.488308072106924 
1859	 0.621741440369368 
1860	 1.28060471725489 
1861	 26.7233218794122 
1862	-4.7321236166044 
1863	 3.01574819098621 
1864	 5.24117917504982 
1865	 1.39961164551122 
1866	 0.53119420819736 
1867	 0.323568703875639 
1868	-0.66493426936151 
1869	-0.421970872865422 
1870	 0.12569680835307 
1871	 0.827357602748605 
1872	 0.811973898939265 
1873	 0.563185241624723 
1874	 0.463591061564875 
1875	-3.73851058642833 
1876	-3.28975277548188 
1877	-0.862608496293742 
1878	-0.464959451053807 
1879	-0.858549505110682 
1880	-0.653280785324099 
1881	-0.211169443839421 
1882	 0.316224170072317 
1883	 0.584433077659711 
1884	 0.352039633211266 
1885	-0.158882349243468 
1886	-1.82109708744928 
1887	 1.48574901882399 
1888	-1.29161622967109 
1889	-1.19985368415615 
1890	 1.47299011306469E-04 
1891	 0.109159154371141 
1892	-0.396310628909258 
1893	-0.425399258013162 
1894	-0.213786722373416 
1895	 0.434102730996574 
1896	 0.655696361995556 
1897	 0.575010693842725 
1898	 0.637122512746523 
1899	 0.753246326548709 
1900	 0.956160896218784 
1901	-0.253929720532323 
1902	-0.557181323199584 
1903	-5.02896349216524 
1904	-4.3034573318738 
1905	-6.81521054344282 
1906	 2.86042612697786 
1907	 0.726160164354085 
1908	-5.22021139775801 
1909	-12.5031216704162 
1910	 6.45310446656965E-02 
1911	-9.59780724602123E-02 
1912	 0.386622486768924 
1913	 0.406119048588565 
1914	 0.454385851402329 
1915	 0.610576361600841 
1916	-0.404091632136251 
1917	 0.702772181636503 
1918	 5.31305204604144 
1919	 6.60979741633049 
1920	 0.109150690402961 
1921	-1.47382584732734 
1922	-0.657781245069792 
1923	-0.678705580416027 
1924	-0.170512678141219 
1925	 0.286484322679045 
1926	 0.299781166921022 
1927	-3.20024317484017E-02 
1928	-0.220936804138668 
1929	-0.508833494605999 
1930	-0.670964093745388 
1931	-0.172337708442594 
1932	 0.382325517839105 
1933	 0.216084870752513 
1934	 0.167722631916317 
1935	 0.154696516344274 
1936	-1.90594649668814E-02 
1937	-6.00831239945959E-02 
1938	-1.90727968295671E-03 
1939	-1.47139119489136E-02 
1940	-4.58384760889383E-02 
1941	 2.96415650384139E-02 
1942	 0.077651507473815 
1943	 3.48912227337993E-02 
1944	 1.62204848389797E-02 
1945	 1.94783346823656E-02 
1946	 5.57953706862734E-03 
1947	-1.16714597640655E-02 
1948	 1.35902447675145E-02 
1949	 3.86420585344938E-02 
1950	 3.62883280392692E-02 
1951	 4.85728871129862E-02 
1952	 4.40715839436109E-02 
1953	 2.55190833569158E-02 
1954	 6.94800092802489E-03 
1955	 1.82560774336817E-03 
1956	-1.06116347831802E-02 
1957	-3.52980283983912E-03 
1958	 8.63404541081617E-03 
1959	 1.28046212387863E-02 
1960	 1.78080721610219E-02 
1961	 1.36758526748948E-02 
1962	 6.01376748563044E-03 
1963	 6.41264965926195E-03 
1964	 8.51821315203154E-03 
1965	 7.5307572625033E-03 
1966	 7.02279319170789E-03 
1967	 7.36626798563923E-03 
1968	 6.31103468154223E-03 
1969	 6.09150704221672E-03 
1970	 7.62209409177978E-03 
1971	 7.60006942700817E-03 
1972	 8.65023735656775E-03 
1973	 7.58431231437672E-03 
1974	 5.12323688701666E-03 
1975	 5.88347107535417E-03 
1976	 6.45149825876859E-03 
1977	 5.88403008247433E-03 
1978	 5.5383770945499E-03 
1979	 5.54631460066704E-03 
1980	 5.59056173495065E-03 
1981	 4.65354140895839E-03 
1982	 4.17051555294335E-03 
1983	 5.23633357200263E-03 
1984	 5.23495881077829E-03 
1985	 0.005111759931416 
1986	 6.70945622168755E-03 
1987	 7.34249676847751E-03 
1988	 6.9731638581273E-03 
1989	 7.47767409886562E-03 
1990	 7.37314722190032E-03 
1991	 6.49369647008037E-03 
1992	 6.45866420039292E-03 
1993	 6.72412784087386E-03 
1994	 6.25588887580461E-03 
1995	 4.90234379129653E-03 
1996	 3.77551836662265E-03 
1997	 3.14471759143499E-03 
1998	 2.35510089478617E-03 
1999	 2.58458846409024E-03 
2000	 3.15492396910983E-03 
2001	 4.47366535463073E-03 
2002	 5.65362783824733E-03 
2003	 4.59753923911229E-03 
2004	 0.005788868675991 
2005	 4.54647494452189E-03 
2006	 7.94869449832907E-04 
2007	 1.86053690192674E-03 
2008	 1.1305459354349E-03 
2009	 1.15550344552838E-03 
2010	 3.94690788850607E-03 
2011	 5.03714394797065E-03 
2012	 0.004441643639036 
2013	 5.17095742936081E-03 
2014	 6.26147647861455E-03 
2015	 5.45627855753695E-03 
2016	 5.30947087297246E-03 
2017	 3.34207713837666E-03 
2018	 9.37443719282657E-04 
2019	 1.02119816649145E-03 
2020	 1.52883679127742E-03 
2021	 2.80109413419663E-03 
2022	 4.23391509428901E-03 
2023	 4.56390999935413E-03 
2024	 5.04093649067858E-03 
2025	 5.02203158395205E-03 
2026	 5.43167376418924E-03 
2027	 6.05009620152136E-03 
2028	 6.67651373112528E-03 
2029	 7.29171792297118E-03 
2030	 7.49462940811079E-03 
2031	 7.23267924971418E-03 
2032	 7.19669641236369E-03 
2033	 7.40386145861641E-03 
2034	 7.1564165948512E-03 
2035	 6.85079698464354E-03 
2036	 7.13120954466092E-03 
2037	 7.06067646753032E-03 
2038	 6.57855082752054E-03 
2039	 6.3791572731216E-03 
2040	 6.38007651344885E-03 
2041	 6.41380915980528E-03 
2042	 6.67750622069528E-03 
2043	 6.64010888789894E-03 
2044	 6.75332425879121E-03 
2045	 6.37139743524594E-03 
2046	 5.57041038120643E-03 
2047	 4.97578364673259E-03 
2048	 5.14179376023021E-03 
2049	 5.22855930529587E-03 
2050	 5.91688299599555E-03 
2051	 6.92345327735199E-03 
2052	 7.1224577231382E-03 
2053	 7.47855761722667E-03 
2054	 7.93522832117421E-03 
2055	 7.15468163735953E-03 
2056	 6.29343781897241E-03 
2057	 4.98802320202522E-03 
2058	 4.78544310378001E-03 
2059	 4.1562524804566E-03 
2060	 4.23054060386379E-03 
2061	 5.87528577568695E-03 
2062	 6.30946838505617E-03 
2063	 5.98950585593605E-03 
2064	 6.65457783811437E-03 
2065	 7.10346349127144E-03 
2066	 6.99476485765962E-03 
2067	 6.79824877536183E-03 
2068	 6.97290440174451E-03 
2069	 6.46760539036771E-03 
2070	 6.32382975159555E-03 
2071	 6.56097149031692E-03 
2072	 6.69094302605134E-03 
2073	 6.90001117950684E-03 
2074	 7.49299221752107E-03 
2075	 7.45017005868825E-03 
2076	 6.77019119925783E-03 
2077	 6.53258564488999E-03 
2078	 6.46137278641858E-03 
2079	 6.62706246645208E-03 
2080	 6.91864214184227E-03 
2081	 7.71948721972025E-03 
2082	 7.88311234438062E-03 
2083	 6.82232884028396E-03 
2084	 6.75099911804842E-03 
2085	 7.2020844306463E-03 
2086	 7.22063591870098E-03 
2087	 7.87131768368948E-03 
2088	 8.40068033303303E-03 
2089	 7.95474939892171E-03 
2090	 8.17429155215943E-03 
2091	 8.68687471943866E-03 
2092	 8.9497599760363E-03 
2093	 9.16755218532795E-03 
2094	 9.21560959714115E-03 
2095	 9.18204054391838E-03 
2096	 8.93618366366446E-03 
2097	 8.1781148920614E-03 
2098	 7.90862550557784E-03 
2099	 7.64201318919519E-03 
2100	 7.59356920798213E-03 
2101	 8.39419173429326E-03 
2102	 8.82032650857024E-03 
2103	 9.11561972543922E-03 
2104	 8.95357604954459E-03 
2105	 8.90888261232398E-03 
2106	 9.52765658681272E-03 
2107	 9.26739034420471E-03 
2108	 9.34317200511818E-03 
2109	 9.82692880400874E-03 
2110	 9.03436916154629E-03 
2111	 8.33359993966902E-03 
2112	 8.48752182765844E-03 
2113	 8.44058749939201E-03 
2114	 8.00206467981188E-03 
2115	 8.00048792116597E-03 
2116	 8.46807710127736E-03 
2117	 0.008738076473047 
2118	 9.25035457019152E-03 
2119	 9.41877179164248E-03 
2120	 9.50190304883542E-03 
2121	 9.35207901533321E-03 
2122	 9.07934701254517E-03 
2123	 8.62479773806443E-03 
2124	 8.26964761112092E-03 
2125	 8.5998163321192E-03 
2126	 8.92109499752272E-03 
2127	 9.01272396636216E-03 
2128	 9.55766722726996E-03 
2129	 9.8359064344438E-03 
2130	 1.03914054723727E-02 
2131	 1.09192272326541E-02 
2132	 1.08904663664729E-02 
2133	 1.11680378934739E-02 
2134	 1.11470494618564E-02 
2135	 1.09129216360997E-02 
2136	 1.04943716878894E-02 
2137	 9.38457412890291E-03 
2138	 9.25341600533129E-03 
2139	 9.79710415261196E-03 
2140	 9.86332067597831E-03 
2141	 1.02357192296271E-02 
2142	 1.04620023040498E-02 
2143	 1.04396583174054E-02 
2144	 9.86013324066618E-03 
2145	 9.97385202374373E-03 
2146	 1.06841627293556E-02 
2147	 1.01886496214343E-02 
2148	 9.43460452853986E-03 
2149	 9.12864787301324E-03 
2150	 8.47595791928909E-03 
2151	 8.14245357797041E-03 
2152	 8.39312583117426E-03 
2153	 7.72970348405093E-03 
2154	 6.62366799855477E-03 
2155	 7.26677393162641E-03 
2156	 8.01753056787028E-03 
2157	 8.51683377048512E-03 
2158	 1.01864847522476E-02 
2159	 1.04399162477995E-02 
2160	 9.27653768734479E-03 
2161	 8.90926414917543E-03 
2162	 7.90062258121848E-03 
2163	 8.1338412041272E-03 
2164	 9.87656424950733E-03 
2165	 1.01692794492144E-02 
2166	 1.01894131378263E-02 
2167	 1.03024845801488E-02 
2168	 9.74137765136437E-03 
2169	 9.45374892291739E-03 
2170	 9.45353681702097E-03 
2171	 9.69365871036411E-03 
2172	 9.57017958856427E-03 
2173	 9.11414951243507E-03 
2174	 8.98266196185257E-03 
2175	 9.01049075225753E-03 
2176	 9.10290444321121E-03 
2177	 8.4058149835485E-03 
2178	 7.80076116088784E-03 
2179	 8.08341911638175E-03 
2180	 8.76322140043253E-03 
2181	 8.76786039048284E-03 
2182	 9.18971954822571E-03 
2183	 1.00348315963096E-02 
2184	 8.82447466761334E-03 
2185	 7.96920038031225E-03 
2186	 7.92035037795745E-03 
2187	 7.82802781943775E-03 
2188	 7.68090222338553E-03 
2189	 8.97916992594481E-03 
2190	 9.13041775381617E-03 
2191	 8.01342273463823E-03 
2192	 7.67141164052498E-03 
2193	 7.32541341726987E-03 
2194	 7.36839547036399E-03 
2195	 8.23305111107484E-03 
2196	 8.27232318714797E-03 
2197	 7.99920813387078E-03 
2198	 7.75228735831887E-03 
2199	 6.55025297151465E-03 
2200	 6.35252002098686E-03 
2201	 7.42311610038511E-03 
2202	 9.21568025207442E-03 
2203	 1.11053598484518E-02 
2204	 0.011294405359041 
2205	 9.80912876001097E-03 
2206	 9.58225739482425E-03 
2207	 9.80944105177225E-03 
2208	 8.77568254620644E-03 
2209	 7.87694806436374E-03 
2210	 7.2028192801367E-03 
2211	 7.16082352932482E-03 
2212	 7.35965628859845E-03 
2213	 7.4069239232845E-03 
2214	 7.8293913744396E-03 
2215	 8.19581918652385E-03 
2216	 9.03606001426762E-03 
2217	 1.02110648560676E-02 
2218	 1.38413176411658E-02 
2219	 0.01416880380753 
2220	 1.20397029754577E-02 
2221	 1.19694592588909E-02 
2222	 1.23520956081891E-02 
2223	 1.14612165376445E-02 
2224	 1.00558153597183E-02 
2225	 9.82197280733031E-03 
2226	 9.0063894441066E-03 
2227	 8.41834006743244E-03 
2228	 9.62686655245437E-03 
2229	 9.77957436513469E-03 
2230	 8.27225608129319E-03 
2231	 7.89608308607673E-03 
2232	 8.60801377107696E-03 
2233	 8.65954271130228E-03 
2234	 8.57381707179641E-03 
2235	 8.37388347897315E-03 
2236	 9.37860472070063E-03 
2237	 1.02495970350001E-02 
2238	 1.01829945788594E-02 
2239	 1.00472249898071E-02 
2240	 7.95226134863661E-03 
2241	 6.57961537364348E-03 
2242	 6.62036820110488E-03 
2243	 6.84138057372778E-03 
2244	 6.60332597154752E-03 
2245	 5.60451054641275E-03 
2246	 6.68086836413601E-03 
2247	 7.09243552233173E-03 
2248	 6.70356174988297E-03 
2249	 8.28708014580208E-03 
2250	 9.72852785962167E-03 
2251	 1.08823482820239E-02 
2252	 1.16059404308191E-02 
2253	 0.012464364369789 
2254	 1.14822518898449E-02 
2255	 9.0524857654107E-03 
2256	 8.19484758521657E-03 
2257	 7.0496873893694E-03 
2258	 8.44987022688817E-03 
2259	 1.07804875281645E-02 
2260	 1.15885157557768E-02 
2261	 1.29957228819109E-02 
2262	 1.39952288927663E-02 
2263	 1.32484580797059E-02 
2264	 1.25136593349095E-02 
2265	 1.27533447550265E-02 
2266	 1.23967141458712E-02 
2267	 1.01459270600783E-02 
2268	 9.26963707456164E-03 
2269	 9.28304019778705E-03 
2270	 9.05504128911953E-03 
2271	 8.77334075100723E-03 
2272	 8.61952614925185E-03 
2273	 1.01610009071084E-02 
2274	 9.27745580006154E-03 
2275	 5.59078385110091E-03 
2276	 4.35987105954461E-03 
2277	 2.34329492124477E-03 
2278	 2.25047235099963E-03 
2279	 5.54242350645842E-03 
2280	 7.57814604667428E-03 
2281	 1.14082522383906E-02 
2282	 0.011043683098126 
2283	 8.51973110838585E-03 
2284	 7.16103265190142E-03 
2285	 5.08996185132833E-03 
2286	 4.96008882279837E-03 
2287	 7.61998613092432E-03 
2288	 9.20035124484959E-03 
2289	 9.20863849560411E-03 
2290	 8.69952133998948E-03 
2291	 6.71648235531165E-03 
2292	 5.6280921073218E-03 
2293	 6.0558269798576E-03 
2294	 4.92564929402457E-03 
2295	 5.06859014470114E-03 
2296	 6.74721526948868E-03 
2297	 6.51620808707802E-03 
2298	 6.24172164421233E-03 
2299	 8.5087313752416E-03 
2300	 8.71227171251624E-03 
2301	 6.87423491607346E-03 
2302	 7.94350967825383E-03 
2303	 7.42254414434358E-03 
2304	 6.40974964310612E-03 
2305	 8.02008451914081E-03 
2306	 7.05131351743041E-03 
2307	 2.74626982277894E-03 
2308	-6.8855328998266E-04 
2309	-2.06914783713349E-03 
2310	-2.21252156092633E-04 
2311	 4.21092666389356E-03 
2312	 7.61821807096919E-03 
2313	 1.12321285979101E-02 
2314	 1.21717014015953E-02 
2315	 1.20847199917236E-02 
2316	 1.34115699328549E-02 
2317	 0.0101211874318 
2318	 7.01619663814782E-03 
2319	 5.96584035845095E-03 
2320	 5.20734432378378E-03 
2321	 8.36131319881267E-03 
2322	 9.2662924111966E-03 
2323	 6.88919427092313E-03 
2324	 7.11629762950201E-03 
2325	 7.91925039503071E-03 
2326	 7.10411806328662E-03 
2327	 4.28934162055034E-03 
2328	 2.98977235424251E-03 
2329	 3.06594710863557E-03 
2330	 3.91283900761611E-03 
2331	 7.34668578290052E-03 
2332	 4.33263195643234E-03 
2333	-1.10664855868334E-03 
2334	-1.70591983416476E-03 
2335	-2.9158901469314E-03 
2336	 9.14994161224244E-04 
2337	 4.18736556835142E-03 
2338	-5.3493833965112E-04 
2339	-5.74902901986293E-03 
2340	-6.3997270170174E-03 
2341	-2.71722317614324E-03 
2342	-1.26167375075821E-03 
2343	 3.00732274227886E-03 
2344	 4.45411040850773E-03 
2345	-1.11171759775579E-03 
2346	-4.2775217017191E-03 
2347	-6.17948846900671E-03 
2348	-1.16580292456421E-04 
2349	 4.24590967134765E-03 
2350	 2.64597663184331E-03 
2351	 7.7989985062713E-03 
2352	 6.61384579140861E-03 
2353	 1.41520249229435E-03 
2354	 7.33372270140769E-03 
2355	 6.03356158592212E-03 
2356	 2.58935500418464E-03 
2357	 1.03174065511215E-02 
2358	 1.32163634766533E-02 
2359	 1.40298765081404E-02 
2360	 6.26205652519129E-03 
2361	-3.18252097527461E-03 
2362	-2.17083177738428E-03 
2363	-3.3349028652613E-03 
2364	 2.97490971653096E-03 
2365	 1.20024826117795E-02 
2366	 1.52612296942949E-02 
2367	 1.84146073384371E-02 
2368	 0.015336263167281 
2369	 7.04821784168594E-03 
2370	-3.85446245191421E-03 
2371	-9.27984045860012E-03 
2372	-3.95780309758241E-03 
2373	 2.74282957752459E-03 
2374	 7.00816408660633E-03 
2375	 6.47876859911951E-03 
2376	-1.15287521500866E-03 
2377	-3.19079912491891E-04 
2378	 4.41533599498168E-03 
2379	-8.52014354498224E-03 
2380	-1.91648104733077E-02 
2381	-2.01792769562867E-02 
2382	-0.030627259230516 
2383	-3.21207910120631E-02 
2384	-2.02442125006102E-02 
2385	-2.32793950697779E-02 
2386	-3.38406801967644E-02 
2387	-4.98337828535182E-02 
2388	-5.33477615860674E-02 
2389	-4.41004656280439E-02 
2390	-4.43396293373325E-02 
2391	-3.13947393921509E-02 
2392	-3.07699235653932E-02 
2393	-2.53244444489397E-02 
2394	-6.08501560957442E-03 
2395	-1.38635313785834E-02 
2396	-1.03054598907098E-02 
2397	 4.30298436088306E-03 
2398	 3.10941240560764E-04 
2399	-1.1640362915879E-03 
2400	 3.12671211211792E-03 
2401	-1.18205959692599E-02 
2402	-1.99326894694921E-02 
2403	-9.87928624969147E-03 
2404	-2.37769545959189E-02 
2405	-4.19331632854096E-02 
2406	-5.21100007036156E-02 
2407	-7.26693316741061E-02 
2408	-5.47038259625279E-02 
2409	-4.19295611303216E-02 
2410	-7.45534850919407E-02 
2411	-7.17839717381095E-02 
2412	-7.53737813798135E-02 
2413	-0.081666891294792 
2414	-5.23831920454217E-02 
2415	-7.02374429060505E-02 
2416	-0.108010668303505 
2417	-0.103354949188016 
2418	-0.152307033417368 
2419	-0.207749253243978 
2420	-0.144773472396813 
2421	-0.148377089706744 
2422	-0.13580977072871 
2423	-8.68099693922603E-02 
2424	-0.11844460265849 
2425	-8.23245893906078E-02 
2426	-5.71102448308685E-02 
2427	-6.29798694732879E-02 
2428	-2.34866932806529E-02 
2429	-1.42372800991406E-02 
2430	 9.24827688652136E-03 
2431	 4.03530980402186E-02 
2432	 8.37265306463933E-02 
2433	 9.52961766859609E-02 
2434	 8.56248855030179E-02 
2435	 0.119996173906224 
2436	 0.154049654008919 
2437	 0.18937766650936 
2438	 0.156491732821307 
2439	 0.113671325292136 
2440	 1.44437180400563E-02 
2441	-0.145202354398514 
2442	-0.200785717009923 
2443	-0.307371914014027 
2444	-0.287800566428578 
2445	-0.165364600991757 
2446	-1.71981585566635E-02 
2447	 0.354048284430953 
2448	 0.472451546484311 
2449	 0.627447634745127 
2450	 0.397937349968951 
2451	-0.476485769008561 
2452	-0.573904913303257 
2453	-0.935447519498436 
2454	-0.961025662015728 
2455	-0.383594594903772 
2456	-0.103147737556543 
2457	 0.027719109960054 
2458	 0.103998001507698 
2459	-2.38456043043919E-02 
2460	-0.291319016584294 
2461	-0.243353112016835 
2462	-0.299981900222227 
2463	-0.31884160632109 
2464	-0.279500396137095 
2465	-0.291908386186577 
2466	-0.154678646211022 
2467	-9.38612377939093E-02 
2468	-0.201196965485271 
2469	-0.161259002407159 
2470	-0.241850027839122 
2471	-0.453235633858763 
2472	-1.01142540966569 
2473	-0.60814765155507 
2474	-0.424370046111171 
2475	-0.357802338217448 
2476	-0.240386330291411 
2477	-0.207919137512672 
2478	-0.750523731051825 
2479	-0.84718897731101 
2480	-0.679540458831625 
2481	-1.04846243333744 
2482	-0.585070473657605 
2483	-0.624165935957489 
2484	-0.508162892502398 
2485	 0.17543170652768 
2486	 1.13736968079333 
2487	 2.35503053577194 
2488	 1.61925700264243 
2489	 0.725201829151468 
2490	 0.189767939446611 
2491	-0.454025596080973 
2492	-0.635497515507917 
2493	 4.08532809509351E-02 
2494	-0.479277964607064 
2495	-0.86722694526995 
2496	-5.67973819129214 
2497	-7.82963256112015 
2498	-2.10631080838652 
2499	-2.20798152979142 
2500	-4.33898351219089 
