Wavelength	rt0721algea00008.asd
350	 5.02366478423357E-02 
351	 5.00253979630722E-02 
352	 4.95205003531544E-02 
353	 4.97613268563093E-02 
354	 5.06562207279211E-02 
355	 4.97553618558948E-02 
356	 4.94014754800445E-02 
357	 4.96997887552517E-02 
358	 0.050014441102274 
359	 4.98377758896706E-02 
360	 4.95253827721699E-02 
361	 4.93456894395866E-02 
362	 4.94358327491317E-02 
363	 4.95789507412788E-02 
364	 4.96246043419928E-02 
365	 0.049582204849316 
366	 4.96891113337123E-02 
367	 4.92165226786008E-02 
368	 4.89970884242733E-02 
369	 4.96326141627014E-02 
370	 4.94306427173648E-02 
371	 4.96759825560967E-02 
372	 0.050147864183046 
373	 4.99019177250801E-02 
374	 4.99979601771382E-02 
375	 0.050077252901392 
376	 5.00881742873964E-02 
377	 5.05690833149455E-02 
378	 0.050662311361472 
379	 5.07374295797062E-02 
380	 5.11279057114738E-02 
381	 5.11296475287853E-02 
382	 5.10702207819288E-02 
383	 0.05125542161978 
384	 5.18484619001516E-02 
385	 5.22427791978324E-02 
386	 5.22209083877086E-02 
387	 5.21537984547338E-02 
388	 5.29159609835862E-02 
389	 5.25776619601174E-02 
390	 5.26071507563124E-02 
391	 5.37714406884157E-02 
392	 5.35660881875323E-02 
393	 5.36790505381557E-02 
394	 5.40777106041075E-02 
395	 5.41819326720607E-02 
396	 5.41023466570656E-02 
397	 5.42172328896445E-02 
398	 5.44896415600421E-02 
399	 5.45498511343965E-02 
400	 5.47285748050921E-02 
401	 5.48955611978283E-02 
402	 5.49973995346768E-02 
403	 5.53420310718919E-02 
404	 5.53944425024881E-02 
405	 5.53445681206433E-02 
406	 5.55674007137732E-02 
407	 5.58165312670094E-02 
408	 5.60050372739725E-02 
409	 5.61239786485595E-02 
410	 0.056237173421357 
411	 5.66092874431172E-02 
412	 5.68364146427577E-02 
413	 5.67523775595427E-02 
414	 5.70394386691975E-02 
415	 5.72367330392822E-02 
416	 5.73779321814351E-02 
417	 0.057660030396044 
418	 5.80010064039882E-02 
419	 0.058321096174766 
420	 5.85748105583657E-02 
421	 0.058759021580574 
422	 5.90247235988751E-02 
423	 5.94004164486512E-02 
424	 5.98059232494132E-02 
425	 5.99218772212871E-02 
426	 6.02624510980888E-02 
427	 0.060717203252763 
428	 6.09519464630318E-02 
429	 6.14259905975616E-02 
430	 6.18757207699638E-02 
431	 6.22047710338627E-02 
432	 6.25890964727825E-02 
433	 6.28811540925894E-02 
434	 6.32194655575755E-02 
435	 6.36904228933855E-02 
436	 6.40545666948906E-02 
437	 6.43969513238144E-02 
438	 6.47737145102833E-02 
439	 6.52113769988601E-02 
440	 6.56458515501241E-02 
441	 6.60238195925519E-02 
442	 6.63517998597255E-02 
443	 6.67189400936648E-02 
444	 6.70332899956652E-02 
445	 6.73043500789415E-02 
446	 6.75859302139216E-02 
447	 6.80021913363283E-02 
448	 6.83328018990124E-02 
449	 6.85571122748682E-02 
450	 6.88040288032118E-02 
451	 6.90275804667652E-02 
452	 6.91989040928941E-02 
453	 6.93383822152852E-02 
454	 6.95642907844298E-02 
455	 6.97738036293405E-02 
456	 6.99163248669572E-02 
457	 6.99953866368955E-02 
458	 0.070194667949904 
459	 7.02915377893005E-02 
460	 7.03141800932937E-02 
461	 7.05414868591134E-02 
462	 7.06436808060293E-02 
463	 7.07038954965155E-02 
464	 7.08291090868144E-02 
465	 7.09583085096362E-02 
466	 7.11055113600165E-02 
467	 7.12744712767482E-02 
468	 7.14518160552243E-02 
469	 7.15358037250212E-02 
470	 7.16287484901437E-02 
471	 0.07175888667484 
472	 7.18303478321846E-02 
473	 7.19951256933226E-02 
474	 7.22130998972263E-02 
475	 7.24087595131792E-02 
476	 7.25733927808177E-02 
477	 7.27515949841236E-02 
478	 7.29214436970529E-02 
479	 7.30384669383212E-02 
480	 7.33414030491383E-02 
481	 0.073673513360643 
482	 7.39153428077084E-02 
483	 7.41182203902181E-02 
484	 7.44201375684093E-02 
485	 7.47577956886519E-02 
486	 7.50325623666926E-02 
487	 7.54205601185479E-02 
488	 7.58122000089412E-02 
489	 0.076171484981498 
490	 7.65477848948686E-02 
491	 7.68692916166413E-02 
492	 7.72305302016824E-02 
493	 7.77070469730014E-02 
494	 7.82568242882417E-02 
495	 7.87710402626148E-02 
496	 7.92580729831755E-02 
497	 0.079787508100402 
498	 8.03394479992626E-02 
499	 0.080922258622008 
500	 8.15419711176614E-02 
501	 8.21996015189031E-02 
502	 8.28470574437535E-02 
503	 8.34700024315873E-02 
504	 8.40938620166479E-02 
505	 8.48363832156033E-02 
506	 0.085627386922127 
507	 8.64288137043257E-02 
508	 8.72297084531201E-02 
509	 8.79554717356647E-02 
510	 8.87403032888733E-02 
511	 8.96528049198103E-02 
512	 9.05567185747549E-02 
513	 9.13601761781338E-02 
514	 9.22079765697782E-02 
515	 9.32831729957655E-02 
516	 0.094236555931244 
517	 9.51422283365822E-02 
518	 9.60461074118655E-02 
519	 9.69147960513302E-02 
520	 9.78170389343598E-02 
521	 9.87367916904297E-02 
522	 9.96433866261724E-02 
523	 0.100506730740456 
524	 0.101362614912232 
525	 0.102206499734916 
526	 0.103019104614763 
527	 0.103930771272501 
528	 0.104760759436381 
529	 0.105455100134393 
530	 0.106294617541353 
531	 0.107140030148271 
532	 0.107920623024838 
533	 0.108621210998831 
534	 0.10944260976758 
535	 0.110218563078559 
536	 0.110920633466039 
537	 0.111693755775564 
538	 0.112435754662609 
539	 0.113168746875655 
540	 0.113926169399124 
541	 0.114686880404237 
542	 0.115413434855032 
543	 0.116122970617383 
544	 0.116867916535596 
545	 0.117648076383677 
546	 0.118408681605534 
547	 0.119115301323068 
548	 0.119780642496399 
549	 0.120484109018747 
550	 0.12119250038344 
551	 0.121850662778149 
552	 0.122535499674537 
553	 0.123179326025018 
554	 0.123799586810563 
555	 0.124510132475724 
556	 0.125124253028445 
557	 0.125643820709489 
558	 0.126134071865464 
559	 0.12673050439398 
560	 0.127204498171451 
561	 0.127586858983582 
562	 0.128055599171825 
563	 0.128457129289868 
564	 0.128822101826907 
565	 0.129154074629683 
566	 0.129355993687735 
567	 0.129525902749496 
568	 0.129751726384316 
569	 0.130061011894068 
570	 0.130178144300324 
571	 0.130316816820186 
572	 0.130546176866663 
573	 0.130748216850771 
574	 0.130884235645076 
575	 0.130988684705286 
576	 0.131113343195652 
577	 0.131305991245022 
578	 0.131444491950769 
579	 0.131507734323624 
580	 0.131546269962534 
581	 0.131612368427588 
582	 0.131684098875127 
583	 0.131730547706156 
584	 0.131732055463395 
585	 0.131562710394095 
586	 0.131310548312023 
587	 0.13111952412197 
588	 0.130932651848878 
589	 0.1307621519226 
590	 0.130634671507919 
591	 0.130570627954787 
592	 0.1304730826736 
593	 0.130347379747601 
594	 0.130214692908687 
595	 0.130063671944334 
596	 0.129895546226968 
597	 0.129698140691501 
598	 0.129463424343331 
599	 0.129281987373194 
600	 0.129112593785567 
601	 0.128940219165721 
602	 0.128822130191414 
603	 0.128748960438705 
604	 0.128696867222845 
605	 0.128644577372341 
606	 0.128615260149526 
607	 0.128605370684972 
608	 0.128582524150404 
609	 0.128491658838876 
610	 0.128444515287757 
611	 0.128401941915492 
612	 0.128317016716885 
613	 0.128214151472829 
614	 0.128146017333388 
615	 0.128069858116184 
616	 0.127913449246642 
617	 0.127862048910245 
618	 0.127807807551637 
619	 0.127696076669963 
620	 0.127608978197486 
621	 0.127536674018307 
622	 0.127510321079881 
623	 0.12753289511673 
624	 0.127443716804274 
625	 0.127243566586793 
626	 0.127041202966649 
627	 0.127025810406764 
628	 0.127023427173486 
629	 0.126995933986362 
630	 0.126938148393438 
631	 0.126869123439612 
632	 0.126675452998564 
633	 0.126453876839924 
634	 0.126346657375806 
635	 0.125997196830003 
636	 0.12565253612453 
637	 0.125381766469452 
638	 0.124913268187315 
639	 0.124483961623533 
640	 0.124126792149052 
641	 0.123787120819019 
642	 0.123300608228367 
643	 0.122851261089582 
644	 0.122400192026797 
645	 0.121746884703423 
646	 0.121189856962512 
647	 0.1207667243685 
648	 0.120446285139903 
649	 0.120134938285773 
650	 0.119972680831993 
651	 0.119854812538127 
652	 0.119630888754679 
653	 0.119481465344986 
654	 0.119246270540649 
655	 0.118941632202999 
656	 0.118880721669039 
657	 0.118535264867046 
658	 0.118109622738984 
659	 0.117821281448235 
660	 0.117532621920969 
661	 0.117114977734049 
662	 0.116673042437685 
663	 0.1164292134412 
664	 0.11606581463807 
665	 0.115758152303118 
666	 0.115558959870967 
667	 0.115190248011744 
668	 0.114987583688106 
669	 0.114832130771467 
670	 0.11455491443137 
671	 0.114522063242275 
672	 0.114526227267384 
673	 0.114484283140931 
674	 0.114456596499002 
675	 0.114472439993984 
676	 0.114530925816749 
677	 0.114642565544971 
678	 0.114867727433218 
679	 0.115156024906822 
680	 0.115514659076183 
681	 0.11598125516395 
682	 0.116585883919513 
683	 0.117428582847082 
684	 0.118433920820052 
685	 0.119375913732187 
686	 0.120555728067949 
687	 0.121872776553274 
688	 0.123126267426631 
689	 0.12460577023174 
690	 0.125929368082783 
691	 0.127102847438844 
692	 0.128366448917122 
693	 0.129671173292002 
694	 0.130941359973965 
695	 0.132115574857534 
696	 0.133317359120209 
697	 0.13417082494857 
698	 0.134852645639318 
699	 0.135576026470246 
700	 0.136131349905043 
701	 0.136720140218364 
702	 0.137278126122833 
703	 0.137564144396207 
704	 0.137838542397738 
705	 0.138031485263076 
706	 0.138072461823726 
707	 0.138033487399686 
708	 0.137727766844725 
709	 0.137310750781974 
710	 0.136982541792869 
711	 0.13642114287656 
712	 0.1357377618894 
713	 0.13488417657916 
714	 0.133604687394246 
715	 0.132325399614527 
716	 0.130936592010279 
717	 0.129383877889092 
718	 0.12784482405421 
719	 0.126742116532725 
720	 0.125912838955555 
721	 0.124843960471521 
722	 0.123583137892746 
723	 0.122044428578514 
724	 0.120408907583977 
725	 0.118771726397905 
726	 0.117063809027616 
727	 0.115264807916805 
728	 0.113334991112823 
729	 0.111025815841792 
730	 0.108868541667765 
731	 0.107025348373028 
732	 0.105323472621715 
733	 0.103679050823848 
734	 0.102221537763662 
735	 0.101019911651857 
736	 0.100020117798808 
737	 9.93301199258218E-02 
738	 9.88544312553478E-02 
739	 9.85071152628339E-02 
740	 9.83676727923272E-02 
741	 9.82288958000728E-02 
742	 9.80816232644117E-02 
743	 9.80211473149171E-02 
744	 9.80506432891285E-02 
745	 9.80716321799064E-02 
746	 9.80638349348856E-02 
747	 9.81253455252376E-02 
748	 9.80454575692866E-02 
749	 9.79694400694057E-02 
750	 9.80452408702242E-02 
751	 9.81307295633304E-02 
752	 9.81062511455489E-02 
753	 9.80630099321764E-02 
754	 9.81704441814203E-02 
755	 9.81789870586531E-02 
756	 9.81795186050425E-02 
757	 9.81961271306005E-02 
758	 9.80830508591467E-02 
759	 9.77618615739789E-02 
760	 9.73719519843886E-02 
761	 9.73430799986018E-02 
762	 9.72844642453021E-02 
763	 9.75988892206362E-02 
764	 9.80344471993763E-02 
765	 9.82804000502513E-02 
766	 9.86273716848611E-02 
767	 0.098991729740713 
768	 9.92899466056427E-02 
769	 9.94291999585042E-02 
770	 9.95989371675757E-02 
771	 9.98259188479715E-02 
772	 0.100086536778323 
773	 0.100326653268547 
774	 0.100552933357098 
775	 0.100798292000383 
776	 0.101104948429559 
777	 0.101480936633193 
778	 0.101788358134927 
779	 0.102020986348527 
780	 0.102314810970335 
781	 0.102638571298228 
782	 0.10306434394079 
783	 0.103539951377903 
784	 0.103684405403828 
785	 0.103960405375849 
786	 0.104394811150129 
787	 0.104832878664862 
788	 0.105089355881985 
789	 0.105509778038227 
790	 0.106067474465952 
791	 0.106452570198685 
792	 0.106941730362151 
793	 0.107462617559927 
794	 0.107906074279062 
795	 0.108156053428959 
796	 0.10864288115382 
797	 0.109067539163324 
798	 0.109172206179478 
799	 0.109502290576542 
800	 0.109834421995741 
801	 0.110121625241503 
802	 0.110411830789111 
803	 0.110632979954509 
804	 0.110875234548381 
805	 0.111089751073675 
806	 0.111075170091782 
807	 0.110951962524923 
808	 0.110768567930134 
809	 0.110552263509537 
810	 0.110316710615355 
811	 0.109897356689919 
812	 0.109280222475611 
813	 0.108585018288115 
814	 0.10820113983295 
815	 0.10758141720269 
816	 0.106888020824437 
817	 0.106743651706278 
818	 0.10624007758279 
819	 0.105595608106524 
820	 0.104887595138037 
821	 0.103899452091573 
822	 0.102555031185331 
823	 0.101225893338508 
824	 0.100106967799622 
825	 9.86448583945743E-02 
826	 9.67357241052629E-02 
827	 9.45979867756245E-02 
828	 9.26921790285052E-02 
829	 9.09141797481413E-02 
830	 8.91369045025713E-02 
831	 8.75328061512868E-02 
832	 8.64614621280298E-02 
833	 0.085411611359232 
834	 8.46439478741954E-02 
835	 8.41050737740144E-02 
836	 8.32644121887647E-02 
837	 8.29902057537493E-02 
838	 0.082794255641404 
839	 8.22542922044164E-02 
840	 8.18873159075555E-02 
841	 8.14745513128454E-02 
842	 8.11603970163045E-02 
843	 8.10937725569701E-02 
844	 8.08699400353015E-02 
845	 8.05415815974948E-02 
846	 8.01383843207161E-02 
847	 7.96808544563293E-02 
848	 7.92942980848808E-02 
849	 7.91579161617722E-02 
850	 7.91417911156309E-02 
851	 7.87573623431424E-02 
852	 7.82699771932024E-02 
853	 7.79093046986244E-02 
854	 7.77445882239562E-02 
855	 7.75096953113185E-02 
856	 7.72985203967598E-02 
857	 7.70468910358816E-02 
858	 7.67186053922787E-02 
859	 0.076512107530205 
860	 7.63649409704692E-02 
861	 7.61882851465399E-02 
862	 7.59011299760633E-02 
863	 7.55513902962374E-02 
864	 7.53044570200655E-02 
865	 7.50951263184317E-02 
866	 7.46830709601257E-02 
867	 7.43614511908867E-02 
868	 7.41291552982464E-02 
869	 7.39345668539649E-02 
870	 7.37221881483033E-02 
871	 7.33943867210418E-02 
872	 7.29779982467086E-02 
873	 0.072548625547763 
874	 7.22104356419718E-02 
875	 7.19569665803032E-02 
876	 7.15591082044426E-02 
877	 7.09279369187237E-02 
878	 0.070715717155638 
879	 7.04089658713716E-02 
880	 6.99649481069211E-02 
881	 6.95333573171767E-02 
882	 6.88664768488701E-02 
883	 6.85554381529714E-02 
884	 6.84799331497814E-02 
885	 6.80423538691229E-02 
886	 6.77247872348141E-02 
887	 6.74169665687644E-02 
888	 6.69943670027119E-02 
889	 6.64191443550081E-02 
890	 0.066157542299245 
891	 6.58701307632635E-02 
892	 6.53818844956901E-02 
893	 6.51121468356416E-02 
894	 6.47058915338924E-02 
895	 6.42474424420801E-02 
896	 6.38736560443614E-02 
897	 6.34514841483465E-02 
898	 6.29363569747132E-02 
899	 6.25962205916279E-02 
900	 0.062538378890987 
901	 6.20182119240277E-02 
902	 6.17042393734627E-02 
903	 6.14573013377447E-02 
904	 6.10151632278406E-02 
905	 6.11920021520214E-02 
906	 0.060973595571219 
907	 6.02759746274449E-02 
908	 0.059684646774707 
909	 5.86081364402518E-02 
910	 5.83036509491175E-02 
911	 5.86443855075761E-02 
912	 5.82225067481106E-02 
913	 5.72564394645199E-02 
914	 5.66817274152191E-02 
915	 5.63777081953899E-02 
916	 5.51620378530532E-02 
917	 5.52855285826206E-02 
918	 5.50822752056689E-02 
919	 5.41024351653973E-02 
920	 0.054091175012322 
921	 5.32782600946283E-02 
922	 5.27603907485647E-02 
923	 5.29654353394314E-02 
924	 0.051791024869179 
925	 5.07993546534776E-02 
926	 5.06874664525608E-02 
927	 5.12050267021224E-02 
928	 4.94311400396238E-02 
929	 4.88174065881774E-02 
930	 4.85755892448037E-02 
931	 4.62632151255765E-02 
932	 4.77092044128584E-02 
933	 4.68219347604682E-02 
934	 4.48798251017756E-02 
935	 4.59999224822481E-02 
936	 4.43392353810942E-02 
937	 0.04509573465577 
938	 4.61496402115757E-02 
939	 4.48709506493611E-02 
940	 4.54110446938464E-02 
941	 4.54054859415498E-02 
942	 4.49649459552148E-02 
943	 4.52866148764331E-02 
944	 4.57124626039443E-02 
945	 4.70639959753159E-02 
946	 4.66120668767859E-02 
947	 4.19678163653551E-02 
948	 4.37439052844177E-02 
949	 4.35689461737973E-02 
950	 4.12222485821574E-02 
951	 4.15099395282925E-02 
952	 0.042156962244927 
953	 4.24188601547455E-02 
954	 4.24707924996016E-02 
955	 4.27142461378908E-02 
956	 4.08744101231959E-02 
957	 4.05042259111012E-02 
958	 4.18073887521081E-02 
959	 4.23585155733085E-02 
960	 4.09733766311076E-02 
961	 4.18471079521079E-02 
962	 4.32179557660896E-02 
963	 4.06000944051517E-02 
964	 4.15743291472765E-02 
965	 4.19506136478464E-02 
966	 4.08376612920773E-02 
967	 0.040311854237331 
968	 4.04729695688636E-02 
969	 4.17104418247084E-02 
970	 4.22874611017045E-02 
971	 0.039843208970925 
972	 4.24637095243672E-02 
973	 4.32439530659279E-02 
974	 4.10334708441751E-02 
975	 4.13840963015554E-02 
976	 4.18247676930167E-02 
977	 0.042098392787264 
978	 4.27202926124332E-02 
979	 4.40038699812587E-02 
980	 4.06001399719574E-02 
981	 4.09457029268491E-02 
982	 4.40778594666853E-02 
983	 4.20576149306877E-02 
984	 4.22802560708407E-02 
985	 4.29280015496209E-02 
986	 4.30244692876268E-02 
987	 4.29857375134177E-02 
988	 4.31801599263254E-02 
989	 4.19507711858845E-02 
990	 4.11597598758666E-02 
991	 4.38536140124419E-02 
992	 4.19807086015128E-02 
993	 4.21287761930584E-02 
994	 4.40860654599801E-02 
995	 4.31540870992696E-02 
996	 0.043507864385051 
997	 0.043496986921316 
998	 4.30271205577071E-02 
999	 4.30144978636618E-02 
1000	 4.27812546560762E-02 
1001	 4.05208674792551E-02 
1002	 4.06812759292455E-02 
1003	 4.06446710115515E-02 
1004	 4.04532735200473E-02 
1005	 4.02759150245862E-02 
1006	 3.97428190047521E-02 
1007	 3.94802219838416E-02 
1008	 3.96692457914179E-02 
1009	 3.99765476610002E-02 
1010	 4.03971151318131E-02 
1011	 4.07607198714783E-02 
1012	 4.09853359446523E-02 
1013	 4.09574583320676E-02 
1014	 4.09973813251603E-02 
1015	 4.08982400462741E-02 
1016	 4.10462863209142E-02 
1017	 0.041435511341768 
1018	 4.14819201889364E-02 
1019	 4.15535308871962E-02 
1020	 4.15314068968825E-02 
1021	 4.11055186047663E-02 
1022	 4.09027652418877E-02 
1023	 4.09944589025993E-02 
1024	 4.10840145698386E-02 
1025	 4.12477288308192E-02 
1026	 4.12781542944867E-02 
1027	 4.14494629448478E-02 
1028	 0.04171839761193 
1029	 4.17909795799354E-02 
1030	 4.18644416335665E-02 
1031	 4.18841501726284E-02 
1032	 4.16049721403037E-02 
1033	 4.16957398243838E-02 
1034	 4.21591311024472E-02 
1035	 4.22676601466773E-02 
1036	 4.22428360006425E-02 
1037	 0.042358141221723 
1038	 0.042324684837913 
1039	 4.23211544576584E-02 
1040	 4.28238809647027E-02 
1041	 4.31484918886308E-02 
1042	 4.31846766038418E-02 
1043	 4.29855302802831E-02 
1044	 4.29813436901102E-02 
1045	 4.28539728453053E-02 
1046	 4.27318638386473E-02 
1047	 4.26671596615259E-02 
1048	 4.26799583378821E-02 
1049	 4.24395112375962E-02 
1050	 4.25909629882554E-02 
1051	 0.04331622206839 
1052	 4.35857340510694E-02 
1053	 4.38330658209612E-02 
1054	 4.39982998209105E-02 
1055	 4.37842893727364E-02 
1056	 4.37610879761816E-02 
1057	 4.37929390849804E-02 
1058	 4.39523018211983E-02 
1059	 4.39359175767474E-02 
1060	 0.043876655435963 
1061	 4.38707923764561E-02 
1062	 4.36209383658192E-02 
1063	 4.38287755753186E-02 
1064	 4.45791616671716E-02 
1065	 4.47476749330424E-02 
1066	 4.49851506306546E-02 
1067	 4.49524232426648E-02 
1068	 0.044120531215486 
1069	 4.38982215645902E-02 
1070	 4.39613641948522E-02 
1071	 4.39886939143096E-02 
1072	 4.42953058451406E-02 
1073	 4.46084552708303E-02 
1074	 4.45713103187928E-02 
1075	 4.42832946402521E-02 
1076	 4.41531045852631E-02 
1077	 4.37398087715774E-02 
1078	 4.37608418832555E-02 
1079	 4.42543015160171E-02 
1080	 4.42361206567944E-02 
1081	 4.42451894501023E-02 
1082	 0.044055384300991 
1083	 4.31934167778637E-02 
1084	 4.29027649003684E-02 
1085	 4.29892263338895E-02 
1086	 4.28767313169733E-02 
1087	 0.04281623541949 
1088	 4.28866789426186E-02 
1089	 4.32795093639866E-02 
1090	 4.29171739941499E-02 
1091	 4.28230568072971E-02 
1092	 4.29434934280788E-02 
1093	 4.28209791646581E-02 
1094	 4.23822127942311E-02 
1095	 4.21467826942327E-02 
1096	 4.19776311143482E-02 
1097	 4.17721028961092E-02 
1098	 4.15378132607485E-02 
1099	 4.12849819917733E-02 
1100	 4.09512618358188E-02 
1101	 0.040770708843396 
1102	 4.06493892765586E-02 
1103	 4.06046314924241E-02 
1104	 0.040868795610983 
1105	 4.09044081243267E-02 
1106	 4.08653784173139E-02 
1107	 4.03817412855732E-02 
1108	 4.00236620189138E-02 
1109	 0.040020848461508 
1110	 3.99889957931154E-02 
1111	 4.04272195964114E-02 
1112	 4.04390037593959E-02 
1113	 0.040044625769675 
1114	 3.98870878944071E-02 
1115	 3.97942445047453E-02 
1116	 3.92329458913734E-02 
1117	 3.83672494420859E-02 
1118	 0.037977207197634 
1119	 3.69918867462976E-02 
1120	 3.60096360521321E-02 
1121	 3.69313576551004E-02 
1122	 3.61764304471581E-02 
1123	 3.14265260360769E-02 
1124	 2.97355212671482E-02 
1125	 2.91998484414974E-02 
1126	 2.91969647808243E-02 
1127	 3.20033819743698E-02 
1128	 3.51809500664838E-02 
1129	 3.71225937962765E-02 
1130	 3.82976729645306E-02 
1131	 3.84845449552651E-02 
1132	 3.87695723755421E-02 
1133	 3.74936194012902E-02 
1134	 3.41086818670622E-02 
1135	 3.35730835723727E-02 
1136	 3.37179964819996E-02 
1137	 3.35999018263799E-02 
1138	 3.47129824085258E-02 
1139	 0.034721432191193 
1140	 3.35423751923059E-02 
1141	 3.29970228272698E-02 
1142	 3.44707855059335E-02 
1143	 3.56062118373637E-02 
1144	 3.55026076140919E-02 
1145	 3.48820587070933E-02 
1146	 3.46899432325124E-02 
1147	 3.53195948444792E-02 
1148	 3.39044685208224E-02 
1149	 3.26879796723518E-02 
1150	 0.032769112451777 
1151	 3.16317120870001E-02 
1152	 3.15808331633103E-02 
1153	 3.44194172316657E-02 
1154	 3.45177269345993E-02 
1155	 3.31323577490956E-02 
1156	 3.23767947648562E-02 
1157	 3.32352167749409E-02 
1158	 3.34626581691678E-02 
1159	 3.34858268663907E-02 
1160	 0.033911654649985 
1161	 3.35792868585502E-02 
1162	 0.033229731715533 
1163	 3.38774583498788E-02 
1164	 3.42383351589032E-02 
1165	 0.033940071906036 
1166	 3.37556480846251E-02 
1167	 3.35352310044564E-02 
1168	 3.34949059345189E-02 
1169	 0.034011297381507 
1170	 3.43470062301121E-02 
1171	 3.44015953997572E-02 
1172	 0.034192907171555 
1173	 3.42079582536046E-02 
1174	 3.40955036873315E-02 
1175	 3.40936003508238E-02 
1176	 3.42573542610667E-02 
1177	 3.40969236768107E-02 
1178	 3.37744870492262E-02 
1179	 3.36996793228586E-02 
1180	 3.36272558009268E-02 
1181	 3.38710389114171E-02 
1182	 3.42151505850024E-02 
1183	 3.39656102293838E-02 
1184	 3.38861189855533E-02 
1185	 3.41604743127109E-02 
1186	 3.42473283182869E-02 
1187	 0.034301619710369 
1188	 3.42454262564972E-02 
1189	 3.41161694792586E-02 
1190	 3.39770370961519E-02 
1191	 3.37923395679239E-02 
1192	 3.37723699633632E-02 
1193	 3.39004614839118E-02 
1194	 3.40272574414705E-02 
1195	 3.41134492358739E-02 
1196	 3.42245775777667E-02 
1197	 3.42123804285605E-02 
1198	 0.033922385490139 
1199	 3.37743189223601E-02 
1200	 3.39763309511636E-02 
1201	 3.41128355507954E-02 
1202	 3.41049651139955E-02 
1203	 3.40940128404012E-02 
1204	 3.41321334016811E-02 
1205	 3.41328364948853E-02 
1206	 3.41313086863321E-02 
1207	 3.42390596971483E-02 
1208	 3.42043564742878E-02 
1209	 3.40490781908268E-02 
1210	 3.42748011362203E-02 
1211	 3.44893080947764E-02 
1212	 3.42520209438068E-02 
1213	 3.42133687366647E-02 
1214	 3.42187190520181E-02 
1215	 3.41973754755401E-02 
1216	 3.39628821358987E-02 
1217	 3.42016092367415E-02 
1218	 3.45699718934671E-02 
1219	 3.45889744229946E-02 
1220	 3.45528949465406E-02 
1221	 3.44689076160053E-02 
1222	 3.42833147428201E-02 
1223	 3.42976958034928E-02 
1224	 3.44306789303627E-02 
1225	 3.44057466337785E-02 
1226	 3.43787917077416E-02 
1227	 3.44401767041893E-02 
1228	 3.45071870665991E-02 
1229	 0.034583991065678 
1230	 3.46550937059657E-02 
1231	 3.47033296949525E-02 
1232	 3.48180955127953E-02 
1233	 3.49048509963064E-02 
1234	 3.48926457136056E-02 
1235	 3.49070420515926E-02 
1236	 3.47849653058761E-02 
1237	 3.47135249244744E-02 
1238	 3.46623129134712E-02 
1239	 3.47607602604518E-02 
1240	 3.47888040177444E-02 
1241	 3.47266590691558E-02 
1242	 3.47690573223584E-02 
1243	 3.48806862133114E-02 
1244	 3.49218414325887E-02 
1245	 3.50133266621004E-02 
1246	 3.50060702308576E-02 
1247	 3.48505624167409E-02 
1248	 3.49142208225665E-02 
1249	 3.50023811792733E-02 
1250	 3.49053614305559E-02 
1251	 3.48409698550926E-02 
1252	 3.48467570681473E-02 
1253	 3.48295976310685E-02 
1254	 3.49213653409209E-02 
1255	 3.52124370772902E-02 
1256	 3.52111672753387E-02 
1257	 3.47417419256513E-02 
1258	 3.46482145719681E-02 
1259	 3.47410990361707E-02 
1260	 3.46823394618153E-02 
1261	 3.46098684126001E-02 
1262	 0.034699434258574 
1263	 3.48584964494087E-02 
1264	 3.48216745250966E-02 
1265	 3.47973731298595E-02 
1266	 3.50783607454296E-02 
1267	 3.51370962149383E-02 
1268	 3.47559123897072E-02 
1269	 3.45254941300322E-02 
1270	 3.45500407410481E-02 
1271	 3.43991129673142E-02 
1272	 3.43713398466235E-02 
1273	 3.46541323111889E-02 
1274	 3.47185828919525E-02 
1275	 0.034586407257396 
1276	 3.46078859420273E-02 
1277	 3.45742892269383E-02 
1278	 3.45373868001606E-02 
1279	 3.46604981159072E-02 
1280	 3.45414092010035E-02 
1281	 3.45210786627898E-02 
1282	 3.45676352799136E-02 
1283	 3.45711243448666E-02 
1284	 0.034533252241077 
1285	 0.034502868551989 
1286	 3.44794481998319E-02 
1287	 3.43888429083305E-02 
1288	 0.034233756741303 
1289	 3.41873225405276E-02 
1290	 3.42423649095313E-02 
1291	 3.40275671405857E-02 
1292	 3.40778626080424E-02 
1293	 3.41337813521489E-02 
1294	 0.033925333116815 
1295	 3.37648388571418E-02 
1296	 3.36439138360948E-02 
1297	 3.35920539590831E-02 
1298	 3.37139619069095E-02 
1299	 3.37251521888659E-02 
1300	 3.33948353103444E-02 
1301	 0.032998722065683 
1302	 3.29307959206843E-02 
1303	 3.31150633008375E-02 
1304	 3.32516487848189E-02 
1305	 3.34544493153664E-02 
1306	 0.0334125011287 
1307	 3.28855388978618E-02 
1308	 3.27373147043988E-02 
1309	 3.27880546641556E-02 
1310	 3.26821217071503E-02 
1311	 0.032527412427192 
1312	 3.25732552030777E-02 
1313	 3.28155481710615E-02 
1314	 3.26519965844897E-02 
1315	 3.25656867035998E-02 
1316	 3.22578312945951E-02 
1317	 3.09605194799755E-02 
1318	 3.06339107952954E-02 
1319	 3.11478028253742E-02 
1320	 3.11366454505611E-02 
1321	 3.13115500397107E-02 
1322	 0.031487854303768 
1323	 3.12633038404178E-02 
1324	 3.09682709219178E-02 
1325	 3.09198978828302E-02 
1326	 3.08891461383646E-02 
1327	 3.04464103801417E-02 
1328	 2.98218828050461E-02 
1329	 2.98248079486732E-02 
1330	 2.97118768574752E-02 
1331	 2.91161215916207E-02 
1332	 0.028756876654752 
1333	 0.028698257805546 
1334	 2.86952001594065E-02 
1335	 2.84381678389295E-02 
1336	 2.86257574577936E-02 
1337	 2.85907551795103E-02 
1338	 0.027668215198364 
1339	 2.74753801692416E-02 
1340	 2.81436377421643E-02 
1341	 2.81757898512575E-02 
1342	 2.79517550457219E-02 
1343	 2.80630266584005E-02 
1344	 2.84780676245429E-02 
1345	 2.82813045574478E-02 
1346	 2.72924029019688E-02 
1347	 2.71604382406717E-02 
1348	 2.72774261539479E-02 
1349	 2.62135864069497E-02 
1350	 2.43650602412874E-02 
1351	 0.024605949873796 
1352	 2.67020617902932E-02 
1353	 2.93659726635986E-02 
1354	 5.80629834206721E-02 
1355	 5.40568095524032E-02 
1356	 0.012346735814631 
1357	-2.93542313309512E-03 
1358	 5.59857626934116E-03 
1359	 5.71835274408424E-02 
1360	 0.071292798915678 
1361	-1.39543034984386E-02 
1362	 3.91450945163976E-02 
1363	 8.65109334689724E-02 
1364	-3.77467334571664E-02 
1365	 6.65670302483653E-03 
1366	 0.118411904411596 
1367	-6.44967303320566E-02 
1368	-0.12860780091141 
1369	 0.179096780472317 
1370	 0.209743211342747 
1371	-0.104494571272495 
1372	-0.214136260803953 
1373	-0.211913454829194 
1374	-0.206208908913874 
1375	-0.302906501797264 
1376	-0.331024238607497 
1377	-0.144570115998834 
1378	-0.047274939497414 
1379	 1.64653365895573E-02 
1380	 2.37756949511448E-02 
1381	-2.79182367912182E-02 
1382	-5.86181876642724E-02 
1383	-0.303123434180982 
1384	-0.440703761006225 
1385	-0.355612633724616 
1386	-0.26790727604911 
1387	 3.46354611986009E-02 
1388	 0.146081944867305 
1389	 0.550722435201528 
1390	 0.753296709277866 
1391	 0.520996387238272 
1392	-8.65312848262549E-02 
1393	-9.09280210685242E-02 
1394	-7.88025621020537E-03 
1395	-4.16680101721374E-02 
1396	 5.84049411508865E-02 
1397	 0.353434384979098 
1398	 9.06255592385885E-02 
1399	-0.14755823051096 
1400	 0.135091092298562 
1401	 0.133966433847332 
1402	-7.20563524124813E-02 
1403	 0.144852045940631 
1404	 0.323449875782631 
1405	 0.164433506641731 
1406	-0.102240577364683 
1407	 4.63177061072184E-03 
1408	 6.03611855853111E-02 
1409	-4.40225776984786E-02 
1410	-3.82383342273615E-02 
1411	 0.032162278985289 
1412	-0.04385676508663 
1413	-7.77123943969621E-02 
1414	 5.72340991596549E-02 
1415	 7.92841438483718E-02 
1416	-5.48535757889401E-02 
1417	-6.67872270738763E-02 
1418	-4.4266716194284E-03 
1419	 2.06290699258203E-02 
1420	 4.25213078489575E-02 
1421	 4.27988282454868E-02 
1422	 4.25783420463889E-02 
1423	 0.043528030020483 
1424	 0.033390127282855 
1425	 2.37171450395783E-02 
1426	 1.76534593352346E-02 
1427	 1.58001537319885E-02 
1428	 9.79699402489611E-03 
1429	 8.69406144042125E-03 
1430	 1.51679668118695E-02 
1431	 1.60708901689346E-02 
1432	 1.32890669497442E-02 
1433	 1.30131154467168E-02 
1434	 1.68247108935118E-02 
1435	 1.48867386252093E-02 
1436	 8.70317990040299E-03 
1437	 3.59810774266572E-03 
1438	 6.00452825759243E-04 
1439	 4.36930633029924E-04 
1440	 6.18257312459987E-03 
1441	 1.13140958589621E-02 
1442	 1.44544618306419E-02 
1443	 1.53215520874697E-02 
1444	 0.010995998628789 
1445	 1.12265781805866E-02 
1446	 1.20714879311587E-02 
1447	 7.27068914709071E-03 
1448	 7.50428764397864E-03 
1449	 9.38393553285518E-03 
1450	 7.99396930889506E-03 
1451	 9.43706224404574E-03 
1452	 1.11807154415209E-02 
1453	 0.010579615961699 
1454	 1.06482672980252E-02 
1455	 1.02183660315033E-02 
1456	 1.09140740812787E-02 
1457	 1.22518062045359E-02 
1458	 1.26818487372135E-02 
1459	 1.33371352024093E-02 
1460	 1.36850274527499E-02 
1461	 1.35675815264777E-02 
1462	 1.32622703159313E-02 
1463	 1.25089713500439E-02 
1464	 1.26676578624318E-02 
1465	 1.34838113117965E-02 
1466	 1.29071363319984E-02 
1467	 1.15896101874898E-02 
1468	 1.20707182738042E-02 
1469	 1.25891733015993E-02 
1470	 1.24147810352501E-02 
1471	 1.41808298550083E-02 
1472	 1.42255317690601E-02 
1473	 1.10686386550065E-02 
1474	 1.09616369384076E-02 
1475	 1.33649617632448E-02 
1476	 1.34824441776188E-02 
1477	 1.26044621053898E-02 
1478	 1.29761944914657E-02 
1479	 1.32353623686401E-02 
1480	 1.33324654524461E-02 
1481	 1.43893732398734E-02 
1482	 1.46787226121125E-02 
1483	 1.37261571650611E-02 
1484	 1.37337715180543E-02 
1485	 1.45995382031754E-02 
1486	 0.014713020695936 
1487	 1.44841212905602E-02 
1488	 1.45461342013782E-02 
1489	 1.45194075535632E-02 
1490	 1.45280098535788E-02 
1491	 1.47162170207288E-02 
1492	 0.014848255394935 
1493	 1.49227072844323E-02 
1494	 1.48804746439588E-02 
1495	 1.47467931787263E-02 
1496	 1.47926742173738E-02 
1497	 1.47101228369449E-02 
1498	 1.48204865282666E-02 
1499	 1.53975077045108E-02 
1500	 1.56190203184323E-02 
1501	 1.55695588528212E-02 
1502	 1.56787346597415E-02 
1503	 1.57725330396153E-02 
1504	 0.015828151255518 
1505	 1.59277475187137E-02 
1506	 1.60798587004221E-02 
1507	 1.63405628130738E-02 
1508	 1.64042022506539E-02 
1509	 1.64722619992853E-02 
1510	 1.67527748022882E-02 
1511	 1.70107533415061E-02 
1512	 1.70570352893844E-02 
1513	 1.70009900909852E-02 
1514	 1.70086421851839E-02 
1515	 1.69757699689157E-02 
1516	 1.71324027624169E-02 
1517	 1.73897648123225E-02 
1518	 1.74331710082837E-02 
1519	 1.75040117370373E-02 
1520	 1.75729040001467E-02 
1521	 1.77050740391899E-02 
1522	 1.79303326229551E-02 
1523	 1.79553440821581E-02 
1524	 1.79259986744612E-02 
1525	 1.79200078956673E-02 
1526	 1.79268759227901E-02 
1527	 1.81445533554414E-02 
1528	 1.83516966459492E-02 
1529	 1.84746055242465E-02 
1530	 0.018686216547334 
1531	 1.88694183919985E-02 
1532	 1.89182371857751E-02 
1533	 1.88236773250205E-02 
1534	 1.88518837429986E-02 
1535	 1.89659013502256E-02 
1536	 1.89856351831458E-02 
1537	 1.91521498019958E-02 
1538	 1.93739627586412E-02 
1539	 1.94576499976009E-02 
1540	 1.94741898483326E-02 
1541	 0.019655546137439 
1542	 1.99226910448641E-02 
1543	 0.019941540894244 
1544	 1.98980515503711E-02 
1545	 1.98641760103519E-02 
1546	 1.98811242980765E-02 
1547	 2.00507706757228E-02 
1548	 2.01137895606356E-02 
1549	 2.01408877440948E-02 
1550	 2.02262602031172E-02 
1551	 2.03375328287417E-02 
1552	 2.05848563442329E-02 
1553	 2.07243029417157E-02 
1554	 2.06682764280001E-02 
1555	 2.07027912817462E-02 
1556	 2.08539899589691E-02 
1557	 2.10603494014208E-02 
1558	 2.10977206746492E-02 
1559	 2.09934308641439E-02 
1560	 2.11139785891983E-02 
1561	 2.11136029734795E-02 
1562	 2.09880716184707E-02 
1563	 2.11327958156818E-02 
1564	 2.12031594593723E-02 
1565	 2.12055976766067E-02 
1566	 2.15055596828813E-02 
1567	 2.17506472216174E-02 
1568	 2.15975034772029E-02 
1569	 2.15062925154099E-02 
1570	 0.021618647215634 
1571	 2.16535082146121E-02 
1572	 2.17328314696504E-02 
1573	 2.18358873891874E-02 
1574	 2.18196572158578E-02 
1575	 2.19218855729603E-02 
1576	 2.20727477716608E-02 
1577	 2.21065246250469E-02 
1578	 2.21679667721587E-02 
1579	 2.22274937708261E-02 
1580	 2.22882011269746E-02 
1581	 2.22722302915666E-02 
1582	 2.22598135652914E-02 
1583	 2.22745641550215E-02 
1584	 2.22527032249281E-02 
1585	 2.23335618910894E-02 
1586	 2.24454025418464E-02 
1587	 2.24923242713093E-02 
1588	 2.24650218889611E-02 
1589	 0.022474430734117 
1590	 2.25446577624867E-02 
1591	 2.27620139632645E-02 
1592	 2.30144921365737E-02 
1593	 2.29808258679528E-02 
1594	 2.29321365762256E-02 
1595	 2.29878495121873E-02 
1596	 2.29250921031001E-02 
1597	 2.29126340767401E-02 
1598	 2.30599545189399E-02 
1599	 2.30713084051254E-02 
1600	 2.29174258287184E-02 
1601	 2.30150155254714E-02 
1602	 2.32789440720665E-02 
1603	 2.32936303362907E-02 
1604	 2.32995722015195E-02 
1605	 2.33646972778339E-02 
1606	 2.32752752718049E-02 
1607	 2.33383947224755E-02 
1608	 2.34901867993191E-02 
1609	 2.34438867130883E-02 
1610	 2.34288897739581E-02 
1611	 2.35902882150692E-02 
1612	 2.36755462927918E-02 
1613	 2.35160584194349E-02 
1614	 2.35085368954859E-02 
1615	 2.37966389319095E-02 
1616	 2.38352320593332E-02 
1617	 2.36900941099519E-02 
1618	 2.38488794372734E-02 
1619	 2.39508231033516E-02 
1620	 2.38593622524828E-02 
1621	 0.023955491958213 
1622	 2.39894328485018E-02 
1623	 2.38531672416011E-02 
1624	 2.37818217111149E-02 
1625	 2.38340779584286E-02 
1626	 2.38508088227144E-02 
1627	 0.023652869078354 
1628	 2.35684306813065E-02 
1629	 2.37157118123756E-02 
1630	 2.38751887889945E-02 
1631	 2.41019115453996E-02 
1632	 0.024241780865983 
1633	 0.024191544596676 
1634	 2.41292874662773E-02 
1635	 2.41032034476183E-02 
1636	 2.41006160334369E-02 
1637	 2.41189049470518E-02 
1638	 2.43306561717444E-02 
1639	 2.44503540053998E-02 
1640	 2.41234683996902E-02 
1641	 2.39321797238262E-02 
1642	 2.39782584565168E-02 
1643	 2.38752024508365E-02 
1644	 2.39713871364724E-02 
1645	 2.41557116017924E-02 
1646	 2.40467152815451E-02 
1647	 2.41142565440717E-02 
1648	 2.42965580194871E-02 
1649	 2.42005676723813E-02 
1650	 0.024168963396001 
1651	 2.42719556079138E-02 
1652	 0.024340568952654 
1653	 2.44467893797757E-02 
1654	 0.024450032400607 
1655	 2.43029747884621E-02 
1656	 2.42965333305164E-02 
1657	 0.02443715299681 
1658	 2.44960331002275E-02 
1659	 2.44219860778896E-02 
1660	 2.44498660445469E-02 
1661	 2.46533863538686E-02 
1662	 2.45545739808761E-02 
1663	 2.42648924713349E-02 
1664	 2.42665304508934E-02 
1665	 0.024199579650139 
1666	 2.40968928693259E-02 
1667	 2.42933375297364E-02 
1668	 2.44149948545272E-02 
1669	 2.41894161230593E-02 
1670	 2.38233314445064E-02 
1671	 2.36599669349517E-02 
1672	 0.023921467685044 
1673	 2.41942267341316E-02 
1674	 2.44462196270223E-02 
1675	 2.46864288180234E-02 
1676	 2.43105206055153E-02 
1677	 2.40434582311584E-02 
1678	 2.43737161274232E-02 
1679	 2.45497177956942E-02 
1680	 2.46338131571213E-02 
1681	 2.45137864122017E-02 
1682	 2.40234663652524E-02 
1683	 2.38825405243746E-02 
1684	 2.41137624265466E-02 
1685	 2.43798483707412E-02 
1686	 2.45133733923354E-02 
1687	 0.024233432694337 
1688	 2.38831982082875E-02 
1689	 2.38292992918248E-02 
1690	 2.40294804795004E-02 
1691	 2.43240124180473E-02 
1692	 2.44550644882934E-02 
1693	 2.42565151252277E-02 
1694	 2.40914745056736E-02 
1695	 2.41242158260624E-02 
1696	 2.40109062506949E-02 
1697	 2.40475243131977E-02 
1698	 2.41501149446116E-02 
1699	 2.40528465016097E-02 
1700	 2.40903254757056E-02 
1701	 2.41457770591377E-02 
1702	 2.39938598966453E-02 
1703	 2.38895867539882E-02 
1704	 2.41579042833924E-02 
1705	 2.42104719511856E-02 
1706	 2.38415975538825E-02 
1707	 2.35683951308811E-02 
1708	 2.32588649654952E-02 
1709	 2.33718013078776E-02 
1710	 2.38277099129488E-02 
1711	 2.38047356866241E-02 
1712	 2.35996452596801E-02 
1713	 2.37906075757809E-02 
1714	 2.36733679152306E-02 
1715	 2.35422478535776E-02 
1716	 2.37589464686114E-02 
1717	 2.34806069546312E-02 
1718	 2.33737728948908E-02 
1719	 2.39409350095339E-02 
1720	 0.023782063771052 
1721	 2.32814015937762E-02 
1722	 2.33681033144335E-02 
1723	 0.023084683786944 
1724	 2.27455523328465E-02 
1725	 0.023308538778131 
1726	 2.36417927898263E-02 
1727	 0.023390866325221 
1728	 2.33645283554489E-02 
1729	 0.023051952254966 
1730	 2.27657290935401E-02 
1731	 2.30671589847365E-02 
1732	 2.33828499038243E-02 
1733	 2.33093035740206E-02 
1734	 2.28444950443011E-02 
1735	 2.26025591237332E-02 
1736	 2.28047704902687E-02 
1737	 0.022923189627271 
1738	 2.28720007365683E-02 
1739	 2.30683060046749E-02 
1740	 2.28195170302798E-02 
1741	 2.23475547632918E-02 
1742	 2.29368934070238E-02 
1743	 2.31134515435749E-02 
1744	 2.23749408300127E-02 
1745	 2.23899182176254E-02 
1746	 2.19376717600653E-02 
1747	 2.17598672320513E-02 
1748	 2.26972826190552E-02 
1749	 2.28133330112269E-02 
1750	 2.21746634045079E-02 
1751	 2.22380903429284E-02 
1752	 2.23986266515488E-02 
1753	 2.22671062856257E-02 
1754	 2.24814568922079E-02 
1755	 2.24135669540993E-02 
1756	 0.021918131939215 
1757	 2.15835075385913E-02 
1758	 2.13228182681325E-02 
1759	 2.13199092493435E-02 
1760	 2.13255591592806E-02 
1761	 2.18020036315616E-02 
1762	 2.21843786063474E-02 
1763	 2.17981242346577E-02 
1764	 2.17928532832326E-02 
1765	 2.17956498493119E-02 
1766	 2.10386476093577E-02 
1767	 2.12909198528383E-02 
1768	 2.16133142644864E-02 
1769	 2.08018066944432E-02 
1770	 2.14262759962655E-02 
1771	 2.19557778423147E-02 
1772	 2.07933733013204E-02 
1773	 2.07536790504274E-02 
1774	 2.05908811391376E-02 
1775	 1.97809790588387E-02 
1776	 1.99385939108161E-02 
1777	 2.10737601005227E-02 
1778	 0.021174906464342 
1779	 2.11845455375401E-02 
1780	 2.08798388077041E-02 
1781	 1.90834784765183E-02 
1782	 1.87554952855982E-02 
1783	 1.99932549276897E-02 
1784	 1.97028680333005E-02 
1785	 1.89638202045858E-02 
1786	 1.85744751354597E-02 
1787	 1.69743735104135E-02 
1788	 1.65393994131999E-02 
1789	 1.72638936886196E-02 
1790	 1.90641085503205E-02 
1791	 2.05773114159915E-02 
1792	 0.020040153010264 
1793	 0.021817916458247 
1794	 2.42023902222747E-02 
1795	 2.31009254605197E-02 
1796	 2.45390905634762E-02 
1797	 2.64357430009116E-02 
1798	 1.97476352356537E-02 
1799	 1.69743115285177E-02 
1800	 1.91151733706995E-02 
1801	 1.79315624343402E-02 
1802	 1.99414885968031E-02 
1803	 2.10962690606525E-02 
1804	 1.39671468400791E-02 
1805	 1.56250727919882E-02 
1806	 3.12855192349154E-02 
1807	 4.29134869171464E-02 
1808	 6.77715830532225E-02 
1809	 7.94057213079637E-02 
1810	 6.82519048801289E-02 
1811	 0.049562158998947 
1812	-5.68724638219804E-02 
1813	-4.94436435071282E-02 
1814	 0.104449306224556 
1815	 0.127360832950836 
1816	 0.20700558958719 
1817	 0.253572540687262 
1818	 3.15082192555436E-02 
1819	 8.94170582662677E-02 
1820	 0.398556560903114 
1821	 0.93227185744285 
1822	 0.950474755697184 
1823	 0.7314398463172 
1824	 0.711737153869109 
1825	 0.356156277563314 
1826	 0.126568776506749 
1827	 0.282737156053733 
1828	 0.181759980102159 
1829	 1.94897842723344E-02 
1830	-1.02776795520932E-02 
1831	-0.562956410366086 
1832	-0.56196155523981 
1833	-4.95823622380532E-02 
1834	-2.37320557119433E-02 
1835	 0.237156593469334 
1836	 0.577379846489374 
1837	-0.138864165317194 
1838	-0.104738210361722 
1839	 0.596384878923123 
1840	 0.648201838599557 
1841	 0.406134720707861 
1842	 0.479404740578552 
1843	 0.436802996642456 
1844	-0.779767407807008 
1845	-2.82986935669456 
1846	 0.395810753887297 
1847	 0.319969187759225 
1848	 0.714737995854135 
1849	 0.258405545828396 
1850	-1.62541211963084E-02 
1851	 6.11366286557694E-02 
1852	 0.637479452330148 
1853	 9.47540557860545 
1854	-2.97612764421714 
1855	-0.578641592247398 
1856	-0.135868937699883 
1857	 0.645725754350562 
1858	 0.98685483103071 
1859	 1.02660151489415 
1860	 0.681096231995129 
1861	 3.05668165611298 
1862	 0.258102747472085 
1863	-1.41865396600035 
1864	-0.532403579757813 
1865	-0.921489256619337 
1866	 2.85295871313039 
1867	 3.32989687372572 
1868	-1.59134524456614 
1869	-0.776767801061161 
1870	-0.401080690328012 
1871	-0.375264599073635 
1872	-0.173832264448012 
1873	-0.416785033253663 
1874	-0.904045853843563 
1875	 13.8800912746214 
1876	 6.50292649869508 
1877	 0.822871124065127 
1878	 0.214754428608082 
1879	-0.517552750836233 
1880	-0.496739607075505 
1881	-0.124643763436832 
1882	 0.112049178271767 
1883	 0.166822898486011 
1884	 0.560690275615412 
1885	 1.45108423157831 
1886	 3.14814141062987 
1887	-8.51462900598253 
1888	-3.58879948994904 
1889	-2.9795693092505 
1890	-1.70474655706022 
1891	-2.55104946467532 
1892	 0.947979836819424 
1893	 0.206331653097065 
1894	 0.982443774426398 
1895	 1.38146874546767 
1896	 0.653253400226329 
1897	 0.685102551352257 
1898	 1.15231060372756 
1899	 1.05207599923824 
1900	 1.28709229025788 
1901	-3.83406137472666 
1902	-1.85797900838446 
1903	-1.74450504984505 
1904	-1.13801867874544 
1905	-1.36075401020265 
1906	-1.83375133503833 
1907	-4.71342231836278 
1908	-7.04910921556935 
1909	-14.0973544007884 
1910	-1.38341632344739 
1911	-2.21968564698759 
1912	-1.80687697813878 
1913	-1.60913352696042 
1914	-0.610118629487023 
1915	-1.14545795057187 
1916	 2.84413585024816 
1917	 1.43455057829361 
1918	 8.55039724013142 
1919	 9.23060767017641 
1920	 3.35260081052107 
1921	 1.51521680530916 
1922	 0.584001636267815 
1923	 0.25483393394864 
1924	 0.120047094679956 
1925	-5.28012762198114E-02 
1926	-0.146505789923065 
1927	-0.193003810703475 
1928	-0.460693678386118 
1929	-0.959299715195092 
1930	-0.624026856959315 
1931	-0.594950103826428 
1932	-0.1468080621626 
1933	-0.129505214761882 
1934	-0.144892988230253 
1935	-1.73937130416423E-02 
1936	-6.46006834091362E-02 
1937	-9.22301840920183E-02 
1938	 0.051409663792166 
1939	 0.10700485003643 
1940	 0.133963366867491 
1941	 0.119029601874363 
1942	 0.110768742167343 
1943	 5.95650330668608E-02 
1944	-6.41093784700617E-03 
1945	-0.020478703107111 
1946	-1.19298592384044E-02 
1947	-2.45019789993449E-02 
1948	-2.31145452584156E-02 
1949	-4.34419467144537E-03 
1950	 1.87786625382611E-02 
1951	 3.35452800268777E-02 
1952	 3.48535928176121E-02 
1953	 3.14061495355384E-02 
1954	 0.024007200053632 
1955	 1.58489415694658E-02 
1956	 1.40724996496552E-02 
1957	 1.51518878157283E-02 
1958	 1.69973807460121E-02 
1959	 1.44081056651705E-02 
1960	 6.47639004778262E-03 
1961	 3.44934726926645E-03 
1962	 3.31297300910534E-03 
1963	 4.14191036332767E-03 
1964	 8.27278709349072E-03 
1965	 8.03859051225156E-03 
1966	 6.69044756231751E-03 
1967	 3.37433733933597E-03 
1968	 2.41770792848296E-03 
1969	 2.24328488881503E-03 
1970	 4.42535474616117E-03 
1971	 6.65608229341417E-03 
1972	 5.96068865346346E-03 
1973	 4.59161102271819E-03 
1974	 3.79695569693737E-03 
1975	 5.36216176663804E-03 
1976	 7.29558839873675E-03 
1977	 7.70148781357624E-03 
1978	 7.84838666614704E-03 
1979	 7.3927323328595E-03 
1980	 5.82210134299272E-03 
1981	 4.08924482545938E-03 
1982	 3.88774079309703E-03 
1983	 3.87051685099285E-03 
1984	 3.98928726058326E-03 
1985	 4.6845622248219E-03 
1986	 4.3560592301266E-03 
1987	 4.48203319671886E-03 
1988	 4.95535348675291E-03 
1989	 5.20434818670909E-03 
1990	 5.61295527432902E-03 
1991	 5.0697021810217E-03 
1992	 5.73670207630663E-03 
1993	 0.006248394567457 
1994	 6.13602816352228E-03 
1995	 5.93582809130772E-03 
1996	 6.87305630637944E-03 
1997	 5.66249183323414E-03 
1998	 5.64633960630543E-03 
1999	 7.16280248112679E-03 
2000	 6.71918318591928E-03 
2001	 8.19280305453721E-03 
2002	 8.99383439836348E-03 
2003	 7.61910057268686E-03 
2004	 6.73580569368584E-03 
2005	 4.97422685267829E-03 
2006	 4.44857402957687E-03 
2007	 5.59463212178324E-03 
2008	 6.86580069694583E-03 
2009	 7.74232086235735E-03 
2010	 8.41957310722631E-03 
2011	 8.17761675290925E-03 
2012	 6.88638802498215E-03 
2013	 6.17161748085245E-03 
2014	 7.40917382864916E-03 
2015	 8.70718572007146E-03 
2016	 8.87582527839308E-03 
2017	 1.04938792746264E-02 
2018	 1.02365761818282E-02 
2019	 8.60607930299019E-03 
2020	 8.52899681859606E-03 
2021	 8.88803534026869E-03 
2022	 6.91809029529636E-03 
2023	 5.1110265042398E-03 
2024	 5.30840456570692E-03 
2025	 5.49918162163603E-03 
2026	 5.87356350010685E-03 
2027	 7.73260596280658E-03 
2028	 9.51576162561599E-03 
2029	 8.79228332226631E-03 
2030	 8.36107996741056E-03 
2031	 7.93779965944214E-03 
2032	 7.44840840099316E-03 
2033	 7.70809964312164E-03 
2034	 8.20633752921922E-03 
2035	 8.45634482805717E-03 
2036	 8.2998129526294E-03 
2037	 8.0337423009922E-03 
2038	 8.03013929807713E-03 
2039	 7.78055431571948E-03 
2040	 7.39307802616017E-03 
2041	 7.31210512774287E-03 
2042	 6.88525151392628E-03 
2043	 6.69789293023933E-03 
2044	 6.44963910568703E-03 
2045	 7.89153060465422E-03 
2046	 8.61300853341288E-03 
2047	 8.79904749791392E-03 
2048	 9.52353442862131E-03 
2049	 9.13777570303003E-03 
2050	 8.1661785832937E-03 
2051	 7.93710593795788E-03 
2052	 8.29250025778244E-03 
2053	 8.34835270975261E-03 
2054	 8.49719357250107E-03 
2055	 9.59194778905761E-03 
2056	 1.01542624830548E-02 
2057	 0.010458286094205 
2058	 1.04689289633375E-02 
2059	 1.01393174290661E-02 
2060	 1.01181719632621E-02 
2061	 1.00105076481194E-02 
2062	 9.85221781920736E-03 
2063	 9.86644330366207E-03 
2064	 9.61537184983606E-03 
2065	 9.99043092128269E-03 
2066	 1.12953567503015E-02 
2067	 1.19286826823134E-02 
2068	 1.20260511509383E-02 
2069	 1.17460186238433E-02 
2070	 1.10941898429092E-02 
2071	 1.14042791623158E-02 
2072	 1.21618063653389E-02 
2073	 1.21581745223444E-02 
2074	 1.17888921159241E-02 
2075	 1.14624391112429E-02 
2076	 1.06218837630613E-02 
2077	 1.05049100241933E-02 
2078	 0.010535944150112 
2079	 1.09603069692549E-02 
2080	 1.21401155561668E-02 
2081	 1.26003018535954E-02 
2082	 1.23314857051954E-02 
2083	 1.16851731639126E-02 
2084	 0.011167264456648 
2085	 1.12254147897942E-02 
2086	 1.17435724081036E-02 
2087	 1.24906930808459E-02 
2088	 1.26851312959296E-02 
2089	 1.27311167202302E-02 
2090	 1.27865366361913E-02 
2091	 1.29552888388699E-02 
2092	 1.29733473529853E-02 
2093	 1.29117112530562E-02 
2094	 0.012710668879849 
2095	 1.21876661796927E-02 
2096	 1.18586516210956E-02 
2097	 1.13615935866387E-02 
2098	 1.12520210694824E-02 
2099	 1.12303871846485E-02 
2100	 0.011754933582186 
2101	 1.22539439737112E-02 
2102	 1.24227816991295E-02 
2103	 1.24694879742295E-02 
2104	 1.32970564762576E-02 
2105	 1.36829937139664E-02 
2106	 0.013212871935596 
2107	 1.26494781144753E-02 
2108	 1.17949390599398E-02 
2109	 0.011686467916478 
2110	 1.22490471815225E-02 
2111	 1.27426006732196E-02 
2112	 1.30044351216205E-02 
2113	 1.30356608461002E-02 
2114	 1.25549940062801E-02 
2115	 1.25339779688848E-02 
2116	 1.28387934758119E-02 
2117	 0.012687509879354 
2118	 1.21498737735698E-02 
2119	 1.20144134896793E-02 
2120	 1.17843051870091E-02 
2121	 1.16459581537871E-02 
2122	 0.012158904536699 
2123	 1.21813071442682E-02 
2124	 1.23996910896422E-02 
2125	 1.27155056668191E-02 
2126	 1.23071938867058E-02 
2127	 1.30264381048421E-02 
2128	 0.013337147977387 
2129	 1.27743863715975E-02 
2130	 1.29001044535362E-02 
2131	 1.27784138586358E-02 
2132	 1.26681008711256E-02 
2133	 1.29081261811807E-02 
2134	 1.27401553392743E-02 
2135	 1.21873487894115E-02 
2136	 0.012296226803444 
2137	 1.24183139993255E-02 
2138	 1.23479415103834E-02 
2139	 1.28912908028009E-02 
2140	 1.30611187144135E-02 
2141	 1.23587745483996E-02 
2142	 1.25773051133297E-02 
2143	 0.013572255081069 
2144	 0.014076963305626 
2145	 1.38029502750291E-02 
2146	 1.38044028576151E-02 
2147	 1.34687941034335E-02 
2148	 1.22677808296996E-02 
2149	 1.23262834309955E-02 
2150	 1.27319290388614E-02 
2151	 1.24043135976559E-02 
2152	 1.25678704766675E-02 
2153	 1.21936894004588E-02 
2154	 1.19406977290457E-02 
2155	 1.20322973605408E-02 
2156	 1.20781463857631E-02 
2157	 1.24079762551573E-02 
2158	 0.013002957005613 
2159	 1.32294659885016E-02 
2160	 1.37880410995495E-02 
2161	 1.38355546446972E-02 
2162	 1.30201807376461E-02 
2163	 0.012695196994129 
2164	 1.25959140433662E-02 
2165	 1.25347711373487E-02 
2166	 1.25574543676402E-02 
2167	 1.26690385470933E-02 
2168	 0.012937755178955 
2169	 1.27661818475832E-02 
2170	 1.19117386299333E-02 
2171	 1.22204993052214E-02 
2172	 1.31742816600135E-02 
2173	 1.38218764794955E-02 
2174	 1.34256785676253E-02 
2175	 0.01257974218976 
2176	 0.011771064515023 
2177	 1.04707333319968E-02 
2178	 1.08867735045535E-02 
2179	 1.32430877970348E-02 
2180	 1.41569466324307E-02 
2181	 1.47038799536253E-02 
2182	 1.42512694671013E-02 
2183	 1.23892795375453E-02 
2184	 1.20295969839755E-02 
2185	 1.13585108676254E-02 
2186	 1.07831157594488E-02 
2187	 1.08893827341996E-02 
2188	 1.11512673880813E-02 
2189	 0.011471175687117 
2190	 1.14433845368318E-02 
2191	 1.15794734173739E-02 
2192	 1.21224490808254E-02 
2193	 1.23552628136667E-02 
2194	 1.24150460326376E-02 
2195	 1.32227662752284E-02 
2196	 1.33563464952299E-02 
2197	 1.24959321690154E-02 
2198	 0.012167859258716 
2199	 0.011658222216992 
2200	 1.20225226126209E-02 
2201	 1.36670811393507E-02 
2202	 1.51990863971294E-02 
2203	 1.54321334049701E-02 
2204	 1.54402749216609E-02 
2205	 1.44576615537071E-02 
2206	 1.18825338644666E-02 
2207	 1.16086011530189E-02 
2208	 1.29754045731461E-02 
2209	 1.34351692420338E-02 
2210	 1.35902633273474E-02 
2211	 1.27918073985952E-02 
2212	 1.10930928611051E-02 
2213	 0.01153806970039 
2214	 1.26298077399195E-02 
2215	 1.32552968373148E-02 
2216	 0.014944173471335 
2217	 1.47223654226246E-02 
2218	 1.18989408202198E-02 
2219	 1.12722398091468E-02 
2220	 1.14080524859618E-02 
2221	 1.08567840352876E-02 
2222	 1.05565239845621E-02 
2223	 1.01232398182021E-02 
2224	 8.21945242951775E-03 
2225	 8.49971212588702E-03 
2226	 1.07022910339083E-02 
2227	 1.22654843021258E-02 
2228	 1.54544516417423E-02 
2229	 1.59233168578195E-02 
2230	 1.43873916053484E-02 
2231	 1.42420494064253E-02 
2232	 1.35387532768062E-02 
2233	 1.28336276388786E-02 
2234	 0.012920861794308 
2235	 1.19355066814195E-02 
2236	 1.10544901519425E-02 
2237	 1.11204562691243E-02 
2238	 1.21868766453842E-02 
2239	 0.01244558801947 
2240	 0.01275194598018 
2241	 1.32886382479027E-02 
2242	 1.24831828600113E-02 
2243	 1.28964063793236E-02 
2244	 0.012351420458041 
2245	 1.06509239286513E-02 
2246	 1.24204291625053E-02 
2247	 1.40908285507161E-02 
2248	 1.40205360948614E-02 
2249	 1.38309832628153E-02 
2250	 0.013055481055689 
2251	 0.012803227952478 
2252	 1.29424431283257E-02 
2253	 1.37180134449129E-02 
2254	 1.42358968223504E-02 
2255	 1.30948728576473E-02 
2256	 1.23278858249905E-02 
2257	 1.21186333392502E-02 
2258	 1.09207440671931E-02 
2259	 1.02932116503841E-02 
2260	 9.73255563247101E-03 
2261	 9.2300745274203E-03 
2262	 8.97907572184349E-03 
2263	 8.89117072209496E-03 
2264	 9.18744724375075E-03 
2265	 1.01886973112404E-02 
2266	 1.10125086965144E-02 
2267	 0.01183471362986 
2268	 0.012898246672697 
2269	 1.50621062387722E-02 
2270	 0.015249346891411 
2271	 1.34823201147587E-02 
2272	 1.41645454787248E-02 
2273	 1.52290489044205E-02 
2274	 1.52399558428636E-02 
2275	 1.75880810312173E-02 
2276	 1.75373004979749E-02 
2277	 1.30899781985873E-02 
2278	 0.012139635027219 
2279	 1.30698380722612E-02 
2280	 1.27834020130356E-02 
2281	 1.28338119174053E-02 
2282	 1.41194115511827E-02 
2283	 1.35260782528847E-02 
2284	 1.28193705935951E-02 
2285	 0.013055380669724 
2286	 1.16700535092253E-02 
2287	 1.02556677386398E-02 
2288	 1.07791207035073E-02 
2289	 1.09196919138635E-02 
2290	 1.18272949460694E-02 
2291	 1.37973318542033E-02 
2292	 1.30394529731919E-02 
2293	 1.21648144324081E-02 
2294	 1.39238651026017E-02 
2295	 1.34600121054437E-02 
2296	 1.36668895954549E-02 
2297	 1.58670452644755E-02 
2298	 1.44109127812259E-02 
2299	 0.013781595417113 
2300	 1.27099029328186E-02 
2301	 1.06420040132055E-02 
2302	 1.23314333473601E-02 
2303	 1.45838325696273E-02 
2304	 0.015911455313818 
2305	 1.49039086053763E-02 
2306	 1.33013161563541E-02 
2307	 9.50963758752745E-03 
2308	 5.96166339501772E-03 
2309	 7.76608056066438E-03 
2310	 8.62579790946916E-03 
2311	 8.89025589946584E-03 
2312	 1.08197573133462E-02 
2313	 0.014322290666519 
2314	 1.51065456594589E-02 
2315	 1.35016653477822E-02 
2316	 0.013816316756665 
2317	 1.15313952725416E-02 
2318	 1.19563915537936E-02 
2319	 1.59013089417207E-02 
2320	 1.78481250454595E-02 
2321	 2.03243825505199E-02 
2322	 1.93428716058134E-02 
2323	 1.50349287802408E-02 
2324	 1.27135957998166E-02 
2325	 7.96785084712138E-03 
2326	 5.44264547276746E-03 
2327	 8.78197383152024E-03 
2328	 1.11531332501395E-02 
2329	 1.29853926951974E-02 
2330	 1.52775573605917E-02 
2331	 1.75947521755408E-02 
2332	 1.60377489763904E-02 
2333	 0.013132897550021 
2334	 1.20271950188079E-02 
2335	 9.14195224378444E-03 
2336	 6.79731399496281E-03 
2337	 5.44567884934289E-03 
2338	 4.95054260475676E-03 
2339	 3.40908601573177E-03 
2340	 4.22809604446729E-03 
2341	 8.91560825001832E-03 
2342	 1.00848945432571E-02 
2343	 1.24099761849554E-02 
2344	 1.79683840472841E-02 
2345	 2.16924673042567E-02 
2346	 0.019050073206503 
2347	 1.23082327605332E-02 
2348	 9.57860053226429E-03 
2349	 1.08178313719708E-02 
2350	 0.017217696978337 
2351	 0.022933205762922 
2352	 2.11189132055219E-02 
2353	 1.58079503706259E-02 
2354	 1.10169249211349E-02 
2355	 0.010415968870475 
2356	 9.56835447791505E-03 
2357	 2.71300445023777E-03 
2358	-4.13980118416235E-04 
2359	 1.26618465108345E-03 
2360	 1.60692476364059E-03 
2361	 7.84492506662852E-03 
2362	 8.58640401791849E-03 
2363	 5.2137814196382E-03 
2364	 1.22707023432897E-02 
2365	 1.13065644811821E-02 
2366	 1.14266020900335E-02 
2367	 2.32065281249148E-02 
2368	 1.80433559320519E-02 
2369	 7.59750146946401E-03 
2370	 0.01413396625162 
2371	 2.26687681171426E-02 
2372	 2.92612844988565E-02 
2373	 4.15499981060011E-02 
2374	 4.79742189603995E-02 
2375	 4.35780656775334E-02 
2376	 4.05544647462598E-02 
2377	 2.94083771074246E-02 
2378	 0.017025200413357 
2379	 1.54618413569244E-02 
2380	 0.016646354402669 
2381	 2.42334364674099E-02 
2382	 0.032420573543853 
2383	 3.08349006737392E-02 
2384	 1.62465336310061E-02 
2385	 1.80683043360911E-02 
2386	 3.31026957126857E-02 
2387	 3.32477160332222E-02 
2388	 2.91023206333484E-02 
2389	 2.49771691144696E-02 
2390	 1.85514230241215E-02 
2391	-1.2783450242117E-03 
2392	-1.61002136917257E-03 
2393	 1.28281920259226E-02 
2394	 2.13738090975766E-02 
2395	 4.35431025167907E-02 
2396	 4.33339747188013E-02 
2397	 1.86247741456875E-02 
2398	-2.55735075632155E-03 
2399	-1.37585131694339E-02 
2400	-9.96047021305487E-03 
2401	-2.34620923547254E-02 
2402	-4.03016254572276E-02 
2403	-4.07573361032247E-02 
2404	-6.38633690688812E-02 
2405	-7.23697086980176E-02 
2406	-5.04755185263715E-02 
2407	-0.025357800622129 
2408	-1.18269134627358E-02 
2409	-2.56294715851218E-02 
2410	-4.35259457393393E-02 
2411	-8.23133397635363E-02 
2412	-8.98277926422127E-02 
2413	-5.51009640742398E-02 
2414	-0.1076902612139 
2415	-0.158235045411269 
2416	-0.120473146695107 
2417	-8.58049066824807E-02 
2418	-1.74516211201637E-02 
2419	 1.01860110682752E-02 
2420	-7.95429386250712E-02 
2421	-0.101764207188073 
2422	-3.67040721822348E-02 
2423	 5.48092429325924E-02 
2424	 6.99088837578493E-02 
2425	-1.16644731752373E-02 
2426	-4.68768007351321E-02 
2427	-5.22987447595539E-02 
2428	-2.28929060303455E-02 
2429	 7.84962148116716E-02 
2430	 0.102664985987173 
2431	 6.40490547683811E-02 
2432	 5.60235015187674E-02 
2433	 3.35663287539714E-02 
2434	 3.72596251831239E-02 
2435	 5.38229848739303E-02 
2436	 2.73039073116404E-02 
2437	 1.87645581848048E-02 
2438	 1.18282081426754E-02 
2439	 2.19822648494695E-02 
2440	 6.68702575864555E-02 
2441	 5.82372529877049E-02 
2442	 0.061606964316853 
2443	 5.46964309534121E-02 
2444	 9.36551707239994E-03 
2445	-1.25049494876007E-02 
2446	 7.18782282113181E-03 
2447	 3.64978918183075E-02 
2448	 9.19223549112693E-02 
2449	 0.440201233272403 
2450	 0.587846802137753 
2451	 0.328763401505999 
2452	 0.219497553853008 
2453	 0.157424430694756 
2454	 0.171929101170865 
2455	 9.38054290879784E-02 
2456	 0.159226140879468 
2457	 0.116041099128693 
2458	-7.39730704350601E-02 
2459	-0.396774827845793 
2460	-0.58952639962289 
2461	-0.491397751950137 
2462	-0.34351848235923 
2463	-9.97987204830362E-02 
2464	 4.37987807529822E-03 
2465	-9.97692392728398E-02 
2466	-0.124896426287944 
2467	-0.033645391160766 
2468	-0.202079145147575 
2469	-0.360013136226261 
2470	-0.229495280241886 
2471	-0.47352850527565 
2472	-1.01723384229153 
2473	 0.343113580912481 
2474	 0.226933584811925 
2475	-2.89232574606375E-02 
2476	-0.226851392461803 
2477	-0.524203948331764 
2478	-1.34539961536154 
2479	-0.850218639642718 
2480	-0.592617376827536 
2481	-9.75285651001562E-02 
2482	-0.091237193096882 
2483	 0.285878514031579 
2484	 1.2250838399358 
2485	 1.04829464108718 
2486	 1.70713514897541 
2487	 1.40247801917559 
2488	 0.16934045898836 
2489	-1.53017721036711E-02 
2490	-0.516107123289304 
2491	-0.72044958494094 
2492	-0.421161156774602 
2493	-0.9314522313295 
2494	-1.20508713810106 
2495	-1.14208760957467 
2496	-1.30826550716249 
2497	-2.49441126025844 
2498	-0.223320236407266 
2499	 0.106440179774863 
2500	-2.73923004986662 
