Wavelength	rt0721algea00004.asd
350	 4.64451735168289E-02 
351	 4.67119061102915E-02 
352	 4.60574831165034E-02 
353	 4.61182371179078E-02 
354	 4.72322099680786E-02 
355	 4.63020609224193E-02 
356	 4.60114358443896E-02 
357	 4.63217091773699E-02 
358	 4.64520371527553E-02 
359	 4.63487063289426E-02 
360	 4.60489179094877E-02 
361	 4.58227727015598E-02 
362	 4.59850592879378E-02 
363	 4.57611814466065E-02 
364	 4.55230626927036E-02 
365	 4.55204696536009E-02 
366	 4.56194671451545E-02 
367	 4.52926774366123E-02 
368	 4.52001536704346E-02 
369	 4.58063589189908E-02 
370	 0.045748393861632 
371	 4.60157328480696E-02 
372	 4.62214809674556E-02 
373	 4.54574434798715E-02 
374	 4.56554554450449E-02 
375	 4.61290482515519E-02 
376	 4.63753321410868E-02 
377	 0.046537046346417 
378	 4.61962496438224E-02 
379	 4.62245663424562E-02 
380	 4.71274078554378E-02 
381	 4.74721281619753E-02 
382	 4.72256019706395E-02 
383	 4.70031616355925E-02 
384	 4.75568891817084E-02 
385	 4.81401569704872E-02 
386	 4.82334194328885E-02 
387	 0.048036991036848 
388	 4.84504354670864E-02 
389	 0.048428183612573 
390	 4.83498743360646E-02 
391	 4.86569521871323E-02 
392	 4.93547931120864E-02 
393	 4.94189039367954E-02 
394	 4.92649207832529E-02 
395	 4.96292829889859E-02 
396	 4.98209165819304E-02 
397	 4.98095712709754E-02 
398	 0.049804304051689 
399	 5.01305900002478E-02 
400	 5.00660393423865E-02 
401	 5.00736298428415E-02 
402	 5.04272653778075E-02 
403	 5.06209976651193E-02 
404	 5.05465066784716E-02 
405	 5.05690211752544E-02 
406	 5.10400011280652E-02 
407	 5.11220298342251E-02 
408	 5.11353587958137E-02 
409	 5.12533387862956E-02 
410	 0.051428419189651 
411	 5.16507945364614E-02 
412	 5.18164366034465E-02 
413	 5.18977852265565E-02 
414	 5.20877292696216E-02 
415	 5.21404276177858E-02 
416	 0.052249594802602 
417	 5.26806903286861E-02 
418	 0.053009501896075 
419	 5.32340965791984E-02 
420	 5.34175768981843E-02 
421	 0.053654291024458 
422	 5.39068459661834E-02 
423	 5.41609472327473E-02 
424	 5.44248662541296E-02 
425	 5.47718550530386E-02 
426	 5.50535710484375E-02 
427	 5.52918552967476E-02 
428	 0.055596175262431 
429	 0.056052111117446 
430	 5.64124561090221E-02 
431	 0.056661683831896 
432	 5.70845118278156E-02 
433	 5.73837992482786E-02 
434	 5.76829378490181E-02 
435	 5.80901047154495E-02 
436	 5.83871345987086E-02 
437	 0.058719400475275 
438	 5.91140300738545E-02 
439	 5.95256385619464E-02 
440	 5.99207837155559E-02 
441	 6.02564283217309E-02 
442	 6.05434677950165E-02 
443	 6.08685330997037E-02 
444	 6.11592094138884E-02 
445	 6.14617965758996E-02 
446	 6.18105272280017E-02 
447	 0.062071318565812 
448	 6.23457562379213E-02 
449	 6.26321779779107E-02 
450	 6.28566496412292E-02 
451	 6.30716009270038E-02 
452	 6.32702056884736E-02 
453	 0.063443564138895 
454	 6.35870183400439E-02 
455	 6.38032340179025E-02 
456	 6.39976769199624E-02 
457	 6.40551758075298E-02 
458	 6.41695127461986E-02 
459	 6.42363716504907E-02 
460	 6.42747207566827E-02 
461	 6.44314803680607E-02 
462	 6.45771211305912E-02 
463	 6.47057355346189E-02 
464	 6.48356316785589E-02 
465	 6.49861202147789E-02 
466	 6.50940385583913E-02 
467	 6.52044748417115E-02 
468	 6.53903638765847E-02 
469	 6.54951676773579E-02 
470	 6.56230417439567E-02 
471	 6.57701860536304E-02 
472	 6.57590979177759E-02 
473	 0.065865982122313 
474	 6.60882658117456E-02 
475	 6.63289517230168E-02 
476	 0.0664473520295 
477	 6.65688743786067E-02 
478	 6.67558281358218E-02 
479	 6.70121022865907E-02 
480	 6.72318972560833E-02 
481	 6.74836349059344E-02 
482	 6.77836739865662E-02 
483	 6.79885323399094E-02 
484	 6.82040695157067E-02 
485	 6.84826080601873E-02 
486	 6.88295511951244E-02 
487	 0.069113844454723 
488	 6.94478692695785E-02 
489	 6.98358377666011E-02 
490	 7.01727451437872E-02 
491	 7.05076155394085E-02 
492	 7.08987119235705E-02 
493	 7.13657805274465E-02 
494	 7.18330036035216E-02 
495	 7.22803345604941E-02 
496	 0.07275450279583 
497	 7.33189813769185E-02 
498	 7.38405411919073E-02 
499	 7.43456924773169E-02 
500	 7.48869935400539E-02 
501	 7.55307085532809E-02 
502	 7.61502810687908E-02 
503	 7.67461924152211E-02 
504	 7.73678060670602E-02 
505	 7.80845344991236E-02 
506	 7.88278648105676E-02 
507	 7.95716790018494E-02 
508	 8.03251445520747E-02 
509	 8.10515718781938E-02 
510	 8.17898430605298E-02 
511	 8.25793670680857E-02 
512	 8.34494536930738E-02 
513	 8.42910743189163E-02 
514	 0.085133080755577 
515	 8.60437921870538E-02 
516	 8.69294187797658E-02 
517	 0.087880091986826 
518	 8.88601868160942E-02 
519	 8.96726944926635E-02 
520	 9.04673435798806E-02 
521	 9.12532602151094E-02 
522	 0.092047164792423 
523	 9.30076905748018E-02 
524	 9.38646451360135E-02 
525	 9.46165793156422E-02 
526	 9.54505309951997E-02 
527	 9.62787845994285E-02 
528	 9.70857768128443E-02 
529	 0.097864542631457 
530	 9.86026847034962E-02 
531	 9.93727446415174E-02 
532	 0.100154251696347 
533	 0.100902534300282 
534	 0.101693048278284 
535	 0.102371197685604 
536	 0.102986156132193 
537	 0.103817947078429 
538	 0.104503457955058 
539	 0.10512633875089 
540	 0.105831364596055 
541	 0.106596130459107 
542	 0.107338221415207 
543	 0.108024465098338 
544	 0.108666709978991 
545	 0.109324206518847 
546	 0.110063204686395 
547	 0.110844521261898 
548	 0.1114217557438 
549	 0.112095331118583 
550	 0.112799823457567 
551	 0.113390500354493 
552	 0.114062971063195 
553	 0.114675029663962 
554	 0.11521823682284 
555	 0.115848350698634 
556	 0.116444378299027 
557	 0.117001265056638 
558	 0.117525529203852 
559	 0.117991481739409 
560	 0.118400627266925 
561	 0.118793472125557 
562	 0.119226732766224 
563	 0.119646717078545 
564	 0.119967551761983 
565	 0.120181145209254 
566	 0.120439027265482 
567	 0.120602773413692 
568	 0.120753227381759 
569	 0.121000777202094 
570	 0.121151731150019 
571	 0.121280346972748 
572	 0.121431976835164 
573	 0.121602804043163 
574	 0.121816872961484 
575	 0.121920080616651 
576	 0.121869883653102 
577	 0.122120250624813 
578	 0.122256378430426 
579	 0.122276348285338 
580	 0.122408670713289 
581	 0.12242553501246 
582	 0.122425813040614 
583	 0.122460765035332 
584	 0.122430216458638 
585	 0.122278971499792 
586	 0.122014100364061 
587	 0.121692196895232 
588	 0.121473180576804 
589	 0.121312556559781 
590	 0.121170916085728 
591	 0.121024088567565 
592	 0.120925711028108 
593	 0.120798983100159 
594	 0.120591198372536 
595	 0.120383364076902 
596	 0.120226221316754 
597	 0.120052170081336 
598	 0.119748958455932 
599	 0.119478603335898 
600	 0.119245243561831 
601	 0.119050131498373 
602	 0.118924972394778 
603	 0.11882731434902 
604	 0.118758722880675 
605	 0.118726171697872 
606	 0.118688673865455 
607	 0.118631229785021 
608	 0.118569188970292 
609	 0.118544867307828 
610	 0.118499509032399 
611	 0.118405627921907 
612	 0.118277884881027 
613	 0.118232722315643 
614	 0.118174696295159 
615	 0.118064623241128 
616	 0.117916935378739 
617	 0.117894422666281 
618	 0.117875314210388 
619	 0.117789451812544 
620	 0.117700824265998 
621	 0.117575399879639 
622	 0.117490835799748 
623	 0.117503019926305 
624	 0.117395860116232 
625	 0.117277064972065 
626	 0.117172620888884 
627	 0.117026102334376 
628	 0.116961914563006 
629	 0.116948979576677 
630	 0.116928474902613 
631	 0.116875601947645 
632	 0.116658265249297 
633	 0.11641916247302 
634	 0.116364287656358 
635	 0.116070108273603 
636	 0.115716249843364 
637	 0.11541215856138 
638	 0.115080745634218 
639	 0.114662527192616 
640	 0.114245868083872 
641	 0.113916117194027 
642	 0.113541485085052 
643	 0.113127023170702 
644	 0.112632883544227 
645	 0.112000988640641 
646	 0.111449987377255 
647	 0.111063495823867 
648	 0.110830902205905 
649	 0.110593860262757 
650	 0.110344656366412 
651	 0.110119452424024 
652	 0.109971424567509 
653	 0.109862669847521 
654	 0.109604788888331 
655	 0.109226199372604 
656	 0.109104759081407 
657	 0.108801169278558 
658	 0.108427869675822 
659	 0.108128436357545 
660	 0.107844881789128 
661	 0.10745404680161 
662	 0.107025481801959 
663	 0.106734041971718 
664	 0.106378144708384 
665	 0.106098234342973 
666	 0.10592675274398 
667	 0.105635732995391 
668	 0.105375510432836 
669	 0.10519435212051 
670	 0.105088580664902 
671	 0.104959766468807 
672	 0.104860512164468 
673	 0.104827091089445 
674	 0.104869806318236 
675	 0.104924374976964 
676	 0.104953253922453 
677	 0.104982401082926 
678	 0.105173068031191 
679	 0.105460270065825 
680	 0.105791702282224 
681	 0.106153838262027 
682	 0.106778312168662 
683	 0.107478922142068 
684	 0.108168519105645 
685	 0.109008265331987 
686	 0.11007542750109 
687	 0.111305799672636 
688	 0.112517932942318 
689	 0.113709868016557 
690	 0.114832270668918 
691	 0.115910377401518 
692	 0.117014754735574 
693	 0.118061753838992 
694	 0.11917579351862 
695	 0.12032100863669 
696	 0.121315439789471 
697	 0.121996489823639 
698	 0.122550633850769 
699	 0.123160805754139 
700	 0.123629863560697 
701	 0.124058612653907 
702	 0.124454447652891 
703	 0.124749625181928 
704	 0.124869735045056 
705	 0.124891715535657 
706	 0.124851313984315 
707	 0.124656776850302 
708	 0.124280338992003 
709	 0.123805754870086 
710	 0.123327106876142 
711	 0.122745692606199 
712	 0.121921956105112 
713	 0.120838844708307 
714	 0.119579997678104 
715	 0.118243321067165 
716	 0.116704145952247 
717	 0.115010228404306 
718	 0.113575805012245 
719	 0.112309188227455 
720	 0.111241418047289 
721	 0.110171026841118 
722	 0.108861032457376 
723	 0.10723877759562 
724	 0.105532424803803 
725	 0.103880781414417 
726	 0.102197604925722 
727	 0.100382889856411 
728	 9.83792577115596E-02 
729	 9.61468659733818E-02 
730	 9.39644855012442E-02 
731	 9.20108806026958E-02 
732	 9.02562023553939E-02 
733	 8.87115894363826E-02 
734	 8.73196771631703E-02 
735	 8.60965845049688E-02 
736	 8.51290138289294E-02 
737	 8.44603891451166E-02 
738	 8.39882785371636E-02 
739	 8.36396831971385E-02 
740	 0.083536065662378 
741	 8.33772355374408E-02 
742	 8.31850621371465E-02 
743	 8.31416393874796E-02 
744	 8.32158633043444E-02 
745	 8.32330524296967E-02 
746	 8.31526375266036E-02 
747	 0.083131307823978 
748	 8.30767816504604E-02 
749	 0.083078387612586 
750	 8.31736000996732E-02 
751	 8.30902777797095E-02 
752	 8.30100169084661E-02 
753	 8.29947725723879E-02 
754	 8.30350654680416E-02 
755	 8.31570918481828E-02 
756	 8.31647310284516E-02 
757	 8.30376140960328E-02 
758	 8.30305066322786E-02 
759	 8.28616370753656E-02 
760	 8.24371024457788E-02 
761	 8.22030311252802E-02 
762	 8.24654404682336E-02 
763	 8.27467634516226E-02 
764	 8.29501142323568E-02 
765	 8.31687211841037E-02 
766	 8.35553205493766E-02 
767	 8.38249764411829E-02 
768	 8.39655984043357E-02 
769	 8.42015860981293E-02 
770	 8.44186853319281E-02 
771	 8.46291437169325E-02 
772	 0.084843912234806 
773	 8.50020603055072E-02 
774	 0.085171258054575 
775	 8.54615009953213E-02 
776	 8.59152223637879E-02 
777	 8.60742899615118E-02 
778	 8.62778197080725E-02 
779	 8.66461575791403E-02 
780	 8.70190559692822E-02 
781	 8.73394956080808E-02 
782	 8.76856303664815E-02 
783	 8.80738034481016E-02 
784	 8.83127456408399E-02 
785	 0.088587538812908 
786	 8.88783628024347E-02 
787	 8.91447576556452E-02 
788	 8.96426099850081E-02 
789	 9.01356275979468E-02 
790	 9.05198816251005E-02 
791	 9.08579549393058E-02 
792	 9.14463682858904E-02 
793	 9.19070271812072E-02 
794	 9.21119295474912E-02 
795	 9.24670710307431E-02 
796	 9.29931721824726E-02 
797	 9.34263199235481E-02 
798	 9.36003936358001E-02 
799	 9.39100839904977E-02 
800	 9.42073901652496E-02 
801	 9.44157004891348E-02 
802	 9.45549398076991E-02 
803	 9.49585765002069E-02 
804	 9.53978770525847E-02 
805	 9.56055011427835E-02 
806	 9.53698632036102E-02 
807	 9.53269079697132E-02 
808	 9.52283956987964E-02 
809	 9.48647049563108E-02 
810	 9.46113585330009E-02 
811	 9.41743325684192E-02 
812	 9.36228715699472E-02 
813	 9.31562861257961E-02 
814	 9.26983527275323E-02 
815	 9.21059534725204E-02 
816	 9.15431557682375E-02 
817	 9.13010644587484E-02 
818	 9.07179199220577E-02 
819	 9.00021659068302E-02 
820	 8.92841720740987E-02 
821	 0.088530697820503 
822	 8.74323122776606E-02 
823	 8.60954281633937E-02 
824	 8.47202562807381E-02 
825	 8.32239118969129E-02 
826	 8.15836176569272E-02 
827	 7.98035132617422E-02 
828	 7.80074485425152E-02 
829	 7.61189235649567E-02 
830	 7.45109460056335E-02 
831	 7.31970671413062E-02 
832	 7.19821664244469E-02 
833	 7.11284401635474E-02 
834	 7.05105647674998E-02 
835	 6.99245161662104E-02 
836	 6.91599807012404E-02 
837	 6.88624623033893E-02 
838	 6.86772862400768E-02 
839	 6.82543458909183E-02 
840	 6.78211414663764E-02 
841	 6.75002936405677E-02 
842	 6.73204949511778E-02 
843	 6.72235212860651E-02 
844	 6.70332441590289E-02 
845	 6.66348071816577E-02 
846	 6.62272318983298E-02 
847	 6.61301792349017E-02 
848	 6.57330940690913E-02 
849	 6.52714369883056E-02 
850	 6.49811152997755E-02 
851	 6.49344950537269E-02 
852	 6.46236504445508E-02 
853	 6.42755853561975E-02 
854	 6.41237538251815E-02 
855	 6.40515937371108E-02 
856	 6.38407998098082E-02 
857	 6.35549384330628E-02 
858	 6.33202381404235E-02 
859	 6.31739369009323E-02 
860	 0.062960303249749 
861	 6.26693339637617E-02 
862	 6.23714874571505E-02 
863	 6.20882132738589E-02 
864	 6.19811959929328E-02 
865	 0.061917200136274 
866	 6.15414428548929E-02 
867	 6.11611745716031E-02 
868	 6.08587931474923E-02 
869	 6.06865110926307E-02 
870	 6.06928591350676E-02 
871	 6.05822857072472E-02 
872	 6.01680387372141E-02 
873	 5.95715325613829E-02 
874	 5.95168055959499E-02 
875	 5.92279737008057E-02 
876	 5.87376279224072E-02 
877	 5.82940943237825E-02 
878	 5.79258574064215E-02 
879	 5.75432947614708E-02 
880	 5.71835440854009E-02 
881	 5.69085290433435E-02 
882	 5.65426986647728E-02 
883	 5.62700620977284E-02 
884	 5.60905001687631E-02 
885	 0.055841686642816 
886	 5.53517756215142E-02 
887	 5.50472365492573E-02 
888	 5.49389016037929E-02 
889	 5.45245100695028E-02 
890	 5.40007518012495E-02 
891	 5.36669772961233E-02 
892	 5.35378195209569E-02 
893	 5.30532668266808E-02 
894	 5.26590200434175E-02 
895	 5.23760819703337E-02 
896	 5.21292823228212E-02 
897	 0.051948477870663 
898	 5.17272693858015E-02 
899	 5.11981849933155E-02 
900	 5.04383043285354E-02 
901	 5.07145160418219E-02 
902	 5.02971535599764E-02 
903	 4.97682540049095E-02 
904	 5.01529848184673E-02 
905	 4.99652336838379E-02 
906	 0.049752871784425 
907	 4.93918304091318E-02 
908	 4.84314829107118E-02 
909	 4.79530624996847E-02 
910	 4.76559860583051E-02 
911	 4.74339040583672E-02 
912	 4.74089855187332E-02 
913	 4.69412701402583E-02 
914	 4.64341507022634E-02 
915	 0.046048083222885 
916	 4.55310898661331E-02 
917	 4.51749501276101E-02 
918	 4.48802019117113E-02 
919	 0.044500283096165 
920	 4.39257310889327E-02 
921	 4.34469757702268E-02 
922	 4.33334831121121E-02 
923	 4.33664309787795E-02 
924	 4.23400977393725E-02 
925	 4.13879810524766E-02 
926	 4.08692318181951E-02 
927	 4.07501941589471E-02 
928	 4.03762118340026E-02 
929	 4.09217769792546E-02 
930	 4.10599458363872E-02 
931	 3.85277815933696E-02 
932	 3.75026231696971E-02 
933	 3.70447856113241E-02 
934	 3.78508556399886E-02 
935	 4.00877435016648E-02 
936	 4.04881076018262E-02 
937	 3.84753586748867E-02 
938	 3.68582669491408E-02 
939	 3.77894165987403E-02 
940	 0.038000247294557 
941	 3.84631248261161E-02 
942	 3.77020157163268E-02 
943	 3.47047304738057E-02 
944	 3.89989111783918E-02 
945	 3.91905844102568E-02 
946	 3.55944989452976E-02 
947	 3.54059395916759E-02 
948	 3.55504454339483E-02 
949	 3.47926351158024E-02 
950	 3.39519294679015E-02 
951	 3.46373494691531E-02 
952	 3.52883401596952E-02 
953	 3.60946160441855E-02 
954	 3.67754099874934E-02 
955	 3.66456904666585E-02 
956	 0.034817828892103 
957	 3.36487456074057E-02 
958	 3.39045579645321E-02 
959	 0.034626733678825 
960	 0.032775461823075 
961	 3.39339963838793E-02 
962	 3.63145602705306E-02 
963	 3.41206698663076E-02 
964	 3.30052687218102E-02 
965	 3.27503986053757E-02 
966	 3.28812862829229E-02 
967	 3.30724394444783E-02 
968	 3.22592531861684E-02 
969	 0.033389012257227 
970	 3.53283804956458E-02 
971	 3.40671680028371E-02 
972	 0.033989001354174 
973	 3.44883909214093E-02 
974	 3.47046109453199E-02 
975	 3.42937554405595E-02 
976	 3.47629615968662E-02 
977	 3.43254078411329E-02 
978	 0.033404709206171 
979	 0.034126736294415 
980	 3.43102577252086E-02 
981	 3.39672937895034E-02 
982	 0.033407652841262 
983	 0.033095838242563 
984	 3.41758883529701E-02 
985	 3.58661712576695E-02 
986	 3.62613252295086E-02 
987	 3.38988194542142E-02 
988	 3.49639033055536E-02 
989	 3.50502174330905E-02 
990	 3.40270646951215E-02 
991	 3.50734416939755E-02 
992	 3.54979907386569E-02 
993	 3.50864154808228E-02 
994	 3.47698051929947E-02 
995	 3.55618115950645E-02 
996	 3.48848259250948E-02 
997	 3.45983658021129E-02 
998	 3.46772720586436E-02 
999	 3.40351673809596E-02 
1000	 3.37546261242328E-02 
1001	 3.41043874963405E-02 
1002	 3.37659422432438E-02 
1003	 3.37429769287037E-02 
1004	 3.37417673211905E-02 
1005	 3.38077927970851E-02 
1006	 3.40603166010419E-02 
1007	 3.44994120597365E-02 
1008	 3.46810633862979E-02 
1009	 3.47267529280166E-02 
1010	 3.49139346105917E-02 
1011	 3.49774799305254E-02 
1012	 0.034915835753277 
1013	 3.48948056447592E-02 
1014	 3.49257891981619E-02 
1015	 3.48657195320075E-02 
1016	 3.50029711698275E-02 
1017	 3.54539164546031E-02 
1018	 3.55818805230375E-02 
1019	 0.035622600248058 
1020	 3.56044594188583E-02 
1021	 3.53401418173329E-02 
1022	 3.52451824782986E-02 
1023	 3.50530094917074E-02 
1024	 3.53185456699001E-02 
1025	 3.57038644564579E-02 
1026	 3.58320227315586E-02 
1027	 3.59201595733021E-02 
1028	 3.59214670140155E-02 
1029	 3.60433089513335E-02 
1030	 3.61500109255929E-02 
1031	 3.61721303691072E-02 
1032	 3.62707537055532E-02 
1033	 3.63298364703145E-02 
1034	 3.61882356822834E-02 
1035	 3.62224685188255E-02 
1036	 3.64328312668126E-02 
1037	 3.65380877115841E-02 
1038	 3.65971258977054E-02 
1039	 3.66727567610708E-02 
1040	 3.69042539677525E-02 
1041	 3.70532978698928E-02 
1042	 3.71012654758948E-02 
1043	 3.71426593106326E-02 
1044	 3.72118290384753E-02 
1045	 3.71882494824584E-02 
1046	 3.71235601624479E-02 
1047	 3.70594142845595E-02 
1048	 3.70777333368065E-02 
1049	 0.036943790704611 
1050	 3.70057715178183E-02 
1051	 3.74370379369333E-02 
1052	 3.75697843315165E-02 
1053	 3.74841058842095E-02 
1054	 3.75754290525606E-02 
1055	 3.77297015520381E-02 
1056	 3.77711914421169E-02 
1057	 3.78030893905593E-02 
1058	 3.79018395483468E-02 
1059	 3.79928098285953E-02 
1060	 3.79330101488683E-02 
1061	 3.80417043850533E-02 
1062	 3.84388252603003E-02 
1063	 0.038488574693765 
1064	 3.83028201193607E-02 
1065	 3.83123608525976E-02 
1066	 3.83102571153561E-02 
1067	 3.82522781244585E-02 
1068	 0.03827087581977 
1069	 3.82778382625993E-02 
1070	 3.81405100534477E-02 
1071	 0.038083731122186 
1072	 3.82019100756489E-02 
1073	 3.82029230306034E-02 
1074	 3.81662311045889E-02 
1075	 3.80310257246315E-02 
1076	 3.80171464642992E-02 
1077	 3.80172950707036E-02 
1078	 3.80184487760036E-02 
1079	 3.81042883622368E-02 
1080	 3.81081346991406E-02 
1081	 3.81848594304646E-02 
1082	 0.037987899316711 
1083	 3.74090454569934E-02 
1084	 3.72730421944732E-02 
1085	 3.71781713572433E-02 
1086	 0.037124051484264 
1087	 3.75447056014837E-02 
1088	 3.76524446508038E-02 
1089	 3.77112494514357E-02 
1090	 0.037313299094764 
1091	 3.71291887197206E-02 
1092	 3.69515777254255E-02 
1093	 3.67990491569863E-02 
1094	 3.66767210113714E-02 
1095	 3.64805307014332E-02 
1096	 0.03603556205352 
1097	 0.035898123557948 
1098	 3.59925847427345E-02 
1099	 3.59028161849882E-02 
1100	 3.60053601920263E-02 
1101	 3.60316273695976E-02 
1102	 3.58998641847017E-02 
1103	 3.56007955239023E-02 
1104	 3.50863623255385E-02 
1105	 3.47974057803358E-02 
1106	 3.45557255594783E-02 
1107	 3.43530031269536E-02 
1108	 3.46199875605128E-02 
1109	 3.46524715856441E-02 
1110	 3.45511857070172E-02 
1111	 3.41094553941324E-02 
1112	 0.033934121856218 
1113	 3.37202770884527E-02 
1114	 3.36206274368144E-02 
1115	 3.37012033744427E-02 
1116	 3.35760818086625E-02 
1117	 3.33621895126648E-02 
1118	 3.34014959485493E-02 
1119	 3.45138160192623E-02 
1120	 3.38939425261392E-02 
1121	 3.03912672471325E-02 
1122	 0.029147540741732 
1123	 3.04227675649618E-02 
1124	 2.95095208951539E-02 
1125	 0.034884258516859 
1126	 0.038285046909344 
1127	 3.55945831786727E-02 
1128	 3.51530648755636E-02 
1129	 3.23078266232702E-02 
1130	 2.62999451256542E-02 
1131	 0.02669002335912 
1132	 2.85467233146943E-02 
1133	 2.89887679325904E-02 
1134	 3.26285910809482E-02 
1135	 3.29050572572401E-02 
1136	 3.04596861434089E-02 
1137	 3.01583781487692E-02 
1138	 3.05819010663749E-02 
1139	 2.98195525442137E-02 
1140	 3.00616340726681E-02 
1141	 2.94527724939478E-02 
1142	 2.81991808819186E-02 
1143	 2.82364261452371E-02 
1144	 2.85151587877103E-02 
1145	 2.77447972794469E-02 
1146	 2.71257124039722E-02 
1147	 2.78546244595001E-02 
1148	 2.79575250403585E-02 
1149	 2.74807637623538E-02 
1150	 2.75403580472003E-02 
1151	 0.02795308155195 
1152	 0.02754092181072 
1153	 2.64946423451083E-02 
1154	 2.68227623210775E-02 
1155	 2.76981947486015E-02 
1156	 2.75911578472317E-02 
1157	 2.74236509916513E-02 
1158	 2.77294905621995E-02 
1159	 2.70265658983745E-02 
1160	 2.69223865724964E-02 
1161	 0.027738662463361 
1162	 2.80540807619877E-02 
1163	 2.79778318320598E-02 
1164	 2.81275291006263E-02 
1165	 2.82014759039436E-02 
1166	 0.027683112481347 
1167	 2.76999330183041E-02 
1168	 2.80662015231174E-02 
1169	 2.78041493307206E-02 
1170	 2.78034534706103E-02 
1171	 2.79578056788028E-02 
1172	 2.82706818174254E-02 
1173	 2.82091471400228E-02 
1174	 2.80988350733341E-02 
1175	 2.80356285763609E-02 
1176	 2.79958208540807E-02 
1177	 2.79030797068702E-02 
1178	 2.76816108929638E-02 
1179	 2.78066408119758E-02 
1180	 2.79295216091491E-02 
1181	 0.02767852623342 
1182	 2.77393550658793E-02 
1183	 2.79242075373692E-02 
1184	 0.027605847673629 
1185	 2.73015061357389E-02 
1186	 2.74906841541506E-02 
1187	 2.76348127739199E-02 
1188	 2.76422676067359E-02 
1189	 2.77836633487751E-02 
1190	 2.77747568369839E-02 
1191	 2.76854039208765E-02 
1192	 0.027697674232246 
1193	 2.78982450552547E-02 
1194	 0.028037809992961 
1195	 2.78802267745322E-02 
1196	 2.78937211484872E-02 
1197	 2.79700515829493E-02 
1198	 2.76899901328694E-02 
1199	 2.77722407425874E-02 
1200	 2.79565849965372E-02 
1201	 0.027716509740078 
1202	 2.77013811528729E-02 
1203	 2.78233711880353E-02 
1204	 2.77437126697612E-02 
1205	 2.77943010761891E-02 
1206	 2.80059693735289E-02 
1207	 2.79756824819221E-02 
1208	 2.78403919935061E-02 
1209	 2.77772834223685E-02 
1210	 2.77635181527662E-02 
1211	 2.78867780516111E-02 
1212	 2.78407878681425E-02 
1213	 2.77926132570398E-02 
1214	 2.78506289277999E-02 
1215	 2.79759729969711E-02 
1216	 2.79405870455417E-02 
1217	 2.79935909604068E-02 
1218	 2.80958363086049E-02 
1219	 0.028080608791242 
1220	 2.81502139023911E-02 
1221	 2.82592377596512E-02 
1222	 2.82394822053175E-02 
1223	 2.81539230356488E-02 
1224	 2.81528606596028E-02 
1225	 2.82339413537384E-02 
1226	 2.82648435801292E-02 
1227	 2.81866487998268E-02 
1228	 2.81807790870994E-02 
1229	 2.84014234300069E-02 
1230	 2.84676797132715E-02 
1231	 2.83083757161346E-02 
1232	 2.83097158949412E-02 
1233	 2.83348265205961E-02 
1234	 2.83148484622943E-02 
1235	 2.83301073539683E-02 
1236	 2.86236215692418E-02 
1237	 0.028696472416897 
1238	 2.85276009880737E-02 
1239	 2.85668874704437E-02 
1240	 2.87137753032891E-02 
1241	 2.87004961352742E-02 
1242	 2.87618663393839E-02 
1243	 2.87121820889775E-02 
1244	 2.86313932974565E-02 
1245	 2.88488051841325E-02 
1246	 2.89116618883014E-02 
1247	 2.87911366579352E-02 
1248	 2.87474995902868E-02 
1249	 2.86568702703685E-02 
1250	 2.86309273268206E-02 
1251	 0.028732680697892 
1252	 2.88145964637557E-02 
1253	 2.88805291010274E-02 
1254	 2.90115428400718E-02 
1255	 2.89109558592732E-02 
1256	 2.87511214569476E-02 
1257	 2.84349449920902E-02 
1258	 2.84655916826248E-02 
1259	 2.85291568594102E-02 
1260	 2.85616998280161E-02 
1261	 2.89308256468566E-02 
1262	 2.89594434279656E-02 
1263	 0.028634209826267 
1264	 2.85508853977565E-02 
1265	 2.85357991209862E-02 
1266	 2.84986764584281E-02 
1267	 2.85368498308761E-02 
1268	 2.86403132747586E-02 
1269	 2.87022710506414E-02 
1270	 2.85498111681508E-02 
1271	 2.83431665271739E-02 
1272	 2.83710914176061E-02 
1273	 2.84275621239872E-02 
1274	 2.84627331051322E-02 
1275	 0.028718280368663 
1276	 2.87573250310008E-02 
1277	 0.028695329778709 
1278	 2.88322046490701E-02 
1279	 2.86605595217296E-02 
1280	 2.84293253890783E-02 
1281	 2.84105624876228E-02 
1282	 2.84746520464721E-02 
1283	 0.028457179626494 
1284	 2.86573463860401E-02 
1285	 2.87120821463273E-02 
1286	 2.84901306416159E-02 
1287	 0.028422244748159 
1288	 0.028521180596839 
1289	 2.85037573559503E-02 
1290	 2.83817528854646E-02 
1291	 2.84463909199675E-02 
1292	 2.84148308763642E-02 
1293	 2.79925493152929E-02 
1294	 2.77554941490277E-02 
1295	 2.78527089023549E-02 
1296	 2.78687560028572E-02 
1297	 2.78727319423052E-02 
1298	 2.78722497628435E-02 
1299	 2.79406046839265E-02 
1300	 2.79916375362034E-02 
1301	 2.77886536585677E-02 
1302	 2.78328427197348E-02 
1303	 2.78322697369457E-02 
1304	 0.027509078944722 
1305	 2.75536499676397E-02 
1306	 2.75177430790863E-02 
1307	 2.72054562990932E-02 
1308	 0.027026587819557 
1309	 0.027094219787311 
1310	 2.71012232300809E-02 
1311	 2.72026890416443E-02 
1312	 2.70037883337592E-02 
1313	 2.65129226112101E-02 
1314	 2.64148584977479E-02 
1315	 2.61780906623515E-02 
1316	 2.60148588968903E-02 
1317	 2.63486751755313E-02 
1318	 2.64977632162962E-02 
1319	 2.65510631972525E-02 
1320	 2.65614862779525E-02 
1321	 2.66628571798541E-02 
1322	 2.66446066316305E-02 
1323	 2.60906118535243E-02 
1324	 2.53595329974426E-02 
1325	 2.54244582179132E-02 
1326	 2.55145168220479E-02 
1327	 2.54194807176095E-02 
1328	 2.50259902179433E-02 
1329	 2.41989986866014E-02 
1330	 2.45323183775908E-02 
1331	 0.025299664271282 
1332	 2.49914051459534E-02 
1333	 2.47355724716144E-02 
1334	 2.47088786618993E-02 
1335	 2.44316497146105E-02 
1336	 2.41685908668305E-02 
1337	 2.40620382923251E-02 
1338	 0.023870427188359 
1339	 2.32202824686547E-02 
1340	 2.19739825471204E-02 
1341	 0.022223611691929 
1342	 2.34862028742946E-02 
1343	 2.37157517008586E-02 
1344	 2.47738653629769E-02 
1345	 2.53805216750676E-02 
1346	 2.40771094643671E-02 
1347	 2.36620198948524E-02 
1348	 2.43965571930351E-02 
1349	 2.57610700994769E-02 
1350	 2.86046582721679E-02 
1351	 2.87428369910587E-02 
1352	 2.76884309012184E-02 
1353	 2.94186271765507E-02 
1354	 2.59757582593532E-02 
1355	 1.57521758415448E-02 
1356	 3.47095024177782E-02 
1357	 2.85352266508456E-02 
1358	 2.86496929745418E-02 
1359	 6.62249732370348E-02 
1360	 0.086246114078111 
1361	 6.95232171583155E-02 
1362	 0.03111894462212 
1363	 8.14625355274082E-02 
1364	 0.116885182295218 
1365	 9.00834235446505E-02 
1366	 0.154160720730718 
1367	 0.18901596711711 
1368	 0.165944667262405 
1369	 0.132969373068497 
1370	 0.178040720139828 
1371	 0.200425161683142 
1372	 0.142172258934041 
1373	 8.11219775062968E-02 
1374	 0.110617856895927 
1375	 5.91285997423335E-02 
1376	 0.042005744029009 
1377	 0.271982862499425 
1378	 0.328892014035476 
1379	 0.115944616964364 
1380	 9.53013300781669E-02 
1381	 0.22980605294568 
1382	 0.278311261397804 
1383	 0.521912832621558 
1384	 0.54202626870383 
1385	 0.217665828970021 
1386	 0.146799404313509 
1387	-9.97127009338223E-03 
1388	-3.47100704805458E-02 
1389	 0.29656256208428 
1390	 0.350994120531079 
1391	 0.250429254753264 
1392	-3.67859630445518E-02 
1393	-5.06059341154744E-02 
1394	-1.27039667694753E-02 
1395	 1.73133097594268E-02 
1396	 0.460302225868223 
1397	 0.761664461153636 
1398	 0.337589733832045 
1399	 0.326530928903359 
1400	 0.441274706167223 
1401	 0.434444118217158 
1402	 0.536881790602918 
1403	 0.260610013113507 
1404	 6.17063473517427E-02 
1405	 9.36215808935106E-02 
1406	 0.344481698239827 
1407	 0.291856960254041 
1408	 0.227841573823387 
1409	 0.212707619195567 
1410	 0.13916134742222 
1411	 0.113412080415499 
1412	 0.14211711312474 
1413	 0.143660484005845 
1414	 0.149902453216125 
1415	 8.86608360070289E-02 
1416	-3.76924455463421E-02 
1417	-3.60330412217574E-02 
1418	-1.37202174427704E-03 
1419	-5.47994248106833E-03 
1420	 2.60467839610318E-02 
1421	 3.28633632227907E-02 
1422	-9.26342279506042E-03 
1423	-7.15726035220997E-03 
1424	 3.33225203268936E-02 
1425	 3.63881818267908E-02 
1426	 2.31478697916019E-02 
1427	 2.48397279504923E-02 
1428	 2.85580530181631E-02 
1429	 2.50810826133144E-02 
1430	 2.14621312484051E-02 
1431	 2.27619118047665E-02 
1432	 2.02048342735159E-02 
1433	 1.66155052506245E-02 
1434	 2.05229595834958E-02 
1435	 2.30818839856161E-02 
1436	 2.18923903528627E-02 
1437	 1.60517612066251E-02 
1438	 1.82538458081554E-02 
1439	 1.81273822252548E-02 
1440	 9.99369490743669E-03 
1441	 9.25518876061025E-03 
1442	 1.45312858572312E-02 
1443	 1.07022646114434E-02 
1444	 5.2735693295974E-03 
1445	 8.74050279869666E-03 
1446	 1.11209382154168E-02 
1447	 9.14126932248415E-03 
1448	 7.02295772590132E-03 
1449	 6.29123690868567E-03 
1450	 9.47936626949026E-03 
1451	 0.011718883631785 
1452	 0.012735094404089 
1453	 1.33184866938269E-02 
1454	 1.27235888675657E-02 
1455	 8.61647349343813E-03 
1456	 8.19968896952707E-03 
1457	 9.42829993870427E-03 
1458	 9.86545084006404E-03 
1459	 1.04490165108449E-02 
1460	 1.06712057870258E-02 
1461	 1.10212398652843E-02 
1462	 1.13084614602693E-02 
1463	 1.17175482592948E-02 
1464	 1.10746171333816E-02 
1465	 9.18304983321879E-03 
1466	 9.12431261254439E-03 
1467	 8.86704799579046E-03 
1468	 9.23223974034516E-03 
1469	 1.28094146715074E-02 
1470	 1.33025660761208E-02 
1471	 1.10149694148867E-02 
1472	 1.08729494496017E-02 
1473	 1.06762114405593E-02 
1474	 1.07882889249488E-02 
1475	 1.23775004010365E-02 
1476	 1.25577274709832E-02 
1477	 1.19535689531413E-02 
1478	 1.15964686175283E-02 
1479	 1.05941254099279E-02 
1480	 0.010605476117174 
1481	 1.11331908187882E-02 
1482	 1.13403143913088E-02 
1483	 1.22392488729847E-02 
1484	 0.012278913488343 
1485	 1.17108415618082E-02 
1486	 1.13767329321053E-02 
1487	 1.04187365203559E-02 
1488	 1.05367322304588E-02 
1489	 1.14525286116699E-02 
1490	 1.15365234832999E-02 
1491	 1.16641214942016E-02 
1492	 1.18545449086731E-02 
1493	 1.16357496492892E-02 
1494	 1.16805564328858E-02 
1495	 0.011997610323249 
1496	 1.20947221604085E-02 
1497	 1.20935176795245E-02 
1498	 1.21917610864952E-02 
1499	 1.22757301768366E-02 
1500	 1.24433152147033E-02 
1501	 0.012772897723625 
1502	 1.29046284798479E-02 
1503	 1.28493445477347E-02 
1504	 1.30207583818231E-02 
1505	 1.34277119402247E-02 
1506	 1.34007933111583E-02 
1507	 1.33050805150134E-02 
1508	 1.36855760275396E-02 
1509	 1.38333666744716E-02 
1510	 1.36821486521701E-02 
1511	 1.37056148053236E-02 
1512	 1.36518325099647E-02 
1513	 1.35200398332667E-02 
1514	 1.36127040810624E-02 
1515	 1.37900854632553E-02 
1516	 1.38605401760814E-02 
1517	 1.39168842452013E-02 
1518	 1.40786918482438E-02 
1519	 1.40582617025544E-02 
1520	 1.40073837444173E-02 
1521	 1.42505788767493E-02 
1522	 1.43775833564278E-02 
1523	 1.44547878894522E-02 
1524	 1.47136153442059E-02 
1525	 1.47830870133982E-02 
1526	 1.46101976823855E-02 
1527	 1.46143904373844E-02 
1528	 1.48998874345163E-02 
1529	 1.50677808633329E-02 
1530	 1.50280960112295E-02 
1531	 1.50875681268535E-02 
1532	 1.52006517992289E-02 
1533	 0.015302912925177 
1534	 0.015362533675324 
1535	 0.015292856829304 
1536	 1.53120356770712E-02 
1537	 1.54168034130054E-02 
1538	 1.55602920862016E-02 
1539	 0.015805062305143 
1540	 1.58188733568791E-02 
1541	 1.56751458975603E-02 
1542	 1.58501845916399E-02 
1543	 0.016072628166836 
1544	 1.60681398009796E-02 
1545	 0.016120635146013 
1546	 1.61987106777301E-02 
1547	 1.62108931123774E-02 
1548	 1.62788011740054E-02 
1549	 1.64246113653434E-02 
1550	 1.66065174852232E-02 
1551	 1.67027134154375E-02 
1552	 1.67211409483114E-02 
1553	 1.67106889859482E-02 
1554	 0.016723880147265 
1555	 1.67814493931232E-02 
1556	 1.68503086711539E-02 
1557	 1.70531522960938E-02 
1558	 1.71597888849828E-02 
1559	 1.71029716392482E-02 
1560	 1.72657432274918E-02 
1561	 1.73880108213312E-02 
1562	 1.72065444950283E-02 
1563	 1.71492578382954E-02 
1564	 1.72514355811658E-02 
1565	 1.72837538200437E-02 
1566	 1.74326523875141E-02 
1567	 1.76457554295643E-02 
1568	 1.77143391941317E-02 
1569	 1.76812355506222E-02 
1570	 1.76904194472804E-02 
1571	 1.78467929113497E-02 
1572	 1.79521504353081E-02 
1573	 1.78999631727061E-02 
1574	 1.79671181572052E-02 
1575	 1.81652852061691E-02 
1576	 1.81284551508947E-02 
1577	 1.80413388341281E-02 
1578	 1.82264090367789E-02 
1579	 1.83200618169107E-02 
1580	 1.82704422169788E-02 
1581	 1.83588550675523E-02 
1582	 1.85473066362731E-02 
1583	 1.85323540416189E-02 
1584	 1.83395503443143E-02 
1585	 1.84904508271173E-02 
1586	 1.85926248055531E-02 
1587	 1.83516994254024E-02 
1588	 1.84566424378426E-02 
1589	 1.85735271436335E-02 
1590	 1.84488736502772E-02 
1591	 0.018436386203948 
1592	 1.85126807705166E-02 
1593	 1.87594135934489E-02 
1594	 1.88496900783185E-02 
1595	 1.88826840124182E-02 
1596	 1.91449872806818E-02 
1597	 1.92608287204851E-02 
1598	 1.92281210506747E-02 
1599	 1.93632048139528E-02 
1600	 1.94497908787096E-02 
1601	 0.019259475355986 
1602	 1.91838059789616E-02 
1603	 1.92165342637989E-02 
1604	 1.92924043769325E-02 
1605	 1.95486244391507E-02 
1606	 1.97618900674565E-02 
1607	 1.97512815311631E-02 
1608	 1.95741002249286E-02 
1609	 1.94625038616691E-02 
1610	 1.94407715443478E-02 
1611	 1.93638081119599E-02 
1612	 1.93397706380673E-02 
1613	 1.94241344900094E-02 
1614	 1.93974965927449E-02 
1615	 1.93830757565467E-02 
1616	 1.95573293972063E-02 
1617	 1.95025503976043E-02 
1618	 0.019325573773285 
1619	 0.019459849755983 
1620	 1.96525444170957E-02 
1621	 1.98318337317762E-02 
1622	 1.99728324063588E-02 
1623	 1.98432917243395E-02 
1624	 1.96660345433469E-02 
1625	 1.96274525892038E-02 
1626	 1.97308682984208E-02 
1627	 1.99298766003828E-02 
1628	 1.99966768940662E-02 
1629	 2.00858526707723E-02 
1630	 2.01146375244616E-02 
1631	 1.99907085955958E-02 
1632	 2.00859577074234E-02 
1633	 2.01410223666473E-02 
1634	 2.00203217153257E-02 
1635	 0.020151459303968 
1636	 2.03537182692067E-02 
1637	 0.020230231623678 
1638	 2.00233647603782E-02 
1639	 1.99379774201084E-02 
1640	 2.00527456267724E-02 
1641	 2.03527395469568E-02 
1642	 2.04159821780198E-02 
1643	 2.02682046704022E-02 
1644	 2.02841525724192E-02 
1645	 2.02237421355723E-02 
1646	 2.01636154717826E-02 
1647	 2.05090379207446E-02 
1648	 2.05412995546902E-02 
1649	 2.01445501221667E-02 
1650	 2.02865889061752E-02 
1651	 2.07010143911606E-02 
1652	 2.07011154540093E-02 
1653	 2.07714901203767E-02 
1654	 2.08572068314489E-02 
1655	 2.05662086817435E-02 
1656	 2.03660741190336E-02 
1657	 2.02834930997075E-02 
1658	 2.03798664859438E-02 
1659	 2.07179147633893E-02 
1660	 2.05528949617185E-02 
1661	 2.00602631819657E-02 
1662	 2.01922651631184E-02 
1663	 2.03541686100199E-02 
1664	 2.02440012660964E-02 
1665	 2.05601536652664E-02 
1666	 2.07395048416365E-02 
1667	 2.03326252223938E-02 
1668	 2.06284421481836E-02 
1669	 2.08361103754401E-02 
1670	 2.06162448435355E-02 
1671	 2.06763602180263E-02 
1672	 2.08912589695181E-02 
1673	 2.08797866278542E-02 
1674	 2.09036971859597E-02 
1675	 0.020893559005764 
1676	 2.07024216892116E-02 
1677	 2.06178807703764E-02 
1678	 2.06706502687037E-02 
1679	 2.04749824803989E-02 
1680	 0.020128249984142 
1681	 2.01456125922797E-02 
1682	 2.03415517367056E-02 
1683	 2.03771815775902E-02 
1684	 2.05243861301471E-02 
1685	 2.06740308693899E-02 
1686	 2.04418974961781E-02 
1687	 2.03251967674192E-02 
1688	 2.05644660330036E-02 
1689	 2.04038994137332E-02 
1690	 2.02717040137262E-02 
1691	 2.04952303894412E-02 
1692	 2.01916351076063E-02 
1693	 1.98788040005488E-02 
1694	 2.00478120727958E-02 
1695	 2.01116387710748E-02 
1696	 2.01434069170964E-02 
1697	 2.04717173871146E-02 
1698	 2.08578954105809E-02 
1699	 2.06856543140628E-02 
1700	 2.01263366207979E-02 
1701	 1.98643500825094E-02 
1702	 1.96732233833529E-02 
1703	 1.99508379042081E-02 
1704	 2.07748702867676E-02 
1705	 0.020794759332874 
1706	 2.03700609764955E-02 
1707	 2.02274358563604E-02 
1708	 2.00956314030741E-02 
1709	 0.020303021181552 
1710	 2.05940124864293E-02 
1711	 2.02118056280314E-02 
1712	 1.96960336162715E-02 
1713	 1.99042084131352E-02 
1714	 1.98183341208663E-02 
1715	 1.97835382955856E-02 
1716	 1.99697235638618E-02 
1717	 1.99126423997515E-02 
1718	 2.00912875454841E-02 
1719	 2.01379699555333E-02 
1720	 1.98069511876972E-02 
1721	 1.98135034318547E-02 
1722	 2.01856399240767E-02 
1723	 2.00801011621501E-02 
1724	 0.019884992246175 
1725	 2.01747334037268E-02 
1726	 2.02148993025468E-02 
1727	 1.99831616529927E-02 
1728	 2.01401995600005E-02 
1729	 2.01478228161477E-02 
1730	 0.01962304297894 
1731	 1.96230339818158E-02 
1732	 1.97949548395841E-02 
1733	 1.91030701872214E-02 
1734	 1.87517106324516E-02 
1735	 1.91146029586922E-02 
1736	 1.91914982637203E-02 
1737	 1.92955486206511E-02 
1738	 1.96409987108272E-02 
1739	 1.98217253566433E-02 
1740	 1.99161781100158E-02 
1741	 1.98718553020555E-02 
1742	 1.96455120536287E-02 
1743	 1.90831310898517E-02 
1744	 0.018536530898996 
1745	 1.87085615772542E-02 
1746	 1.89636674426173E-02 
1747	 1.89850719641194E-02 
1748	 1.87556888382541E-02 
1749	 1.85758820635198E-02 
1750	 1.84380882839557E-02 
1751	 1.84367958627147E-02 
1752	 1.86528431787213E-02 
1753	 1.85608335899782E-02 
1754	 1.82272267429472E-02 
1755	 1.80112107471363E-02 
1756	 1.75204179483519E-02 
1757	 1.78052529114517E-02 
1758	 1.85161224062088E-02 
1759	 1.85713400490001E-02 
1760	 1.83950405261151E-02 
1761	 1.81944040310154E-02 
1762	 1.70312680695643E-02 
1763	 1.65979346368284E-02 
1764	 1.72709076180485E-02 
1765	 0.017199485851488 
1766	 1.76092537300227E-02 
1767	 1.83593624473374E-02 
1768	 1.74118744008764E-02 
1769	 1.62973595147172E-02 
1770	 0.01606222549997 
1771	 1.65164778486146E-02 
1772	 1.75002176627339E-02 
1773	 1.82721704700967E-02 
1774	 1.84282949472535E-02 
1775	 0.017267517389092 
1776	 1.70173350102348E-02 
1777	 1.78938151833421E-02 
1778	 1.79092289533056E-02 
1779	 0.017064871455532 
1780	 1.69758290853489E-02 
1781	 1.74762368315207E-02 
1782	 1.73415468099196E-02 
1783	 1.74717005644575E-02 
1784	 1.76015430951413E-02 
1785	 1.67189465904991E-02 
1786	 1.66236250783337E-02 
1787	 1.75112342631361E-02 
1788	 1.73250652185229E-02 
1789	 1.62510557499495E-02 
1790	 1.50167485273306E-02 
1791	 1.66333718854958E-02 
1792	 2.07907440986661E-02 
1793	 2.18296838890117E-02 
1794	 2.00982225957322E-02 
1795	 1.91506402510723E-02 
1796	 1.74515003124902E-02 
1797	 1.48920684756709E-02 
1798	 1.71813707579766E-02 
1799	 2.01047595776001E-02 
1800	 1.67679271463756E-02 
1801	 0.018255585420902 
1802	 2.85791357446441E-02 
1803	 3.03301842303757E-02 
1804	 2.84104916467224E-02 
1805	 2.60384060190196E-02 
1806	-2.44243658479321E-03 
1807	-8.40931037660658E-03 
1808	 2.29529402121451E-02 
1809	 3.02615666621239E-02 
1810	 3.57094093347944E-02 
1811	 6.21323807476484E-02 
1812	 9.51663512951557E-02 
1813	 0.133714824245305 
1814	 0.241948419570195 
1815	 0.24315785677754 
1816	 2.02362224601534E-02 
1817	-6.79723566645101E-02 
1818	-0.069601888403741 
1819	-0.147509026339292 
1820	 0.138422570200104 
1821	-0.111411754334234 
1822	-0.1276859302699 
1823	 0.103668850326252 
1824	 0.08907969857698 
1825	-0.174895663176445 
1826	-0.121968525716404 
1827	-2.14233354128298E-02 
1828	 0.206978368271982 
1829	 0.996253831046385 
1830	 0.94737883345452 
1831	 1.27450745581042E-02 
1832	 0.23226929575745 
1833	 0.184461743634335 
1834	 0.23946220602064 
1835	 0.908251057520823 
1836	 1.40538192794448 
1837	 1.04688780934062 
1838	 0.927402553003682 
1839	 0.542779710038134 
1840	 0.729332255859195 
1841	 0.849081304600209 
1842	 0.731870484135925 
1843	 0.914310974780076 
1844	 2.79486604668924 
1845	 8.13346926844977 
1846	-2.52030811983453 
1847	-2.16357825035541 
1848	 5.16591701410502 
1849	 0.452433497540439 
1850	 0.371924433632115 
1851	 0.165407605335767 
1852	 0.411032266496098 
1853	 8.67149077404949 
1854	-2.81058301126803 
1855	 0.42886220310203 
1856	 0.442124735977649 
1857	 0.166472103566561 
1858	 0.106550207495994 
1859	-0.17855375374006 
1860	-0.571635735378974 
1861	-7.72069570522497 
1862	 2.34188245477966 
1863	-0.173778732701019 
1864	-13.880688735579 
1865	-4.32784934211451 
1866	 1.69321957465084 
1867	 2.10914959160155 
1868	-1.31432923903626 
1869	-0.794723699361299 
1870	-1.14860543492341 
1871	-1.1321810450768 
1872	-1.04299520641423 
1873	 0.652022158047934 
1874	-0.815512185846746 
1875	 10.4630603561861 
1876	 5.90455327755345 
1877	 1.97406210008663 
1878	 0.791996428992586 
1879	-0.264137025183024 
1880	-0.372707434712742 
1881	-0.21620824034437 
1882	-0.276252223618638 
1883	-2.74535771690166E-02 
1884	 0.636364546806116 
1885	 1.02166045659798 
1886	 2.10511625597725 
1887	-4.38660513697895 
1888	-1.16208637321473 
1889	-0.83196796701942 
1890	-1.302683239514 
1891	-2.40233213623347 
1892	 1.12821292323998 
1893	 6.19462789693046E-02 
1894	 0.191333831517423 
1895	 0.395040536507976 
1896	 8.22016531835028E-02 
1897	 0.086220913853864 
1898	 0.329594094759109 
1899	 0.181603947360729 
1900	 0.237193870582851 
1901	-1.42507302173189 
1902	-0.738495774300447 
1903	-0.279648450052043 
1904	-0.674100137835355 
1905	-0.729929137295134 
1906	 0.304985691139584 
1907	 4.38752533560955 
1908	 11.0292320783413 
1909	 24.9677499019378 
1910	-1.63356849757982 
1911	-0.435026359268267 
1912	 1.35856105887857 
1913	 2.50652861605643 
1914	 2.51683806830175 
1915	 4.46038357646137 
1916	-7.48806706741296 
1917	-4.12059837889119 
1918	-14.7235474079489 
1919	-10.231421113702 
1920	-3.1296960792639 
1921	-2.12927356736226E-02 
1922	 1.01676423930702 
1923	 0.637845605361071 
1924	 0.421016929246701 
1925	 0.220213931226755 
1926	 6.81102798736771E-02 
1927	-0.421137457094454 
1928	-0.511337289923848 
1929	 1.92959597759812E-02 
1930	 0.888568374538118 
1931	 1.42944859402798 
1932	 1.09286613993131 
1933	 0.238584537666565 
1934	-9.05057024421705E-02 
1935	-0.137578670687038 
1936	-0.118266787302188 
1937	-6.77195539707646E-02 
1938	-2.77077981493745E-02 
1939	 8.5361145311424E-04 
1940	 1.90860864584429E-02 
1941	 3.86263576538821E-02 
1942	 1.09812847170672E-02 
1943	-2.17173183929706E-02 
1944	-1.94349603246481E-02 
1945	-2.06922012811413E-02 
1946	 8.82302672779026E-04 
1947	 4.24812544238559E-02 
1948	 6.48081505598082E-02 
1949	 7.84551403304783E-02 
1950	 7.20500285982764E-02 
1951	 5.81271282372673E-02 
1952	 0.051574405059051 
1953	 5.12512029910154E-02 
1954	 3.43518834639761E-02 
1955	 1.36331287632073E-02 
1956	 8.10131921957209E-03 
1957	 1.14862152842893E-03 
1958	-9.97337258550092E-03 
1959	-4.74533590501955E-03 
1960	 8.63143714211329E-04 
1961	-4.28800358552864E-03 
1962	-1.75760119323038E-03 
1963	 2.60462232062919E-03 
1964	-2.88706973058156E-04 
1965	-1.1486147321552E-03 
1966	 2.58190198622786E-04 
1967	 2.19519028228536E-03 
1968	 2.30270469122123E-03 
1969	 5.65926416792207E-03 
1970	 8.24110841929397E-03 
1971	 6.52233675228195E-03 
1972	 6.86653169286424E-03 
1973	 6.97306590659644E-03 
1974	 5.59911567742973E-03 
1975	 5.57209759374746E-03 
1976	 5.11424951489434E-03 
1977	 5.18278274357606E-03 
1978	 6.38744575785832E-03 
1979	 6.24679107541644E-03 
1980	 6.72988053683427E-03 
1981	 5.44884287644459E-03 
1982	 3.68288808546288E-03 
1983	 3.31163355204221E-03 
1984	 3.41595616951659E-03 
1985	 3.97385544001098E-03 
1986	 5.07541111262889E-03 
1987	 0.005433425107674 
1988	 4.93458498552966E-03 
1989	 4.68592248526279E-03 
1990	 4.68465629706471E-03 
1991	 4.55199138914322E-03 
1992	 4.89546342246032E-03 
1993	 5.86417041058145E-03 
1994	 6.43760494992491E-03 
1995	 7.13704540519284E-03 
1996	 6.09219339962704E-03 
1997	 5.25908143872221E-03 
1998	 6.10888518070848E-03 
1999	 4.42001144275697E-03 
2000	 1.77566690500313E-03 
2001	 1.99376293165626E-03 
2002	 1.6519104644257E-03 
2003	 2.13496363072151E-03 
2004	 4.44098996387119E-03 
2005	 4.12158496278918E-03 
2006	 4.25553762905575E-03 
2007	 4.88420149196487E-03 
2008	 5.54873556086986E-03 
2009	 7.21557882705604E-03 
2010	 9.68407513024439E-03 
2011	 1.01939760046944E-02 
2012	 1.11930377849996E-02 
2013	 1.10859761986155E-02 
2014	 7.2886072725319E-03 
2015	 6.64148137364583E-03 
2016	 5.00185459455272E-03 
2017	 4.58147564598316E-03 
2018	 7.45697218633612E-03 
2019	 8.0747127803908E-03 
2020	 6.78280375714077E-03 
2021	 5.93967238402097E-03 
2022	 5.99642200884716E-03 
2023	 5.88063775658369E-03 
2024	 5.9278696714689E-03 
2025	 7.24240299906454E-03 
2026	 7.47864545452166E-03 
2027	 6.96949249784218E-03 
2028	 6.78939118334573E-03 
2029	 6.73028501662713E-03 
2030	 6.46487068148269E-03 
2031	 6.86866948693392E-03 
2032	 7.30634782465608E-03 
2033	 7.26906044806959E-03 
2034	 7.13715211939216E-03 
2035	 7.02796772310435E-03 
2036	 6.8530115594802E-03 
2037	 6.92791719145155E-03 
2038	 7.62612855000519E-03 
2039	 7.90215875939327E-03 
2040	 7.9384646914517E-03 
2041	 7.74935784035178E-03 
2042	 7.30930593176188E-03 
2043	 7.16651117594467E-03 
2044	 6.72992282497361E-03 
2045	 7.15696301240873E-03 
2046	 7.96983887999407E-03 
2047	 7.59248967483674E-03 
2048	 7.39811245169153E-03 
2049	 7.41813144572947E-03 
2050	 6.8803281351394E-03 
2051	 6.8591491369548E-03 
2052	 7.43288477236009E-03 
2053	 7.02633546034457E-03 
2054	 6.0964893323323E-03 
2055	 6.31209631628706E-03 
2056	 6.4104422058605E-03 
2057	 6.27485415633536E-03 
2058	 6.65617069179686E-03 
2059	 0.007715607727329 
2060	 8.24330455839581E-03 
2061	 8.91072805552151E-03 
2062	 9.26611784375328E-03 
2063	 8.04954689852082E-03 
2064	 7.52184314179555E-03 
2065	 7.95419633441057E-03 
2066	 7.7945496435763E-03 
2067	 8.13081279896995E-03 
2068	 8.89631361386964E-03 
2069	 8.3839566947086E-03 
2070	 7.55200062128592E-03 
2071	 0.008063398728082 
2072	 8.99196303986419E-03 
2073	 9.25722980573726E-03 
2074	 9.39779202012402E-03 
2075	 9.32882022416487E-03 
2076	 8.64128666744545E-03 
2077	 8.52412849217569E-03 
2078	 8.55412155502759E-03 
2079	 8.7815977325648E-03 
2080	 9.71051496071597E-03 
2081	 9.66814316449944E-03 
2082	 8.78640269791274E-03 
2083	 8.82579926022864E-03 
2084	 8.87111363081167E-03 
2085	 8.76367939962405E-03 
2086	 9.0259151908107E-03 
2087	 9.04450532057642E-03 
2088	 8.76313834573224E-03 
2089	 8.31696328774429E-03 
2090	 8.50915416945864E-03 
2091	 8.97483665133746E-03 
2092	 9.22680999886324E-03 
2093	 9.3976584071193E-03 
2094	 9.76795797510682E-03 
2095	 1.04663113483548E-02 
2096	 1.04093889273145E-02 
2097	 9.94267524206494E-03 
2098	 9.73956507826345E-03 
2099	 9.20114033438506E-03 
2100	 8.87403839437862E-03 
2101	 8.53047923244813E-03 
2102	 8.13239276804675E-03 
2103	 8.05846990526017E-03 
2104	 7.82075929465951E-03 
2105	 8.30812706727287E-03 
2106	 9.33184433797754E-03 
2107	 9.67244199972436E-03 
2108	 9.73274555344645E-03 
2109	 9.62285219215031E-03 
2110	 9.31485635441637E-03 
2111	 9.05090114353623E-03 
2112	 9.27996795268007E-03 
2113	 9.46370851381118E-03 
2114	 9.62676441786671E-03 
2115	 1.00551823373479E-02 
2116	 1.11446381033969E-02 
2117	 1.12898233008239E-02 
2118	 1.13445195935518E-02 
2119	 1.12166013167841E-02 
2120	 1.04713845070692E-02 
2121	 9.29375853190983E-03 
2122	 9.58974035305372E-03 
2123	 9.8140536596157E-03 
2124	 9.40329470491008E-03 
2125	 9.19097028161416E-03 
2126	 8.80836309832982E-03 
2127	 8.40487634941029E-03 
2128	 0.009379169605543 
2129	 1.05627859288379E-02 
2130	 1.00707953688331E-02 
2131	 9.70766547736367E-03 
2132	 9.4977045613697E-03 
2133	 9.24166637960162E-03 
2134	 9.44863231419034E-03 
2135	 1.09961424259943E-02 
2136	 0.011101459695405 
2137	 1.01905110056369E-02 
2138	 1.02761638272811E-02 
2139	 1.06454475615939E-02 
2140	 1.09453249852283E-02 
2141	 1.16745031038084E-02 
2142	 1.18391215969882E-02 
2143	 1.16644316017573E-02 
2144	 1.13886713024414E-02 
2145	 1.04204905370028E-02 
2146	 1.07769960708964E-02 
2147	 1.09598613486942E-02 
2148	 9.86062095875241E-03 
2149	 1.03305047398399E-02 
2150	 1.05131216946082E-02 
2151	 9.68600274334804E-03 
2152	 1.00697655203851E-02 
2153	 1.03816591266365E-02 
2154	 1.03915751598518E-02 
2155	 1.02452574899118E-02 
2156	 9.38533244485856E-03 
2157	 9.2881437474229E-03 
2158	 8.59906327236099E-03 
2159	 8.71298580051616E-03 
2160	 1.05164324273616E-02 
2161	 1.10581429062216E-02 
2162	 1.09182539386959E-02 
2163	 1.10223283539335E-02 
2164	 1.06212388409429E-02 
2165	 1.04920914179518E-02 
2166	 1.05847173051902E-02 
2167	 1.05887416395799E-02 
2168	 1.08972372888276E-02 
2169	 1.10235096744107E-02 
2170	 1.12348377749997E-02 
2171	 1.07383661519702E-02 
2172	 1.02034379260553E-02 
2173	 0.01051835643342 
2174	 1.10663922199628E-02 
2175	 1.12872770950105E-02 
2176	 1.12339855688361E-02 
2177	 1.05457847908347E-02 
2178	 1.02129406630086E-02 
2179	 9.86291216452891E-03 
2180	 9.99516452474726E-03 
2181	 0.010545224138425 
2182	 9.86739275823175E-03 
2183	 1.06535597040324E-02 
2184	 1.22207182439114E-02 
2185	 1.22572182870386E-02 
2186	 1.28133831559223E-02 
2187	 1.41073214942278E-02 
2188	 1.41999465135881E-02 
2189	 1.32421520193741E-02 
2190	 1.28929474847424E-02 
2191	 1.19092931855031E-02 
2192	 1.13974106992993E-02 
2193	 1.15781817843753E-02 
2194	 1.19252487741862E-02 
2195	 1.27011189293697E-02 
2196	 1.28559118146152E-02 
2197	 1.28965774989478E-02 
2198	 1.24988369967801E-02 
2199	 1.15065769249207E-02 
2200	 1.06927930457736E-02 
2201	 9.10446641990313E-03 
2202	 8.49172257795899E-03 
2203	 9.04351670730101E-03 
2204	 9.5369530605894E-03 
2205	 1.01555860254688E-02 
2206	 1.08921458720388E-02 
2207	 1.10019234890007E-02 
2208	 1.04255900922235E-02 
2209	 1.02322072997598E-02 
2210	 1.06139698877067E-02 
2211	 1.04404927080329E-02 
2212	 9.85784386190537E-03 
2213	 9.49916992448559E-03 
2214	 9.73009556551891E-03 
2215	 1.09507215835975E-02 
2216	 0.011619532907635 
2217	 1.15094994956395E-02 
2218	 1.10518659133265E-02 
2219	 0.011104579666806 
2220	 9.96259434368361E-03 
2221	 1.01142223329562E-02 
2222	 1.19885534360178E-02 
2223	 1.23552501249727E-02 
2224	 1.24135383776618E-02 
2225	 1.25095303148176E-02 
2226	 1.23305767176185E-02 
2227	 1.19029088002576E-02 
2228	 1.07521422111761E-02 
2229	 1.02786957129633E-02 
2230	 9.25207477554115E-03 
2231	 9.31373904397582E-03 
2232	 1.12803664753132E-02 
2233	 1.20573787960483E-02 
2234	 1.27435865071665E-02 
2235	 1.35553218155918E-02 
2236	 1.30751661643388E-02 
2237	 1.19136145652916E-02 
2238	 1.15736443604073E-02 
2239	 1.15635202676443E-02 
2240	 1.26064182856923E-02 
2241	 1.33114429032495E-02 
2242	 1.43814537952067E-02 
2243	 1.56470402343638E-02 
2244	 0.014952318488196 
2245	 1.43331437424881E-02 
2246	 1.20302748713789E-02 
2247	 9.25650917853585E-03 
2248	 9.25218944361941E-03 
2249	 8.97871842334862E-03 
2250	 8.32919931336308E-03 
2251	 7.98845841878698E-03 
2252	 7.35249482160818E-03 
2253	 8.09362758608921E-03 
2254	 1.00411740993443E-02 
2255	 0.01115674725573 
2256	 1.21346671088855E-02 
2257	 1.29693888853854E-02 
2258	 1.23304001630521E-02 
2259	 1.20058944831898E-02 
2260	 1.18162734478129E-02 
2261	 1.08260441669865E-02 
2262	 1.06695116792738E-02 
2263	 1.11305617551859E-02 
2264	 1.15586802040471E-02 
2265	 1.33109008595276E-02 
2266	 1.30124319498373E-02 
2267	 1.12037814559336E-02 
2268	 1.06823553209014E-02 
2269	 9.43492848481386E-03 
2270	 8.76627308987384E-03 
2271	 9.50302258338263E-03 
2272	 9.66510052450181E-03 
2273	 9.0807132614322E-03 
2274	 8.7463891289978E-03 
2275	 8.73774494409437E-03 
2276	 8.88507033014294E-03 
2277	 1.03696519892702E-02 
2278	 9.86800626991308E-03 
2279	 6.27888705686385E-03 
2280	 5.8668605887804E-03 
2281	 6.81241021114938E-03 
2282	 5.8493513240718E-03 
2283	 7.15038230967059E-03 
2284	 9.92904807183335E-03 
2285	 8.99781547112043E-03 
2286	 9.71948154438682E-03 
2287	 1.07382653364124E-02 
2288	 1.20966048079786E-02 
2289	 1.34959299761638E-02 
2290	 1.20202431184441E-02 
2291	 1.20223644304048E-02 
2292	 1.34279444648046E-02 
2293	 1.27662592249143E-02 
2294	 1.25697191994658E-02 
2295	 1.26836887844545E-02 
2296	 8.9734239882058E-03 
2297	 4.89900224094967E-03 
2298	 3.52832451991599E-03 
2299	 4.63655552653412E-03 
2300	 4.8816474729474E-03 
2301	 4.66651487200867E-03 
2302	 6.29893592924806E-03 
2303	 4.65579649194355E-03 
2304	 3.83864441196002E-03 
2305	 6.72141962272288E-03 
2306	 1.04127852790449E-02 
2307	 1.16246043188193E-02 
2308	 1.06187841216878E-02 
2309	 1.14460657025741E-02 
2310	 9.41989004619853E-03 
2311	 6.59991058665305E-03 
2312	 9.07905738706707E-03 
2313	 1.14410444438361E-02 
2314	 9.75114308215992E-03 
2315	 9.6384436581066E-03 
2316	 8.36750069853579E-03 
2317	 2.24541927829607E-03 
2318	 4.31469347557027E-04 
2319	 2.5523818876859E-03 
2320	 4.21876485081158E-03 
2321	 4.76414624640622E-03 
2322	 5.50350591955357E-03 
2323	 7.82193809534903E-03 
2324	 9.83683410519908E-03 
2325	 0.01389838457356 
2326	 1.68741325757392E-02 
2327	 1.70579417532474E-02 
2328	 1.39361013693633E-02 
2329	 9.34871486472518E-03 
2330	 1.19655570899789E-02 
2331	 1.51861411884972E-02 
2332	 1.43039173290533E-02 
2333	 1.59543619965206E-02 
2334	 0.017510293208993 
2335	 1.53941845800621E-02 
2336	 1.25191297379052E-02 
2337	 1.16708891553598E-02 
2338	 0.009367368540754 
2339	-2.24533787099663E-06 
2340	-2.63019104982319E-03 
2341	 4.14020499548871E-03 
2342	 1.06567404158631E-03 
2343	 3.59328755337144E-03 
2344	 1.49627986480843E-02 
2345	 1.04722107807424E-02 
2346	 7.1933923557377E-03 
2347	 1.19947309763406E-02 
2348	 8.39223046279721E-03 
2349	 7.06485134601352E-03 
2350	 4.93780046700575E-03 
2351	 1.88326736972918E-03 
2352	 5.32807896946086E-03 
2353	 7.48472209472717E-03 
2354	 1.27764939436679E-02 
2355	 0.018511234408001 
2356	 1.94361844109076E-02 
2357	 0.018420828060959 
2358	 1.57950654367197E-02 
2359	 1.19314621008567E-02 
2360	 6.06985787684219E-03 
2361	 2.83307196459671E-03 
2362	 1.10243651737302E-02 
2363	 1.40858002443817E-02 
2364	 6.13429915981098E-03 
2365	 4.30171898925556E-03 
2366	-4.37734732200766E-04 
2367	-5.84776525969466E-03 
2368	-1.04799884595545E-02 
2369	-1.66679517463095E-02 
2370	-1.16279702313013E-02 
2371	-5.6985686723151E-03 
2372	 5.82332250829347E-03 
2373	 9.11215352131085E-03 
2374	-1.73344804008867E-02 
2375	-3.10844844909988E-02 
2376	-2.75483074564114E-02 
2377	-2.59553039640233E-02 
2378	-1.05093002940736E-02 
2379	-1.67127211017988E-02 
2380	-3.73254116008079E-02 
2381	-0.012408802101351 
2382	 1.44998726642142E-03 
2383	 3.02676893510809E-03 
2384	 4.08869050419229E-02 
2385	 3.14519188531796E-02 
2386	 1.28554864726047E-02 
2387	 2.91236813878278E-02 
2388	 1.75722708096877E-02 
2389	 1.16978506705694E-03 
2390	-5.66290326673162E-03 
2391	-6.69083748956489E-03 
2392	 9.3777410241991E-04 
2393	 2.18476573406011E-03 
2394	 0.013178477457273 
2395	 2.25521072596393E-02 
2396	 1.34776127318298E-02 
2397	 1.85490665272513E-02 
2398	 1.00679477311732E-02 
2399	-1.19664006925483E-02 
2400	-7.35540892406941E-03 
2401	-7.26092062515116E-03 
2402	-1.53914109472346E-02 
2403	-8.60434642367442E-03 
2404	-2.33645895468447E-02 
2405	-3.96357374806146E-02 
2406	-1.28607125002891E-02 
2407	-4.7398532055523E-03 
2408	 9.50189061050247E-03 
2409	 4.61051948436916E-02 
2410	 2.69277915798191E-02 
2411	 2.65106490852572E-02 
2412	 7.18011346707848E-02 
2413	 7.62072791330166E-02 
2414	 5.25772933567548E-02 
2415	 0.034142357246617 
2416	 5.06040117116294E-02 
2417	 1.89621094301652E-02 
2418	-6.23197079833477E-03 
2419	 3.48443279072992E-02 
2420	-1.29353807672244E-02 
2421	-0.049543920733493 
2422	-5.38756406393199E-02 
2423	-2.27705080472161E-02 
2424	-1.17572220901983E-02 
2425	-0.092285553473659 
2426	-7.93722235337173E-02 
2427	-9.86962529334625E-03 
2428	-5.57622207594449E-03 
2429	 4.17243588764376E-02 
2430	 0.103482470358072 
2431	 0.040063391162544 
2432	-4.40545653277397E-02 
2433	-0.011254092735101 
2434	 2.45816674475571E-02 
2435	-2.45998569256425E-03 
2436	 7.09228066118816E-02 
2437	 7.79087931256542E-02 
2438	 6.76290735988378E-02 
2439	 0.1955242857481 
2440	 9.74123022266497E-02 
2441	 4.9251321661599E-04 
2442	 2.67509122394794E-02 
2443	-9.88540765060171E-02 
2444	-9.87156579606461E-02 
2445	-9.48581228275411E-03 
2446	-9.22941395306551E-02 
2447	-0.181124184439504 
2448	-0.169253483975763 
2449	-7.15671609616823E-02 
2450	-1.65900109095503E-02 
2451	 2.75052610470825E-02 
2452	-5.63126742002062E-03 
2453	-0.370683729148476 
2454	-0.596089699598772 
2455	-0.416946099292418 
2456	-0.465316065689379 
2457	-0.287744749287221 
2458	-0.140335467937228 
2459	-7.51787043249448E-02 
2460	 0.226161271173656 
2461	 0.308438720604117 
2462	 0.260150230081261 
2463	 0.130998199763674 
2464	-2.11891644258446E-02 
2465	-6.36614266765779E-02 
2466	-7.76048809009997E-02 
2467	-0.191032122794885 
2468	-0.282703803451033 
2469	-0.566214188624793 
2470	-0.69344447241765 
2471	-0.21941955381443 
2472	 0.51922956378562 
2473	 0.453086387162002 
2474	 0.305136092040421 
2475	 9.83436293959927E-02 
2476	 0.106540135253895 
2477	 0.163349256956679 
2478	 8.77409482676418E-02 
2479	-0.627357322804575 
2480	-0.967587944927667 
2481	-1.06941180348746 
2482	-0.340971373421283 
2483	-0.290156828565163 
2484	-0.155742345276024 
2485	-0.363412328131913 
2486	-1.42716734700598 
2487	-0.804525420689815 
2488	 0.272408928397124 
2489	 0.304638822664543 
2490	 0.80042535504183 
2491	 0.588014142308729 
2492	-3.36507471792121E-02 
2493	 0.115766435885083 
2494	 6.42585654285988E-02 
2495	 0.300859477275418 
2496	 1.04278665338297 
2497	 3.59675800755133 
2498	 1.79298531771699 
2499	 2.51869283978838 
2500	 5.43490723737469 
