Wavelength	rt0721far00008.asd
350	 2.67668804917764E-02 
351	 2.66233532338176E-02 
352	 2.61937319142556E-02 
353	 2.62423076388024E-02 
354	 2.68751925562981E-02 
355	 2.65221328310428E-02 
356	 2.62025213390896E-02 
357	 2.63753550717322E-02 
358	 2.70119448513008E-02 
359	 2.69447534508496E-02 
360	 2.65448156070972E-02 
361	 2.61905479510821E-02 
362	 2.61755988666041E-02 
363	 2.63816649128523E-02 
364	 2.63802504683329E-02 
365	 2.60990893482782E-02 
366	 2.60322600789627E-02 
367	 2.59345628174194E-02 
368	 2.62192790797011E-02 
369	 2.69491745491198E-02 
370	 0.026400496819018 
371	 2.62434411826561E-02 
372	 2.65603992984633E-02 
373	 2.65389925212475E-02 
374	 2.65613414384137E-02 
375	 0.026468859997915 
376	 2.64992411403715E-02 
377	 2.74415034759609E-02 
378	 2.73379618830951E-02 
379	 2.71057352650704E-02 
380	 2.76568411384887E-02 
381	 2.76852415804981E-02 
382	 2.75843368384959E-02 
383	 2.75458882214452E-02 
384	 2.76770285692194E-02 
385	 2.81492718257176E-02 
386	 0.028327707737743 
387	 2.82718020863412E-02 
388	 2.88099805496455E-02 
389	 2.87462701767883E-02 
390	 0.028655745624395 
391	 2.90502928424185E-02 
392	 2.95129683630637E-02 
393	 2.95663777600243E-02 
394	 2.94736959451165E-02 
395	 2.96674057595593E-02 
396	 2.98147551849943E-02 
397	 2.98774396437067E-02 
398	 2.99569899718733E-02 
399	 3.02315666204127E-02 
400	 3.03416871629518E-02 
401	 0.030330824472807 
402	 3.03442490931855E-02 
403	 3.06306349784819E-02 
404	 3.07199630974288E-02 
405	 3.07454265555808E-02 
406	 3.09822751261817E-02 
407	 0.031123046771534 
408	 3.12277742653869E-02 
409	 3.13290335930308E-02 
410	 3.14141266021397E-02 
411	 3.16167452667832E-02 
412	 3.17717019646158E-02 
413	 3.18118127566755E-02 
414	 3.20357987739293E-02 
415	 3.21983083804733E-02 
416	 3.22845777961321E-02 
417	 3.23965460645854E-02 
418	 3.27272266435798E-02 
419	 3.30241095934422E-02 
420	 3.32218191279528E-02 
421	 3.34848658818166E-02 
422	 3.37459065185259E-02 
423	 3.39777519356606E-02 
424	 0.034182025148256 
425	 3.44117857889998E-02 
426	 3.47234886770552E-02 
427	 0.035018756243823 
428	 0.035182739956471 
429	 3.55770269540059E-02 
430	 3.58929224757234E-02 
431	 3.60750823521225E-02 
432	 3.64302788283771E-02 
433	 3.67313300744837E-02 
434	 3.70193782522837E-02 
435	 3.73516226940155E-02 
436	 3.76620765869411E-02 
437	 0.037932512889022 
438	 3.82061836121724E-02 
439	 3.85484050363141E-02 
440	 3.89216207678124E-02 
441	 0.039189198517787 
442	 3.93779110905329E-02 
443	 3.97660221328086E-02 
444	 4.00567318681803E-02 
445	 4.02975092983085E-02 
446	 4.05925285333732E-02 
447	 0.040892888883738 
448	 4.11034283992325E-02 
449	 4.12943114229444E-02 
450	 4.16297667595224E-02 
451	 4.18151361512629E-02 
452	 4.19743074497778E-02 
453	 4.21952134356485E-02 
454	 4.23601282556839E-02 
455	 4.25952399167474E-02 
456	 0.042795273483122 
457	 4.28390998652821E-02 
458	 4.29807391504581E-02 
459	 4.31088176579396E-02 
460	 4.32263562240747E-02 
461	 4.34559198751765E-02 
462	 4.35672655405875E-02 
463	 4.36632215229484E-02 
464	 4.38371003547562E-02 
465	 4.39664266639901E-02 
466	 4.40981408758087E-02 
467	 4.42626713797573E-02 
468	 4.44683596674801E-02 
469	 4.46195524796803E-02 
470	 4.47401823154736E-02 
471	 4.48690735512638E-02 
472	 4.50476637558732E-02 
473	 4.51434073784727E-02 
474	 4.53038935185388E-02 
475	 0.045624250050904 
476	 4.57518304914747E-02 
477	 4.58751400270468E-02 
478	 4.60427836992055E-02 
479	 4.62106793187364E-02 
480	 4.64583326085652E-02 
481	 4.67535683913432E-02 
482	 4.70411646840231E-02 
483	 4.72434868572731E-02 
484	 0.047448123992675 
485	 4.77423179952854E-02 
486	 4.81479957608081E-02 
487	 0.048371258549434 
488	 4.86085025599415E-02 
489	 4.89017000996218E-02 
490	 4.91289415305375E-02 
491	 4.95189987877852E-02 
492	 4.98916957245736E-02 
493	 0.050125156387989 
494	 5.04776198863593E-02 
495	 5.08340612259709E-02 
496	 0.051183273937102 
497	 5.15570133651965E-02 
498	 5.18962803145267E-02 
499	 5.22361763707915E-02 
500	 5.26309232651261E-02 
501	 5.31536248837445E-02 
502	 5.35308042931442E-02 
503	 5.38489229677605E-02 
504	 5.42494016585971E-02 
505	 5.46169855988487E-02 
506	 5.50380893892179E-02 
507	 5.54956979500815E-02 
508	 5.58936717276271E-02 
509	 5.62790827970946E-02 
510	 5.67057143418985E-02 
511	 5.71970667888964E-02 
512	 5.77281630910676E-02 
513	 5.81361301777739E-02 
514	 5.85478887228945E-02 
515	 5.91583757578151E-02 
516	 5.96168440442638E-02 
517	 6.02552734873664E-02 
518	 0.061050326598103 
519	 6.14897634931815E-02 
520	 6.20023450723633E-02 
521	 6.25711375175357E-02 
522	 6.31340900862452E-02 
523	 6.38547666113492E-02 
524	 6.44337968816386E-02 
525	 6.49020140556753E-02 
526	 6.55148947672916E-02 
527	 6.61443946409698E-02 
528	 6.67554525033188E-02 
529	 6.73477285133405E-02 
530	 6.79641346817694E-02 
531	 6.86138107816389E-02 
532	 6.92701554644203E-02 
533	 6.98983707671894E-02 
534	 7.05280101651324E-02 
535	 7.11594388467801E-02 
536	 7.17870689976311E-02 
537	 0.072396308912997 
538	 7.29946973920264E-02 
539	 7.36163238980679E-02 
540	 7.42800413846266E-02 
541	 7.49403130890208E-02 
542	 7.55890665615747E-02 
543	 7.62276311222588E-02 
544	 7.68645800741034E-02 
545	 7.74767676002605E-02 
546	 7.80824624922261E-02 
547	 7.86949188370571E-02 
548	 7.93118224527429E-02 
549	 7.99048549557509E-02 
550	 8.05040617973485E-02 
551	 8.11399823469397E-02 
552	 8.17068257405187E-02 
553	 8.22860095274864E-02 
554	 8.29147998725633E-02 
555	 8.35644626536884E-02 
556	 8.41718074763595E-02 
557	 8.47318141315606E-02 
558	 8.52673347310419E-02 
559	 8.58625003878977E-02 
560	 8.63539487885391E-02 
561	 8.67661099959847E-02 
562	 8.72400979810485E-02 
563	 8.77834026200045E-02 
564	 8.82053930220452E-02 
565	 0.088470657027988 
566	 8.89013580261365E-02 
567	 0.089223259876488 
568	 8.94638846398047E-02 
569	 0.08974143543735 
570	 9.00342649604705E-02 
571	 9.02789343161468E-02 
572	 9.04709852794733E-02 
573	 9.06702631186985E-02 
574	 9.08533852575111E-02 
575	 9.09725575689753E-02 
576	 9.10203640557862E-02 
577	 0.091144910886127 
578	 9.12086958855895E-02 
579	 9.11640371220226E-02 
580	 9.10340089401037E-02 
581	 9.09129839385866E-02 
582	 9.08007580415181E-02 
583	 0.090659939864064 
584	 9.04156844628247E-02 
585	 9.00499636003104E-02 
586	 8.95917296364809E-02 
587	 8.90931570981054E-02 
588	 8.86188147277241E-02 
589	 8.81997843872572E-02 
590	 8.78218395061669E-02 
591	 8.74001412384132E-02 
592	 0.086989534232454 
593	 8.64519883193805E-02 
594	 8.57202417791637E-02 
595	 8.50169512791587E-02 
596	 8.42057487230013E-02 
597	 8.32883580765403E-02 
598	 8.23505974310655E-02 
599	 8.14117580334518E-02 
600	 8.06005556376743E-02 
601	 7.99732705235467E-02 
602	 7.94402964623014E-02 
603	 7.90841388472959E-02 
604	 7.88790724951153E-02 
605	 7.87602451366686E-02 
606	 7.86493354037598E-02 
607	 7.85832309146333E-02 
608	 7.85824019837505E-02 
609	 7.86384329651546E-02 
610	 7.86086432763853E-02 
611	 7.85340791700622E-02 
612	 7.84813302430951E-02 
613	 7.84598684205837E-02 
614	 7.84733527160645E-02 
615	 7.84584850964761E-02 
616	 7.83445717961035E-02 
617	 7.83498002291551E-02 
618	 7.83545661491462E-02 
619	 7.82749778384891E-02 
620	 7.81369223196142E-02 
621	 7.80783028680677E-02 
622	 7.80955375117843E-02 
623	 7.81143579342662E-02 
624	 7.80042207034032E-02 
625	 7.78564258505087E-02 
626	 7.77407665896233E-02 
627	 7.76921104049471E-02 
628	 7.76592890220532E-02 
629	 7.75921386552446E-02 
630	 0.077497574267218 
631	 7.75467478550006E-02 
632	 7.74433023078473E-02 
633	 0.077293082200379 
634	 7.73334149413747E-02 
635	 7.71780085319461E-02 
636	 7.70674811907439E-02 
637	 7.70712616625969E-02 
638	 7.69316852071631E-02 
639	 7.68207287542094E-02 
640	 7.67048090448773E-02 
641	 0.076518407581102 
642	 7.62903383513681E-02 
643	 7.61345140895072E-02 
644	 7.59796429262372E-02 
645	 7.56248849038526E-02 
646	 7.53648833603365E-02 
647	 7.52154090315919E-02 
648	 7.50975443576026E-02 
649	 7.48314087240065E-02 
650	 7.46256603518832E-02 
651	 7.43771378495845E-02 
652	 0.073933504607837 
653	 0.073601200218809 
654	 7.31073816770353E-02 
655	 7.24049478011889E-02 
656	 7.18979807490888E-02 
657	 7.13707652382576E-02 
658	 7.08606722782739E-02 
659	 7.04325219389305E-02 
660	 7.01526811308608E-02 
661	 6.98243804600063E-02 
662	 6.95077750300839E-02 
663	 6.93971204418284E-02 
664	 6.92042528661351E-02 
665	 6.90736998889842E-02 
666	 6.90440821249346E-02 
667	 6.88695302562904E-02 
668	 6.87185555502377E-02 
669	 6.85746751363353E-02 
670	 6.84084223776558E-02 
671	 6.84282016243135E-02 
672	 6.84045128891553E-02 
673	 6.82915099721024E-02 
674	 6.82284280946137E-02 
675	 6.81358326707112E-02 
676	 6.80476510487707E-02 
677	 6.80024284593725E-02 
678	 6.80231643828713E-02 
679	 6.78846250148737E-02 
680	 6.77089818370856E-02 
681	 6.77279659964943E-02 
682	 6.76904785288975E-02 
683	 6.76700757721774E-02 
684	 6.76282251714124E-02 
685	 0.067323707192239 
686	 6.71040281257364E-02 
687	 6.69669828109161E-02 
688	 6.68098209460955E-02 
689	 6.66444714214698E-02 
690	 6.63619109075013E-02 
691	 6.59716013744692E-02 
692	 6.55441104539103E-02 
693	 6.50360753908458E-02 
694	 6.45324938780688E-02 
695	 6.40698732264972E-02 
696	 6.35333397989776E-02 
697	 6.28354607155421E-02 
698	 0.062058316198501 
699	 0.061331875627048 
700	 6.04093121933545E-02 
701	 5.95193169811199E-02 
702	 5.87066626593377E-02 
703	 5.78254026504951E-02 
704	 5.69112416557857E-02 
705	 5.58823792914867E-02 
706	 5.47420821126728E-02 
707	 5.36413197705501E-02 
708	 5.23547781649389E-02 
709	 5.10050796623753E-02 
710	 4.97658493751284E-02 
711	 4.83486590932485E-02 
712	 4.67209684484745E-02 
713	 0.044985580332185 
714	 4.33223467950667E-02 
715	 4.16629483117345E-02 
716	 3.98802056417232E-02 
717	 3.80224047289121E-02 
718	 3.61956165577367E-02 
719	 3.45268760702039E-02 
720	 3.31760370649902E-02 
721	 3.19195617467404E-02 
722	 0.030603027436116 
723	 2.91166124822677E-02 
724	 2.76309699491384E-02 
725	 0.026198493818813 
726	 2.47808489836272E-02 
727	 2.33158358830282E-02 
728	 0.021798574129045 
729	 2.03107615817795E-02 
730	 1.88525507706124E-02 
731	 1.76043858423701E-02 
732	 0.016663018794622 
733	 1.58014062824168E-02 
734	 1.50870560799186E-02 
735	 1.45151767618999E-02 
736	 1.39410816577083E-02 
737	 1.36043649032276E-02 
738	 1.34154460536566E-02 
739	 0.01325414209366 
740	 1.31465046615694E-02 
741	 1.30814414952325E-02 
742	 1.29906071428482E-02 
743	 1.28168553516543E-02 
744	 0.012835659988424 
745	 1.28708926540351E-02 
746	 1.28272240188075E-02 
747	 1.27804020065584E-02 
748	 1.27632681299882E-02 
749	 1.27496314642318E-02 
750	 1.27166987005326E-02 
751	 1.27150353155553E-02 
752	 1.26875264213271E-02 
753	 1.26683658745915E-02 
754	 1.27226646658572E-02 
755	 1.27381567736559E-02 
756	 1.26792882198289E-02 
757	 1.26104891601807E-02 
758	 1.27712036639896E-02 
759	 1.26905088522532E-02 
760	 1.24631220785721E-02 
761	 1.25801924269933E-02 
762	 1.25694180630194E-02 
763	 1.26248733161862E-02 
764	 1.27144610528328E-02 
765	 1.27591542153674E-02 
766	 1.27827403814465E-02 
767	 1.28532619174706E-02 
768	 1.29578355681103E-02 
769	 1.30079456445115E-02 
770	 1.30669433836631E-02 
771	 1.31567320351494E-02 
772	 1.32609966314972E-02 
773	 1.32778726982244E-02 
774	 1.33371217247544E-02 
775	 0.013458563976451 
776	 1.36061937952727E-02 
777	 1.37441314958998E-02 
778	 1.38252434432504E-02 
779	 1.38965453535056E-02 
780	 1.40839276507191E-02 
781	 1.41476602294268E-02 
782	 1.42710196893032E-02 
783	 1.45467763544137E-02 
784	 1.46952912295083E-02 
785	 1.48040581864313E-02 
786	 1.49190497545807E-02 
787	 1.50828380363841E-02 
788	 1.53615823855728E-02 
789	 1.56068081007244E-02 
790	 1.57578849346972E-02 
791	 1.58613561688123E-02 
792	 1.60942671800384E-02 
793	 1.64465803290637E-02 
794	 1.67685028848831E-02 
795	 1.67167302759883E-02 
796	 1.69764647801009E-02 
797	 1.72539217724912E-02 
798	 1.72346900850413E-02 
799	 0.017497577551319 
800	 1.77248915220052E-02 
801	 1.78362364004214E-02 
802	 1.79115228653425E-02 
803	 1.80463497435172E-02 
804	 1.83051307929503E-02 
805	 1.85306022576595E-02 
806	 1.83687774253435E-02 
807	 1.83084021051694E-02 
808	 1.82518606869085E-02 
809	 1.81003535074555E-02 
810	 1.80764013349776E-02 
811	 1.78725453809065E-02 
812	 1.76087839531368E-02 
813	 1.75340852408017E-02 
814	 1.74090230381821E-02 
815	 1.71234310244071E-02 
816	 1.67634183800721E-02 
817	 1.65272162833505E-02 
818	 1.61632563410768E-02 
819	 1.58768562356564E-02 
820	 1.56426452826558E-02 
821	 1.51241787708658E-02 
822	 1.46309646844011E-02 
823	 0.014145987913335 
824	 0.013603241418167 
825	 1.29760211881721E-02 
826	 1.23042857864618E-02 
827	 1.16353557152383E-02 
828	 1.10482323377774E-02 
829	 1.04745941019559E-02 
830	 9.99567697167115E-03 
831	 9.58489441943774E-03 
832	 9.17405266557097E-03 
833	 9.00808894897107E-03 
834	 8.89721396536336E-03 
835	 8.7087050872758E-03 
836	 8.4609503050321E-03 
837	 8.48313526891826E-03 
838	 8.5714157489523E-03 
839	 8.48752836453489E-03 
840	 8.19584143766672E-03 
841	 8.03278203734787E-03 
842	 8.10274615808909E-03 
843	 8.30621206827778E-03 
844	 8.13604711701779E-03 
845	 8.04210104708303E-03 
846	 8.0441734626824E-03 
847	 7.88201989766162E-03 
848	 7.84607991160582E-03 
849	 7.84623452674946E-03 
850	 7.81855060648692E-03 
851	 7.78693971034036E-03 
852	 7.69028067685319E-03 
853	 7.60047969940309E-03 
854	 7.58294824914123E-03 
855	 7.62202470660635E-03 
856	 7.69475852812458E-03 
857	 7.6249590744949E-03 
858	 7.34216759733717E-03 
859	 7.25616884105573E-03 
860	 7.29486430970906E-03 
861	 7.34285103430989E-03 
862	 7.29410658575521E-03 
863	 7.26137509945152E-03 
864	 7.22877001774482E-03 
865	 7.19304996493718E-03 
866	 7.16719321837752E-03 
867	 7.14490228053542E-03 
868	 7.07000153057954E-03 
869	 7.01812420316727E-03 
870	 7.22181851000198E-03 
871	 7.24077302500128E-03 
872	 7.07942863828679E-03 
873	 6.87825212046896E-03 
874	 6.83461256556585E-03 
875	 6.85831923823613E-03 
876	 6.77116017852838E-03 
877	 6.52141559973109E-03 
878	 6.5984577871485E-03 
879	 6.60010974689394E-03 
880	 6.55700773545711E-03 
881	 6.62927880684434E-03 
882	 6.41916096869775E-03 
883	 6.33610733526354E-03 
884	 6.45906948577695E-03 
885	 6.55489690058664E-03 
886	 6.32075066641911E-03 
887	 6.20804587814773E-03 
888	 6.30079516985496E-03 
889	 6.19866311167703E-03 
890	 6.23697493212588E-03 
891	 6.25598343509413E-03 
892	 6.12625405441103E-03 
893	 5.9394031563637E-03 
894	 5.95716037502484E-03 
895	 6.17382486764884E-03 
896	 6.38698406833286E-03 
897	 6.13974403683596E-03 
898	 6.02287760642806E-03 
899	 5.87291413184546E-03 
900	 5.57629414424739E-03 
901	 6.1835052261316E-03 
902	 6.21097967151497E-03 
903	 0.005884978069532 
904	 5.93653910912872E-03 
905	 6.02778795904013E-03 
906	 6.03787093348376E-03 
907	 5.93040869153187E-03 
908	 5.73239356625658E-03 
909	 5.33870842560488E-03 
910	 5.19466952227523E-03 
911	 5.47455405677603E-03 
912	 5.93558570534468E-03 
913	 5.42944206328888E-03 
914	 5.21016954063174E-03 
915	 5.60838440021379E-03 
916	 5.6008209073163E-03 
917	 5.49194299162594E-03 
918	 5.21413805019716E-03 
919	 4.95393313949619E-03 
920	 5.23518806664457E-03 
921	 5.52386219232271E-03 
922	 5.66311302491422E-03 
923	 5.56704350001677E-03 
924	 5.13700679434236E-03 
925	 4.34903224148593E-03 
926	 4.2119556581548E-03 
927	 5.31013639883551E-03 
928	 5.28521834541903E-03 
929	 4.8082811300202E-03 
930	 4.31592738074956E-03 
931	 4.17615634899214E-03 
932	 3.53699041456117E-03 
933	 4.92717360766086E-03 
934	 6.88824815255548E-03 
935	 6.53128158924524E-03 
936	 6.56752437943114E-03 
937	 5.57548567110488E-03 
938	 4.82894824515639E-03 
939	 5.68101863711796E-03 
940	 7.29407280713086E-03 
941	 6.09145275109293E-03 
942	 4.31267965925574E-03 
943	 6.04233113714824E-03 
944	 6.53484383380046E-03 
945	 8.84040874974812E-03 
946	 1.00445200637802E-02 
947	 5.98306255395362E-03 
948	 6.67872599193155E-03 
949	 6.38631803948004E-03 
950	 5.39802140147316E-03 
951	 7.00054309454708E-03 
952	 4.81127693744276E-03 
953	 4.85629855557506E-03 
954	 7.17729330158027E-03 
955	 7.43829046283863E-03 
956	 5.09061762570519E-03 
957	 5.24351906916951E-03 
958	 6.71154182087785E-03 
959	 4.77914901065041E-03 
960	 3.71075788247877E-03 
961	 4.53483380550331E-03 
962	 5.82617296632566E-03 
963	 5.19499410770566E-03 
964	 3.14140343564604E-03 
965	 3.01668719656727E-03 
966	 4.3547843860974E-03 
967	 4.21339957286187E-03 
968	 2.93351522108602E-03 
969	 3.25982487120551E-03 
970	 4.50672771905001E-03 
971	 3.66556499956064E-03 
972	 5.5518292608372E-03 
973	 5.04045339440416E-03 
974	 2.71929933593106E-03 
975	 4.70083552481428E-03 
976	 5.8667578615859E-03 
977	 4.96946379832959E-03 
978	 3.69883692390199E-03 
979	 4.8952609041726E-03 
980	 3.9545536521215E-03 
981	 4.47452124094177E-03 
982	 5.85486952005962E-03 
983	 4.49605439455275E-03 
984	 5.49734877219263E-03 
985	 6.02484474240369E-03 
986	 5.23554597241375E-03 
987	 4.62766223038153E-03 
988	 6.03174485853441E-03 
989	 5.43489241095684E-03 
990	 3.60214391653779E-03 
991	 4.47558709506134E-03 
992	 4.79503263692002E-03 
993	 5.37976801787417E-03 
994	 5.56713820464328E-03 
995	 4.23076407754548E-03 
996	 4.89728446822542E-03 
997	 5.20543877723257E-03 
998	 4.86468319653607E-03 
999	 4.85936062889467E-03 
1000	 3.6838678000331E-03 
1001	 3.37765409720776E-03 
1002	 3.51638428988858E-03 
1003	 3.63653369004844E-03 
1004	 3.85677498349712E-03 
1005	 3.9595209505569E-03 
1006	 4.04751175939312E-03 
1007	 4.09394300706142E-03 
1008	 4.05407653495747E-03 
1009	 3.95394837233833E-03 
1010	 0.00424901378486 
1011	 4.3797258213184E-03 
1012	 4.23336158332432E-03 
1013	 4.30133603121253E-03 
1014	 4.28752593824911E-03 
1015	 3.95804910148785E-03 
1016	 4.02748004086004E-03 
1017	 4.55782279418066E-03 
1018	 4.59956094606613E-03 
1019	 4.47684512610396E-03 
1020	 4.45910432651168E-03 
1021	 4.28188457761301E-03 
1022	 4.08254432136126E-03 
1023	 4.12678624293494E-03 
1024	 4.30486646708532E-03 
1025	 4.18894669446397E-03 
1026	 4.11818247659324E-03 
1027	 4.21875885320212E-03 
1028	 4.41630118247959E-03 
1029	 4.51549225100748E-03 
1030	 4.81090371855619E-03 
1031	 4.82583159675758E-03 
1032	 4.53668855931965E-03 
1033	 4.47409438721791E-03 
1034	 4.44484970915267E-03 
1035	 4.40904244212467E-03 
1036	 4.42238209287617E-03 
1037	 4.46767714328572E-03 
1038	 4.56288305211471E-03 
1039	 4.51717465889707E-03 
1040	 4.63560862558164E-03 
1041	 4.79990921306401E-03 
1042	 4.81563212495294E-03 
1043	 4.76665634636596E-03 
1044	 4.71102545512533E-03 
1045	 4.55425467470136E-03 
1046	 4.46071271775408E-03 
1047	 4.35251378624279E-03 
1048	 4.29511849749998E-03 
1049	 4.32177272690509E-03 
1050	 4.26626559856174E-03 
1051	 4.10109963837777E-03 
1052	 4.10401668109703E-03 
1053	 4.16584812116388E-03 
1054	 4.19395993212999E-03 
1055	 4.38193851876476E-03 
1056	 4.50092355033634E-03 
1057	 4.5757963916472E-03 
1058	 4.51089118069609E-03 
1059	 4.61984897617587E-03 
1060	 4.88349063477155E-03 
1061	 4.88172277420799E-03 
1062	 4.7757515664823E-03 
1063	 4.76673373600489E-03 
1064	 4.62792630620887E-03 
1065	 4.56448796355208E-03 
1066	 4.67927645792531E-03 
1067	 4.6691921075366E-03 
1068	 4.54475502182095E-03 
1069	 4.44677102435049E-03 
1070	 4.33608044246497E-03 
1071	 4.25153928998495E-03 
1072	 4.09547380904803E-03 
1073	 4.01901797415408E-03 
1074	 4.09862356656717E-03 
1075	 4.2723216433612E-03 
1076	 4.49613562773687E-03 
1077	 5.02561111709232E-03 
1078	 5.12103141129016E-03 
1079	 5.05630146105393E-03 
1080	 4.98293905665799E-03 
1081	 4.62668496558518E-03 
1082	 4.46230869665851E-03 
1083	 4.34562339624032E-03 
1084	 4.31271971713405E-03 
1085	 4.35306550362599E-03 
1086	 4.38353723214354E-03 
1087	 4.53917201493467E-03 
1088	 4.60503721326394E-03 
1089	 4.59358077041584E-03 
1090	 4.60598445078859E-03 
1091	 4.66089571411158E-03 
1092	 4.80602912017532E-03 
1093	 4.72403220703022E-03 
1094	 4.51987888171129E-03 
1095	 4.45324729870543E-03 
1096	 4.18135716713626E-03 
1097	 4.15079077563849E-03 
1098	 4.57038066720585E-03 
1099	 4.57808149915057E-03 
1100	 4.24509677671032E-03 
1101	 4.2668964307484E-03 
1102	 4.43928309157992E-03 
1103	 4.33611078638681E-03 
1104	 4.22787541944304E-03 
1105	 4.30392876761203E-03 
1106	 0.003835681790292 
1107	 3.56677745759807E-03 
1108	 3.8647160891451E-03 
1109	 4.02042864565076E-03 
1110	 4.11289840130397E-03 
1111	 4.23057740430485E-03 
1112	 4.4834596384808E-03 
1113	 4.75991748041163E-03 
1114	 4.9319100474787E-03 
1115	 5.35571495936125E-03 
1116	 5.42151888225484E-03 
1117	 4.55353931256412E-03 
1118	 4.67844331248909E-03 
1119	 5.47167012721182E-03 
1120	 6.11382855932133E-03 
1121	 7.80350487703976E-03 
1122	 1.00564782084383E-02 
1123	 8.22239772322559E-03 
1124	 6.27483408480085E-03 
1125	 7.8027911154049E-03 
1126	 6.24700259134578E-03 
1127	 3.57123164160707E-03 
1128	 5.5029065038367E-03 
1129	 5.43334818232433E-03 
1130	 2.00793482412172E-03 
1131	 2.18919183298974E-03 
1132	 6.17456012634576E-03 
1133	 6.02136712105134E-03 
1134	 4.03773902081566E-03 
1135	 4.06422343487097E-03 
1136	 3.7486142882855E-03 
1137	 3.36854556584893E-03 
1138	 3.22903841738069E-03 
1139	 4.56246475932796E-03 
1140	 5.26799181804574E-03 
1141	 5.06505664163406E-03 
1142	 6.58191917365951E-03 
1143	 8.01990087889549E-03 
1144	 7.16552022547093E-03 
1145	 6.01640056547782E-03 
1146	 4.28876338692774E-03 
1147	 2.6225458590877E-03 
1148	 3.94060927229886E-03 
1149	 4.78133968853999E-03 
1150	 4.82331555119718E-03 
1151	 4.82540117220559E-03 
1152	 5.25180984702444E-03 
1153	 5.61824533152595E-03 
1154	 0.005334850739423 
1155	 5.40822041150824E-03 
1156	 4.55636612856393E-03 
1157	 3.67713819299444E-03 
1158	 0.003336507006751 
1159	 3.43081970684769E-03 
1160	 3.82480066271439E-03 
1161	 3.91361453611569E-03 
1162	 3.53335219323395E-03 
1163	 3.56445274008395E-03 
1164	 3.98500922966346E-03 
1165	 4.11819169185223E-03 
1166	 3.93576874275151E-03 
1167	 3.55475321144772E-03 
1168	 3.27100890440811E-03 
1169	 0.003204859054423 
1170	 3.15257621002666E-03 
1171	 3.17638197372851E-03 
1172	 3.38026410974132E-03 
1173	 3.43669802413175E-03 
1174	 3.36765570714405E-03 
1175	 3.50197094885836E-03 
1176	 3.66896987375168E-03 
1177	 3.5697204459395E-03 
1178	 3.60516675925171E-03 
1179	 3.71095704627021E-03 
1180	 3.68821867836862E-03 
1181	 3.63413460413327E-03 
1182	 3.44601189385863E-03 
1183	 3.42768009920487E-03 
1184	 3.53405001814096E-03 
1185	 3.46300591187905E-03 
1186	 3.46316904992932E-03 
1187	 3.41380617385779E-03 
1188	 3.24530830890624E-03 
1189	 3.42683414308203E-03 
1190	 3.65185515290553E-03 
1191	 3.5336872154726E-03 
1192	 3.49128609728215E-03 
1193	 3.46465309376442E-03 
1194	 3.34731066468331E-03 
1195	 3.16093804455894E-03 
1196	 3.38420164680552E-03 
1197	 3.77215476356923E-03 
1198	 3.81495018713872E-03 
1199	 3.68011546888687E-03 
1200	 3.60619774620834E-03 
1201	 3.4696091816955E-03 
1202	 3.38119226690124E-03 
1203	 3.4579665965845E-03 
1204	 3.48103541310878E-03 
1205	 3.36085890263805E-03 
1206	 3.32157749956461E-03 
1207	 3.51677744238562E-03 
1208	 3.62485389523898E-03 
1209	 3.5026190704705E-03 
1210	 3.41382401080536E-03 
1211	 3.33204541868427E-03 
1212	 3.41780743788062E-03 
1213	 3.59332289951238E-03 
1214	 3.61160416027848E-03 
1215	 3.56648779254449E-03 
1216	 3.58346195601201E-03 
1217	 3.48646886490975E-03 
1218	 3.31179813045901E-03 
1219	 3.40991302073993E-03 
1220	 3.40053058499603E-03 
1221	 3.2778209646254E-03 
1222	 3.38513590031166E-03 
1223	 3.45192093612566E-03 
1224	 3.40215026989914E-03 
1225	 3.51352180302167E-03 
1226	 3.57464494292661E-03 
1227	 3.45885879292585E-03 
1228	 3.53602070986942E-03 
1229	 3.54240059405063E-03 
1230	 3.31918126858365E-03 
1231	 3.37394528330731E-03 
1232	 3.59187317641248E-03 
1233	 3.65354791926236E-03 
1234	 3.53267936618947E-03 
1235	 3.50187940451151E-03 
1236	 3.40777853218591E-03 
1237	 3.3672277959299E-03 
1238	 3.32081585775156E-03 
1239	 3.44169632488781E-03 
1240	 3.48772731620473E-03 
1241	 3.30078135078202E-03 
1242	 3.3223535775247E-03 
1243	 3.46233411437311E-03 
1244	 3.40968300649509E-03 
1245	 3.33071400367055E-03 
1246	 3.33401738609847E-03 
1247	 3.26935316405225E-03 
1248	 3.18034745255247E-03 
1249	 3.30032478711326E-03 
1250	 3.41055906021362E-03 
1251	 3.32427806776448E-03 
1252	 3.3978227136047E-03 
1253	 3.48098161105268E-03 
1254	 3.30395075187284E-03 
1255	 3.29242251956124E-03 
1256	 3.31668725005056E-03 
1257	 3.43954193871192E-03 
1258	 3.49690128883639E-03 
1259	 3.62286728575349E-03 
1260	 3.63453458389979E-03 
1261	 3.58903083785267E-03 
1262	 3.5752805409352E-03 
1263	 3.51293731462817E-03 
1264	 3.4304993732398E-03 
1265	 3.39949944744198E-03 
1266	 3.42721261842492E-03 
1267	 3.61563079108282E-03 
1268	 3.72256056591374E-03 
1269	 3.58275287777149E-03 
1270	 3.55546434370561E-03 
1271	 3.59357817142753E-03 
1272	 3.3725130045012E-03 
1273	 3.2156171523605E-03 
1274	 3.37085365443625E-03 
1275	 3.48171914411097E-03 
1276	 3.5223589948362E-03 
1277	 3.63892314770596E-03 
1278	 3.52700522771327E-03 
1279	 3.45246707217054E-03 
1280	 3.46396324960796E-03 
1281	 3.39076204241769E-03 
1282	 3.39510463556612E-03 
1283	 3.44094846856689E-03 
1284	 3.35596359014198E-03 
1285	 3.28924448487291E-03 
1286	 3.38817060606492E-03 
1287	 3.46706790298463E-03 
1288	 3.43192066952096E-03 
1289	 3.41742379124297E-03 
1290	 3.58730546163707E-03 
1291	 3.48364089011589E-03 
1292	 3.04795585976148E-03 
1293	 2.99601416580854E-03 
1294	 3.51692493713493E-03 
1295	 3.86688855082588E-03 
1296	 3.73017761731416E-03 
1297	 3.69732239970767E-03 
1298	 3.62681935776998E-03 
1299	 3.21877262230384E-03 
1300	 3.12398693042702E-03 
1301	 3.52836474226592E-03 
1302	 3.71366936692441E-03 
1303	 3.48697835152379E-03 
1304	 3.36385351362771E-03 
1305	 3.50469136450494E-03 
1306	 3.55338643078083E-03 
1307	 3.33858353458446E-03 
1308	 3.27192728552769E-03 
1309	 3.38504326130086E-03 
1310	 3.45073875268872E-03 
1311	 3.52354016177016E-03 
1312	 3.49400646762417E-03 
1313	 3.39558303188478E-03 
1314	 3.44681592383632E-03 
1315	 3.53218924983882E-03 
1316	 3.5324100284302E-03 
1317	 3.53881887040651E-03 
1318	 3.67795365692298E-03 
1319	 3.82403591995653E-03 
1320	 3.7912899820192E-03 
1321	 3.69127297008447E-03 
1322	 4.04549948938197E-03 
1323	 4.09079383933161E-03 
1324	 3.73384980891905E-03 
1325	 3.61198054975464E-03 
1326	 3.8787753298008E-03 
1327	 4.09081343148273E-03 
1328	 3.88516204401248E-03 
1329	 3.77989226641925E-03 
1330	 4.02695067336389E-03 
1331	 3.40501312814321E-03 
1332	 2.74322954758595E-03 
1333	 3.14438541484878E-03 
1334	 3.07916577955117E-03 
1335	 2.84993161869795E-03 
1336	 2.96269305222924E-03 
1337	 3.45338777198579E-03 
1338	 3.86407029928695E-03 
1339	 3.57366121363741E-03 
1340	 3.68537513502458E-03 
1341	 3.97179060813421E-03 
1342	 2.6295106987677E-03 
1343	 2.27667744931263E-03 
1344	 4.03222443484586E-03 
1345	 5.30718714860224E-03 
1346	 6.81182807684824E-03 
1347	 7.01671850152653E-03 
1348	 6.22232721518364E-03 
1349	 6.75806783269128E-03 
1350	 3.31041810631696E-03 
1351	 1.72157958884866E-03 
1352	 1.26442658223845E-02 
1353	 1.76446159277365E-02 
1354	 3.27350021830389E-03 
1355	 4.13443881086346E-04 
1356	 1.96542353337986E-02 
1357	 3.33896351550408E-02 
1358	 7.06444686912608E-02 
1359	 0.100151770638691 
1360	 7.03223062856562E-02 
1361	 4.92579905794032E-02 
1362	 6.72514640140505E-02 
1363	 9.87915528225311E-02 
1364	 0.17429400574285 
1365	 0.202143782441632 
1366	 0.125150517910845 
1367	 0.117224369534835 
1368	 0.117926152810577 
1369	 0.106888114495335 
1370	 0.14914077926611 
1371	 0.274754740703124 
1372	 0.327528869507512 
1373	 0.461439879090075 
1374	 0.425235900902093 
1375	 0.106365045098119 
1376	 0.162881103696757 
1377	 0.602649342225059 
1378	 0.596534003613504 
1379	 0.564054125500146 
1380	 0.591472399500331 
1381	 0.133391721145055 
1382	 4.13019817190009E-02 
1383	 0.52598272212419 
1384	 0.689415007318768 
1385	 0.350298140933074 
1386	 0.403876727898316 
1387	 0.67357699044932 
1388	 0.700933993275838 
1389	 1.108726447836 
1390	 1.22788349770071 
1391	 0.59622713047159 
1392	 0.153492817378283 
1393	 0.354259091590168 
1394	 0.4657891793994 
1395	 0.422815775043219 
1396	 0.567316061034321 
1397	 0.659699794691334 
1398	 0.330950584247622 
1399	 0.246763917933577 
1400	 0.442771675559654 
1401	 0.379122689033177 
1402	 0.203348028613709 
1403	 0.253992314199278 
1404	 0.267428388194026 
1405	 0.18258834862378 
1406	-4.92625129891797E-02 
1407	-1.43413741291865E-03 
1408	 0.147202367219152 
1409	 0.167846808944539 
1410	 0.24628746688166 
1411	 0.220771937859157 
1412	 8.83307494446858E-02 
1413	 7.57948631978776E-02 
1414	 0.116702457266507 
1415	 0.104956216155265 
1416	 0.101895007966256 
1417	 9.74218756888867E-02 
1418	 5.60762969270662E-02 
1419	 5.05004919445602E-02 
1420	 9.08436462044211E-02 
1421	 7.35297305237694E-02 
1422	 2.67688603402056E-02 
1423	 0.024728860379823 
1424	 0.0309711790174 
1425	 2.56848864702563E-02 
1426	 2.78477612725543E-02 
1427	 2.98014726371137E-02 
1428	 2.86348793278175E-02 
1429	 1.99560487268937E-02 
1430	 2.93322230102501E-03 
1431	 2.48752297630185E-03 
1432	 7.74014654584179E-03 
1433	 5.38747277169564E-03 
1434	 9.00069810358008E-03 
1435	 1.38305058552133E-02 
1436	 1.13552291565018E-02 
1437	 1.24136862722423E-02 
1438	 4.08242154224024E-03 
1439	 3.53201207697544E-03 
1440	 1.20591759983142E-02 
1441	 5.95032327847293E-03 
1442	 2.1188429518301E-03 
1443	 7.39008951882941E-03 
1444	 9.89697024835723E-03 
1445	 1.06895999301054E-02 
1446	 9.15857720776036E-03 
1447	 7.68021899523638E-03 
1448	 7.17986986079265E-03 
1449	 3.24894297531389E-03 
1450	 2.39912294197498E-03 
1451	 6.31682083267696E-03 
1452	 6.66727965408105E-03 
1453	 4.90581165258011E-03 
1454	 4.29393786043203E-03 
1455	 4.30533329379881E-03 
1456	 4.60579808884998E-03 
1457	 4.92997518621245E-03 
1458	 4.48071246165019E-03 
1459	 4.11418771322786E-03 
1460	 4.52499182902737E-03 
1461	 4.65286428814306E-03 
1462	 4.16388468720939E-03 
1463	 4.24668843507708E-03 
1464	 4.40440508543486E-03 
1465	 3.14746025620564E-03 
1466	 3.07504610963937E-03 
1467	 4.93797978712382E-03 
1468	 5.72826657099486E-03 
1469	 6.36994759594488E-03 
1470	 5.75514835585149E-03 
1471	 3.33773996710885E-03 
1472	 3.79655052887197E-03 
1473	 5.30805974619018E-03 
1474	 5.16631629520784E-03 
1475	 6.31252608623941E-03 
1476	 6.41975226788064E-03 
1477	 0.00427371551316 
1478	 3.54446055867093E-03 
1479	 3.48036248515949E-03 
1480	 3.79421392435211E-03 
1481	 4.75398891147732E-03 
1482	 4.7853975510591E-03 
1483	 4.7024269160879E-03 
1484	 4.69182053381979E-03 
1485	 4.3814698029999E-03 
1486	 3.94380316427823E-03 
1487	 3.54733845016465E-03 
1488	 3.43989535196656E-03 
1489	 3.23089059903576E-03 
1490	 3.05270847262247E-03 
1491	 3.14529136605155E-03 
1492	 3.13888242448523E-03 
1493	 3.00747375068674E-03 
1494	 2.82208933356486E-03 
1495	 2.57830490454917E-03 
1496	 2.58693004746238E-03 
1497	 2.57151223519343E-03 
1498	 2.61669396587488E-03 
1499	 3.00462726890554E-03 
1500	 3.08213266841952E-03 
1501	 2.96639937792183E-03 
1502	 2.90510628316663E-03 
1503	 2.69949695093472E-03 
1504	 2.6260791425969E-03 
1505	 2.57805978803798E-03 
1506	 2.65121702485726E-03 
1507	 3.03200212938402E-03 
1508	 3.06239569639245E-03 
1509	 2.85331280784153E-03 
1510	 2.96340621967891E-03 
1511	 0.002918054685815 
1512	 2.61881142046946E-03 
1513	 2.55391537955242E-03 
1514	 2.70116193112661E-03 
1515	 2.75587051396652E-03 
1516	 2.87063618179753E-03 
1517	 3.06888655381643E-03 
1518	 3.05342994184431E-03 
1519	 2.95656715190908E-03 
1520	 2.86010575544054E-03 
1521	 2.6615380635821E-03 
1522	 2.60235605351012E-03 
1523	 2.87519889753983E-03 
1524	 2.97716942666767E-03 
1525	 0.002852055797881 
1526	 2.90944578659326E-03 
1527	 2.80447238341928E-03 
1528	 0.002625157258994 
1529	 2.85048825000375E-03 
1530	 3.09359101396317E-03 
1531	 2.93427958982158E-03 
1532	 2.75348199285902E-03 
1533	 2.79764008607035E-03 
1534	 2.68942075499177E-03 
1535	 2.62221333451832E-03 
1536	 2.82724203702031E-03 
1537	 2.80617979552759E-03 
1538	 2.7949142869865E-03 
1539	 3.00666832612577E-03 
1540	 2.92469713289518E-03 
1541	 2.79664619909379E-03 
1542	 2.86357326887479E-03 
1543	 2.83516240607613E-03 
1544	 2.79965299522507E-03 
1545	 2.86547569767296E-03 
1546	 2.82145901336705E-03 
1547	 2.72078802313039E-03 
1548	 2.72315949336227E-03 
1549	 2.6365119683988E-03 
1550	 2.58677783440277E-03 
1551	 2.6559785276015E-03 
1552	 2.50371675622684E-03 
1553	 2.34259652257329E-03 
1554	 2.51692078481407E-03 
1555	 0.002697552912743 
1556	 2.70215917454044E-03 
1557	 2.75665190128787E-03 
1558	 2.8143683995903E-03 
1559	 2.72912897799601E-03 
1560	 2.65537008417871E-03 
1561	 2.79313936150943E-03 
1562	 2.80815465356077E-03 
1563	 2.58079035008458E-03 
1564	 2.62864325058461E-03 
1565	 2.76216254086711E-03 
1566	 2.65528350145473E-03 
1567	 2.65948285833658E-03 
1568	 2.79271728854413E-03 
1569	 2.79645707778034E-03 
1570	 2.75773799429132E-03 
1571	 2.79359976975252E-03 
1572	 2.73958933640451E-03 
1573	 2.69960970807067E-03 
1574	 2.83240716895874E-03 
1575	 2.84130097205829E-03 
1576	 2.81084036774172E-03 
1577	 2.77988035206393E-03 
1578	 2.54710638737414E-03 
1579	 2.57839951067332E-03 
1580	 2.8553136287406E-03 
1581	 2.88500945753214E-03 
1582	 2.9735107641818E-03 
1583	 3.12671699514589E-03 
1584	 2.92324547864154E-03 
1585	 2.59480753084449E-03 
1586	 2.55647920357569E-03 
1587	 2.81596964059414E-03 
1588	 2.94795372177428E-03 
1589	 2.97394112674892E-03 
1590	 3.18977449033136E-03 
1591	 3.03513384864083E-03 
1592	 2.65431878954638E-03 
1593	 2.69625477825008E-03 
1594	 2.70933820565042E-03 
1595	 2.62842473506509E-03 
1596	 2.67769563679159E-03 
1597	 2.7958381597621E-03 
1598	 3.06387378572411E-03 
1599	 3.04260017195686E-03 
1600	 2.76328651616653E-03 
1601	 2.89801292302988E-03 
1602	 3.01984361336894E-03 
1603	 2.94255971921907E-03 
1604	 3.09439326898839E-03 
1605	 3.13441032644051E-03 
1606	 2.97065967990243E-03 
1607	 2.84944751616438E-03 
1608	 2.92069895773085E-03 
1609	 3.01442680324295E-03 
1610	 2.84782871529534E-03 
1611	 2.76093208740051E-03 
1612	 2.90462408230225E-03 
1613	 2.91275897936033E-03 
1614	 2.79731371843563E-03 
1615	 2.84163949765993E-03 
1616	 2.82984059281017E-03 
1617	 2.68023116031244E-03 
1618	 2.69435971965158E-03 
1619	 2.84762896559068E-03 
1620	 2.92545547716526E-03 
1621	 2.84940080697233E-03 
1622	 2.63898633174311E-03 
1623	 2.4112690211987E-03 
1624	 2.48130858130974E-03 
1625	 2.70726547438881E-03 
1626	 2.87314437192809E-03 
1627	 3.06248269545553E-03 
1628	 2.94075106006242E-03 
1629	 2.78538683504532E-03 
1630	 2.95360254834738E-03 
1631	 2.95400149729573E-03 
1632	 2.89275983494435E-03 
1633	 2.84723750438161E-03 
1634	 2.77175655612832E-03 
1635	 2.83675544053383E-03 
1636	 2.76520772236709E-03 
1637	 2.81253500374896E-03 
1638	 2.82329710284751E-03 
1639	 2.58189078029151E-03 
1640	 2.72333927844356E-03 
1641	 2.97061528332156E-03 
1642	 2.80342181262659E-03 
1643	 2.59049302688591E-03 
1644	 2.65865525461315E-03 
1645	 2.62791846187161E-03 
1646	 2.6066495464518E-03 
1647	 2.84076862654811E-03 
1648	 2.91554994151652E-03 
1649	 2.82998941472218E-03 
1650	 2.71675578686141E-03 
1651	 2.61115875593613E-03 
1652	 2.62769900853801E-03 
1653	 2.6965759246022E-03 
1654	 2.65238846693038E-03 
1655	 2.75135053000013E-03 
1656	 2.78115268526753E-03 
1657	 2.56071783547726E-03 
1658	 2.51585323293539E-03 
1659	 2.65444897806611E-03 
1660	 2.73078813835112E-03 
1661	 2.64209339772181E-03 
1662	 2.59516850037671E-03 
1663	 2.90921254683971E-03 
1664	 2.90313146637731E-03 
1665	 2.40952432737597E-03 
1666	 2.58544805006997E-03 
1667	 3.07632935941848E-03 
1668	 2.90562424144213E-03 
1669	 3.05118356119051E-03 
1670	 2.71483145164348E-03 
1671	 2.39691046049986E-03 
1672	 2.73311287695738E-03 
1673	 0.002991348050941 
1674	 2.86340204273313E-03 
1675	 2.80262382153917E-03 
1676	 2.81364056031467E-03 
1677	 2.88195121726564E-03 
1678	 3.05273475602441E-03 
1679	 3.19187293224281E-03 
1680	 3.1544928115179E-03 
1681	 2.90229150341066E-03 
1682	 2.83961540593084E-03 
1683	 2.90209622747643E-03 
1684	 2.8878862249401E-03 
1685	 2.87132809748426E-03 
1686	 2.61562193991375E-03 
1687	 2.55089282744001E-03 
1688	 2.88525046478444E-03 
1689	 2.67898061948922E-03 
1690	 2.49726390400289E-03 
1691	 2.93564884997653E-03 
1692	 2.62120613400507E-03 
1693	 2.25657727108367E-03 
1694	 2.96846130371708E-03 
1695	 3.04170222745168E-03 
1696	 2.36207181947043E-03 
1697	 2.38407785372469E-03 
1698	 2.7297851229309E-03 
1699	 2.69949374581659E-03 
1700	 2.58721289965845E-03 
1701	 2.81190667024809E-03 
1702	 2.80871606864894E-03 
1703	 0.0025377640551 
1704	 2.91648242120165E-03 
1705	 0.003230382702057 
1706	 2.94426595389516E-03 
1707	 2.79487690204248E-03 
1708	 2.82013129373877E-03 
1709	 2.89824138436082E-03 
1710	 2.75764203938708E-03 
1711	 2.69994501131112E-03 
1712	 2.99832381564194E-03 
1713	 2.93486863799951E-03 
1714	 2.85592450987815E-03 
1715	 2.48285583347556E-03 
1716	 2.35156191106927E-03 
1717	 2.69813050830623E-03 
1718	 2.87807782938379E-03 
1719	 2.73689595922232E-03 
1720	 2.95402372755726E-03 
1721	 3.17066575744161E-03 
1722	 3.10976414177545E-03 
1723	 3.18806231625937E-03 
1724	 3.04627614728167E-03 
1725	 2.69011459020725E-03 
1726	 2.57630281042124E-03 
1727	 2.63990647014057E-03 
1728	 2.85908214620999E-03 
1729	 2.98867455269899E-03 
1730	 2.57783847104625E-03 
1731	 2.35971853234725E-03 
1732	 2.44187524735102E-03 
1733	 2.20278202711446E-03 
1734	 2.50271273215143E-03 
1735	 3.16452552081994E-03 
1736	 3.13107621756987E-03 
1737	 2.82788895347535E-03 
1738	 2.74449098813922E-03 
1739	 2.56795547203375E-03 
1740	 2.56688333153394E-03 
1741	 2.90651416550159E-03 
1742	 2.68139578264006E-03 
1743	 2.30139540629876E-03 
1744	 2.39907076704086E-03 
1745	 2.32764311627952E-03 
1746	 2.57764614772391E-03 
1747	 2.74340088733121E-03 
1748	 2.50512826165126E-03 
1749	 2.27009009502094E-03 
1750	 2.09106819174996E-03 
1751	 2.22576032876447E-03 
1752	 2.4056632319748E-03 
1753	 2.30464459409474E-03 
1754	 2.47612864358111E-03 
1755	 2.67341265792437E-03 
1756	 2.4176023433168E-03 
1757	 2.16759149121844E-03 
1758	 2.56390111987586E-03 
1759	 2.5142020792267E-03 
1760	 2.0719680613199E-03 
1761	 2.58902127492889E-03 
1762	 2.52433299701911E-03 
1763	 1.6240524483341E-03 
1764	 2.33050717513712E-03 
1765	 3.02443866198562E-03 
1766	 2.50766277828052E-03 
1767	 3.04577157483989E-03 
1768	 3.34209241592043E-03 
1769	 2.68735066648324E-03 
1770	 3.04351507514564E-03 
1771	 3.06263704049434E-03 
1772	 2.69506015259229E-03 
1773	 3.00863448227559E-03 
1774	 3.15396124955026E-03 
1775	 3.6202373847029E-03 
1776	 3.77844682477682E-03 
1777	 3.90314837600028E-03 
1778	 4.10577012182277E-03 
1779	 4.25517530622189E-03 
1780	 3.74790682728487E-03 
1781	 2.34064538475192E-03 
1782	 2.00011621129857E-03 
1783	 1.64834294839318E-03 
1784	 2.0273716858345E-03 
1785	 4.45499000147962E-03 
1786	 5.2412390512806E-03 
1787	 5.0198402547051E-03 
1788	 4.48345340971698E-03 
1789	 2.92715367305978E-03 
1790	 1.2271974100803E-03 
1791	 1.89362993781865E-03 
1792	 3.93174113742276E-03 
1793	 2.66028242165713E-03 
1794	 2.3134635844074E-03 
1795	 2.86777997693068E-03 
1796	 5.52371291833068E-04 
1797	 1.98109279805688E-03 
1798	 4.78540546939182E-03 
1799	 4.56426143546553E-03 
1800	 7.09374061203969E-03 
1801	 1.04526490304145E-02 
1802	 2.17572000592301E-02 
1803	 2.26280484287116E-02 
1804	 2.70850333839459E-03 
1805	-1.6535926528715E-03 
1806	-1.00679580024147E-02 
1807	-2.21341852152373E-02 
1808	 1.02678479739562E-02 
1809	 2.20983793028009E-02 
1810	-1.91057441941446E-02 
1811	-2.41137767463596E-02 
1812	 7.74391718042293E-03 
1813	 7.27754111666231E-03 
1814	-4.78399059865096E-04 
1815	 6.0071570780105E-03 
1816	 1.41070439110733E-02 
1817	 9.75276469201421E-03 
1818	 6.64580253334609E-02 
1819	 0.41309974265953 
1820	 0.126585264725803 
1821	-8.19022846709864E-02 
1822	-0.192490448464273 
1823	-0.423420135852864 
1824	-0.452160028259611 
1825	-0.239295732864147 
1826	-0.118277870290525 
1827	 1.22378518598328E-02 
1828	 0.19688386642785 
1829	 0.086532989508961 
1830	 5.76986718533039E-02 
1831	-0.499802660596052 
1832	-0.385224831922283 
1833	 7.57546576687803E-02 
1834	 0.051356675803111 
1835	-0.909217134585271 
1836	-0.78846804755494 
1837	 0.41188521751107 
1838	 0.50876447786221 
1839	 0.710712429944026 
1840	 0.765931277600099 
1841	-1.95995807923104E-02 
1842	-0.630088539171448 
1843	-0.834692006068516 
1844	-0.83415281144856 
1845	-1.25405758961427 
1846	-0.378652095961219 
1847	-0.933614663831607 
1848	 4.20108860182036 
1849	 0.766810217952582 
1850	 0.608777314377286 
1851	 0.744597913014447 
1852	 1.52152218010072 
1853	 6.12695635807647 
1854	-0.591522924500236 
1855	 0.633372929061282 
1856	 0.614433390795445 
1857	 1.22420569827767 
1858	 1.13719695985103 
1859	-4.13724543247397E-02 
1860	-0.222771876729785 
1861	 9.75910260210123 
1862	-1.71973585239156 
1863	 8.1911357978044 
1864	-25.6830366021507 
1865	-5.96700081196051 
1866	 8.06239708336274E-02 
1867	-0.132637945919777 
1868	 0.500704236180889 
1869	 1.97171683185216E-02 
1870	-0.875868426565558 
1871	-2.15529702517008 
1872	-5.25757493091344 
1873	 4.51175285443711 
1874	 2.23876509853821 
1875	-10.0183657704178 
1876	-3.19224548747527 
1877	-1.41594175629684 
1878	-0.990058981631636 
1879	-1.14182869139094 
1880	-1.10946133806552 
1881	-0.954059083558304 
1882	-0.731511156739674 
1883	-0.570928164335965 
1884	-0.399696356625093 
1885	 0.589128756665113 
1886	 1.04951436972428 
1887	 1.31155523799929 
1888	 1.00988464860237 
1889	 1.08437958944668 
1890	 0.704089081755963 
1891	 1.31082016590037 
1892	-0.532476167589879 
1893	-0.575372437394386 
1894	-0.762708454788334 
1895	-1.00791494594543 
1896	-0.304555130570874 
1897	 0.400293151552853 
1898	 0.467043608489909 
1899	 0.230057460008624 
1900	 4.89385903519259E-02 
1901	 4.05440426293347 
1902	 2.6202213050322 
1903	 3.3535819468656 
1904	 1.64911128449326 
1905	 6.39759209502006 
1906	-0.961704904149319 
1907	 0.427244459170936 
1908	-3.3999955077989 
1909	-19.0531575357655 
1910	 1.1718317011583 
1911	 1.46121629866017 
1912	 2.75651491319052 
1913	 2.80329788552057 
1914	 1.01244754432762 
1915	 1.22444862960413 
1916	-1.38362423811746 
1917	-0.382462784202359 
1918	-4.32633664864728 
1919	-3.46378464366003 
1920	-0.575587024662446 
1921	-0.448645369389899 
1922	-0.891270160469032 
1923	-0.68593985742149 
1924	-0.365413321897573 
1925	-0.262511121820255 
1926	-0.276485361111113 
1927	-8.64180180309307E-02 
1928	-5.40642022270555E-02 
1929	-0.800538261496783 
1930	-1.41404134382427 
1931	-1.50396848443307 
1932	-0.950097271512459 
1933	-0.458120336358669 
1934	-0.358388842273553 
1935	-0.172339428974277 
1936	-2.47803624640487E-03 
1937	 3.81426146196496E-02 
1938	 2.09071182144949E-02 
1939	-1.96416642706444E-02 
1940	-0.102212040429226 
1941	-0.150505798958528 
1942	-0.118665182965281 
1943	-4.59374890871922E-02 
1944	 8.64325905500421E-03 
1945	 4.89796670378266E-02 
1946	 6.89747930646796E-02 
1947	 4.38676611461772E-02 
1948	 1.23026109956857E-02 
1949	 1.14748919853441E-02 
1950	 1.41190624156408E-02 
1951	 1.28175883867675E-03 
1952	 3.1816794657459E-03 
1953	 2.21946276586304E-02 
1954	 2.98252253189738E-02 
1955	 1.05231570915352E-02 
1956	 1.74020030170194E-02 
1957	 2.76424829203527E-02 
1958	 0.016924173866995 
1959	 1.12557051786056E-02 
1960	 9.91157175328163E-03 
1961	 4.82279892662552E-03 
1962	 2.7086568718434E-03 
1963	 7.56411943412151E-03 
1964	 0.010736031266007 
1965	 7.45406267835622E-03 
1966	 5.65931477031817E-03 
1967	 3.83653659195327E-03 
1968	 2.8227216918322E-03 
1969	 7.6088343704981E-04 
1970	 8.44112932496871E-04 
1971	 2.84789219404916E-03 
1972	 3.00763975844031E-03 
1973	 2.95486372139663E-03 
1974	 0.003952089680596 
1975	 3.72124688274178E-03 
1976	 3.03476704682165E-03 
1977	 2.52636651442949E-03 
1978	 1.67013797090831E-03 
1979	 1.3645173786842E-03 
1980	 1.08677441199579E-03 
1981	 1.5273585814191E-03 
1982	 1.66399785982961E-03 
1983	 1.80190283872305E-03 
1984	 2.1571105816795E-03 
1985	 1.13399068876456E-03 
1986	 2.05738905697255E-04 
1987	 5.75555021882223E-04 
1988	 4.95100285088566E-04 
1989	 5.10552363854918E-04 
1990	 1.60125049093785E-03 
1991	 1.86634860677748E-03 
1992	 1.82701944050149E-03 
1993	 2.67678761601014E-03 
1994	 2.73875192273524E-03 
1995	 2.12462572093674E-03 
1996	 1.77666208847098E-03 
1997	 2.07272023432445E-03 
1998	 1.51151343601844E-03 
1999	 1.6011191572493E-03 
2000	 1.83249826886622E-03 
2001	 1.32738917291324E-03 
2002	 5.96424692031343E-04 
2003	 1.74700833119682E-03 
2004	 2.95662397443331E-03 
2005	 2.01221722685844E-03 
2006	 3.37505980003012E-03 
2007	 5.12913118847397E-03 
2008	 4.86671638949855E-03 
2009	 4.90668041741715E-03 
2010	 5.64365776729382E-03 
2011	 5.57203476003881E-03 
2012	 4.06959759410773E-03 
2013	 3.88797816947431E-03 
2014	 5.12028898740999E-03 
2015	 4.86960421954329E-03 
2016	 4.01239706527364E-03 
2017	 3.2082623068097E-03 
2018	 2.52966404206812E-03 
2019	 2.27481462957096E-03 
2020	 1.84620471202341E-03 
2021	 7.43156332510704E-04 
2022	-3.04253417554426E-04 
2023	-4.59776402322103E-04 
2024	-3.81757657552598E-04 
2025	 5.55399644945947E-04 
2026	 8.56582328663605E-04 
2027	 1.37957066909581E-03 
2028	 8.81496232649389E-04 
2029	 2.81082515805078E-04 
2030	 4.50220238432513E-04 
2031	 1.14961501003988E-03 
2032	 1.55793309062477E-03 
2033	 2.09260552681346E-03 
2034	 2.14868383287159E-03 
2035	 1.57072156148136E-03 
2036	 1.46670970142447E-03 
2037	 1.2817486384919E-03 
2038	 1.02944949192191E-03 
2039	 1.00206226126717E-03 
2040	 1.20701796013393E-03 
2041	 1.14891640346858E-03 
2042	 9.34428384718388E-04 
2043	 9.7787207359636E-04 
2044	 1.06594960330366E-03 
2045	 1.32050541038739E-03 
2046	 1.04285207246337E-03 
2047	 1.25413476818431E-03 
2048	 8.67186263535984E-04 
2049	 3.73893280215006E-04 
2050	 1.26803292618448E-03 
2051	 1.11624793164413E-03 
2052	 1.05793865588785E-03 
2053	 1.31287109068034E-03 
2054	 1.00831943106923E-03 
2055	 1.09168977307057E-03 
2056	 1.44566448572298E-03 
2057	 2.90631828843578E-03 
2058	 3.07744072816098E-03 
2059	 2.34669134076072E-03 
2060	 2.38072178210538E-03 
2061	 2.67673284057734E-03 
2062	 1.85012483436719E-03 
2063	 9.02417964688135E-04 
2064	 1.19150941656182E-03 
2065	 1.44459588826689E-03 
2066	 7.75924394572515E-04 
2067	 1.5246689363002E-03 
2068	 2.43280476017412E-03 
2069	 1.8812129250756E-03 
2070	 1.36021484364075E-03 
2071	 9.99339055006584E-04 
2072	 5.80616427912432E-04 
2073	 6.81658324612775E-04 
2074	 1.71170113709223E-03 
2075	 1.8169428827633E-03 
2076	 1.68467826652975E-03 
2077	 0.001599699647431 
2078	 7.96700517271587E-04 
2079	 6.53300477786169E-04 
2080	 9.36165201433769E-04 
2081	 1.39905640302441E-03 
2082	 1.45546770499031E-03 
2083	 1.46942764867222E-03 
2084	 1.22292617756827E-03 
2085	 1.0659026643155E-03 
2086	 1.23832837909853E-03 
2087	 1.1734952061997E-03 
2088	 1.87996487728537E-03 
2089	 2.36303225938256E-03 
2090	 1.92039338391503E-03 
2091	 2.2284247639372E-03 
2092	 2.40724505819127E-03 
2093	 2.20685265050922E-03 
2094	 1.95461673407801E-03 
2095	 1.85563762388412E-03 
2096	 2.10526719524219E-03 
2097	 2.6371002014551E-03 
2098	 2.68714002715743E-03 
2099	 2.99364453998937E-03 
2100	 2.64905150915528E-03 
2101	 2.52158509198362E-03 
2102	 2.29562782492372E-03 
2103	 2.15361697683246E-03 
2104	 2.59198119492788E-03 
2105	 2.80709002636631E-03 
2106	 2.06909578520282E-03 
2107	 1.93121344246763E-03 
2108	 2.09405898803016E-03 
2109	 1.73046096043112E-03 
2110	 1.87604356307966E-03 
2111	 2.0403627994732E-03 
2112	 2.04751975064409E-03 
2113	 2.0378740329887E-03 
2114	 1.82242837633576E-03 
2115	 1.48186069949429E-03 
2116	 8.6556007104406E-04 
2117	 1.0033289532518E-03 
2118	 1.60518044919939E-03 
2119	 1.66424549419417E-03 
2120	 2.14055870100406E-03 
2121	 1.95521881898202E-03 
2122	 1.44920575314831E-03 
2123	 1.53695081722689E-03 
2124	 1.95601935267786E-03 
2125	 2.60393519712781E-03 
2126	 2.44416152223899E-03 
2127	 1.63273510867809E-03 
2128	 1.44835853027364E-03 
2129	 1.31291485207464E-03 
2130	 9.18003894033747E-04 
2131	 9.11868437895017E-04 
2132	 1.01958414235979E-03 
2133	 9.35610276455885E-04 
2134	 1.05210480906069E-03 
2135	 1.69256897006905E-03 
2136	 1.87305008386763E-03 
2137	 1.83560208165548E-03 
2138	 1.83619666699148E-03 
2139	 1.89421676434224E-03 
2140	 1.78059767199212E-03 
2141	 1.33279729168898E-03 
2142	 1.23616117574389E-03 
2143	 1.49558118869289E-03 
2144	 8.64657433045367E-04 
2145	 6.89082355883513E-04 
2146	 1.08105689566856E-03 
2147	 4.83255488482289E-04 
2148	 6.35360609841176E-04 
2149	 1.59521183001093E-03 
2150	 1.8007567850607E-03 
2151	 1.22067494567303E-03 
2152	 1.05608764884754E-03 
2153	 1.0009967130552E-03 
2154	 7.49817343876007E-06 
2155	 4.23182771926654E-04 
2156	 1.45882728020098E-03 
2157	 1.73826812041055E-03 
2158	 1.91723307384884E-03 
2159	 1.82914461252946E-03 
2160	 9.68946690222613E-04 
2161	 1.0159548136963E-03 
2162	 1.50335227272224E-03 
2163	 1.74172877256182E-03 
2164	 2.17028535871222E-03 
2165	 2.37841579998053E-03 
2166	 2.4357974892433E-03 
2167	 2.32721522441918E-03 
2168	 2.15984729765988E-03 
2169	 1.93727133353091E-03 
2170	 1.25168846665382E-03 
2171	 1.27476464836101E-03 
2172	 9.68489526617181E-04 
2173	 1.02226659624178E-03 
2174	 1.01784022927757E-03 
2175	 3.02231546126652E-04 
2176	 8.4709264954652E-05 
2177	 3.84377607499384E-04 
2178	 7.438354109326E-04 
2179	 1.45705748159421E-03 
2180	 2.00536754288247E-03 
2181	 1.52600677395639E-03 
2182	 1.66268289105948E-03 
2183	 1.86192594285997E-03 
2184	 9.05371032090764E-04 
2185	 6.20888348922674E-04 
2186	 3.01880741349006E-04 
2187	-3.56442473686385E-04 
2188	-7.6576966670031E-04 
2189	-1.0640639309922E-03 
2190	-5.37160657514188E-04 
2191	 9.73546552016151E-04 
2192	 1.44329633140276E-03 
2193	 2.2919161780626E-03 
2194	 2.51014008243135E-03 
2195	 5.49768390132921E-04 
2196	 5.67441426901241E-04 
2197	 2.72117129633588E-03 
2198	 2.90029672310223E-03 
2199	 2.46419808747159E-03 
2200	 3.12590882050907E-03 
2201	 2.15671754883832E-03 
2202	 1.16926808925691E-04 
2203	 1.97517146202708E-04 
2204	 1.19328853956695E-03 
2205	 1.37136605157388E-03 
2206	 0.001841400387938 
2207	 2.26976606052262E-03 
2208	 2.40813134140678E-03 
2209	 2.94032867932396E-03 
2210	 3.09096627628486E-03 
2211	 3.60701035938068E-03 
2212	 3.53403348437296E-03 
2213	 2.48034727164319E-03 
2214	 2.58615027746403E-03 
2215	 2.22329314097681E-03 
2216	 1.26820245828951E-03 
2217	 1.04254402899666E-03 
2218	 1.63058535268687E-03 
2219	 1.38139452840888E-03 
2220	 2.97843997640851E-04 
2221	 2.10094634919922E-04 
2222	 9.00667481128985E-04 
2223	 8.19600132404277E-04 
2224	 7.16145997262895E-04 
2225	 1.52004025976786E-03 
2226	 2.3976810308787E-03 
2227	 1.77239294268448E-03 
2228	 1.05995814708154E-03 
2229	 1.15381472571887E-03 
2230	 6.54794927398596E-04 
2231	 1.65323850759859E-04 
2232	 4.53321073741965E-04 
2233	 2.52862099052363E-04 
2234	-1.04566264433987E-03 
2235	-1.76423424482714E-03 
2236	-1.91519998777895E-03 
2237	-1.08343739267966E-04 
2238	 9.15200507482577E-04 
2239	-2.5275928365922E-04 
2240	-5.16520445121868E-04 
2241	-3.12465376688189E-04 
2242	 9.73290172174746E-04 
2243	 1.46970456176207E-03 
2244	 8.8078029811506E-04 
2245	 2.02267595420177E-03 
2246	 2.70366430252124E-04 
2247	-1.53075081118509E-03 
2248	-2.26653996200936E-04 
2249	-9.07950955506004E-04 
2250	-9.66427861344106E-04 
2251	-2.19686137787325E-04 
2252	-1.09952606806214E-03 
2253	-1.92319659032624E-03 
2254	-2.72968106985996E-03 
2255	-2.00153213155879E-03 
2256	 8.47929439472849E-04 
2257	 1.99999514691858E-03 
2258	 2.48548474855249E-03 
2259	 4.67052550003751E-03 
2260	 4.47456870985098E-03 
2261	 8.07043090074126E-04 
2262	 6.77726335444085E-04 
2263	 1.24376472319214E-03 
2264	 1.23620908048344E-03 
2265	 3.9027821234975E-03 
2266	 4.5256362691643E-03 
2267	 2.7098838987171E-03 
2268	 2.97911216740882E-03 
2269	 4.17392168309685E-03 
2270	 3.96201178563859E-03 
2271	 3.46772602407019E-03 
2272	 3.13476684645506E-03 
2273	 2.11383926690832E-03 
2274	 1.29326845969681E-03 
2275	 6.54135637545223E-05 
2276	 1.17715245699531E-03 
2277	 4.80843127068818E-03 
2278	 4.76067658281954E-03 
2279	 4.24222944267454E-03 
2280	 4.29686237031662E-03 
2281	 1.06359857601641E-03 
2282	 6.81647172538181E-04 
2283	 4.20009295437778E-03 
2284	 5.99464776996159E-03 
2285	 4.50981712115009E-03 
2286	 4.09877497439705E-04 
2287	-2.28693514225009E-03 
2288	-3.64794725443417E-03 
2289	-2.65387525461947E-03 
2290	-1.35940415272746E-03 
2291	-3.3601365127115E-03 
2292	-5.30326623966796E-03 
2293	-5.94079079647137E-03 
2294	-4.72273910661813E-03 
2295	-2.2605391140252E-03 
2296	-1.78052109521731E-03 
2297	-2.91136602089683E-03 
2298	-3.22698270901496E-03 
2299	-3.3866975212084E-03 
2300	-3.21369936296086E-03 
2301	-5.27273707610707E-04 
2302	 2.79578441736289E-03 
2303	 1.40920077104104E-03 
2304	-1.24712550056407E-03 
2305	 8.35486440566922E-04 
2306	 8.1550433242717E-04 
2307	-5.80864974139561E-04 
2308	 2.66022534915894E-03 
2309	 2.02072030405158E-03 
2310	-3.79695811837007E-03 
2311	-4.77245006200207E-03 
2312	-2.69845624498038E-03 
2313	-4.57792566254708E-03 
2314	-3.31535818283449E-03 
2315	 2.46274159674151E-03 
2316	 2.96731629445043E-03 
2317	 3.02428084213297E-03 
2318	 0.004512439466167 
2319	 2.66625691771536E-03 
2320	 8.02243094680363E-04 
2321	 0.002329864777606 
2322	 7.4590719228112E-03 
2323	 7.98912234624338E-03 
2324	 6.89589940393759E-03 
2325	 7.51581113533028E-03 
2326	 3.92772901430061E-03 
2327	 3.14205390720188E-03 
2328	 1.64613738318467E-03 
2329	-5.0925983445031E-04 
2330	 5.41657638795665E-04 
2331	-1.37764515513232E-03 
2332	-3.80081175584713E-05 
2333	 2.0467691471511E-03 
2334	 2.00535704758657E-03 
2335	 3.25128623999634E-03 
2336	 1.04320586748432E-03 
2337	 2.06458370235793E-05 
2338	 6.82197725441473E-04 
2339	-2.68699513384567E-03 
2340	-7.0546444660405E-03 
2341	-7.02292008477602E-03 
2342	-5.27416183146762E-03 
2343	-4.93958412888031E-03 
2344	-1.32662292134549E-03 
2345	-3.38027142532045E-04 
2346	-2.44271233142952E-03 
2347	-2.8661593068687E-04 
2348	 1.06535819574946E-03 
2349	-6.3883128180841E-04 
2350	-5.92856909467189E-03 
2351	-1.24584779936074E-02 
2352	-0.014649046171907 
2353	-1.01397127697019E-02 
2354	-8.14666854904694E-04 
2355	 8.90651527767904E-03 
2356	 1.69416807865607E-02 
2357	 1.62101481505087E-02 
2358	 8.81668980434506E-03 
2359	 1.14493988839313E-03 
2360	-6.08413564614287E-03 
2361	-5.10290988175676E-03 
2362	-1.79522901780206E-03 
2363	-5.64062183345168E-03 
2364	-5.53068286375905E-03 
2365	-4.5269086235132E-03 
2366	-8.20389673438596E-03 
2367	-9.08235594689524E-03 
2368	-1.06126304630861E-02 
2369	-9.76614915120174E-03 
2370	-5.31722479995577E-03 
2371	-1.02710135948049E-02 
2372	-1.81581124235856E-02 
2373	-2.55100389426187E-02 
2374	-2.27951706294854E-02 
2375	-3.99609407140256E-04 
2376	 1.28913301964587E-02 
2377	 1.83827124833756E-02 
2378	 8.74040012938408E-03 
2379	-1.55300735566652E-02 
2380	-1.90720728478459E-02 
2381	-0.026277024941788 
2382	-4.29391947826085E-02 
2383	-4.71437032957916E-02 
2384	-4.57423148475029E-02 
2385	-3.53544443194073E-02 
2386	-2.75139248034716E-02 
2387	-2.90038503970866E-02 
2388	-1.73476096192915E-02 
2389	-6.69323107986369E-03 
2390	 1.36686780135936E-05 
2391	 1.64075768287147E-02 
2392	 7.36306186032587E-03 
2393	-2.58782799503987E-02 
2394	-3.53719964768009E-02 
2395	-0.058088760714036 
2396	-7.58149472101436E-02 
2397	-0.043573551947829 
2398	-3.05795202571473E-02 
2399	-1.69926831692786E-02 
2400	-2.98559233618945E-03 
2401	-1.96351568450653E-02 
2402	-3.92094355311675E-02 
2403	-4.12708344540076E-02 
2404	-1.20534962573448E-02 
2405	-4.7465341805948E-03 
2406	-1.85258340171776E-03 
2407	 2.54757797488813E-02 
2408	-1.81481765820594E-03 
2409	-1.24683865647614E-02 
2410	 3.94787149591886E-02 
2411	 2.38107970994966E-02 
2412	-1.82855467780319E-02 
2413	 1.19908490269676E-03 
2414	-1.37891068060075E-02 
2415	-3.70581610155091E-02 
2416	-5.12160699631916E-02 
2417	-0.117531643687342 
2418	-0.172618264875084 
2419	-0.171744890861033 
2420	-7.91434331888104E-02 
2421	-3.29222458341754E-02 
2422	-8.92189498558142E-02 
2423	-5.83411679712603E-02 
2424	-3.87428951325253E-02 
2425	-5.24433232197505E-02 
2426	 3.23639160673625E-03 
2427	-3.04952791282533E-02 
2428	-7.61950095376632E-02 
2429	-7.28494432620851E-02 
2430	-0.122681948264671 
2431	-0.151869736290027 
2432	-0.128886758311574 
2433	-8.43251290644715E-02 
2434	-4.14592927378385E-02 
2435	 3.25453022215332E-02 
2436	 4.03134645111757E-02 
2437	-8.44086014673376E-02 
2438	-0.205498492502216 
2439	-0.28070388066085 
2440	-0.237991912013538 
2441	-0.204902016374674 
2442	-1.11005830343271E-02 
2443	 0.170586551069569 
2444	 2.61463165075884E-02 
2445	-6.12447868501939E-02 
2446	-4.72241720156892E-02 
2447	-4.69451347321508E-02 
2448	-4.32630217151732E-03 
2449	 0.286025320599471 
2450	 0.414428363630777 
2451	 0.16105519448529 
2452	 0.160610655488095 
2453	 0.24692944387173 
2454	 5.06403971932091E-02 
2455	-9.6550499894795E-03 
2456	 4.62747206362404E-02 
2457	-5.22392371612998E-02 
2458	 6.21532997958691E-02 
2459	 0.255015454301049 
2460	-0.100305893086708 
2461	-0.27312167930505 
2462	-0.140484863695197 
2463	-1.25374727737152E-02 
2464	 9.25796514850917E-02 
2465	 0.158227782675688 
2466	 0.160860520152852 
2467	 0.145967855182472 
2468	 0.102426012479927 
2469	-8.77234447116104E-02 
2470	-0.20242741664786 
2471	-0.273352754465268 
2472	-0.776476263732126 
2473	 0.528086231522642 
2474	 0.361775625760606 
2475	-0.105712605793912 
2476	-0.285491609390481 
2477	-0.381072834185503 
2478	-0.617625661977131 
2479	 0.593866233320609 
2480	 0.65536966851885 
2481	 0.113132423633323 
2482	-2.54056701975426E-02 
2483	-0.497849306961782 
2484	-0.945481749675878 
2485	 0.144842355782599 
2486	 0.103851386344275 
2487	-0.520367303729738 
2488	-0.304909846973724 
2489	-0.691367227596851 
2490	-0.925780513562887 
2491	-0.495009310471752 
2492	-0.461839364187059 
2493	 0.152604436379501 
2494	-0.212583967030955 
2495	-1.46117429079179 
2496	-5.96105665184189 
2497	-6.64067345568741 
2498	-2.56043454137785 
2499	-4.68552546145101 
2500	-9.23695749535097 
