Wavelength	rt0721algea_nearby_water00008.asd
350	 4.39289449940866E-02 
351	 4.38466466938967E-02 
352	 4.33111566161173E-02 
353	 4.33236585855841E-02 
354	 4.40657081406124E-02 
355	 4.38633184088375E-02 
356	 4.35522141317449E-02 
357	 0.04364805636244 
358	 4.41957307146045E-02 
359	 4.37602607743208E-02 
360	 4.32390851051904E-02 
361	 4.29571301347933E-02 
362	 4.28037462888323E-02 
363	 4.31132835182928E-02 
364	 4.31630780480512E-02 
365	 0.042791732206267 
366	 4.28446914386783E-02 
367	 4.26568934845581E-02 
368	 4.25886172830046E-02 
369	 4.29326083724691E-02 
370	 4.28103545589982E-02 
371	 0.042889918175629 
372	 4.30326990997909E-02 
373	 0.042719128818721 
374	 0.042491647565945 
375	 4.26422975159554E-02 
376	 4.30585186881697E-02 
377	 4.31485033310554E-02 
378	 4.33110164914498E-02 
379	 4.35577274805914E-02 
380	 4.37567480122441E-02 
381	 4.36113815312962E-02 
382	 4.34822785038013E-02 
383	 4.36551806964732E-02 
384	 0.04421101533569 
385	 4.43283674329389E-02 
386	 4.40528084572989E-02 
387	 4.38492045162198E-02 
388	 0.044465363316846 
389	 4.44488697477837E-02 
390	 0.044360732061789 
391	 0.044744181325173 
392	 4.51897948423604E-02 
393	 4.50952409837249E-02 
394	 4.48769779523219E-02 
395	 4.51312360067534E-02 
396	 4.51967898382507E-02 
397	 4.51904249756269E-02 
398	 4.52000266361318E-02 
399	 4.52486881187844E-02 
400	 4.54820795510254E-02 
401	 4.56452716841504E-02 
402	 4.56257835699446E-02 
403	 4.57421942247475E-02 
404	 4.58524651335162E-02 
405	 4.59362887238186E-02 
406	 4.59994673734086E-02 
407	 0.045926973293399 
408	 4.60196186525524E-02 
409	 4.62108310300882E-02 
410	 4.60948172009125E-02 
411	 4.63399084099389E-02 
412	 4.65463476166248E-02 
413	 4.64519944987689E-02 
414	 0.046574857038267 
415	 0.046691414127831 
416	 4.67644964548064E-02 
417	 4.68444789526954E-02 
418	 4.70543611374057E-02 
419	 4.73132514421992E-02 
420	 4.75072598930121E-02 
421	 4.75179118063044E-02 
422	 4.76623466621264E-02 
423	 4.79485745672739E-02 
424	 4.82572105288626E-02 
425	 4.82981542369024E-02 
426	 4.85128482291334E-02 
427	 4.88408269800867E-02 
428	 4.90147883540849E-02 
429	 0.049225080886068 
430	 0.04939889102833 
431	 4.95563490653233E-02 
432	 4.98471248082392E-02 
433	 5.00668086016009E-02 
434	 5.03004092951918E-02 
435	 5.06227225723705E-02 
436	 5.08905079185542E-02 
437	 5.11229454777586E-02 
438	 5.13630275121207E-02 
439	 5.16509331737783E-02 
440	 5.18781924546806E-02 
441	 5.21247789328755E-02 
442	 5.24080908468273E-02 
443	 5.26240352779061E-02 
444	 0.052862754509755 
445	 0.053086793736785 
446	 5.32603207993171E-02 
447	 5.34905290110614E-02 
448	 5.37192819186511E-02 
449	 5.39359932026664E-02 
450	 5.41589313005367E-02 
451	 0.054268107545317 
452	 5.43422631816874E-02 
453	 5.44685143829012E-02 
454	 5.47015034982192E-02 
455	 5.48539792046921E-02 
456	 5.48999920071256E-02 
457	 5.49065545060145E-02 
458	 5.50610831271804E-02 
459	 5.51314694476215E-02 
460	 5.51228663905796E-02 
461	 5.52823985154591E-02 
462	 0.055329498964721 
463	 5.53228541506325E-02 
464	 5.53682294982089E-02 
465	 0.05551496804644 
466	 0.055639846338959 
467	 5.57449883389792E-02 
468	 5.58811788250459E-02 
469	 5.59491378763423E-02 
470	 5.60155244564995E-02 
471	 5.61023593026064E-02 
472	 5.61519153627836E-02 
473	 5.62480129844308E-02 
474	 5.63927495415194E-02 
475	 5.65576658036916E-02 
476	 5.66952502666585E-02 
477	 5.68189178394789E-02 
478	 5.69427626112704E-02 
479	 5.70864462278561E-02 
480	 5.73253310111979E-02 
481	 5.75491969441378E-02 
482	 5.77067789155254E-02 
483	 5.79134277830765E-02 
484	 5.80983629514673E-02 
485	 5.83105465340816E-02 
486	 5.86056742535478E-02 
487	 5.88440214914664E-02 
488	 5.90969882680367E-02 
489	 5.93811236842933E-02 
490	 5.96539030444431E-02 
491	 5.99819740096473E-02 
492	 6.03357363483712E-02 
493	 0.060695327152088 
494	 6.11302739786089E-02 
495	 6.15581412553309E-02 
496	 6.19857991464952E-02 
497	 6.24498608788603E-02 
498	 6.28009577472177E-02 
499	 6.32383395756578E-02 
500	 6.38368780527249E-02 
501	 6.44325029958483E-02 
502	 6.49807279657227E-02 
503	 6.55025409772334E-02 
504	 6.60432921559741E-02 
505	 6.66174308012079E-02 
506	 6.72686768046138E-02 
507	 6.79612531022731E-02 
508	 6.86026188054944E-02 
509	 6.92402184139108E-02 
510	 6.99171889184984E-02 
511	 7.06532189372325E-02 
512	 7.14361995087989E-02 
513	 7.21423564210775E-02 
514	 7.28679855032744E-02 
515	 7.37544042635114E-02 
516	 7.45219587594111E-02 
517	 7.53558371384579E-02 
518	 7.62618330280256E-02 
519	 7.69864083740109E-02 
520	 7.77289894216123E-02 
521	 7.84879134762328E-02 
522	 7.92444900724431E-02 
523	 8.00764137505882E-02 
524	 0.08087805828511 
525	 8.16194911235363E-02 
526	 8.23375438100787E-02 
527	 8.31069765027685E-02 
528	 8.38778736079012E-02 
529	 8.45943047259203E-02 
530	 0.085208627511158 
531	 8.59584852887111E-02 
532	 8.67422870825269E-02 
533	 8.73740860422596E-02 
534	 8.80303847663315E-02 
535	 8.86846021605109E-02 
536	 8.93455182175336E-02 
537	 9.00695375038893E-02 
538	 9.07443518033011E-02 
539	 9.13811175866003E-02 
540	 9.20248344336312E-02 
541	 9.27205404908402E-02 
542	 9.34345089541239E-02 
543	 9.41108907541856E-02 
544	 9.47016993951572E-02 
545	 9.53393656239395E-02 
546	 9.60231801449926E-02 
547	 9.67040647663885E-02 
548	 9.72734581435618E-02 
549	 9.78752527224609E-02 
550	 9.85172337560983E-02 
551	 9.91540666441555E-02 
552	 9.97382469251735E-02 
553	 0.100298187813225 
554	 0.100864803297246 
555	 0.101461250165508 
556	 0.102016616351337 
557	 0.102553033494865 
558	 0.103081793994951 
559	 0.103525343509758 
560	 0.103874577793913 
561	 0.104232226331272 
562	 0.104737147066783 
563	 0.105117372796738 
564	 0.105401849834829 
565	 0.105647034766253 
566	 0.105881876104831 
567	 0.106082053265702 
568	 0.106282277950496 
569	 0.106510356446476 
570	 0.106642979500957 
571	 0.106733584995249 
572	 0.10683099870284 
573	 0.106963739567863 
574	 0.107084173792536 
575	 0.107151966229964 
576	 0.107172321585407 
577	 0.107289245389959 
578	 0.107384899630729 
579	 0.107420349679551 
580	 0.10741425682601 
581	 0.107415725610981 
582	 0.107436039692112 
583	 0.107455600347809 
584	 0.107413432062782 
585	 0.107291223429917 
586	 0.107083036731348 
587	 0.106818457655861 
588	 0.106680743567475 
589	 0.106577160905754 
590	 0.106437773100788 
591	 0.106240365505023 
592	 0.106106861165904 
593	 0.105945844813571 
594	 0.105694762633633 
595	 0.105510098003241 
596	 0.105262955622379 
597	 0.104911069214317 
598	 0.104491340246754 
599	 0.104251646525849 
600	 0.104042303792354 
601	 0.103787182461056 
602	 0.103621404778654 
603	 0.103527249295323 
604	 0.10347072399191 
605	 0.103416206816984 
606	 0.103366945767979 
607	 0.103343189347542 
608	 0.103311369133378 
609	 0.103190081388715 
610	 0.103156527612006 
611	 0.103159873777989 
612	 0.103115949133521 
613	 0.10298059612082 
614	 0.102950141349255 
615	 0.102935355464732 
616	 0.102730829857779 
617	 0.102669350339531 
618	 0.102634619986085 
619	 0.102548635092568 
620	 0.102478379514398 
621	 0.102354731957678 
622	 0.102245409275426 
623	 0.102224715998314 
624	 0.102182248781402 
625	 0.102073804901426 
626	 0.101947035522459 
627	 0.10192433130548 
628	 0.101868803809375 
629	 0.101764022166294 
630	 0.101642246790162 
631	 0.101616002860708 
632	 0.101442739558271 
633	 0.101188122628704 
634	 0.101022067340702 
635	 0.100655182280554 
636	 0.100310869950833 
637	 0.100041086533479 
638	 9.95811332553632E-02 
639	 9.91525860637364E-02 
640	 9.88017719272803E-02 
641	 9.84797226181381E-02 
642	 9.79505716713679E-02 
643	 9.75329501881398E-02 
644	 9.72098456380378E-02 
645	 9.66997001549884E-02 
646	 9.61807525587424E-02 
647	 9.57463321681591E-02 
648	 9.54280238388524E-02 
649	 0.095121803512557 
650	 9.49482445086593E-02 
651	 9.48059102777263E-02 
652	 9.45552935248456E-02 
653	 9.43562754884521E-02 
654	 9.41420842228992E-02 
655	 9.39149731492213E-02 
656	 9.38096740852205E-02 
657	 9.34944714148794E-02 
658	 0.09313577518152 
659	 9.28824271588165E-02 
660	 9.25622089869749E-02 
661	 9.22299378831269E-02 
662	 9.19136648501847E-02 
663	 9.16275713375226E-02 
664	 0.091336884760251 
665	 9.11076522580578E-02 
666	 9.09440392089231E-02 
667	 9.07239214888475E-02 
668	 9.05538889804878E-02 
669	 9.03701670767659E-02 
670	 9.01270249802594E-02 
671	 9.01434414927998E-02 
672	 9.01639279407733E-02 
673	 9.01044109021471E-02 
674	 9.00689629686532E-02 
675	 9.01069893435375E-02 
676	 9.01848108758479E-02 
677	 9.02880554642955E-02 
678	 9.05031892568811E-02 
679	 9.07358784457932E-02 
680	 0.091036077645488 
681	 0.09150270859871 
682	 9.20695800420284E-02 
683	 9.27807773852943E-02 
684	 9.35950134825225E-02 
685	 0.094420317132214 
686	 9.55344105015808E-02 
687	 9.67606095360935E-02 
688	 9.78271672608003E-02 
689	 9.90069678807773E-02 
690	 0.100137133791425 
691	 0.101248677596361 
692	 0.10246475567991 
693	 0.103450239564846 
694	 0.10437213550849 
695	 0.105322897463683 
696	 0.106264581444003 
697	 0.106877674054401 
698	 0.107401524590895 
699	 0.108091450890055 
700	 0.108579368775771 
701	 0.108946140258225 
702	 0.109235376088032 
703	 0.109452186660232 
704	 0.109603024300298 
705	 0.109602696576073 
706	 0.109430534863983 
707	 0.109244496660117 
708	 0.108899866610911 
709	 0.108378844961042 
710	 0.107732199762565 
711	 0.107114610739603 
712	 0.106304715243739 
713	 0.10523863182265 
714	 0.104014216652869 
715	 0.102795039748826 
716	 0.101507759892817 
717	 0.100122250173247 
718	 9.85734899018442E-02 
719	 9.70161980460199E-02 
720	 9.56838879801872E-02 
721	 9.44289445970312E-02 
722	 0.093139737025879 
723	 9.15109913559458E-02 
724	 8.96788024453686E-02 
725	 8.79368690252127E-02 
726	 8.61418801824001E-02 
727	 0.084088763591118 
728	 8.17427404967576E-02 
729	 7.95108951863643E-02 
730	 7.70702074680752E-02 
731	 7.46934309579346E-02 
732	 7.26947379887557E-02 
733	 7.09033636619566E-02 
734	 6.93562796173691E-02 
735	 6.80539198587777E-02 
736	 6.68974999350284E-02 
737	 6.61276749421261E-02 
738	 6.55249339134711E-02 
739	 6.49407629556109E-02 
740	 6.47602835315151E-02 
741	 6.45673661861061E-02 
742	 6.43424250606738E-02 
743	 6.42639943346783E-02 
744	 6.42814480784337E-02 
745	 6.42030501814435E-02 
746	 6.40383225562686E-02 
747	 6.40784093199801E-02 
748	 6.40974345389245E-02 
749	 6.40748779761699E-02 
750	 0.064038561553862 
751	 6.39963462295992E-02 
752	 6.39564171458551E-02 
753	 6.39514677506932E-02 
754	 6.40115278832623E-02 
755	 6.40542638916167E-02 
756	 6.40208778618704E-02 
757	 6.39692173692581E-02 
758	 6.41694730139812E-02 
759	 6.43516372959352E-02 
760	 6.43852623198506E-02 
761	 6.43122665460335E-02 
762	 6.42681711005596E-02 
763	 6.43539455034467E-02 
764	 6.44736676848279E-02 
765	 6.45227188779691E-02 
766	 0.064618206792082 
767	 6.48203401361121E-02 
768	 6.50297993327249E-02 
769	 6.49971112585471E-02 
770	 6.51789579090354E-02 
771	 6.54487444704111E-02 
772	 6.56515505564758E-02 
773	 6.59053755297726E-02 
774	 6.60930565440216E-02 
775	 6.63366152002174E-02 
776	 6.67800394019729E-02 
777	 6.70275927728899E-02 
778	 6.72689824440252E-02 
779	 6.75973700331736E-02 
780	 6.79629269464618E-02 
781	 6.82841522427241E-02 
782	 6.86520222709196E-02 
783	 6.90976867924162E-02 
784	 6.94497775019881E-02 
785	 6.97353563114547E-02 
786	 7.00576953523028E-02 
787	 7.05135609173397E-02 
788	 7.09843302313148E-02 
789	 7.15290108193781E-02 
790	 7.20298762773086E-02 
791	 7.22932692283451E-02 
792	 7.28402847999644E-02 
793	 7.33955391209462E-02 
794	 7.37811575981151E-02 
795	 7.41396777425394E-02 
796	 7.45776818026296E-02 
797	 7.49783181715263E-02 
798	 7.52540651876637E-02 
799	 0.075595251107884 
800	 7.58942351736811E-02 
801	 7.61431623099861E-02 
802	 7.64052100329198E-02 
803	 7.67737298778312E-02 
804	 0.077059577060627 
805	 7.71612259661413E-02 
806	 7.71053573622081E-02 
807	 7.69764833162459E-02 
808	 7.69063695333739E-02 
809	 7.69005101268264E-02 
810	 7.66324513073964E-02 
811	 7.61805142985459E-02 
812	 7.57466720356507E-02 
813	 0.075531957998867 
814	 7.52057741620936E-02 
815	 7.46503155862583E-02 
816	 7.39763325851026E-02 
817	 7.34224743085707E-02 
818	 7.27352398340529E-02 
819	 7.20991677747628E-02 
820	 7.14336612606496E-02 
821	 7.03232789123471E-02 
822	 6.91703686942943E-02 
823	 6.78504726009797E-02 
824	 6.62939352099848E-02 
825	 6.46757619015092E-02 
826	 6.28128105745755E-02 
827	 6.08357894535171E-02 
828	 5.90526747117351E-02 
829	 5.71465600667225E-02 
830	 5.54215845077635E-02 
831	 5.38973543491288E-02 
832	 5.24514612215512E-02 
833	 5.15016922370962E-02 
834	 5.07475661411099E-02 
835	 4.99921003886127E-02 
836	 4.93078286051118E-02 
837	 4.90453557946247E-02 
838	 4.88161928779556E-02 
839	 4.82945287803264E-02 
840	 4.77124038260878E-02 
841	 4.72632434512633E-02 
842	 4.70475512884078E-02 
843	 4.70011112729047E-02 
844	 4.66018244848084E-02 
845	 4.62159227380621E-02 
846	 4.59045867022993E-02 
847	 4.55201557439238E-02 
848	 4.52730060607281E-02 
849	 4.49966292946327E-02 
850	 4.46879649292718E-02 
851	 0.044579265535569 
852	 4.43099578639825E-02 
853	 4.39211997630804E-02 
854	 4.35515854713176E-02 
855	 4.33188285026707E-02 
856	 4.32172709199817E-02 
857	 0.043045060572689 
858	 4.26821761736737E-02 
859	 4.24933009609348E-02 
860	 4.21864964463618E-02 
861	 4.18551681990927E-02 
862	 4.17173119035643E-02 
863	 4.14799292550593E-02 
864	 4.11971922126348E-02 
865	 0.040954821909829 
866	 0.04080639114016 
867	 4.03952970415393E-02 
868	 4.00377557359202E-02 
869	 3.98786125968625E-02 
870	 3.97253100705454E-02 
871	 3.95988372051227E-02 
872	 3.92256203097701E-02 
873	 3.85681478824196E-02 
874	 3.82074443418997E-02 
875	 3.80960235033885E-02 
876	 3.78598244272943E-02 
877	 3.72663733642631E-02 
878	 3.69889224780585E-02 
879	 3.67027497812435E-02 
880	 3.63326571563617E-02 
881	 3.59506487091079E-02 
882	 0.035695033438701 
883	 3.53860912131525E-02 
884	 3.50836240930152E-02 
885	 0.034964505742134 
886	 3.44744162735171E-02 
887	 3.40993044360652E-02 
888	 3.39012957339022E-02 
889	 3.33790957857641E-02 
890	 3.29953352064752E-02 
891	 3.29227301869113E-02 
892	 3.29638154589203E-02 
893	 3.23348336024208E-02 
894	 3.20517271825538E-02 
895	 3.18591217104064E-02 
896	 3.14106341162105E-02 
897	 3.13558805055197E-02 
898	 3.10759030252603E-02 
899	 3.07493387676112E-02 
900	 3.06437154191633E-02 
901	 3.02782053803366E-02 
902	 3.00100533871374E-02 
903	 2.97012956134083E-02 
904	 2.92268974263844E-02 
905	 2.95542467430442E-02 
906	 2.94166066147036E-02 
907	 2.86952510079135E-02 
908	 2.81505375681114E-02 
909	 2.75131203217028E-02 
910	 2.74255556808833E-02 
911	 2.76649315738633E-02 
912	 2.72924384901797E-02 
913	 2.67771518643104E-02 
914	 2.65389588027134E-02 
915	 2.63047945967968E-02 
916	 2.52268568078788E-02 
917	 2.47961423750124E-02 
918	 0.024664613351709 
919	 2.43686752891999E-02 
920	 2.37130669744181E-02 
921	 2.33503026861781E-02 
922	 2.30925307229397E-02 
923	 2.27200783657156E-02 
924	 2.23172177065246E-02 
925	 2.13543901588253E-02 
926	 2.07811283293464E-02 
927	 2.12899083329923E-02 
928	 0.020604174376032 
929	 2.08842420985103E-02 
930	 2.13235545748063E-02 
931	 0.019835207905785 
932	 1.97136053392157E-02 
933	 1.95804086096846E-02 
934	 1.91503058985143E-02 
935	 1.91592518941102E-02 
936	 2.10287780455231E-02 
937	 1.97993570487901E-02 
938	 1.72892816188483E-02 
939	 1.67949956365246E-02 
940	 1.92132672174192E-02 
941	 2.01402368245249E-02 
942	 1.91596841390584E-02 
943	 1.82947533488894E-02 
944	 2.02538742415416E-02 
945	 2.22637571816508E-02 
946	 2.13113127470372E-02 
947	 1.69465021630517E-02 
948	 1.97668132282852E-02 
949	 2.11033404736651E-02 
950	 1.91771356398884E-02 
951	 1.75505268951335E-02 
952	 1.87875757216906E-02 
953	 1.86709157071535E-02 
954	 1.76910676802758E-02 
955	 1.87744711849163E-02 
956	 1.62010605803692E-02 
957	 0.016143606128398 
958	 1.81619026619307E-02 
959	 1.74542890218589E-02 
960	 1.69314472342841E-02 
961	 1.76420032797997E-02 
962	 1.84881255115932E-02 
963	 1.75758709169263E-02 
964	 1.64871228659755E-02 
965	 1.67365483261877E-02 
966	 0.017190209033755 
967	 0.015598996143988 
968	 1.52083974968772E-02 
969	 1.63940742066764E-02 
970	 1.72605341481106E-02 
971	 1.52829698714693E-02 
972	 1.72942680691207E-02 
973	 1.76483869074772E-02 
974	 1.58954039570822E-02 
975	 1.71832088541909E-02 
976	 1.72000842765826E-02 
977	 1.68969019621347E-02 
978	 1.68137643745498E-02 
979	 0.016529666513428 
980	 1.51831260092071E-02 
981	 1.51708312430465E-02 
982	 1.61901894390008E-02 
983	 1.59725788877798E-02 
984	 1.65465855397519E-02 
985	 1.74291981211209E-02 
986	 1.74633510882826E-02 
987	 1.59106452018883E-02 
988	 1.72516814416136E-02 
989	 1.66809119069131E-02 
990	 1.48560389784957E-02 
991	 0.016244856668694 
992	 0.017341911867548 
993	 1.69047696398286E-02 
994	 1.57797127139506E-02 
995	 1.58274811341768E-02 
996	 1.62157477581706E-02 
997	 1.67606851412863E-02 
998	 1.67162113893913E-02 
999	 0.015692673571596 
1000	 1.68495632813577E-02 
1001	 1.66046966689419E-02 
1002	 1.71205788655133E-02 
1003	 1.72505222802725E-02 
1004	 1.72393838009413E-02 
1005	 1.73837390021834E-02 
1006	 1.75772327933947E-02 
1007	 1.72211394014467E-02 
1008	 1.74057143717309E-02 
1009	 1.76520201637843E-02 
1010	 1.74841804717783E-02 
1011	 0.017583593198059 
1012	 1.76757309773742E-02 
1013	 1.75874534895925E-02 
1014	 1.74054256460572E-02 
1015	 1.69710521538872E-02 
1016	 1.68995976604464E-02 
1017	 1.68936019001357E-02 
1018	 1.69116422333509E-02 
1019	 1.71263082386014E-02 
1020	 1.72677943010215E-02 
1021	 1.74104798370401E-02 
1022	 1.75024068628926E-02 
1023	 1.72521719453754E-02 
1024	 1.74109729749938E-02 
1025	 1.74812377423372E-02 
1026	 1.70670672041907E-02 
1027	 1.70464687096655E-02 
1028	 1.73447791694722E-02 
1029	 1.73384784994893E-02 
1030	 1.71955871513082E-02 
1031	 1.72126270807716E-02 
1032	 1.70997995095283E-02 
1033	 1.71944891550134E-02 
1034	 0.017660566436934 
1035	 1.78085379802908E-02 
1036	 0.017964877400641 
1037	 1.79588246850171E-02 
1038	 1.78575265370995E-02 
1039	 1.73620485905942E-02 
1040	 1.71681946785484E-02 
1041	 1.70087999294108E-02 
1042	 1.69785378506836E-02 
1043	 1.70578965421878E-02 
1044	 1.72910595776437E-02 
1045	 1.78318107480709E-02 
1046	 1.79227496678793E-02 
1047	 1.79882355517134E-02 
1048	 1.79359878105002E-02 
1049	 0.017393908307964 
1050	 1.72470445419964E-02 
1051	 1.72334936190093E-02 
1052	 0.017317872721823 
1053	 1.77130056800325E-02 
1054	 1.78756684300956E-02 
1055	 1.82067842098834E-02 
1056	 1.82263320272591E-02 
1057	 1.80402211322656E-02 
1058	 1.73887625876662E-02 
1059	 1.73265654814502E-02 
1060	 1.72545191637673E-02 
1061	 1.73628551816027E-02 
1062	 1.80083159279294E-02 
1063	 1.81745469270729E-02 
1064	 1.81479981270873E-02 
1065	 1.81319546453334E-02 
1066	 1.79351383753191E-02 
1067	 1.78572576495516E-02 
1068	 1.77284846492824E-02 
1069	 0.017736192885678 
1070	 1.80158147853944E-02 
1071	 1.80335004076507E-02 
1072	 1.80154380864352E-02 
1073	 1.78221885763683E-02 
1074	 1.78944861675672E-02 
1075	 0.017977544037825 
1076	 1.79017667005271E-02 
1077	 1.79504811111824E-02 
1078	 0.017942330501258 
1079	 1.76276474063958E-02 
1080	 1.75203259775262E-02 
1081	 1.77452676274731E-02 
1082	 1.76901236443737E-02 
1083	 1.72934672732647E-02 
1084	 1.72264384637561E-02 
1085	 1.73748001587895E-02 
1086	 1.73254284162662E-02 
1087	 1.73446563171197E-02 
1088	 1.73482234866529E-02 
1089	 1.71642633193652E-02 
1090	 1.69930224962909E-02 
1091	 1.69665341658216E-02 
1092	 1.71309548906238E-02 
1093	 1.71083460721605E-02 
1094	 1.70877990769134E-02 
1095	 1.69583768216172E-02 
1096	 0.016598790081846 
1097	 1.64883310901669E-02 
1098	 1.65395894981471E-02 
1099	 1.64276280826357E-02 
1100	 1.63663037046731E-02 
1101	 1.62430203069999E-02 
1102	 1.58803526291742E-02 
1103	 1.56807239821063E-02 
1104	 1.56827302670474E-02 
1105	 1.53758064094234E-02 
1106	 1.55974344764905E-02 
1107	 1.56948298749556E-02 
1108	 1.49821524705417E-02 
1109	 1.50967116674927E-02 
1110	 1.51778196010558E-02 
1111	 1.49338561836033E-02 
1112	 1.50928869881669E-02 
1113	 1.65982150399336E-02 
1114	 1.66978353738092E-02 
1115	 1.56324428604509E-02 
1116	 1.51922013477541E-02 
1117	 1.34476368790588E-02 
1118	 1.26947850095756E-02 
1119	 0.014208942400175 
1120	 1.44337133609077E-02 
1121	 1.46355161875587E-02 
1122	 1.46413442868467E-02 
1123	 0.011014089131249 
1124	 8.26130926208918E-03 
1125	 1.01184939246422E-02 
1126	 1.18667961099225E-02 
1127	 1.43911342471806E-02 
1128	 1.59140308751987E-02 
1129	 1.68729345638991E-02 
1130	 1.56670802656294E-02 
1131	 0.015328536627103 
1132	 1.54006003790285E-02 
1133	 1.53317303920654E-02 
1134	 1.44807279756178E-02 
1135	 1.43711668366672E-02 
1136	 1.51768117660257E-02 
1137	 1.51442794189039E-02 
1138	 1.50492902766043E-02 
1139	 1.43853435225452E-02 
1140	 1.24422337893685E-02 
1141	 1.24350951990445E-02 
1142	 1.47621524416964E-02 
1143	 1.49346087314512E-02 
1144	 0.013631993778242 
1145	 0.013976422084363 
1146	 1.32689715461551E-02 
1147	 0.012959152506437 
1148	 1.59791849023039E-02 
1149	 1.66242227920748E-02 
1150	 1.57928795232882E-02 
1151	 0.012692508109689 
1152	 1.26695446598139E-02 
1153	 1.31016938303239E-02 
1154	 1.33294126663289E-02 
1155	 1.50185657314409E-02 
1156	 1.45280537788171E-02 
1157	 1.34870389695962E-02 
1158	 1.31251090543404E-02 
1159	 1.24209568533637E-02 
1160	 1.27810900491944E-02 
1161	 1.37155330780089E-02 
1162	 1.34474009747986E-02 
1163	 1.31699221795951E-02 
1164	 1.31727589909022E-02 
1165	 1.28068164548892E-02 
1166	 0.01281792608974 
1167	 1.31143906108857E-02 
1168	 1.31209290674762E-02 
1169	 1.28641835746671E-02 
1170	 1.25555333124608E-02 
1171	 1.24935510012807E-02 
1172	 1.26665439290194E-02 
1173	 1.26370322062026E-02 
1174	 1.26444597495374E-02 
1175	 0.012636841977046 
1176	 0.01266242529425 
1177	 1.27665668302971E-02 
1178	 1.29366821602373E-02 
1179	 1.29482387916404E-02 
1180	 1.27053835689609E-02 
1181	 0.012491915812469 
1182	 1.25227001257543E-02 
1183	 0.012692379910622 
1184	 1.26906576971881E-02 
1185	 1.25504941970948E-02 
1186	 1.24537249007469E-02 
1187	 1.24926785538625E-02 
1188	 1.27405294030641E-02 
1189	 1.27979725624793E-02 
1190	 0.012652740773085 
1191	 1.25737716711469E-02 
1192	 1.25504705861062E-02 
1193	 1.24616467945149E-02 
1194	 1.26148957993867E-02 
1195	 1.27216715739962E-02 
1196	 1.25187236897816E-02 
1197	 1.23814037845071E-02 
1198	 1.23042601986479E-02 
1199	 1.22483184937483E-02 
1200	 1.23863139276992E-02 
1201	 1.24760012602497E-02 
1202	 1.24201253409685E-02 
1203	 1.24851208016759E-02 
1204	 0.012427429397547 
1205	 1.23968036143407E-02 
1206	 1.25992503897418E-02 
1207	 1.25149103692309E-02 
1208	 1.25010630072832E-02 
1209	 1.27416680378755E-02 
1210	 1.27371423067464E-02 
1211	 1.26841459069356E-02 
1212	 1.27004189382807E-02 
1213	 1.25206867785379E-02 
1214	 1.24392480361021E-02 
1215	 0.012285534114639 
1216	 1.24367254409375E-02 
1217	 1.24499991652657E-02 
1218	 1.22482262232797E-02 
1219	 1.22336587857632E-02 
1220	 1.22076318160949E-02 
1221	 1.21161346349547E-02 
1222	 1.22730778047333E-02 
1223	 1.24158405489497E-02 
1224	 1.22056147787162E-02 
1225	 1.20084353246885E-02 
1226	 0.012066173127752 
1227	 1.21033313691005E-02 
1228	 1.20645917650451E-02 
1229	 1.21270786650516E-02 
1230	 0.012194471761234 
1231	 1.20150176786494E-02 
1232	 1.19533637977377E-02 
1233	 1.20686285336159E-02 
1234	 1.20303165286591E-02 
1235	 1.20526203341732E-02 
1236	 1.21875410873003E-02 
1237	 1.22178928662608E-02 
1238	 1.21868088771282E-02 
1239	 1.21855325532934E-02 
1240	 1.20736837438608E-02 
1241	 1.19654208618408E-02 
1242	 0.012027227405684 
1243	 1.21916271743644E-02 
1244	 1.22437489184805E-02 
1245	 1.21880394352958E-02 
1246	 1.22140468679713E-02 
1247	 1.22498447595249E-02 
1248	 0.012221302439431 
1249	 1.22642279956016E-02 
1250	 1.21854824664743E-02 
1251	 1.19062926615924E-02 
1252	 1.18567511988617E-02 
1253	 1.19170558810444E-02 
1254	 1.19061967263633E-02 
1255	 1.19134078835261E-02 
1256	 1.19251272156382E-02 
1257	 1.19797821429769E-02 
1258	 1.19990461394282E-02 
1259	 1.19519809793923E-02 
1260	 1.19580767954509E-02 
1261	 1.19882316466957E-02 
1262	 1.19739264989348E-02 
1263	 1.19726647563431E-02 
1264	 1.20017361565206E-02 
1265	 0.011967190498758 
1266	 1.19223048187111E-02 
1267	 1.17684123744831E-02 
1268	 1.15993627859353E-02 
1269	 1.16732190614514E-02 
1270	 1.17854894646898E-02 
1271	 1.17690613939889E-02 
1272	 1.17760667920986E-02 
1273	 1.17278182079517E-02 
1274	 1.16061316737632E-02 
1275	 1.15340307656041E-02 
1276	 1.15845516012479E-02 
1277	 1.17059310189152E-02 
1278	 1.16250860154022E-02 
1279	 1.14867973610497E-02 
1280	 0.011511194592013 
1281	 1.15548939383307E-02 
1282	 1.15716222956701E-02 
1283	 1.15472330426507E-02 
1284	 0.011596018160302 
1285	 1.16494437623591E-02 
1286	 0.01167078603715 
1287	 1.16391787935602E-02 
1288	 1.15797820584936E-02 
1289	 1.15704700773857E-02 
1290	 1.15540327935358E-02 
1291	 1.14455316334278E-02 
1292	 1.12451316261821E-02 
1293	 1.13570369978634E-02 
1294	 1.15628948717173E-02 
1295	 1.15025193546556E-02 
1296	 1.14390491798445E-02 
1297	 1.15769362629595E-02 
1298	 1.14006741240523E-02 
1299	 1.10911147274059E-02 
1300	 1.13782095069599E-02 
1301	 1.15916174820545E-02 
1302	 1.13374854032759E-02 
1303	 1.12492810094944E-02 
1304	 1.12590262340942E-02 
1305	 1.12805081058015E-02 
1306	 1.12363090750891E-02 
1307	 1.13931253007402E-02 
1308	 1.14070578033265E-02 
1309	 1.11934174710858E-02 
1310	 1.11256388930834E-02 
1311	 1.12805535847217E-02 
1312	 1.12532960881572E-02 
1313	 0.010965402107598 
1314	 1.08225358337497E-02 
1315	 1.07080193242586E-02 
1316	 1.07428259043887E-02 
1317	 0.010971113767905 
1318	 1.10860632465144E-02 
1319	 1.13188491865062E-02 
1320	 1.13540851516282E-02 
1321	 1.12784266461343E-02 
1322	 1.10836249597316E-02 
1323	 1.08735721338847E-02 
1324	 1.07838871406765E-02 
1325	 1.08360661883426E-02 
1326	 1.07872670980522E-02 
1327	 1.06935791312524E-02 
1328	 1.07402475642386E-02 
1329	 1.07421043094807E-02 
1330	 1.04381836640336E-02 
1331	 1.02262083237392E-02 
1332	 1.02956517490588E-02 
1333	 1.02156658201941E-02 
1334	 1.03243878460262E-02 
1335	 1.06092122712224E-02 
1336	 1.11709566492364E-02 
1337	 1.14397482870795E-02 
1338	 1.19232789113821E-02 
1339	 1.18466908583126E-02 
1340	 0.011240579157033 
1341	 1.07831602125957E-02 
1342	 9.19912627934076E-03 
1343	 9.19815208758114E-03 
1344	 1.14309598008984E-02 
1345	 1.16775959097195E-02 
1346	 1.08788421017604E-02 
1347	 0.012323729688782 
1348	 1.61861371116182E-02 
1349	 1.50782511439662E-02 
1350	 7.73045804313728E-03 
1351	 7.79018249527559E-03 
1352	 5.61812411748216E-03 
1353	-1.62632197897207E-03 
1354	 6.22662022454376E-03 
1355	 4.56396752224696E-02 
1356	 0.057404511919632 
1357	 5.39413562025769E-02 
1358	 9.45878686117817E-02 
1359	 0.142240704525317 
1360	 0.106827412870874 
1361	-8.11730488304252E-03 
1362	 8.71053730725614E-02 
1363	 0.245935350394537 
1364	 0.115380781981081 
1365	 0.040714377489258 
1366	 5.17229714489482E-02 
1367	-0.204996535459332 
1368	-0.285954036428325 
1369	-0.085667220343792 
1370	 5.58483956332685E-02 
1371	 0.126328839642109 
1372	 0.123583585623995 
1373	 0.257391986708747 
1374	 0.235062808622095 
1375	-0.10473976335629 
1376	-0.132906349989786 
1377	 0.145480338459289 
1378	 0.136568155347549 
1379	-2.94983306324853E-03 
1380	 3.91383949646497E-02 
1381	 0.063181583501694 
1382	-2.90589418746606E-03 
1383	 2.48710329379335E-03 
1384	 6.56074424990863E-02 
1385	-0.116157107147742 
1386	-0.170399572676635 
1387	 4.63588743878645E-02 
1388	 0.189934293044196 
1389	 0.474523106211173 
1390	 0.514496636071064 
1391	 0.223288681782987 
1392	 2.25739422446909E-02 
1393	 1.17316870269053E-02 
1394	 8.36247914422637E-02 
1395	 0.164128201533973 
1396	 0.112198387680235 
1397	 0.168768535058807 
1398	 2.98934322226567E-02 
1399	-0.160510581134395 
1400	-0.104044295946983 
1401	 2.55464066042702E-02 
1402	 0.166984258423955 
1403	 0.159563323698959 
1404	 0.106526876469213 
1405	 0.193311238838501 
1406	 9.09535031950875E-02 
1407	 1.60801829920781E-02 
1408	 0.148583937657132 
1409	 0.174530838719053 
1410	 5.86730459217586E-02 
1411	 2.17121719681793E-02 
1412	 6.82886684167111E-02 
1413	 8.71659834325277E-02 
1414	 5.59896476790311E-02 
1415	 4.25862627358671E-02 
1416	 8.13109754913868E-02 
1417	 7.44380087734102E-02 
1418	 3.89025410458742E-02 
1419	 3.03264710715389E-02 
1420	 3.39400169605819E-02 
1421	 1.79589190190161E-02 
1422	-1.17782684400628E-02 
1423	-1.34976509463257E-02 
1424	-1.01489388437266E-02 
1425	-6.21514286540477E-03 
1426	 1.81061492249788E-02 
1427	 1.48740798581336E-02 
1428	-1.14177302999242E-02 
1429	-1.44799299059216E-02 
1430	-1.60656821483929E-02 
1431	-1.91993096995264E-02 
1432	-1.15236761062531E-02 
1433	-4.7361003483877E-03 
1434	-2.09120289511197E-04 
1435	 1.33223654578202E-03 
1436	 4.91774907104094E-03 
1437	 9.32355660781953E-03 
1438	 3.59626033815607E-03 
1439	-7.57635057592569E-03 
1440	-8.70101707868375E-03 
1441	-8.18847040357279E-03 
1442	-8.39025134058387E-03 
1443	-3.19588056370802E-03 
1444	 2.81866677168849E-03 
1445	 2.61832441276116E-03 
1446	-1.47591008576194E-03 
1447	 9.76752161519126E-04 
1448	 4.39953316610111E-03 
1449	 2.54015739857475E-03 
1450	 4.4432125428242E-03 
1451	 7.30549939764606E-03 
1452	 6.20438610891872E-03 
1453	 6.58155501148315E-03 
1454	 6.20688865798339E-03 
1455	 5.04269304441055E-03 
1456	 4.64915502574802E-03 
1457	 4.48870773546162E-03 
1458	 4.34298798967262E-03 
1459	 4.49622661254012E-03 
1460	 4.54640030064806E-03 
1461	 4.40336611896452E-03 
1462	 4.56200642256937E-03 
1463	 4.60176064704039E-03 
1464	 5.26447890248105E-03 
1465	 7.39748792732719E-03 
1466	 7.45470537522976E-03 
1467	 6.68341149040894E-03 
1468	 0.006312509812271 
1469	 3.88152455915854E-03 
1470	 3.23987882058662E-03 
1471	 4.5293707129877E-03 
1472	 4.97509078922202E-03 
1473	 5.19651562056971E-03 
1474	 5.39353532065366E-03 
1475	 6.17119969627489E-03 
1476	 5.92553690724557E-03 
1477	 3.94679679272515E-03 
1478	 4.56675711249804E-03 
1479	 7.45160840237287E-03 
1480	 6.95123719880382E-03 
1481	 5.03777233502778E-03 
1482	 5.43645117936207E-03 
1483	 5.28997536021777E-03 
1484	 4.92287881336008E-03 
1485	 6.30134024401877E-03 
1486	 6.75339303416514E-03 
1487	 5.75396060470039E-03 
1488	 5.49909305940849E-03 
1489	 5.7238953308018E-03 
1490	 6.02152390149186E-03 
1491	 6.50891607670709E-03 
1492	 6.47303641081476E-03 
1493	 6.38173774322176E-03 
1494	 6.41364445580362E-03 
1495	 6.05698186562418E-03 
1496	 5.92451173896046E-03 
1497	 6.08580069672759E-03 
1498	 6.17401956111351E-03 
1499	 6.2533040104712E-03 
1500	 6.31649325699056E-03 
1501	 6.46343774113185E-03 
1502	 6.5052928329187E-03 
1503	 6.31963515954365E-03 
1504	 6.31758480042348E-03 
1505	 6.40481561029281E-03 
1506	 6.5409032489267E-03 
1507	 6.53883849131793E-03 
1508	 6.48700781626386E-03 
1509	 6.43467124865699E-03 
1510	 6.34933899666788E-03 
1511	 6.41551455491399E-03 
1512	 0.006459041955107 
1513	 6.21932551355623E-03 
1514	 6.16466985446769E-03 
1515	 6.52171095691446E-03 
1516	 6.68078106170448E-03 
1517	 6.43065964156813E-03 
1518	 6.42008258175775E-03 
1519	 6.70685424620422E-03 
1520	 6.7583251354378E-03 
1521	 6.76314926817442E-03 
1522	 6.84291896667088E-03 
1523	 6.69611019950596E-03 
1524	 6.4892158727641E-03 
1525	 6.57985611691668E-03 
1526	 6.78416763017326E-03 
1527	 6.68469829524335E-03 
1528	 6.5377798698282E-03 
1529	 6.68616963303392E-03 
1530	 6.82427980310244E-03 
1531	 6.73821181468625E-03 
1532	 6.73323924753109E-03 
1533	 6.97217241033992E-03 
1534	 7.05173737505728E-03 
1535	 7.01205705945368E-03 
1536	 7.02940073739308E-03 
1537	 6.71634392865766E-03 
1538	 6.50276009253075E-03 
1539	 6.8505324033095E-03 
1540	 7.09598102566105E-03 
1541	 7.05713324797647E-03 
1542	 7.1396501343175E-03 
1543	 7.15790592082676E-03 
1544	 6.91710752651927E-03 
1545	 6.81735813958152E-03 
1546	 7.0663288975701E-03 
1547	 7.11219658640575E-03 
1548	 6.96178477945685E-03 
1549	 7.06948752024901E-03 
1550	 7.01370312478001E-03 
1551	 6.90747843396167E-03 
1552	 7.09555180205722E-03 
1553	 7.05458343131016E-03 
1554	 6.93205583633424E-03 
1555	 7.08091507349331E-03 
1556	 7.06652038276128E-03 
1557	 7.01561923441154E-03 
1558	 7.26028998138823E-03 
1559	 7.4153049477841E-03 
1560	 7.35355852069491E-03 
1561	 7.36583498925829E-03 
1562	 7.39225393597122E-03 
1563	 7.28048159209609E-03 
1564	 7.27048523440478E-03 
1565	 7.41112002096169E-03 
1566	 7.38096295156236E-03 
1567	 7.12024557417965E-03 
1568	 7.05038026980416E-03 
1569	 7.23396836288738E-03 
1570	 7.17319906346617E-03 
1571	 7.15276320511292E-03 
1572	 7.32288293158904E-03 
1573	 7.23360850414683E-03 
1574	 7.22400747268075E-03 
1575	 7.29503046385503E-03 
1576	 7.18510850182038E-03 
1577	 7.13600271805279E-03 
1578	 7.1337562109133E-03 
1579	 7.14888331669762E-03 
1580	 7.19264870733843E-03 
1581	 7.17922216631121E-03 
1582	 7.23143872338228E-03 
1583	 7.4274568286488E-03 
1584	 7.53053458883736E-03 
1585	 7.46599803043567E-03 
1586	 7.38955561438274E-03 
1587	 7.35904809398291E-03 
1588	 0.007317876391972 
1589	 7.33562043420807E-03 
1590	 7.48445287910805E-03 
1591	 7.44811034268895E-03 
1592	 7.38490062838478E-03 
1593	 7.53425991722572E-03 
1594	 7.5585075083928E-03 
1595	 7.59046088242011E-03 
1596	 7.74581808810306E-03 
1597	 7.79938871068554E-03 
1598	 7.63140611122394E-03 
1599	 7.47346533243111E-03 
1600	 7.57471311566627E-03 
1601	 7.5305747718848E-03 
1602	 7.48627192556434E-03 
1603	 7.64657396841258E-03 
1604	 7.49674465122777E-03 
1605	 7.44466303526381E-03 
1606	 7.71596929331389E-03 
1607	 7.68278299197495E-03 
1608	 7.59861965000007E-03 
1609	 7.73591588893839E-03 
1610	 7.69490670620572E-03 
1611	 7.59834990260665E-03 
1612	 7.78217144988023E-03 
1613	 7.82458405128669E-03 
1614	 7.56713858223994E-03 
1615	 7.51481195649664E-03 
1616	 7.65289593226039E-03 
1617	 7.72449929916313E-03 
1618	 7.67999620548023E-03 
1619	 7.61040679181976E-03 
1620	 7.63304090794385E-03 
1621	 7.73463743042868E-03 
1622	 7.87752732698322E-03 
1623	 7.88510146034999E-03 
1624	 7.78018632467626E-03 
1625	 7.79977406831139E-03 
1626	 7.91129642815278E-03 
1627	 8.1001772383341E-03 
1628	 8.34307061026197E-03 
1629	 8.08617839939817E-03 
1630	 7.66545935313701E-03 
1631	 7.95463518104629E-03 
1632	 7.99034763981131E-03 
1633	 7.78283464836321E-03 
1634	 8.18901647403719E-03 
1635	 8.25513502031063E-03 
1636	 8.27677981245967E-03 
1637	 8.69707643504917E-03 
1638	 8.5717260919319E-03 
1639	 8.15776356759264E-03 
1640	 8.04757915242148E-03 
1641	 8.20130473447437E-03 
1642	 8.45470584276308E-03 
1643	 8.6381138587716E-03 
1644	 8.48905282120436E-03 
1645	 8.04090580940155E-03 
1646	 7.9519066602488E-03 
1647	 8.20068048491004E-03 
1648	 8.30966129530936E-03 
1649	 8.31554979037396E-03 
1650	 8.22485875477742E-03 
1651	 8.14665361926225E-03 
1652	 8.27141202357675E-03 
1653	 8.59540603591763E-03 
1654	 8.73435647193314E-03 
1655	 8.58170997964392E-03 
1656	 8.51954920051518E-03 
1657	 8.58037554576129E-03 
1658	 8.63078328208147E-03 
1659	 8.65822209680278E-03 
1660	 8.68333840106037E-03 
1661	 8.74894628046646E-03 
1662	 8.74753550878584E-03 
1663	 8.6094725732124E-03 
1664	 8.60930266670304E-03 
1665	 8.75545309340811E-03 
1666	 8.79274585896157E-03 
1667	 8.73020016147276E-03 
1668	 8.81837528565628E-03 
1669	 8.82183945976433E-03 
1670	 8.59120692381429E-03 
1671	 8.61026306681346E-03 
1672	 8.77442278886032E-03 
1673	 8.80227336669106E-03 
1674	 8.79223926474568E-03 
1675	 8.72914970515248E-03 
1676	 8.56899393812605E-03 
1677	 8.40669287845676E-03 
1678	 8.36419837340265E-03 
1679	 8.30666890310617E-03 
1680	 8.36315350632913E-03 
1681	 8.54165803316493E-03 
1682	 8.49185323130768E-03 
1683	 8.55892024598792E-03 
1684	 8.71139401005854E-03 
1685	 8.55094911543754E-03 
1686	 8.48125635335436E-03 
1687	 8.71283031021773E-03 
1688	 8.67787931119248E-03 
1689	 8.39704739356345E-03 
1690	 8.45117491177539E-03 
1691	 8.47781735799203E-03 
1692	 8.24005389062764E-03 
1693	 8.24683890718796E-03 
1694	 8.31212116365576E-03 
1695	 8.07830191508203E-03 
1696	 7.95225858239788E-03 
1697	 8.01029400409618E-03 
1698	 7.93888847173882E-03 
1699	 7.95287922150493E-03 
1700	 8.15635131553639E-03 
1701	 8.30878960214448E-03 
1702	 8.17782965761202E-03 
1703	 7.86550121814566E-03 
1704	 7.81900469558897E-03 
1705	 7.84139660902707E-03 
1706	 7.76960557121002E-03 
1707	 7.97395574640171E-03 
1708	 8.02353841669876E-03 
1709	 7.73205755303485E-03 
1710	 7.8818418747311E-03 
1711	 8.14848610795477E-03 
1712	 7.82341105370454E-03 
1713	 7.70834697201066E-03 
1714	 7.72695897694723E-03 
1715	 7.65004629387178E-03 
1716	 7.85751817100445E-03 
1717	 7.64699322959072E-03 
1718	 7.05164461784844E-03 
1719	 6.97614962268654E-03 
1720	 7.27497695210002E-03 
1721	 7.45153392719116E-03 
1722	 7.65775682426418E-03 
1723	 7.92161569016866E-03 
1724	 7.85680466031593E-03 
1725	 7.69764261772417E-03 
1726	 7.83539506908496E-03 
1727	 7.76142790355376E-03 
1728	 7.35487403331703E-03 
1729	 7.26596113625508E-03 
1730	 7.54567172238233E-03 
1731	 7.63562038820663E-03 
1732	 7.81903011971788E-03 
1733	 8.01393012332939E-03 
1734	 7.71921901274303E-03 
1735	 7.61385835909726E-03 
1736	 7.76411336059788E-03 
1737	 7.7443693061248E-03 
1738	 7.62298897620535E-03 
1739	 7.61457545073424E-03 
1740	 7.61042898376707E-03 
1741	 7.44516668807711E-03 
1742	 7.48742067031593E-03 
1743	 7.32086287181182E-03 
1744	 7.30191911456837E-03 
1745	 7.89402375950325E-03 
1746	 7.90023649350513E-03 
1747	 8.00104791214698E-03 
1748	 7.62334278120958E-03 
1749	 7.39351261468056E-03 
1750	 7.71347812220681E-03 
1751	 7.66342999645169E-03 
1752	 7.15348750465089E-03 
1753	 7.07535561849865E-03 
1754	 7.10270212396275E-03 
1755	 7.05537198872467E-03 
1756	 7.30434704869941E-03 
1757	 7.14617012355614E-03 
1758	 7.16484527483768E-03 
1759	 7.44100070920605E-03 
1760	 7.20079001463402E-03 
1761	 7.20798137410941E-03 
1762	 7.11340339146779E-03 
1763	 7.10619423705489E-03 
1764	 7.47591898652653E-03 
1765	 6.85315705063696E-03 
1766	 6.89697722333832E-03 
1767	 7.50374077453492E-03 
1768	 6.64728981853125E-03 
1769	 6.2599177289978E-03 
1770	 6.54410218690472E-03 
1771	 6.04489405602807E-03 
1772	 6.60438731974912E-03 
1773	 8.28463145728637E-03 
1774	 8.47141141091585E-03 
1775	 7.06734883212401E-03 
1776	 6.8721046598174E-03 
1777	 6.61913323757026E-03 
1778	 6.25590365400786E-03 
1779	 7.02287883203146E-03 
1780	 7.23959796492983E-03 
1781	 6.35977360544668E-03 
1782	 6.23576449897247E-03 
1783	 6.85216643345162E-03 
1784	 6.80321989721962E-03 
1785	 6.97939726871662E-03 
1786	 6.66846107487295E-03 
1787	 5.22283154615195E-03 
1788	 4.43965719177699E-03 
1789	 3.13050216935001E-03 
1790	 2.8885172529838E-03 
1791	 5.09854523006814E-03 
1792	 7.19710038738637E-03 
1793	 6.30799618911683E-03 
1794	 0.00382722279358 
1795	 2.66421681049988E-03 
1796	 3.59475097179028E-03 
1797	 6.23016538819906E-03 
1798	 9.58020204375675E-03 
1799	 1.10355261874008E-02 
1800	 1.33846940366878E-03 
1801	-1.87004323721711E-03 
1802	 1.11160189601181E-03 
1803	-6.42675118792942E-04 
1804	 3.26088673042634E-03 
1805	 6.1415998736489E-03 
1806	-7.07862040521895E-03 
1807	-1.09776771640241E-02 
1808	 5.64406011208385E-03 
1809	 1.32306800666533E-02 
1810	 0.026051765451701 
1811	 3.32226454867318E-02 
1812	 2.14801379135898E-02 
1813	 1.84470876457827E-02 
1814	 2.22822963558544E-02 
1815	-4.16083025450818E-02 
1816	-0.180231032507513 
1817	-0.272886218347754 
1818	-0.497854428742068 
1819	-0.192186179515545 
1820	-4.85268774300966E-03 
1821	 8.40640581893527E-02 
1822	 0.165686397608404 
1823	 4.04578659715394E-02 
1824	 3.48380177034867E-02 
1825	 0.251710059938144 
1826	 0.102339511873942 
1827	-0.5277408471584 
1828	-0.842725867334305 
1829	-0.942147693974833 
1830	-0.770479853363593 
1831	-0.603558604491937 
1832	-0.306623684401994 
1833	 0.457034676985274 
1834	 0.562922434250665 
1835	 1.20375541257329 
1836	 1.50481923705782 
1837	-5.76795681885245E-02 
1838	-0.252303222575248 
1839	-2.70783401640975E-02 
1840	 0.530887087478082 
1841	 0.869996580785412 
1842	 0.746519018439321 
1843	 0.867582743531457 
1844	 1.36482048096902 
1845	 2.86160127518747 
1846	-0.17919004313159 
1847	-7.82692254553503E-02 
1848	 2.11251523257815 
1849	 0.574244660269853 
1850	 4.04879221146124E-02 
1851	-3.54098259554893E-03 
1852	-0.127217617828601 
1853	-3.80122486734254 
1854	 1.594358940848 
1855	 0.284235260172472 
1856	 7.37478386833391E-02 
1857	-0.122214966827381 
1858	-2.99280656700257E-02 
1859	 0.238781572269781 
1860	 0.265382810892738 
1861	 10.4255533506685 
1862	-4.55537429791362 
1863	 6.66147938118318 
1864	-0.446317884761877 
1865	 1.58113109101592 
1866	-1.80443063359535 
1867	-2.09248906580649 
1868	 0.73917549194812 
1869	 0.516375090962208 
1870	 0.741650663582349 
1871	 1.03023815679366 
1872	 1.23987442818479 
1873	-1.58739221402231 
1874	-1.09496435208315 
1875	 11.8353583198146 
1876	 6.15185654942977 
1877	 2.60015139304263 
1878	 1.29114281575447 
1879	 0.546469888571759 
1880	 0.210375958287444 
1881	-6.73065797374203E-02 
1882	-2.90047467061377E-02 
1883	-0.206722106173039 
1884	 7.78590037966287E-02 
1885	 1.25383205980526 
1886	 1.21553135786022 
1887	-0.150081866891268 
1888	 0.536151724357716 
1889	 0.274467737724849 
1890	-0.888551789435195 
1891	-2.23319548756415 
1892	 2.73563232271851 
1893	 1.15212239766485 
1894	 0.128234346645937 
1895	 0.14042689033419 
1896	 0.412313961155801 
1897	 0.529444989156627 
1898	 1.31333415981407 
1899	 1.15621365086623 
1900	 1.44345699934392 
1901	-2.73890084126465 
1902	-1.24592486172944 
1903	-1.64385401167034 
1904	-1.52723951665505 
1905	-5.91721975952419 
1906	 2.3939867854079 
1907	 3.24589762903008 
1908	 0.80167645144028 
1909	-23.4327023418487 
1910	 1.26041395496448 
1911	 0.287685677041182 
1912	 0.315780969313437 
1913	-0.135827156489223 
1914	-0.921190367181261 
1915	-1.10441890426168 
1916	 0.531188966244754 
1917	-0.570745596028333 
1918	-5.99883371411405 
1919	-8.10250165785737 
1920	-3.76658522543144 
1921	 1.5069510803517 
1922	 1.41305686371786 
1923	 0.620857464000159 
1924	 0.484928617731324 
1925	 0.241298097425664 
1926	 0.193143537233871 
1927	 0.178365097933121 
1928	 0.440832536572681 
1929	 0.7351168771722 
1930	 0.230000314411715 
1931	-0.386063231938739 
1932	 6.46273014332849E-02 
1933	 0.221158800836572 
1934	 0.235119839316795 
1935	 0.214557675484511 
1936	 2.85813584611172E-02 
1937	-0.189593943924452 
1938	-0.270087387642247 
1939	-0.204117956341445 
1940	-4.47984075084639E-02 
1941	-4.54895510869702E-03 
1942	 2.51249747539564E-02 
1943	 7.47655153979038E-02 
1944	 0.055009684248473 
1945	-4.33779005786552E-04 
1946	-7.45578817367217E-03 
1947	 6.86794821771892E-03 
1948	-2.95923129268985E-03 
1949	 2.09307311142408E-02 
1950	 5.25237814173894E-02 
1951	 3.36517901680536E-02 
1952	 2.91598278426397E-02 
1953	 2.36703010693278E-02 
1954	 4.17975285676783E-02 
1955	 3.16905601291406E-02 
1956	 1.74196749350591E-02 
1957	 2.89578116575682E-02 
1958	 2.29886479590025E-02 
1959	 8.03556981189711E-03 
1960	 1.07569354383387E-02 
1961	 1.35191765523315E-02 
1962	 1.23318388775993E-02 
1963	 1.23024716158303E-02 
1964	 8.5151284625322E-03 
1965	 3.95895685220377E-03 
1966	 3.10553127115907E-03 
1967	 1.51752955488375E-03 
1968	 2.75032991233978E-03 
1969	 6.74199442436513E-03 
1970	 8.68456330431785E-03 
1971	 6.36815952633066E-03 
1972	 4.47581552752794E-03 
1973	 5.04869637817932E-03 
1974	 5.13934673488516E-03 
1975	 5.43806023695801E-03 
1976	 6.6873138368985E-03 
1977	 0.005995585990921 
1978	 4.58147648688881E-03 
1979	 4.05219834138947E-03 
1980	 0.004223052024226 
1981	 3.90675292103749E-03 
1982	 3.2118497186314E-03 
1983	 3.24439944357772E-03 
1984	 3.55795595838378E-03 
1985	 3.90497692424472E-03 
1986	 4.70590548323593E-03 
1987	 5.01340141790588E-03 
1988	 4.49137960884807E-03 
1989	 4.18132146667577E-03 
1990	 3.77272383573721E-03 
1991	 4.27778106529211E-03 
1992	 5.71937888860395E-03 
1993	 5.60029013623394E-03 
1994	 5.19637910311181E-03 
1995	 3.81596367098305E-03 
1996	 3.37537222244818E-03 
1997	 4.05831113015501E-03 
1998	 4.41423568045628E-03 
1999	 5.89964662029021E-03 
2000	 7.37296702170305E-03 
2001	 4.51720982012574E-03 
2002	 2.51744231200844E-03 
2003	 6.10268105293005E-03 
2004	 9.71859508947691E-03 
2005	 0.011131708942948 
2006	 1.16513863762921E-02 
2007	 9.05999068061066E-03 
2008	 8.19729524094296E-03 
2009	 7.38864489115007E-03 
2010	 7.38299673252481E-03 
2011	 6.78889539531701E-03 
2012	 6.77247389258431E-03 
2013	 5.68917720929437E-03 
2014	 4.35640678735279E-03 
2015	 5.27514376325411E-03 
2016	 6.04765053047479E-03 
2017	 4.50206662809666E-03 
2018	 2.6702623304544E-03 
2019	 2.05994084778168E-03 
2020	 3.33359890360382E-03 
2021	 4.75412038486972E-03 
2022	 5.27329363294015E-03 
2023	 6.19461828238322E-03 
2024	 6.3740476355306E-03 
2025	 5.35694399164199E-03 
2026	 5.19275285242623E-03 
2027	 5.39071812541692E-03 
2028	 5.41093472616646E-03 
2029	 4.9257801239048E-03 
2030	 4.74928955666718E-03 
2031	 4.16818823380734E-03 
2032	 3.33712635933298E-03 
2033	 3.12825988054626E-03 
2034	 3.4581102177949E-03 
2035	 3.94607467821548E-03 
2036	 4.34274209757972E-03 
2037	 4.73756009164159E-03 
2038	 4.67154431959923E-03 
2039	 4.78797400981048E-03 
2040	 4.92279896937165E-03 
2041	 5.03203751921795E-03 
2042	 5.26002654087088E-03 
2043	 5.42120353876794E-03 
2044	 5.48580795119303E-03 
2045	 5.21267794343379E-03 
2046	 5.53233830709455E-03 
2047	 5.34058049666958E-03 
2048	 5.18742458920322E-03 
2049	 5.07350223646945E-03 
2050	 4.50245305401369E-03 
2051	 4.70845527685202E-03 
2052	 5.29609664437673E-03 
2053	 5.36054777968328E-03 
2054	 0.004957542201882 
2055	 4.52295009341759E-03 
2056	 4.30414826533473E-03 
2057	 4.10632983189671E-03 
2058	 3.70272173226537E-03 
2059	 2.81186390432826E-03 
2060	 2.71289754259175E-03 
2061	 2.67139124049409E-03 
2062	 3.09663690008332E-03 
2063	 3.42785874047523E-03 
2064	 4.91753543443102E-03 
2065	 5.4899560346448E-03 
2066	 4.84204962758139E-03 
2067	 4.97842276783618E-03 
2068	 4.43942903895516E-03 
2069	 4.53178095478794E-03 
2070	 4.77121502153872E-03 
2071	 3.65023736779241E-03 
2072	 3.99689329951948E-03 
2073	 3.89394242284811E-03 
2074	 2.57724721912769E-03 
2075	 2.77743540087307E-03 
2076	 4.63210874580406E-03 
2077	 4.74212585837827E-03 
2078	 4.51821010427853E-03 
2079	 4.92736054037319E-03 
2080	 0.00530347950073 
2081	 4.35567086516797E-03 
2082	 4.66910700081516E-03 
2083	 4.85977579396637E-03 
2084	 4.48492396595938E-03 
2085	 4.22680578951777E-03 
2086	 4.67318128785067E-03 
2087	 5.4089786709821E-03 
2088	 5.29948034175529E-03 
2089	 5.53556809153658E-03 
2090	 5.85798181030599E-03 
2091	 5.32886330881168E-03 
2092	 5.14807217169338E-03 
2093	 5.07401900912734E-03 
2094	 5.20549784145569E-03 
2095	 5.62257484763997E-03 
2096	 5.50748074894453E-03 
2097	 4.98418301878262E-03 
2098	 4.82666126555868E-03 
2099	 4.52656082554375E-03 
2100	 4.50041638638357E-03 
2101	 4.09848427618975E-03 
2102	 3.93621398993576E-03 
2103	 4.30571042827382E-03 
2104	 4.27782153337332E-03 
2105	 4.50107182717757E-03 
2106	 4.97444842477844E-03 
2107	 4.78546502725959E-03 
2108	 4.74722286259969E-03 
2109	 5.16583312881861E-03 
2110	 5.73060995802059E-03 
2111	 5.99754345013851E-03 
2112	 5.64059889174019E-03 
2113	 5.49316745473218E-03 
2114	 5.33944509240985E-03 
2115	 5.09957035542529E-03 
2116	 4.59582564259981E-03 
2117	 4.51661395620552E-03 
2118	 4.52583396039538E-03 
2119	 4.51828685545574E-03 
2120	 4.8066224913661E-03 
2121	 4.99284141772081E-03 
2122	 5.14780295701725E-03 
2123	 5.72322309845561E-03 
2124	 5.37864199265764E-03 
2125	 5.16786979961707E-03 
2126	 5.11206316214117E-03 
2127	 4.5753856073323E-03 
2128	 5.13038809224779E-03 
2129	 5.66179739731434E-03 
2130	 5.04704071539487E-03 
2131	 4.3983997136789E-03 
2132	 4.23469675634188E-03 
2133	 4.6658191018818E-03 
2134	 4.9959381436541E-03 
2135	 6.45986210657313E-03 
2136	 6.6232884104925E-03 
2137	 5.61761732599669E-03 
2138	 5.44463455950158E-03 
2139	 5.24107841430889E-03 
2140	 5.18854754424072E-03 
2141	 5.75018320264196E-03 
2142	 5.97340534314213E-03 
2143	 6.0769364307349E-03 
2144	 5.88552901593293E-03 
2145	 5.85959383879488E-03 
2146	 6.35928067586771E-03 
2147	 6.17211862057248E-03 
2148	 5.17026854631361E-03 
2149	 5.18756421242768E-03 
2150	 5.02597744426746E-03 
2151	 4.47724605591994E-03 
2152	 5.77471961213386E-03 
2153	 7.27996211616601E-03 
2154	 6.63031103678756E-03 
2155	 5.2934875481942E-03 
2156	 4.49051741517158E-03 
2157	 4.67772936404837E-03 
2158	 5.39391721970362E-03 
2159	 5.34135953323966E-03 
2160	 6.02043530821159E-03 
2161	 6.27046915490882E-03 
2162	 4.93033201639641E-03 
2163	 4.73073315405711E-03 
2164	 6.31163781125419E-03 
2165	 6.63334334120081E-03 
2166	 6.06314412502447E-03 
2167	 5.80250064495159E-03 
2168	 5.22645309162391E-03 
2169	 4.72006121636561E-03 
2170	 4.10042393510304E-03 
2171	 3.98599373362039E-03 
2172	 4.0905387091095E-03 
2173	 4.84032626825582E-03 
2174	 5.75925946450479E-03 
2175	 6.44454353386439E-03 
2176	 6.11054298908082E-03 
2177	 5.21089962803697E-03 
2178	 5.69271733550732E-03 
2179	 6.10246201588271E-03 
2180	 6.43543992772758E-03 
2181	 7.32372657257979E-03 
2182	 7.87389192820796E-03 
2183	 7.74846470937756E-03 
2184	 6.7329859092189E-03 
2185	 5.94519965707909E-03 
2186	 5.78777971058242E-03 
2187	 5.66640697425649E-03 
2188	 5.33640506051083E-03 
2189	 5.32870316475528E-03 
2190	 5.70950892217291E-03 
2191	 5.9486132638874E-03 
2192	 5.71685614181924E-03 
2193	 6.00025832574826E-03 
2194	 6.46706406038525E-03 
2195	 6.38722312130781E-03 
2196	 6.29623211277349E-03 
2197	 6.88148699022086E-03 
2198	 7.16544164959199E-03 
2199	 7.1540180375238E-03 
2200	 6.41965239117337E-03 
2201	 5.38892242846482E-03 
2202	 0.005368754118767 
2203	 4.91774644420212E-03 
2204	 4.44433334358427E-03 
2205	 6.0877318458201E-03 
2206	 7.13055379541804E-03 
2207	 7.75178978308639E-03 
2208	 8.86609220908754E-03 
2209	 7.29084362825465E-03 
2210	 5.86602590227141E-03 
2211	 5.2384067276983E-03 
2212	 3.04394688708002E-03 
2213	 3.65240376858613E-03 
2214	 5.49076087026931E-03 
2215	 6.68874165976268E-03 
2216	 9.16196037288538E-03 
2217	 9.40006866281744E-03 
2218	 7.28363153511364E-03 
2219	 6.76913639984842E-03 
2220	 5.71074337717337E-03 
2221	 5.19527857471916E-03 
2222	 6.21250358633557E-03 
2223	 6.17611165761562E-03 
2224	 5.2302491194307E-03 
2225	 5.01475307865302E-03 
2226	 4.70187692150739E-03 
2227	 4.68207151778814E-03 
2228	 5.3132629724855E-03 
2229	 5.71788791443203E-03 
2230	 6.71750153869731E-03 
2231	 6.42873423827563E-03 
2232	 4.60845313217897E-03 
2233	 4.41521833116708E-03 
2234	 4.41262633698118E-03 
2235	 4.14960336070451E-03 
2236	 5.80300055527131E-03 
2237	 6.45500544029032E-03 
2238	 4.90680487895597E-03 
2239	 4.75090653342794E-03 
2240	 4.97174164616865E-03 
2241	 5.26645699768435E-03 
2242	 5.88793247448383E-03 
2243	 5.32381218719858E-03 
2244	 3.37724320272455E-03 
2245	 3.14897036311445E-03 
2246	 4.18398560805539E-03 
2247	 4.0771762024351E-03 
2248	 5.00458915825636E-03 
2249	 5.17151755520438E-03 
2250	 5.49500149060797E-03 
2251	 6.80290698595595E-03 
2252	 7.21617704916276E-03 
2253	 7.43485954422203E-03 
2254	 6.18508216164949E-03 
2255	 4.92165519173451E-03 
2256	 4.66447457759805E-03 
2257	 4.1086712105383E-03 
2258	 3.24743763412797E-03 
2259	 3.85768179904129E-03 
2260	 4.27342141692493E-03 
2261	 4.72901195647896E-03 
2262	 4.64542649290382E-03 
2263	 4.91623667966263E-03 
2264	 4.80057245020888E-03 
2265	 3.84327088939412E-03 
2266	 3.9545338431201E-03 
2267	 4.60988080538334E-03 
2268	 5.14149287898645E-03 
2269	 6.35240055322538E-03 
2270	 5.92537348634958E-03 
2271	 4.49844885026224E-03 
2272	 4.18605933693878E-03 
2273	 3.08575800171268E-03 
2274	 2.85633117286328E-03 
2275	 4.50796774257296E-03 
2276	 4.62708683425398E-03 
2277	 3.49132863671363E-03 
2278	 3.36905642995205E-03 
2279	 3.67806831877798E-03 
2280	 3.57747480570795E-03 
2281	 2.81692523062747E-03 
2282	 3.85984541536277E-03 
2283	 5.65126484527309E-03 
2284	 6.00856794725599E-03 
2285	 6.32520888252134E-03 
2286	 7.99672457751053E-03 
2287	 9.13156683770689E-03 
2288	 8.51462377721031E-03 
2289	 1.03419311047911E-02 
2290	 9.86761627812312E-03 
2291	 5.3076106503363E-03 
2292	 4.00460818670062E-03 
2293	 2.03993338355861E-03 
2294	-5.68809884519509E-04 
2295	 5.72952483849149E-04 
2296	 2.25991134511547E-03 
2297	 5.27203347510881E-03 
2298	 7.21769742070087E-03 
2299	 7.78593511570853E-03 
2300	 9.82270741608906E-03 
2301	 9.66463902642474E-03 
2302	 9.44742210106526E-03 
2303	 8.9063064929717E-03 
2304	 7.54772199369698E-03 
2305	 6.81534920411074E-03 
2306	 5.02711554173415E-03 
2307	 5.93062907210879E-03 
2308	 7.93554369837741E-03 
2309	 8.23446975707493E-03 
2310	 8.12713750238649E-03 
2311	 6.38477720729305E-03 
2312	 4.99583862487661E-03 
2313	 3.93563045946713E-03 
2314	 2.63366257779444E-03 
2315	 3.75169219781599E-03 
2316	 3.65912167863654E-03 
2317	 4.34000911981639E-03 
2318	 6.84779701380143E-03 
2319	 6.09449094649461E-03 
2320	 7.50098603765102E-03 
2321	 8.75257673042735E-03 
2322	 7.00278275423357E-03 
2323	 6.1595246984461E-03 
2324	 2.73181766846523E-03 
2325	 1.30154174518008E-03 
2326	 6.21269703344949E-03 
2327	 8.46881065413233E-03 
2328	 1.02126125199104E-02 
2329	 1.34515674831145E-02 
2330	 1.11715607192815E-02 
2331	 1.01761804120125E-02 
2332	 1.03512986128678E-02 
2333	 5.45720986259637E-03 
2334	 3.80773267719025E-03 
2335	 6.45672669528707E-03 
2336	 6.3012519865029E-03 
2337	 5.68397113863946E-03 
2338	 4.53192243318631E-03 
2339	 7.5578582122505E-05 
2340	-9.8917584664502E-04 
2341	 6.13559619890304E-03 
2342	 1.19534315663102E-02 
2343	 7.05790624143209E-03 
2344	 9.51496333394486E-04 
2345	-1.41375690189861E-03 
2346	-3.72234859911979E-03 
2347	 1.81971681328495E-04 
2348	 7.25167771212803E-03 
2349	 0.010190288511667 
2350	 9.5938082311766E-03 
2351	 9.29740333443204E-03 
2352	 1.18592744327657E-02 
2353	 1.51627144355923E-02 
2354	 0.021072128217756 
2355	 2.02993530073994E-02 
2356	 1.04498127131632E-02 
2357	 9.82250938043237E-03 
2358	 8.15997645418575E-03 
2359	 4.98237039763725E-03 
2360	 1.32024415331673E-02 
2361	 1.80893095775524E-02 
2362	 2.15978719593002E-02 
2363	 2.42272165707071E-02 
2364	 2.31576251852277E-02 
2365	 0.019363620490715 
2366	 7.46890948842845E-03 
2367	-3.63189779949463E-03 
2368	-8.30065447478752E-03 
2369	-4.30084813042698E-04 
2370	 6.23807095183206E-03 
2371	 5.02813527409028E-03 
2372	 1.08037546295071E-02 
2373	 2.30859347160329E-03 
2374	-1.05545457492279E-02 
2375	-5.38730223962982E-03 
2376	-1.26551365871659E-03 
2377	-5.25686836115577E-03 
2378	-2.67096437585161E-03 
2379	 2.75397647191531E-03 
2380	-3.90564486636189E-03 
2381	-1.80043326736192E-02 
2382	-2.18372784413566E-02 
2383	 2.12245326418366E-03 
2384	 1.72420305827545E-02 
2385	 0.018724089165511 
2386	 0.02986235641126 
2387	 1.75702318977973E-02 
2388	-1.58031101926353E-02 
2389	-0.034718532363403 
2390	-2.73824473400656E-02 
2391	-2.63058121511978E-02 
2392	-1.77030787020178E-02 
2393	 1.04477089889591E-02 
2394	 1.26733711497077E-02 
2395	 9.36847815157906E-03 
2396	 2.84785007111171E-02 
2397	 0.034282422858253 
2398	 3.33086155081534E-02 
2399	 3.46249704756742E-02 
2400	 6.18536984039245E-03 
2401	 1.8937205165908E-03 
2402	 2.61828861491792E-02 
2403	 4.31513624403668E-02 
2404	 6.13840468836247E-02 
2405	 3.12039549927582E-02 
2406	-7.88725538816909E-03 
2407	-2.04499107120933E-02 
2408	-5.73721288636969E-02 
2409	-8.47481445801838E-02 
2410	-8.42845790307401E-02 
2411	-0.076140031772 
2412	 7.08653954673547E-03 
2413	 0.112363514671198 
2414	 9.78899162998822E-02 
2415	 5.38480986542446E-02 
2416	-3.36915322980103E-02 
2417	-6.65874283983876E-02 
2418	-4.08272259209125E-02 
2419	-0.109121823447732 
2420	-0.179972974147323 
2421	-0.2186171180283 
2422	-0.159231260716026 
2423	-5.55478591663509E-02 
2424	-5.11362594513149E-03 
2425	 0.019811423197209 
2426	 2.39611919525963E-02 
2427	 5.83511643791614E-02 
2428	 0.102642162552488 
2429	 0.100661488395855 
2430	 6.18297481607863E-02 
2431	 1.56683150838665E-02 
2432	-1.03615286838159E-02 
2433	 1.82850038896734E-02 
2434	 2.05539718784998E-02 
2435	 1.05918502195563E-02 
2436	 6.86582826239379E-02 
2437	 4.98499040456616E-02 
2438	 7.65293537168326E-02 
2439	 0.159768081695098 
2440	 6.75161901327482E-02 
2441	 4.98385742327685E-04 
2442	 0.110319978380365 
2443	 0.10765253307394 
2444	 8.61429618862447E-03 
2445	 4.66665665817347E-02 
2446	-0.018227917547686 
2447	 4.09375535319248E-02 
2448	 0.117988812458466 
2449	 0.254715406166206 
2450	 0.375802421232291 
2451	 0.252339809738576 
2452	 0.181785046696471 
2453	 0.146099873694367 
2454	-3.68000892698863E-02 
2455	-0.209320489052325 
2456	-0.161483722050135 
2457	-0.115244607194334 
2458	-0.187788814948162 
2459	-0.301255412699412 
2460	-0.35998992281686 
2461	-0.163914914704945 
2462	-2.89828841674579E-02 
2463	-0.056625953556469 
2464	-0.043384631821856 
2465	-1.3726855015932E-03 
2466	 1.58606430036558E-02 
2467	-2.90557293314417E-02 
2468	-0.138568904692522 
2469	-0.287157532616463 
2470	-0.438374919007889 
2471	-0.293029706793807 
2472	 0.129349983526621 
2473	-0.740553981544974 
2474	-0.783187508275945 
2475	-0.844093418348138 
2476	-0.821875686582214 
2477	-0.725513428816881 
2478	-0.685679119124544 
2479	-0.363908984647164 
2480	-0.262853202935732 
2481	-0.390861156061633 
2482	-0.717996682645842 
2483	-1.39713628523054 
2484	-1.93123004602277 
2485	-1.26685231229733 
2486	-1.48276250500778 
2487	-1.36662846061773 
2488	-0.476281640890538 
2489	-0.354451478448827 
2490	-0.524765905788329 
2491	-0.199100316654758 
2492	 0.133494953682399 
2493	 0.506114418108273 
2494	 0.102527359570488 
2495	-0.850300573758254 
2496	-1.50848061252888 
2497	-2.81850829895804 
2498	-0.524729631931917 
2499	 0.213917529385661 
2500	-1.55842745600182 
