Wavelength	rt0721far00007.asd
350	 2.83617136105092E-02 
351	 2.78869906566324E-02 
352	 2.75355184338338E-02 
353	 2.77662380268826E-02 
354	 2.82947043427905E-02 
355	 0.027402321872395 
356	 0.027177873609041 
357	 2.76032631706761E-02 
358	 2.79941402313604E-02 
359	 2.80337024685112E-02 
360	 2.74524910595667E-02 
361	 2.67901184875623E-02 
362	 2.69988808378044E-02 
363	 2.76309169059351E-02 
364	 2.78740687674625E-02 
365	 2.76030786244744E-02 
366	 2.77615570319779E-02 
367	 2.73010274192453E-02 
368	 2.70948292881556E-02 
369	 2.78671236375592E-02 
370	 2.81236340739308E-02 
371	 2.80865657931144E-02 
372	 2.79757305944767E-02 
373	 2.79847114534315E-02 
374	 2.79975756072305E-02 
375	 2.78657187862266E-02 
376	 2.77648879918966E-02 
377	 2.82807834302298E-02 
378	 2.85292833745291E-02 
379	 2.87430509427822E-02 
380	 2.91014026375867E-02 
381	 2.87126427725856E-02 
382	 2.87505798237473E-02 
383	 2.90700448959279E-02 
384	 2.90343143289206E-02 
385	 2.95568672504137E-02 
386	 0.029611030803953 
387	 2.93666557376997E-02 
388	 3.03465812883143E-02 
389	 3.02086485183543E-02 
390	 0.029912690226026 
391	 3.03479243100997E-02 
392	 3.06821569500038E-02 
393	 3.07759295495569E-02 
394	 3.07866437915202E-02 
395	 3.09309926049257E-02 
396	 0.030977901194052 
397	 3.11134494051926E-02 
398	 0.031336842802705 
399	 3.14837733341178E-02 
400	 0.031715625120344 
401	 3.18695402212189E-02 
402	 3.18912871527405E-02 
403	 3.20820130730066E-02 
404	 3.20781411010967E-02 
405	 3.20821186543637E-02 
406	 3.23761956399628E-02 
407	 3.24257827603275E-02 
408	 3.25161922065342E-02 
409	 3.27122915255387E-02 
410	 0.032827174069418 
411	 3.30926383734833E-02 
412	 3.32656833974839E-02 
413	 3.32414846986822E-02 
414	 3.34239220244799E-02 
415	 3.36996168830002E-02 
416	 3.38743719677814E-02 
417	 3.38501779950649E-02 
418	 3.43595642301546E-02 
419	 3.46961655464112E-02 
420	 3.47265989588915E-02 
421	 3.50174371865644E-02 
422	 3.52688217540357E-02 
423	 3.55469131266969E-02 
424	 3.58873397575961E-02 
425	 3.60373780670504E-02 
426	 3.62571647029349E-02 
427	 0.03653168188933 
428	 3.67478201050628E-02 
429	 3.71415472585623E-02 
430	 3.74628013051155E-02 
431	 3.76752091469985E-02 
432	 3.80380651378625E-02 
433	 3.83757857030791E-02 
434	 3.86944064416603E-02 
435	 3.90224418069395E-02 
436	 3.93356271888645E-02 
437	 0.039628352898854 
438	 3.99555291517501E-02 
439	 4.03757022275948E-02 
440	 4.07020173271354E-02 
441	 4.09710190586104E-02 
442	 4.12522763734467E-02 
443	 4.16266896010629E-02 
444	 0.04192319455811 
445	 4.21921112971549E-02 
446	 4.25019425176755E-02 
447	 0.04273677912984 
448	 4.29876369411796E-02 
449	 4.32606315953953E-02 
450	 4.34993796807703E-02 
451	 4.37204378345054E-02 
452	 4.39020828092646E-02 
453	 4.40556679063207E-02 
454	 4.42670517023234E-02 
455	 4.44857479407617E-02 
456	 0.044675242161373 
457	 4.48167429154396E-02 
458	 4.49607267204633E-02 
459	 4.50947855171474E-02 
460	 4.52374066891961E-02 
461	 4.54338125548701E-02 
462	 0.045563005576827 
463	 0.045691093615131 
464	 4.58749923016181E-02 
465	 4.60477594592758E-02 
466	 4.61527324599284E-02 
467	 4.62786991046606E-02 
468	 4.65359838736694E-02 
469	 4.65877251450692E-02 
470	 4.67521183692697E-02 
471	 4.70597966826872E-02 
472	 4.70867321280645E-02 
473	 4.71758094964284E-02 
474	 4.73721897462567E-02 
475	 4.76176804687128E-02 
476	 4.77843988992108E-02 
477	 4.79110056947456E-02 
478	 4.80833195130633E-02 
479	 4.83961368846421E-02 
480	 4.86853194540723E-02 
481	 4.89126037547831E-02 
482	 4.91103952239785E-02 
483	 0.04941697130654 
484	 4.96624164634453E-02 
485	 4.98991443943205E-02 
486	 5.02217581360548E-02 
487	 5.04771122044932E-02 
488	 5.07612958452212E-02 
489	 5.11060220072291E-02 
490	 5.14685563406719E-02 
491	 5.17941346166404E-02 
492	 5.21058799083787E-02 
493	 5.24299696570608E-02 
494	 5.27436171392482E-02 
495	 5.31905050077782E-02 
496	 5.36478193330549E-02 
497	 5.39033788117801E-02 
498	 5.42280657284428E-02 
499	 5.46323355427701E-02 
500	 5.50772886054491E-02 
501	 5.54941394179315E-02 
502	 5.59244921218486E-02 
503	 5.63349437439877E-02 
504	 5.67017155321993E-02 
505	 0.057106625210029 
506	 5.75559461467893E-02 
507	 0.058039702172282 
508	 5.85285651825456E-02 
509	 5.88794408057906E-02 
510	 5.92496797408894E-02 
511	 5.97484469788543E-02 
512	 6.02797486381652E-02 
513	 6.07068308968321E-02 
514	 6.11836062942523E-02 
515	 6.19143292913939E-02 
516	 6.24562590040807E-02 
517	 6.30112574020082E-02 
518	 6.36615793812672E-02 
519	 0.064274793304307 
520	 0.06480630565325 
521	 6.53505417509199E-02 
522	 6.59892022351438E-02 
523	 0.066626611182863 
524	 6.73028772058449E-02 
525	 6.79498062319554E-02 
526	 6.84582434506043E-02 
527	 6.91497538311828E-02 
528	 6.98399572815095E-02 
529	 7.04148186743682E-02 
530	 7.10389209545181E-02 
531	 7.17113188972345E-02 
532	 7.23775558828556E-02 
533	 7.29842910922175E-02 
534	 7.36638353360277E-02 
535	 0.07432494948841 
536	 7.49580822466924E-02 
537	 7.56550383560724E-02 
538	 7.63469966755681E-02 
539	 7.69904533886238E-02 
540	 0.077587050942165 
541	 7.82535847099988E-02 
542	 7.89707870574874E-02 
543	 7.96667381766234E-02 
544	 8.02604178825947E-02 
545	 8.08989804239484E-02 
546	 8.15629391025156E-02 
547	 8.22160963752891E-02 
548	 8.28351230591885E-02 
549	 0.083458740950125 
550	 8.40915147156716E-02 
551	 8.47214263240998E-02 
552	 8.53033498818878E-02 
553	 8.59441041790971E-02 
554	 8.66214709265159E-02 
555	 8.71618774023923E-02 
556	 0.087821698852486 
557	 8.84908391097515E-02 
558	 8.90387630432249E-02 
559	 8.95939387242762E-02 
560	 9.00996287056565E-02 
561	 9.05926216040035E-02 
562	 9.11497967204771E-02 
563	 9.16013515637888E-02 
564	 9.20166831637099E-02 
565	 9.24406504052702E-02 
566	 9.28117028443226E-02 
567	 9.31388411614417E-02 
568	 9.34499786614963E-02 
569	 9.37618418409162E-02 
570	 9.39762932127465E-02 
571	 9.42117169368989E-02 
572	 9.44977659834207E-02 
573	 9.47533422725416E-02 
574	 9.48548143293277E-02 
575	 9.48923166230357E-02 
576	 9.49809642669285E-02 
577	 9.51532141067143E-02 
578	 9.51991980929859E-02 
579	 9.51132921537866E-02 
580	 9.50221284225801E-02 
581	 9.49488410950235E-02 
582	 0.094818224141881 
583	 9.45933231169731E-02 
584	 0.094336570700355 
585	 9.39403242434699E-02 
586	 9.34522379569669E-02 
587	 0.092961483030177 
588	 9.24495628746278E-02 
589	 9.20011052586459E-02 
590	 9.16207799127944E-02 
591	 9.11930391388051E-02 
592	 9.07380261555273E-02 
593	 9.01632400130344E-02 
594	 8.94301696334102E-02 
595	 8.86825076372917E-02 
596	 0.08784484360062 
597	 8.68822618820797E-02 
598	 8.58076559774854E-02 
599	 8.47713006651978E-02 
600	 8.39226289386196E-02 
601	 8.32984135262206E-02 
602	 8.27472837155692E-02 
603	 8.23871963206489E-02 
604	 8.21674727457431E-02 
605	 8.20051692778252E-02 
606	 8.19381037109057E-02 
607	 8.18817599846641E-02 
608	 8.18181459282839E-02 
609	 8.18025588474699E-02 
610	 8.18329108662654E-02 
611	 0.081837012190326 
612	 8.17807911069943E-02 
613	 8.17846325644645E-02 
614	 8.17845843681088E-02 
615	 8.17406466139318E-02 
616	 8.16454919436147E-02 
617	 8.16533740957839E-02 
618	 0.0816272687346 
619	 8.15141034524456E-02 
620	 8.14449247501662E-02 
621	 8.13752704162714E-02 
622	 0.08131036925159 
623	 8.12610994100684E-02 
624	 0.081213528727087 
625	 8.10730662303851E-02 
626	 8.08902583287977E-02 
627	 8.08461581108941E-02 
628	 8.08410794370178E-02 
629	 8.08217099607915E-02 
630	 8.07745284238998E-02 
631	 8.07820328772096E-02 
632	 0.080661518435263 
633	 8.05172548967188E-02 
634	 8.05373022846522E-02 
635	 8.03878409981385E-02 
636	 8.02730951754487E-02 
637	 8.02437720006499E-02 
638	 8.00588909045764E-02 
639	 7.98955967319297E-02 
640	 7.97981303472768E-02 
641	 7.97259530507289E-02 
642	 0.079452151118084 
643	 7.92386595916343E-02 
644	 7.91036140710984E-02 
645	 7.88629765974348E-02 
646	 7.85369356527717E-02 
647	 7.82584652689485E-02 
648	 7.80910426824422E-02 
649	 7.78739180192297E-02 
650	 7.76636057037781E-02 
651	 7.74202270855967E-02 
652	 7.70824997342999E-02 
653	 7.66282374765647E-02 
654	 7.60611687088334E-02 
655	 7.54105910583537E-02 
656	 7.48226771115638E-02 
657	 7.42759086054993E-02 
658	 7.37769165501882E-02 
659	 7.33277870725522E-02 
660	 7.29575049072285E-02 
661	 7.26673919740229E-02 
662	 7.24291713876164E-02 
663	 7.22024174345722E-02 
664	 7.19747141868341E-02 
665	 7.18555850296591E-02 
666	 7.18298046412143E-02 
667	 7.16354440000014E-02 
668	 7.14891385983527E-02 
669	 7.13672384806213E-02 
670	 0.071209366246823 
671	 7.11737875672791E-02 
672	 7.11373785603537E-02 
673	 7.10515733344472E-02 
674	 7.09516732103013E-02 
675	 0.070862865592118 
676	 7.07585608874616E-02 
677	 7.06588840734599E-02 
678	 7.07531937641565E-02 
679	 7.07248842340247E-02 
680	 7.05885532459691E-02 
681	 7.05016715788159E-02 
682	 7.04235834961521E-02 
683	 7.03974689491051E-02 
684	 7.03471101698816E-02 
685	 0.070010320531264 
686	 6.98441795562714E-02 
687	 6.97310364238618E-02 
688	 6.94792379250722E-02 
689	 6.93579968447434E-02 
690	 6.90480194618087E-02 
691	 6.85706497741417E-02 
692	 6.81319366382407E-02 
693	 6.76082388477713E-02 
694	 6.71129302904337E-02 
695	 6.66730665187879E-02 
696	 6.60883247274609E-02 
697	 6.53385880321001E-02 
698	 6.45226312371722E-02 
699	 0.063769046577221 
700	 6.27929607434937E-02 
701	 6.18640368402247E-02 
702	 0.061027233078582 
703	 6.01020906754456E-02 
704	 5.91358074520294E-02 
705	 5.80446646072469E-02 
706	 5.68435161225745E-02 
707	 5.57251131758604E-02 
708	 0.054432823660044 
709	 5.30040968547381E-02 
710	 5.15683233693831E-02 
711	 5.01190405789054E-02 
712	 4.84876707712183E-02 
713	 4.66965999960798E-02 
714	 4.49316784532315E-02 
715	 4.32541199711158E-02 
716	 4.14311795653444E-02 
717	 3.94110490446054E-02 
718	 3.75478424374194E-02 
719	 3.58142494288594E-02 
720	 3.43664624060157E-02 
721	 3.30344103475024E-02 
722	 0.031779190084554 
723	 3.02701898750958E-02 
724	 2.86122282454976E-02 
725	 2.70743077864065E-02 
726	 2.56478829343054E-02 
727	 2.41475839932121E-02 
728	 2.25077766404791E-02 
729	 2.10328750731011E-02 
730	 1.96230667893097E-02 
731	 1.83483279379932E-02 
732	 1.72552801166341E-02 
733	 1.63549671159575E-02 
734	 1.56256765429425E-02 
735	 1.50307501927793E-02 
736	 1.44910443641155E-02 
737	 1.41487718985203E-02 
738	 1.39821406729162E-02 
739	 1.38969242649532E-02 
740	 1.36904367432304E-02 
741	 0.013567406474483 
742	 1.34921195761555E-02 
743	 1.33395549129177E-02 
744	 1.33913564820125E-02 
745	 1.34064152495639E-02 
746	 1.33191963623746E-02 
747	 1.33663975623586E-02 
748	 1.33570384185596E-02 
749	 0.013322581063057 
750	 1.33124288640534E-02 
751	 1.32429397170129E-02 
752	 1.31777393748922E-02 
753	 1.31516122261051E-02 
754	 1.31732647080141E-02 
755	 0.013198769146494 
756	 1.32083957318648E-02 
757	 1.32108886813005E-02 
758	 1.32621141504768E-02 
759	 1.31930728754786E-02 
760	 1.30104771643371E-02 
761	 1.29580143922629E-02 
762	 1.29178837229008E-02 
763	 1.30358997924989E-02 
764	 1.32125207573102E-02 
765	 1.33046548176149E-02 
766	 1.32760046211645E-02 
767	 1.33356104245585E-02 
768	 1.34736697659816E-02 
769	 0.013481581972284 
770	 0.013565283378999 
771	 1.36861332295385E-02 
772	 1.37724102763582E-02 
773	 1.37971721428206E-02 
774	 1.38242444032348E-02 
775	 1.39413903970217E-02 
776	 1.41887443848124E-02 
777	 1.42929594273184E-02 
778	 1.43453253432429E-02 
779	 1.44215637950722E-02 
780	 1.45490092878886E-02 
781	 1.46484501385291E-02 
782	 1.48601157227867E-02 
783	 1.51898613013732E-02 
784	 1.52527230491079E-02 
785	 1.53171142101097E-02 
786	 1.54653111574756E-02 
787	 1.56964701433869E-02 
788	 0.015931077961511 
789	 1.62258429030866E-02 
790	 1.64604499164424E-02 
791	 1.64393924936374E-02 
792	 0.016716461227484 
793	 1.70381780423942E-02 
794	 0.01721646049622 
795	 1.73444271346509E-02 
796	 1.75987143341147E-02 
797	 1.78301434272914E-02 
798	 1.79216267104473E-02 
799	 1.81781141321988E-02 
800	 0.018380562350879 
801	 1.84474878883256E-02 
802	 1.84388443060791E-02 
803	 1.87159431917038E-02 
804	 1.90058417701282E-02 
805	 1.90899460841612E-02 
806	 1.89021956752057E-02 
807	 1.89571382007928E-02 
808	 1.89734655555756E-02 
809	 1.87561154440229E-02 
810	 1.87872660708369E-02 
811	 1.85613457054034E-02 
812	 1.82190356783168E-02 
813	 1.81215216062974E-02 
814	 1.80868334994262E-02 
815	 1.77916460618016E-02 
816	 1.73363700255423E-02 
817	 1.71201634794322E-02 
818	 1.67984882399997E-02 
819	 1.64879387657516E-02 
820	 1.61846270487182E-02 
821	 1.57013560117028E-02 
822	 1.50108541232882E-02 
823	 1.44902418382595E-02 
824	 1.42286455044445E-02 
825	 1.34296018101303E-02 
826	 1.26423401337199E-02 
827	 1.19796945566226E-02 
828	 1.14216952656172E-02 
829	 1.08350146087809E-02 
830	 1.03894736247928E-02 
831	 1.00294671869737E-02 
832	 9.58034440376184E-03 
833	 9.35887251175022E-03 
834	 9.26786008086406E-03 
835	 9.13573168546739E-03 
836	 8.78398544150073E-03 
837	 8.81520547443214E-03 
838	 8.89313146729505E-03 
839	 8.71308060773807E-03 
840	 8.58829626806307E-03 
841	 8.47207112543313E-03 
842	 8.4653039039141E-03 
843	 8.6225170404572E-03 
844	 8.60955817907141E-03 
845	 8.44883599233925E-03 
846	 8.2840419657257E-03 
847	 8.28949399142872E-03 
848	 8.21188771620143E-03 
849	 8.05118589560194E-03 
850	 7.94868699907785E-03 
851	 8.15217373622742E-03 
852	 8.25580276127628E-03 
853	 8.11616055844313E-03 
854	 7.83489415086025E-03 
855	 7.86170889839773E-03 
856	 7.92750761502881E-03 
857	 7.81025440231741E-03 
858	 7.50755277763026E-03 
859	 7.73721043482213E-03 
860	 7.78349543091837E-03 
861	 7.62118644593044E-03 
862	 7.56018614510098E-03 
863	 7.51133099454624E-03 
864	 7.54527186280507E-03 
865	 7.6089396034687E-03 
866	 7.5417790468328E-03 
867	 7.3380554210249E-03 
868	 7.28773656253637E-03 
869	 7.42684076393365E-03 
870	 7.43060786279054E-03 
871	 7.47013202857593E-03 
872	 7.4036319972596E-03 
873	 7.21132250616381E-03 
874	 7.27961246083496E-03 
875	 7.29341504019754E-03 
876	 7.12111434409723E-03 
877	 6.82541872281982E-03 
878	 6.91959301313891E-03 
879	 6.88778557376359E-03 
880	 6.7870506834377E-03 
881	 6.8839837357568E-03 
882	 6.92720789515899E-03 
883	 6.82573039488322E-03 
884	 6.67806326642412E-03 
885	 6.69352387461527E-03 
886	 6.79379226591166E-03 
887	 6.80469515581256E-03 
888	 6.65757066172199E-03 
889	 6.4288909448098E-03 
890	 6.26593243738671E-03 
891	 6.38044079986589E-03 
892	 6.68197477052577E-03 
893	 6.50969215274113E-03 
894	 6.22741094494623E-03 
895	 6.08620333251155E-03 
896	 6.19421008874779E-03 
897	 6.27195984767015E-03 
898	 6.28849044689588E-03 
899	 6.23203945100047E-03 
900	 6.15487026881187E-03 
901	 6.22722370520037E-03 
902	 6.14982338932406E-03 
903	 5.99895461717654E-03 
904	 5.98827413195899E-03 
905	 6.25897486089798E-03 
906	 6.30790162812048E-03 
907	 5.99822227024935E-03 
908	 5.53795525545465E-03 
909	 5.11112658683906E-03 
910	 5.34877849553684E-03 
911	 5.88126416420587E-03 
912	 5.62628125918806E-03 
913	 5.72977626259069E-03 
914	 5.82739579784878E-03 
915	 5.66316467539609E-03 
916	 5.37668612146713E-03 
917	 5.57072984248433E-03 
918	 5.58232805086351E-03 
919	 5.25839054804292E-03 
920	 5.30706969275765E-03 
921	 5.45690055371837E-03 
922	 5.50821139771426E-03 
923	 5.37275244763902E-03 
924	 5.17915093566325E-03 
925	 4.70485111471912E-03 
926	 4.34408435541326E-03 
927	 4.59052804184304E-03 
928	 5.55812205871014E-03 
929	 5.19786160238193E-03 
930	 3.5736166325377E-03 
931	 2.70745410663951E-03 
932	 5.87856934038133E-03 
933	 6.31345099680222E-03 
934	 4.29532510500163E-03 
935	 4.5697818928117E-03 
936	 5.84552321279215E-03 
937	 5.81267249301265E-03 
938	 5.41317836950238E-03 
939	 5.96955510442384E-03 
940	 6.28341074829756E-03 
941	 6.36606507942757E-03 
942	 5.35675635522532E-03 
943	 3.48096868480642E-03 
944	 9.97314120973779E-03 
945	 1.07765291318293E-02 
946	 6.19231913924915E-03 
947	 5.33283470153274E-03 
948	 6.98025296596938E-03 
949	 5.4422870119006E-03 
950	 2.7237576467081E-03 
951	 4.16306513568295E-03 
952	 3.2722554522985E-03 
953	 3.4393943982646E-03 
954	 5.38169892862271E-03 
955	 0.007137925159083 
956	 5.73446649037192E-03 
957	 4.53011508324323E-03 
958	 4.39384003848516E-03 
959	 4.00623996944357E-03 
960	 2.59010748762541E-03 
961	 3.79486664930898E-03 
962	 5.73746847697015E-03 
963	 3.8791806031777E-03 
964	 3.29098057665935E-03 
965	 3.38690815771284E-03 
966	 3.66093149299009E-03 
967	 3.94128907961072E-03 
968	 2.93953521783901E-03 
969	 3.48465647595917E-03 
970	 5.04881621526053E-03 
971	 4.54343680812128E-03 
972	 4.94194608321491E-03 
973	 4.78297396379914E-03 
974	 4.19194516950137E-03 
975	 4.93911884937035E-03 
976	 5.27069987570573E-03 
977	 5.07748059029327E-03 
978	 5.15264774487641E-03 
979	 6.28419989885209E-03 
980	 4.79704045112579E-03 
981	 4.20331864117836E-03 
982	 4.8562563114372E-03 
983	 4.37098221169271E-03 
984	 4.72540784569838E-03 
985	 5.02746669263671E-03 
986	 4.70123256254616E-03 
987	 4.00321741061976E-03 
988	 5.59210286899209E-03 
989	 5.55569045303701E-03 
990	 4.05811598485226E-03 
991	 4.30338267094902E-03 
992	 4.57004442452264E-03 
993	 4.91520247519508E-03 
994	 5.04432039017526E-03 
995	 4.60285218542696E-03 
996	 4.73161098942527E-03 
997	 4.58314358636746E-03 
998	 3.78339758681765E-03 
999	 2.83005335110013E-03 
1000	 4.3373001423856E-03 
1001	 4.24280646328065E-03 
1002	 4.61386131057346E-03 
1003	 4.67110931614687E-03 
1004	 5.05716758835276E-03 
1005	 5.18389845006329E-03 
1006	 4.91144211017025E-03 
1007	 4.68688995544398E-03 
1008	 4.55110536249204E-03 
1009	 4.28932046268275E-03 
1010	 4.12419015498427E-03 
1011	 4.03829819820788E-03 
1012	 3.91616144967265E-03 
1013	 3.81593924416059E-03 
1014	 3.84412780264518E-03 
1015	 3.81868213995832E-03 
1016	 3.88033198432866E-03 
1017	 4.2738322413352E-03 
1018	 4.38565478495794E-03 
1019	 4.36762008771385E-03 
1020	 4.3740171300149E-03 
1021	 4.36063233612489E-03 
1022	 4.22144073562496E-03 
1023	 4.06386837405453E-03 
1024	 3.6408539296215E-03 
1025	 3.45664565001915E-03 
1026	 3.41804059933043E-03 
1027	 0.003449282892402 
1028	 3.79289336944782E-03 
1029	 3.97450547140038E-03 
1030	 4.16579936502273E-03 
1031	 4.19871139340191E-03 
1032	 3.98733476992101E-03 
1033	 4.02150730265532E-03 
1034	 4.12943009333292E-03 
1035	 4.24414414966178E-03 
1036	 4.67568701404265E-03 
1037	 4.8703416153621E-03 
1038	 5.23142826657705E-03 
1039	 4.74950333283785E-03 
1040	 4.53426037440747E-03 
1041	 4.41622465001783E-03 
1042	 4.37924502739684E-03 
1043	 4.44995653141999E-03 
1044	 4.43987681873168E-03 
1045	 4.50828519515105E-03 
1046	 4.44642090318585E-03 
1047	 4.20501232837275E-03 
1048	 4.0938322246364E-03 
1049	 3.93861143176209E-03 
1050	 3.94184341624267E-03 
1051	 4.11272221878152E-03 
1052	 4.21020803150976E-03 
1053	 4.44774820614998E-03 
1054	 4.54612036553695E-03 
1055	 4.47112221082447E-03 
1056	 4.47380306800348E-03 
1057	 4.48064401943595E-03 
1058	 4.49051141722582E-03 
1059	 4.42877746758722E-03 
1060	 4.34961807449516E-03 
1061	 4.31992607988414E-03 
1062	 4.24939781478625E-03 
1063	 4.18010387499966E-03 
1064	 4.18488627584369E-03 
1065	 4.13955709285651E-03 
1066	 3.94182505154448E-03 
1067	 3.91234347130868E-03 
1068	 4.06398970386793E-03 
1069	 4.07544749737773E-03 
1070	 3.99921919082667E-03 
1071	 4.04897948954711E-03 
1072	 4.00388943149455E-03 
1073	 4.16352873196751E-03 
1074	 4.27232889611585E-03 
1075	 4.58761030755063E-03 
1076	 4.63838409255998E-03 
1077	 4.48571618980296E-03 
1078	 4.52367178222932E-03 
1079	 4.67917168073192E-03 
1080	 4.57443989168364E-03 
1081	 4.33427885858694E-03 
1082	 4.26642990268668E-03 
1083	 3.95779422118839E-03 
1084	 3.94253109449806E-03 
1085	 4.52155733378069E-03 
1086	 4.60555856280852E-03 
1087	 4.32438657173459E-03 
1088	 4.2848871265447E-03 
1089	 4.06067927734799E-03 
1090	 4.05121194988568E-03 
1091	 4.07677048721216E-03 
1092	 4.50101079740593E-03 
1093	 4.42829018077209E-03 
1094	 3.93425413541805E-03 
1095	 3.89676326157828E-03 
1096	 3.99903158456094E-03 
1097	 3.93172155169616E-03 
1098	 4.08393647938983E-03 
1099	 4.09921732304433E-03 
1100	 3.6457865584775E-03 
1101	 3.55205553459631E-03 
1102	 3.80851741655473E-03 
1103	 3.92482487120315E-03 
1104	 3.99295592653877E-03 
1105	 4.44998771736105E-03 
1106	 4.20824034397868E-03 
1107	 3.55864104175422E-03 
1108	 3.55235897636671E-03 
1109	 3.32817703544074E-03 
1110	 3.48570549551796E-03 
1111	 4.93701060463733E-03 
1112	 5.07835615403765E-03 
1113	 3.98372965019356E-03 
1114	 3.88299108148415E-03 
1115	 3.61426727851097E-03 
1116	 3.43122803221374E-03 
1117	 4.95519964206331E-03 
1118	 5.25356564100173E-03 
1119	 2.93333987712305E-03 
1120	 2.23762546015095E-03 
1121	 2.75288764759715E-03 
1122	 2.78241449206789E-03 
1123	 1.09773434587361E-03 
1124	 1.42229677282984E-03 
1125	 6.71976369386214E-04 
1126	-6.71195788538978E-04 
1127	 2.2505387518585E-03 
1128	 5.86229846124688E-03 
1129	 6.52633500536417E-03 
1130	 5.67407307246296E-03 
1131	 5.06727067831472E-03 
1132	 2.49994235463973E-03 
1133	 2.12902646398751E-03 
1134	 3.25887908113038E-03 
1135	 3.42498294038062E-03 
1136	 4.11351378445333E-03 
1137	 4.10940573479953E-03 
1138	 4.18658909591908E-03 
1139	 1.63150306886774E-03 
1140	 6.9658754387474E-04 
1141	 2.25449546177159E-03 
1142	 2.4744239405958E-03 
1143	 3.24934789014927E-03 
1144	 5.67595057606897E-03 
1145	 5.99584662126459E-03 
1146	 3.90899069654695E-03 
1147	 2.40091493240354E-03 
1148	 2.41512446760183E-03 
1149	 2.89628519920714E-03 
1150	 2.85267892303267E-03 
1151	 4.77167812388406E-03 
1152	 5.01925899748365E-03 
1153	 2.99389982854223E-03 
1154	 2.68733272897999E-03 
1155	 3.0082887088549E-03 
1156	 0.003774220079814 
1157	 3.55573378400959E-03 
1158	 3.47696163452941E-03 
1159	 3.37116360086517E-03 
1160	 3.0188434108709E-03 
1161	 3.37494675100561E-03 
1162	 3.96532611749019E-03 
1163	 3.83095596136551E-03 
1164	 3.38112479360606E-03 
1165	 3.18081743192699E-03 
1166	 3.19674747600888E-03 
1167	 3.27010542063432E-03 
1168	 3.34149320005903E-03 
1169	 3.24884878619439E-03 
1170	 3.11406194135237E-03 
1171	 3.12096471413205E-03 
1172	 3.32617536073976E-03 
1173	 3.4152559951866E-03 
1174	 3.66698142840558E-03 
1175	 3.46986257371959E-03 
1176	 3.09648206495534E-03 
1177	 3.11216961196989E-03 
1178	 3.12074779016529E-03 
1179	 3.12694364142803E-03 
1180	 3.35684659419223E-03 
1181	 3.32125929604448E-03 
1182	 3.04628919236029E-03 
1183	 2.98080268097648E-03 
1184	 2.97741743376727E-03 
1185	 3.07432400353609E-03 
1186	 3.35375500596619E-03 
1187	 3.37225110286963E-03 
1188	 3.24746693471258E-03 
1189	 3.43024879414667E-03 
1190	 3.57146053510039E-03 
1191	 3.41371102562637E-03 
1192	 3.30964478519172E-03 
1193	 3.18967521998361E-03 
1194	 3.07228534036444E-03 
1195	 3.03781375453228E-03 
1196	 3.15873907980699E-03 
1197	 3.37062135741571E-03 
1198	 3.24826980009402E-03 
1199	 2.94144871103429E-03 
1200	 3.05430925596774E-03 
1201	 3.29963311398716E-03 
1202	 3.42787455049642E-03 
1203	 3.50874894971652E-03 
1204	 3.48960953963941E-03 
1205	 3.49121571602209E-03 
1206	 3.39207305670102E-03 
1207	 3.28030641349766E-03 
1208	 3.35968735926518E-03 
1209	 3.40402353412794E-03 
1210	 3.39706767058243E-03 
1211	 3.34044496482003E-03 
1212	 3.23145526004771E-03 
1213	 3.17050674219395E-03 
1214	 3.14147146801983E-03 
1215	 3.18195205626179E-03 
1216	 3.37025870307816E-03 
1217	 3.50943114175071E-03 
1218	 3.38224476724936E-03 
1219	 3.15021935259161E-03 
1220	 3.12973263410317E-03 
1221	 3.15185728763725E-03 
1222	 3.07045083645906E-03 
1223	 3.30040361741828E-03 
1224	 3.61494486138338E-03 
1225	 3.52146183431707E-03 
1226	 3.29546201005398E-03 
1227	 3.20067983502356E-03 
1228	 3.15629722285011E-03 
1229	 3.11840762039926E-03 
1230	 3.19344064695445E-03 
1231	 3.35994118883132E-03 
1232	 3.33983512492109E-03 
1233	 3.22958912843418E-03 
1234	 3.32176096348809E-03 
1235	 3.33810861749814E-03 
1236	 3.22191255619635E-03 
1237	 3.15417026531638E-03 
1238	 3.10069915392659E-03 
1239	 3.15081650960385E-03 
1240	 3.1560742731901E-03 
1241	 3.10745128170934E-03 
1242	 3.06023079683798E-03 
1243	 3.05672654395729E-03 
1244	 2.97221879836205E-03 
1245	 2.9093349135786E-03 
1246	 3.15874241189209E-03 
1247	 3.32910882843115E-03 
1248	 3.23914322787735E-03 
1249	 3.3124714562436E-03 
1250	 3.35078909462239E-03 
1251	 3.09343519897399E-03 
1252	 3.01743658141011E-03 
1253	 3.3378865216293E-03 
1254	 3.50238982529141E-03 
1255	 3.43142053655541E-03 
1256	 3.42179591836686E-03 
1257	 3.39152525304343E-03 
1258	 3.36731887572417E-03 
1259	 3.29189224093279E-03 
1260	 3.29354365271961E-03 
1261	 3.4174054537899E-03 
1262	 3.38720075865813E-03 
1263	 3.21992227377467E-03 
1264	 3.20050386588015E-03 
1265	 3.23639270018628E-03 
1266	 3.20636643265228E-03 
1267	 3.12771239647877E-03 
1268	 2.9970047997967E-03 
1269	 3.12431868126941E-03 
1270	 3.29236431239424E-03 
1271	 3.16888114705982E-03 
1272	 3.17841083019691E-03 
1273	 3.28844036886867E-03 
1274	 3.18904784341023E-03 
1275	 2.99030260024835E-03 
1276	 3.00496756891819E-03 
1277	 3.09730755305744E-03 
1278	 2.9667264864556E-03 
1279	 3.06019763920576E-03 
1280	 3.48262976126756E-03 
1281	 3.51928018639882E-03 
1282	 3.06408268046756E-03 
1283	 3.02627938496786E-03 
1284	 3.08565648761225E-03 
1285	 3.10609614100193E-03 
1286	 3.42994605384782E-03 
1287	 3.51870474605443E-03 
1288	 3.3506049691565E-03 
1289	 3.29210279789353E-03 
1290	 3.22402669975728E-03 
1291	 3.10865144006286E-03 
1292	 3.11910583658054E-03 
1293	 3.25571818649729E-03 
1294	 3.20048771980489E-03 
1295	 3.03499798569905E-03 
1296	 3.06127373896095E-03 
1297	 3.09886662496527E-03 
1298	 3.04553030336458E-03 
1299	 3.27847831179246E-03 
1300	 3.33265945841854E-03 
1301	 3.00748372362666E-03 
1302	 3.12327279104321E-03 
1303	 3.29753528556155E-03 
1304	 3.20139878648306E-03 
1305	 3.30925592427381E-03 
1306	 3.2483383424362E-03 
1307	 2.84880361987502E-03 
1308	 2.80720428273992E-03 
1309	 3.02487353717394E-03 
1310	 3.02158548965342E-03 
1311	 2.97518363059869E-03 
1312	 3.08722423669063E-03 
1313	 3.35008549745706E-03 
1314	 3.22183069736067E-03 
1315	 2.86364073080476E-03 
1316	 2.92833704087319E-03 
1317	 2.95688441083486E-03 
1318	 2.82616177554544E-03 
1319	 2.95318399116666E-03 
1320	 3.12244659168631E-03 
1321	 3.22420410955866E-03 
1322	 2.89585501376875E-03 
1323	 2.63909410421658E-03 
1324	 2.81619297529799E-03 
1325	 2.83500024956417E-03 
1326	 2.85989899403306E-03 
1327	 3.20000013363691E-03 
1328	 3.64507723639692E-03 
1329	 3.18041615687245E-03 
1330	 2.43707549674906E-03 
1331	 2.85525812006859E-03 
1332	 3.35646888384923E-03 
1333	 3.46735993196862E-03 
1334	 3.54959801607421E-03 
1335	 3.74929637115767E-03 
1336	 3.54290865837868E-03 
1337	 3.39412031208047E-03 
1338	 3.75384375278729E-03 
1339	 3.64826196323163E-03 
1340	 2.24428928117769E-03 
1341	 2.32613742702281E-03 
1342	 4.1264703671551E-03 
1343	 4.28891666395453E-03 
1344	 3.9730221356334E-03 
1345	 4.2002097926807E-03 
1346	 3.07890291503216E-03 
1347	 2.62029802772463E-03 
1348	 4.92727180999535E-03 
1349	 6.19037222714372E-03 
1350	 3.51238126405237E-03 
1351	 2.50381894153635E-03 
1352	 8.23174026561614E-03 
1353	 9.95255058117279E-03 
1354	 4.21511457203375E-03 
1355	 2.43411533518406E-03 
1356	 9.86219997007099E-03 
1357	-2.88663433012388E-02 
1358	-3.90688483737178E-02 
1359	 6.98487429538583E-03 
1360	-4.00715331739365E-02 
1361	-6.18376569969096E-02 
1362	 4.77093695502023E-02 
1363	 7.10443577805574E-03 
1364	-0.11021795163611 
1365	-4.65557124509503E-02 
1366	-2.08764625698397E-02 
1367	-6.05044242434409E-02 
1368	-0.014253586833547 
1369	 0.251312861055871 
1370	 0.241732684698491 
1371	 5.43111221120073E-02 
1372	-2.70928823702774E-04 
1373	-0.194995011457397 
1374	-0.210158352113988 
1375	-3.00216587394385E-02 
1376	-2.81512616313269E-03 
1377	 5.53105701048665E-02 
1378	 3.99340188903962E-02 
1379	-0.202320753818539 
1380	-0.186082959316485 
1381	 7.10148742538118E-02 
1382	 6.78627860274195E-02 
1383	 9.36841424470208E-02 
1384	 0.198214269368223 
1385	-7.83300335453817E-02 
1386	-0.13728418626385 
1387	 0.276651826193561 
1388	 0.349621963143139 
1389	 2.75202466444221E-02 
1390	 5.83698896291594E-02 
1391	 0.60062401586017 
1392	 0.259388964450991 
1393	 7.77405936375897E-03 
1394	-1.74668537137208E-02 
1395	-1.29639886151145E-02 
1396	-0.181760103759719 
1397	-0.541392680751321 
1398	 5.65112306804379E-03 
1399	 0.515423281572269 
1400	 0.296290339095217 
1401	 0.149688055641924 
1402	 8.24804220952994E-02 
1403	-0.221508021670945 
1404	-0.284259337108277 
1405	-0.247472580020866 
1406	 6.91715090148593E-02 
1407	 9.04727885829146E-02 
1408	 1.82851685550736E-02 
1409	 4.37174215917099E-03 
1410	-4.23389907689406E-02 
1411	-4.37822980963303E-02 
1412	-1.20103181490347E-02 
1413	-1.48865857534544E-02 
1414	-3.91698165006827E-02 
1415	-0.016816399328162 
1416	 4.75750705419462E-02 
1417	 2.75114788662384E-02 
1418	-0.037604702424186 
1419	-2.13938452934527E-02 
1420	 0.010591963897405 
1421	 7.64091952825892E-03 
1422	 1.82110396247069E-02 
1423	 2.44208896770277E-02 
1424	 1.13649349889502E-02 
1425	 6.30360608178499E-03 
1426	 8.98318498361953E-03 
1427	 1.30468806663887E-02 
1428	 2.23362786162814E-02 
1429	 1.51901048253011E-02 
1430	-5.47500443425594E-03 
1431	-3.59630513006752E-03 
1432	 1.05411561311613E-03 
1433	-1.69361024122333E-03 
1434	 1.21379725150071E-02 
1435	 0.019535669295752 
1436	 0.020629584854027 
1437	 4.70346738515642E-03 
1438	 6.59333915731541E-03 
1439	 9.14179524483265E-03 
1440	 6.28404801954998E-04 
1441	-4.60657094440475E-03 
1442	-1.43816189525259E-03 
1443	-3.57057635613817E-04 
1444	-3.33255190637167E-03 
1445	 7.16085673288287E-05 
1446	 4.20293654036087E-03 
1447	 2.6169136842219E-03 
1448	 1.75615035564952E-03 
1449	 2.11982880370278E-03 
1450	 9.56873263653404E-04 
1451	 4.10281706877342E-04 
1452	 1.20352043570196E-04 
1453	 4.5216805324604E-04 
1454	 1.58113601035586E-03 
1455	 2.25554074825307E-03 
1456	 2.77756792877516E-03 
1457	 4.84933277703147E-03 
1458	 4.71885054375386E-03 
1459	 2.68983209089069E-03 
1460	 2.33121113547409E-03 
1461	 2.2554003114943E-03 
1462	 1.96229764222629E-03 
1463	 2.06905729818548E-03 
1464	 2.13983544465502E-03 
1465	 1.88585313978617E-03 
1466	 2.02101442327102E-03 
1467	 2.12679373316148E-03 
1468	 2.63821217706959E-03 
1469	 4.30434326324124E-03 
1470	 4.99332581605891E-03 
1471	 0.006054257223667 
1472	 5.60728329711733E-03 
1473	 2.88273171451704E-03 
1474	 2.07271674538211E-03 
1475	 1.62164444791756E-03 
1476	 1.51366445107648E-03 
1477	 2.21521887530498E-03 
1478	 2.70785476589196E-03 
1479	 3.75140968499469E-03 
1480	 3.25660570780695E-03 
1481	 1.39850776313768E-03 
1482	 1.65471315491792E-03 
1483	 2.63362488059914E-03 
1484	 2.43137329489215E-03 
1485	 2.49404039431707E-03 
1486	 2.76028476815214E-03 
1487	 2.31049575257496E-03 
1488	 2.09570703897219E-03 
1489	 2.68898986080966E-03 
1490	 2.84447548974402E-03 
1491	 2.27063247887852E-03 
1492	 2.10786231713497E-03 
1493	 2.39225298139329E-03 
1494	 2.45184072881926E-03 
1495	 2.2866989888721E-03 
1496	 2.34609058989226E-03 
1497	 2.58025158462564E-03 
1498	 2.60686993408595E-03 
1499	 2.62179305436583E-03 
1500	 2.66959474630349E-03 
1501	 2.55896521300789E-03 
1502	 2.52787876983371E-03 
1503	 2.7097329572493E-03 
1504	 2.68184191098669E-03 
1505	 2.45910122760356E-03 
1506	 2.37574498883695E-03 
1507	 2.39546825838922E-03 
1508	 2.51463371760556E-03 
1509	 2.66260602996505E-03 
1510	 2.57006663350826E-03 
1511	 2.43489963562669E-03 
1512	 2.31963781133703E-03 
1513	 2.19218228870345E-03 
1514	 2.30724459104053E-03 
1515	 2.29983380800527E-03 
1516	 2.15355218623536E-03 
1517	 2.24574156811905E-03 
1518	 2.44263569308911E-03 
1519	 2.46851197744006E-03 
1520	 2.27976774937748E-03 
1521	 2.30317520193737E-03 
1522	 2.42601589577446E-03 
1523	 2.39715906701462E-03 
1524	 2.4694124575449E-03 
1525	 2.46244889770661E-03 
1526	 2.35016524840907E-03 
1527	 2.47143473196394E-03 
1528	 2.70303074168661E-03 
1529	 2.74480549820317E-03 
1530	 2.54996720872174E-03 
1531	 2.28558133624825E-03 
1532	 2.27760867517882E-03 
1533	 2.54004352159991E-03 
1534	 2.66386820325618E-03 
1535	 2.71074146513905E-03 
1536	 2.76698649468787E-03 
1537	 2.57983027016846E-03 
1538	 2.46358904368849E-03 
1539	 2.49070930532999E-03 
1540	 2.36729506053293E-03 
1541	 2.34621499086926E-03 
1542	 2.38173336622588E-03 
1543	 2.41053201864533E-03 
1544	 2.58328849435876E-03 
1545	 2.56994256288151E-03 
1546	 2.3998114004227E-03 
1547	 2.37115655885427E-03 
1548	 2.42194980057233E-03 
1549	 2.4794355319777E-03 
1550	 2.49727902974639E-03 
1551	 2.36978205028581E-03 
1552	 2.38070921443922E-03 
1553	 2.65263700977642E-03 
1554	 2.65795260876778E-03 
1555	 2.48526981207912E-03 
1556	 2.52949272857619E-03 
1557	 2.55737454366696E-03 
1558	 2.48347696990938E-03 
1559	 2.49482302186258E-03 
1560	 2.43259820898102E-03 
1561	 2.27120024639415E-03 
1562	 2.40726413541548E-03 
1563	 2.66655708969193E-03 
1564	 2.68647512917151E-03 
1565	 2.63735534343595E-03 
1566	 2.63783183692246E-03 
1567	 2.72338188173163E-03 
1568	 2.74707204658728E-03 
1569	 2.57901343398009E-03 
1570	 2.42709069321613E-03 
1571	 2.5333940371727E-03 
1572	 2.71855052308758E-03 
1573	 2.67708624095742E-03 
1574	 2.56305051407488E-03 
1575	 2.33686044041702E-03 
1576	 2.19017939051309E-03 
1577	 2.3937209263958E-03 
1578	 2.62580425292344E-03 
1579	 2.6847695825953E-03 
1580	 2.62478718373681E-03 
1581	 2.68651993360953E-03 
1582	 2.69194069365731E-03 
1583	 2.53609141861273E-03 
1584	 2.59002316124532E-03 
1585	 2.63276395816862E-03 
1586	 2.51683757283309E-03 
1587	 2.43484459793412E-03 
1588	 2.36658464586938E-03 
1589	 2.4054738007665E-03 
1590	 2.5754287826248E-03 
1591	 2.80433874123276E-03 
1592	 2.84346187099642E-03 
1593	 2.56242790599945E-03 
1594	 2.37133793953435E-03 
1595	 2.28693337202583E-03 
1596	 2.26414278701786E-03 
1597	 2.52410604378315E-03 
1598	 2.63401265652066E-03 
1599	 2.49314092663234E-03 
1600	 2.55908531719371E-03 
1601	 2.49488473806953E-03 
1602	 2.23670680557206E-03 
1603	 2.42404000757219E-03 
1604	 2.75090105207277E-03 
1605	 2.58358545029609E-03 
1606	 2.43495228985177E-03 
1607	 0.002630481966613 
1608	 2.57764488435791E-03 
1609	 2.46045446278881E-03 
1610	 2.62344397181814E-03 
1611	 2.67521986151656E-03 
1612	 2.4685561225292E-03 
1613	 2.26016965353727E-03 
1614	 2.33246763762041E-03 
1615	 2.4752415465981E-03 
1616	 2.43493773482933E-03 
1617	 2.54485299276409E-03 
1618	 2.68087016090188E-03 
1619	 2.55862991793632E-03 
1620	 2.48837207935008E-03 
1621	 2.62777236276618E-03 
1622	 2.80200075824074E-03 
1623	 2.78277529942282E-03 
1624	 2.64915491007461E-03 
1625	 2.42859938371198E-03 
1626	 2.35581842342612E-03 
1627	 2.45876450119159E-03 
1628	 2.37547715265425E-03 
1629	 2.47656241722397E-03 
1630	 2.58589615419501E-03 
1631	 2.51801412640883E-03 
1632	 2.57359207451689E-03 
1633	 2.48148888372937E-03 
1634	 2.45003953306524E-03 
1635	 2.66682083419013E-03 
1636	 2.74089183503109E-03 
1637	 2.63551115893591E-03 
1638	 2.52328759443424E-03 
1639	 2.49531560689128E-03 
1640	 2.52070740358541E-03 
1641	 2.5897870217057E-03 
1642	 2.73184213872019E-03 
1643	 2.71878136466494E-03 
1644	 2.64406234365982E-03 
1645	 2.69733129295654E-03 
1646	 2.66007574526815E-03 
1647	 2.41821773572124E-03 
1648	 2.32018773075773E-03 
1649	 2.74580856981559E-03 
1650	 3.05391223056176E-03 
1651	 2.91874102805383E-03 
1652	 2.81071122511367E-03 
1653	 2.69336852623017E-03 
1654	 2.58059047046477E-03 
1655	 2.73499836885494E-03 
1656	 2.77083864118221E-03 
1657	 2.51832492798409E-03 
1658	 2.47022182557439E-03 
1659	 2.74145152512847E-03 
1660	 2.65851010546054E-03 
1661	 2.25542665334506E-03 
1662	 2.27473619694929E-03 
1663	 2.46823722071196E-03 
1664	 2.4495635480831E-03 
1665	 2.49932435249287E-03 
1666	 2.49917680841293E-03 
1667	 2.26881702914336E-03 
1668	 2.59595874351824E-03 
1669	 2.70481602113679E-03 
1670	 2.43367527861259E-03 
1671	 2.34972786406057E-03 
1672	 2.46088569909108E-03 
1673	 2.45491580387706E-03 
1674	 2.49423454508884E-03 
1675	 2.43705105031112E-03 
1676	 2.24945422412009E-03 
1677	 2.31832522574332E-03 
1678	 2.44060887692274E-03 
1679	 2.39189079736523E-03 
1680	 2.32029828927527E-03 
1681	 2.5081677592575E-03 
1682	 2.81847787628648E-03 
1683	 2.65157439479517E-03 
1684	 2.26228519766802E-03 
1685	 2.19683932228608E-03 
1686	 2.16114639288068E-03 
1687	 2.29925893485449E-03 
1688	 2.89167631105509E-03 
1689	 2.96365981633606E-03 
1690	 2.35391800897577E-03 
1691	 2.36977850407955E-03 
1692	 2.61468179655567E-03 
1693	 2.26757054344211E-03 
1694	 2.41805116312363E-03 
1695	 2.75543002197171E-03 
1696	 2.3810255750351E-03 
1697	 2.39877181322267E-03 
1698	 2.73262046869694E-03 
1699	 2.51315864547956E-03 
1700	 2.5354429769165E-03 
1701	 2.74921952415599E-03 
1702	 2.52870095836115E-03 
1703	 2.47083035623195E-03 
1704	 2.54019433599109E-03 
1705	 2.55442961601207E-03 
1706	 2.74974947914044E-03 
1707	 2.77922540197348E-03 
1708	 2.62840988938005E-03 
1709	 2.52099055206939E-03 
1710	 2.46974335512329E-03 
1711	 2.54950291251786E-03 
1712	 2.75575906668531E-03 
1713	 2.44487702297514E-03 
1714	 2.37792591783536E-03 
1715	 2.36933514233099E-03 
1716	 2.42687322145173E-03 
1717	 2.67014810718424E-03 
1718	 2.71333492443659E-03 
1719	 2.23572258239655E-03 
1720	 2.25867163907346E-03 
1721	 2.59836073293158E-03 
1722	 2.1801691985784E-03 
1723	 2.29098419681064E-03 
1724	 2.78360732134022E-03 
1725	 2.44490415761849E-03 
1726	 2.4211899609344E-03 
1727	 2.62260800321836E-03 
1728	 2.20271720289716E-03 
1729	 2.12671872643699E-03 
1730	 2.36986619282058E-03 
1731	 2.26526368940224E-03 
1732	 2.45014257014775E-03 
1733	 2.65140587214645E-03 
1734	 2.52987139816766E-03 
1735	 2.5654693887823E-03 
1736	 2.26497545822317E-03 
1737	 1.61054672448363E-03 
1738	 1.52362344374989E-03 
1739	 1.91138596964163E-03 
1740	 2.15109244553099E-03 
1741	 2.26863878208658E-03 
1742	 2.28320894285996E-03 
1743	 1.96825942723634E-03 
1744	 1.93957525171837E-03 
1745	 2.56424236959338E-03 
1746	 2.31077245874522E-03 
1747	 0.002336579991679 
1748	 0.002217945988769 
1749	 2.00142288365163E-03 
1750	 2.35977536456242E-03 
1751	 2.59488729988015E-03 
1752	 2.38091667146615E-03 
1753	 2.08584989890961E-03 
1754	 1.56043680307844E-03 
1755	 1.59475925220674E-03 
1756	 1.79740881028409E-03 
1757	 2.44519144445156E-03 
1758	 3.18753169319715E-03 
1759	 2.40751141292244E-03 
1760	 1.94494470167718E-03 
1761	 2.39900106431501E-03 
1762	 1.81966889460021E-03 
1763	 1.35876917780011E-03 
1764	 1.8322424920131E-03 
1765	 2.27834094741941E-03 
1766	 2.25343628815918E-03 
1767	 2.2380271229967E-03 
1768	 2.42243760089651E-03 
1769	 2.04934282391855E-03 
1770	 1.66253787177896E-03 
1771	 2.25740881642695E-03 
1772	 2.43446290748039E-03 
1773	 1.51854761955191E-03 
1774	 1.61235248113696E-03 
1775	 2.34513352909522E-03 
1776	 2.31961696623485E-03 
1777	 2.04371044639668E-03 
1778	 1.95638909714604E-03 
1779	 1.40824697784126E-03 
1780	 1.3131029659827E-03 
1781	 1.76142662688316E-03 
1782	 1.85258922480092E-03 
1783	 1.87129052047656E-03 
1784	 2.04466491486847E-03 
1785	 2.8825320320283E-03 
1786	 3.2492482405646E-03 
1787	 2.80262106463357E-03 
1788	 2.12484001912828E-03 
1789	 3.65076674350211E-04 
1790	-9.36810136208413E-05 
1791	 2.2601236032845E-03 
1792	 4.18403001158892E-03 
1793	 3.61343472966381E-03 
1794	 1.70588766327066E-03 
1795	 9.72409174825575E-04 
1796	 4.31133463538725E-03 
1797	 8.68311349213852E-03 
1798	 6.29091215882436E-03 
1799	 2.77468098160411E-03 
1800	-1.21358674047538E-03 
1801	-3.64908369508961E-03 
1802	 1.08553797915796E-02 
1803	 1.61556576866196E-02 
1804	 7.08754539402889E-03 
1805	 2.71219166652184E-03 
1806	-1.05358751400954E-02 
1807	-1.84157905475547E-02 
1808	-1.04881849922905E-02 
1809	-8.82560437361739E-03 
1810	 6.14670838511377E-03 
1811	 5.17326714913229E-03 
1812	-2.07946785596146E-02 
1813	-6.34708798964922E-02 
1814	-0.166445829394468 
1815	-0.176794246027895 
1816	-0.106336729081671 
1817	-9.74271646950651E-02 
1818	 0.130205338160085 
1819	 0.144019189332135 
1820	-0.128778579945543 
1821	-4.22520611168355E-02 
1822	 5.44821155344708E-02 
1823	 0.373968154215163 
1824	 0.379671771290515 
1825	 6.56437801750368E-02 
1826	-3.83449324238336E-02 
1827	-0.481841976809391 
1828	-0.553602979695057 
1829	 0.461119065220304 
1830	 0.6030144566522 
1831	 0.872236020677708 
1832	 0.593910366626223 
1833	 5.34456266145632E-02 
1834	 9.52310593754193E-02 
1835	 1.44278705997849 
1836	 2.01292329529437 
1837	 1.5987452132796 
1838	 1.4186764163691 
1839	 0.534339163934894 
1840	 0.440820402437757 
1841	 4.53993450240334E-02 
1842	-0.344254967793733 
1843	-0.345151999934004 
1844	-6.79383174878496E-02 
1845	 1.34335751344454 
1846	-2.20079356744463 
1847	-2.74216347436273 
1848	 8.89338561213995 
1849	 1.24498634052587 
1850	 0.559082376577628 
1851	 0.377235928522686 
1852	 1.49388390997272 
1853	 7.05546149343457 
1854	-2.08948568463611 
1855	-1.10722632793575 
1856	-0.778342978545896 
1857	-0.547974096386751 
1858	-0.452089688807841 
1859	-0.662244206014578 
1860	-0.447241370020335 
1861	-1.08441690775622 
1862	-1.14665498054515 
1863	 2.97036283767451 
1864	-8.44127005346263 
1865	-0.41295224403255 
1866	-2.41694140115352 
1867	-3.55866239060404 
1868	 3.99428235727539 
1869	 2.42867246995233 
1870	 1.11468149279534 
1871	 0.52442975971085 
1872	 0.605582812256942 
1873	-0.657870085536401 
1874	-1.73222578294194 
1875	 18.1224114010704 
1876	 7.45149736265109 
1877	-0.423566333336285 
1878	-0.308334271352935 
1879	 0.129438907828382 
1880	 7.59206137819915E-02 
1881	 0.105975460644117 
1882	 3.85329401929527E-02 
1883	 3.19769966868332E-02 
1884	-0.539267574857729 
1885	-1.05160128826319 
1886	 1.30709086317676 
1887	-4.05440908374903 
1888	-1.26212986325468 
1889	-1.44133667470551 
1890	-1.8420941096347 
1891	-3.10030088075205 
1892	 1.35834990914483 
1893	 1.05633733784945 
1894	 0.810122224128041 
1895	 1.37343903347385E-02 
1896	 0.168472000311451 
1897	 0.433858197617601 
1898	 0.421069217777804 
1899	 0.540147525833239 
1900	 0.867256445688716 
1901	-1.58954608566683 
1902	-0.664871054466388 
1903	-1.92812960868906 
1904	-1.84773473201408 
1905	-2.48804174136146 
1906	 1.80681140560605 
1907	 1.45243368214019 
1908	 1.54770905242373 
1909	 18.0101962956653 
1910	-1.39264804946068 
1911	-1.83096739672489 
1912	-2.66514770331858 
1913	-2.79566130431309 
1914	-1.49414760752633 
1915	-1.93481491213799 
1916	 1.42848312651958 
1917	 1.10523800982514 
1918	 7.42355680755767 
1919	 6.63114683368814 
1920	 2.49634182703526 
1921	 0.241266200633989 
1922	-3.56401377927147E-02 
1923	-3.45381845482221E-02 
1924	-0.113189387702658 
1925	-0.289183502393 
1926	-0.383891082046829 
1927	-0.575211176528351 
1928	-0.728562511919894 
1929	-1.26282291637301 
1930	-0.4891976320897 
1931	 0.182187626154751 
1932	-3.60338305441425E-02 
1933	 0.108507294432094 
1934	 0.133738515589062 
1935	 3.72595890472163E-02 
1936	-2.09437175391808E-02 
1937	-0.134842035041295 
1938	-0.209073318108778 
1939	-0.207947020992153 
1940	-0.172697192569972 
1941	-0.10511603843506 
1942	-6.10096593081169E-02 
1943	-4.41405725577218E-02 
1944	-3.90668514848877E-03 
1945	-3.54522746644793E-03 
1946	 1.05955268470065E-02 
1947	 0.021976364036715 
1948	-2.44630810046749E-03 
1949	-1.46154202500944E-02 
1950	-1.87759114223392E-02 
1951	-5.93386257540462E-03 
1952	-1.46893732823705E-04 
1953	 9.78512188960033E-03 
1954	 2.57228837754282E-02 
1955	 3.63238904377454E-02 
1956	 2.72153352929236E-02 
1957	 1.85850933197266E-02 
1958	 1.06360937150041E-02 
1959	 4.20248100246986E-04 
1960	-8.6397844085347E-03 
1961	-5.65627563586129E-03 
1962	-1.52133258536409E-03 
1963	 1.0692067322966E-03 
1964	 6.66417012509775E-03 
1965	 8.08516231374004E-03 
1966	 7.91153763856123E-03 
1967	 7.09682075324242E-03 
1968	 5.08672812663512E-03 
1969	 2.31689181454053E-03 
1970	 1.22222572522562E-03 
1971	-5.83260200630843E-06 
1972	 1.22518320032074E-03 
1973	 1.86815526553062E-03 
1974	-2.71442343195181E-04 
1975	-7.97272839020397E-04 
1976	-1.24916797796692E-03 
1977	-1.53991186569331E-03 
1978	 6.92033432686789E-04 
1979	 1.7441983199207E-03 
1980	 3.02879684527324E-03 
1981	 3.02385619001455E-03 
1982	 2.13868423490901E-03 
1983	 6.51939680237994E-04 
1984	 9.96430874118218E-04 
1985	 9.10693405151322E-04 
1986	 1.31414083959024E-03 
1987	 2.72575098272496E-03 
1988	 1.45512150112392E-03 
1989	 3.9532858899322E-04 
1990	 3.86743957377765E-04 
1991	 3.2378355913322E-04 
1992	 1.26137145551811E-03 
1993	 1.87731056085952E-03 
1994	 2.23108665353988E-03 
1995	 2.3266672011533E-03 
1996	 2.28798678895457E-03 
1997	 2.32793890206295E-03 
1998	 3.0203404248201E-03 
1999	 3.97830770696488E-03 
2000	 4.37034967641065E-03 
2001	 3.42516640481377E-03 
2002	 3.2480503386891E-03 
2003	 4.29378609562212E-03 
2004	 3.62498085165354E-03 
2005	 4.05826342744958E-03 
2006	 6.37582689333067E-03 
2007	 4.23430197939019E-03 
2008	 4.14477985244968E-03 
2009	 5.59036394541048E-03 
2010	 9.26746822258158E-03 
2011	 7.86484146793095E-03 
2012	 5.87242272026176E-03 
2013	 3.75405112344441E-03 
2014	-4.27875417702663E-04 
2015	-2.54964313869928E-03 
2016	-2.53659838616764E-04 
2017	 4.03680250527221E-03 
2018	 3.77810164985344E-03 
2019	 1.75721077027024E-03 
2020	 1.24218257758415E-03 
2021	-3.88491289865878E-04 
2022	 2.76647245811106E-04 
2023	 2.24633394009412E-03 
2024	 2.63850853956222E-03 
2025	 2.51918545729147E-03 
2026	 2.57224437973541E-03 
2027	 2.17683626512725E-03 
2028	 1.68456794132781E-03 
2029	 1.90197608221091E-03 
2030	 1.88606445738495E-03 
2031	 1.79796505061891E-03 
2032	 1.80106326025309E-03 
2033	 1.91883702940845E-03 
2034	 1.89225340077575E-03 
2035	 1.99076249722309E-03 
2036	 1.82679418670154E-03 
2037	 1.53388980215606E-03 
2038	 1.65589753856904E-03 
2039	 1.71138266194376E-03 
2040	 1.94769759773946E-03 
2041	 1.94858074758316E-03 
2042	 1.87814399386477E-03 
2043	 1.72490758105399E-03 
2044	 1.23867435591991E-03 
2045	 7.98693325165167E-04 
2046	 1.46003004506896E-03 
2047	 1.68460962667836E-03 
2048	 1.07953882419025E-03 
2049	 1.14314626942367E-03 
2050	 1.03840076638255E-03 
2051	 6.11972538706912E-04 
2052	 1.61884493817837E-03 
2053	 2.67233564209134E-03 
2054	 1.19747475062303E-03 
2055	 2.42224213963122E-05 
2056	 1.95602929621693E-04 
2057	 1.16861376357725E-03 
2058	 7.60022578668324E-04 
2059	 5.77782714815388E-04 
2060	 1.22849492556008E-03 
2061	 1.30838541128929E-03 
2062	 1.25758356782265E-03 
2063	 2.4977004035251E-03 
2064	 3.61621468639444E-03 
2065	 3.42869666084558E-03 
2066	 3.20088361019098E-03 
2067	 2.77078173490062E-03 
2068	 2.26495349968421E-03 
2069	 2.02705681758849E-03 
2070	 1.88247837666671E-03 
2071	 2.42632454773187E-03 
2072	 3.36874418614379E-03 
2073	 3.6650902519774E-03 
2074	 3.37962339888476E-03 
2075	 3.19879247324005E-03 
2076	 2.8609285995092E-03 
2077	 2.57691530226886E-03 
2078	 2.28626255356177E-03 
2079	 1.91161010807696E-03 
2080	 1.40361149967238E-03 
2081	 1.09040018547997E-03 
2082	 7.95902551217736E-04 
2083	 4.65441651020043E-04 
2084	 4.45761440567409E-04 
2085	 8.86951461826463E-04 
2086	 1.08326465787869E-03 
2087	 1.62719827247713E-03 
2088	 2.67819749713354E-03 
2089	 2.86887901284314E-03 
2090	 2.71796032548564E-03 
2091	 2.75049124812573E-03 
2092	 2.55229489038096E-03 
2093	 1.60195399179742E-03 
2094	 1.27952592187042E-03 
2095	 9.73892040202742E-04 
2096	 1.23026742444718E-03 
2097	 2.59276239627224E-03 
2098	 2.44256881933437E-03 
2099	 1.72468026406489E-03 
2100	 1.56649419482658E-03 
2101	 1.32115941564619E-03 
2102	 9.62132302201682E-04 
2103	 1.2971152295965E-03 
2104	 2.13359767312554E-03 
2105	 2.74934952946599E-03 
2106	 2.56721779301557E-03 
2107	 2.63958253722333E-03 
2108	 2.80123538608751E-03 
2109	 2.15609647125761E-03 
2110	 1.55157948563874E-03 
2111	 1.56737305851312E-03 
2112	 1.89391949931999E-03 
2113	 1.82762820722182E-03 
2114	 1.39162380431407E-03 
2115	 1.14179339326139E-03 
2116	 6.48643949945508E-04 
2117	 6.62462147757925E-04 
2118	 8.72214612638808E-04 
2119	 1.12309410885287E-03 
2120	 1.75097600475828E-03 
2121	 2.59460283873368E-03 
2122	 2.47162301678938E-03 
2123	 2.08468206884261E-03 
2124	 2.07189755722816E-03 
2125	 1.87601639836499E-03 
2126	 1.64885425656008E-03 
2127	 2.08216535033159E-03 
2128	 2.38910311476616E-03 
2129	 2.44456467298479E-03 
2130	 2.5361794376377E-03 
2131	 2.86028800062611E-03 
2132	 3.00042675530733E-03 
2133	 2.55223031726404E-03 
2134	 2.39772323603337E-03 
2135	 2.29597608493004E-03 
2136	 2.11223192434807E-03 
2137	 2.08585340575565E-03 
2138	 1.87403187968382E-03 
2139	 1.06324143881897E-03 
2140	 9.1632710452641E-04 
2141	 1.12066588019032E-03 
2142	 1.35043845574554E-03 
2143	 1.76388538602298E-03 
2144	 2.83300771809411E-03 
2145	 3.08788333555941E-03 
2146	 2.62537346925119E-03 
2147	 2.77625211707357E-03 
2148	 2.45477091044727E-03 
2149	 3.09972492207417E-03 
2150	 3.37273180646991E-03 
2151	 1.9182476680067E-03 
2152	 2.13381600996072E-03 
2153	 2.33304897672776E-03 
2154	 1.79005684941014E-03 
2155	 2.39201730709243E-03 
2156	 2.19877897006278E-03 
2157	 1.99552991418909E-03 
2158	 1.26843718117545E-03 
2159	 1.19034473459883E-03 
2160	 1.65305585691017E-03 
2161	 1.34392448965275E-03 
2162	 1.87400336852271E-04 
2163	 3.34379834548429E-04 
2164	 1.02628583633721E-03 
2165	 1.19625945374229E-03 
2166	 2.33390572559403E-03 
2167	 2.67198473490183E-03 
2168	 1.53635039352097E-03 
2169	 1.28559573018538E-03 
2170	 1.40950481354973E-03 
2171	 1.80441704732922E-03 
2172	 2.06495712369286E-03 
2173	 2.57878593105917E-03 
2174	 2.33711410886151E-03 
2175	 1.0502307904436E-03 
2176	 2.87221242095431E-04 
2177	 9.10270644703355E-04 
2178	 1.22216747591311E-03 
2179	 5.06038602732173E-04 
2180	-2.30946988713682E-06 
2181	-9.19798395863738E-04 
2182	-1.11855007094847E-03 
2183	 3.02108098167489E-04 
2184	 1.0607392167633E-03 
2185	 1.30243945971583E-03 
2186	 1.35256695536651E-03 
2187	 4.53510624436504E-04 
2188	 6.35468465203491E-04 
2189	 1.1963296247922E-03 
2190	 1.54785201275472E-03 
2191	 2.4828206292363E-03 
2192	 3.13743343040461E-03 
2193	 3.31786868585845E-03 
2194	 3.82517865225628E-03 
2195	 4.88995111670015E-03 
2196	 5.22449425005047E-03 
2197	 5.57740528183171E-03 
2198	 5.34235143421479E-03 
2199	 4.40831619502731E-03 
2200	 3.04575312077511E-03 
2201	 1.28392769190944E-03 
2202	 1.86512317368222E-03 
2203	 2.47303761459992E-03 
2204	 9.13614452549223E-04 
2205	 3.80666774346393E-04 
2206	 6.67158974380607E-04 
2207	 1.48098997226751E-03 
2208	 3.14072857946586E-03 
2209	 4.15446950382333E-03 
2210	 3.50714539972387E-03 
2211	 3.33138193518263E-03 
2212	 4.50417160229457E-03 
2213	 4.69282474930426E-03 
2214	 4.46614534229528E-03 
2215	 4.3579362245818E-03 
2216	 2.63144205071635E-03 
2217	 1.65015248905443E-03 
2218	 1.78386940173992E-03 
2219	 1.36836682926835E-03 
2220	 2.31889403541547E-05 
2221	 1.77206722636952E-04 
2222	 1.25582838329708E-03 
2223	 1.20257630445326E-03 
2224	 7.82806737871255E-04 
2225	 9.34729191416721E-04 
2226	 1.32867861337305E-03 
2227	 1.71525600691343E-03 
2228	 2.96314394018115E-03 
2229	 3.52857569643114E-03 
2230	 3.00615933307299E-03 
2231	 2.95286900371963E-03 
2232	 3.20040659556398E-03 
2233	 3.20290821753358E-03 
2234	 3.1437996601614E-03 
2235	 2.76868201373408E-03 
2236	 3.38158783594246E-03 
2237	 4.46178217638037E-03 
2238	 4.47925651116017E-03 
2239	 3.28141772766817E-03 
2240	 1.09795614673574E-03 
2241	 2.47414864200895E-04 
2242	 4.49475820194007E-04 
2243	 6.11753677539726E-04 
2244	 1.21028520661902E-03 
2245	 6.01223147595752E-04 
2246	 1.11575431399296E-04 
2247	 2.35493655946296E-03 
2248	 4.44008248383488E-03 
2249	 4.87192610437641E-03 
2250	 4.4439523072595E-03 
2251	 2.95749828434109E-03 
2252	 1.89778730400631E-03 
2253	 2.42903236445317E-03 
2254	 2.85568164745111E-03 
2255	 2.77219526687353E-03 
2256	 2.92399030224373E-03 
2257	 1.41043364042397E-03 
2258	 7.24254195466902E-04 
2259	 1.65957951380738E-03 
2260	 1.70662085228847E-03 
2261	 1.86960179896999E-03 
2262	 2.00982904251868E-03 
2263	 1.69585427077196E-03 
2264	 2.40949572623267E-03 
2265	 3.73375971969307E-03 
2266	 4.2748481929475E-03 
2267	 5.55308597421945E-03 
2268	 5.07939698050583E-03 
2269	 3.07367866836366E-03 
2270	 3.02583585162744E-03 
2271	 2.77292339966573E-03 
2272	 1.56416857431696E-03 
2273	 1.58332648876407E-03 
2274	 5.76683449320376E-04 
2275	-3.47294427531359E-03 
2276	-3.81584760007417E-03 
2277	-1.64247021327845E-03 
2278	-1.30961701951566E-03 
2279	 4.04731211279239E-04 
2280	 1.48331443365166E-03 
2281	 2.07563089371872E-03 
2282	 4.80772397100591E-04 
2283	-1.85052356540121E-04 
2284	 1.04096871790984E-03 
2285	 9.06472609105586E-04 
2286	 7.71939484461327E-04 
2287	 1.43360007753206E-03 
2288	 4.02049568614239E-04 
2289	-1.55371623405151E-03 
2290	-2.62406228073695E-03 
2291	-2.69151195825018E-03 
2292	-3.57789786874038E-03 
2293	-3.1664935329192E-03 
2294	-5.20446532827861E-04 
2295	 1.10827975938756E-03 
2296	 2.16371153493157E-03 
2297	 2.66241332197781E-03 
2298	 7.4842468201701E-04 
2299	-2.37832342288151E-04 
2300	 3.14594568903904E-04 
2301	 1.14664182353753E-03 
2302	 3.64898493870061E-03 
2303	 2.13740817442502E-03 
2304	-1.59494929302362E-04 
2305	 1.08178536358664E-03 
2306	-1.71273051656824E-03 
2307	-3.56932812205171E-03 
2308	-1.14950112440532E-03 
2309	 1.97977222446422E-04 
2310	-4.50987372939232E-04 
2311	-4.29173448177517E-04 
2312	 1.85374293944289E-03 
2313	 8.45795129883984E-05 
2314	-2.14359651890829E-03 
2315	-1.39775028741175E-03 
2316	-2.7024054510672E-03 
2317	-4.80835819119283E-03 
2318	-3.84580400337264E-03 
2319	 6.27880366479629E-04 
2320	-1.10209553141895E-03 
2321	-4.06101184613333E-03 
2322	-1.50888682404434E-03 
2323	-1.18374662386964E-03 
2324	 4.78760011250902E-06 
2325	 2.86519752876272E-04 
2326	 7.98163661437973E-05 
2327	 3.99591159877101E-03 
2328	 7.30557255572475E-03 
2329	 8.37745680196306E-03 
2330	 7.50630513574558E-03 
2331	 4.99752416088169E-03 
2332	-1.74759697635992E-03 
2333	-7.75250334092364E-03 
2334	-8.35073000768875E-03 
2335	-8.12360147240646E-03 
2336	-5.35900317098634E-03 
2337	 2.16461755169672E-04 
2338	 6.62845151741724E-03 
2339	 5.70573076769802E-03 
2340	-4.33417273896887E-04 
2341	-4.92973896575285E-03 
2342	-8.12619944213423E-03 
2343	-7.25878899024369E-03 
2344	-7.87420203572098E-03 
2345	-6.49205870675231E-03 
2346	-3.59760926866931E-03 
2347	 3.18688935510997E-03 
2348	 1.36692026711617E-02 
2349	 1.49111037570369E-02 
2350	 1.42922572761242E-02 
2351	 8.30386492960641E-03 
2352	 3.27031606261857E-03 
2353	 1.02452643109722E-02 
2354	 1.03210857422903E-02 
2355	 8.04421795364287E-03 
2356	 1.16319591990873E-02 
2357	 1.00922300231105E-02 
2358	 1.18461996056567E-02 
2359	 1.93173335829993E-02 
2360	 1.82722582820279E-02 
2361	 1.05720324015677E-02 
2362	 1.57839052788226E-03 
2363	-7.83457906541398E-04 
2364	 5.44090070459925E-04 
2365	 3.45834612091783E-03 
2366	 1.72083144612198E-02 
2367	 1.50934670577248E-02 
2368	 5.18067806253848E-03 
2369	 8.81550312039788E-03 
2370	-2.48040657454736E-03 
2371	-0.015271938686951 
2372	-1.88206420282292E-02 
2373	-1.72049053463912E-02 
2374	-7.33915568111219E-03 
2375	-4.39074040403501E-03 
2376	 5.59904802320904E-05 
2377	 5.49813390135225E-04 
2378	-9.26019881318024E-03 
2379	-2.02486577447083E-02 
2380	-2.42933599348003E-02 
2381	-1.38261330285582E-02 
2382	-9.52270479367055E-03 
2383	 1.24764854440331E-02 
2384	 4.85762404607449E-02 
2385	 2.55419168530972E-02 
2386	 5.10261854812212E-04 
2387	 1.20206354453502E-03 
2388	-6.60481965640627E-03 
2389	 0.011241040533152 
2390	 2.15584536043116E-02 
2391	 9.41547934273622E-03 
2392	 3.32215830478433E-03 
2393	 0.011895273679792 
2394	 3.15207425233228E-02 
2395	 3.65131926010371E-02 
2396	 3.43312806483276E-02 
2397	 1.91821006254337E-02 
2398	 1.09308934321408E-02 
2399	 1.06933004478395E-02 
2400	 0.011944792029764 
2401	 3.05794618588205E-02 
2402	 3.39975737263664E-02 
2403	 3.19943359973401E-02 
2404	 3.08273245199052E-02 
2405	 2.83607938251048E-03 
2406	-4.21358169921087E-02 
2407	-4.16298227222802E-02 
2408	-1.27788727701038E-02 
2409	-0.017518197078213 
2410	-0.0126073794838 
2411	 1.52031930956135E-02 
2412	-1.51018751059973E-02 
2413	-4.81175238519635E-02 
2414	-3.86359763376209E-02 
2415	-0.102353617875362 
2416	-0.123068256356745 
2417	-6.76140087645494E-02 
2418	-3.37082164690011E-02 
2419	-1.08988517902041E-02 
2420	 2.11144090825775E-02 
2421	 0.024524499195614 
2422	-8.7191080612053E-03 
2423	-3.39432411150145E-02 
2424	-0.101968209562602 
2425	-0.130698917296046 
2426	-8.76517873899115E-02 
2427	-9.82170021925421E-02 
2428	-8.66105595263891E-02 
2429	-0.101403503619176 
2430	-0.161639780480069 
2431	-0.115338782217058 
2432	-8.15799785276319E-02 
2433	-5.66502437596378E-02 
2434	-4.10717016594429E-02 
2435	-0.102526761192509 
2436	-3.59964301478281E-02 
2437	-4.13298538471264E-02 
2438	-5.72752012094462E-02 
2439	 0.125895162770772 
2440	 0.150070770194231 
2441	 0.154711974072534 
2442	 0.226971026379236 
2443	 0.128398939250216 
2444	-0.106367157348917 
2445	-0.126732658207816 
2446	-7.78084726666488E-02 
2447	-9.37862942681758E-02 
2448	-3.32644502664427E-02 
2449	 0.124888799186945 
2450	 0.144112988872998 
2451	 0.105060283289713 
2452	-5.95856883853482E-02 
2453	-0.128578583205499 
2454	-0.100841750243419 
2455	-0.20809960609765 
2456	-0.051193254000191 
2457	 0.12109095590179 
2458	 0.192397604379415 
2459	 0.268361910832259 
2460	 9.14131988222246E-02 
2461	-0.314522128162385 
2462	-0.553959402205423 
2463	-0.351910024683759 
2464	-0.277803287668412 
2465	-0.290398878787614 
2466	-8.99723484876123E-02 
2467	 0.136634608140356 
2468	 0.219883784708962 
2469	 0.365997911094913 
2470	 0.513277514056587 
2471	 0.226477550848838 
2472	-0.252655780048382 
2473	 0.320682618312688 
2474	 0.325418534874728 
2475	 0.485892694558658 
2476	 0.435254792601155 
2477	 0.351779287252307 
2478	 0.923067253835784 
2479	 0.95392789177948 
2480	 0.654791333223896 
2481	 1.13582599414414 
2482	 0.721665478589134 
2483	 0.157681467620574 
2484	 3.35977618837771E-02 
2485	-0.111838225836019 
2486	-1.08729180128412 
2487	-0.868434545845644 
2488	 5.77326408974447E-02 
2489	 0.151751364541306 
2490	 0.552658967726255 
2491	 0.368200858950326 
2492	-0.561834306109501 
2493	-1.31889925013983 
2494	-0.783404636025032 
2495	 0.626149880966321 
2496	 5.00348131742107 
2497	 6.76794329972766 
2498	 2.23800502540464 
2499	 1.96975325657475 
2500	 1.93388318647043 
