Wavelength	rt0721far00002.asd
350	 2.79145998176378E-02 
351	 2.70572527460537E-02 
352	 2.72326442060803E-02 
353	 2.76837085755213E-02 
354	 2.77632196329968E-02 
355	 2.77634623973693E-02 
356	 2.75612516278915E-02 
357	 2.74638310070421E-02 
358	 2.76809630790529E-02 
359	 0.02752402276894 
360	 2.71790457071799E-02 
361	 2.70017624449927E-02 
362	 2.73330357333859E-02 
363	 2.74734701438212E-02 
364	 2.75019383342845E-02 
365	 0.027478529514457 
366	 2.72730741015542E-02 
367	 2.71425011477348E-02 
368	 2.72414073964187E-02 
369	 2.75002356151508E-02 
370	 2.71566138944962E-02 
371	 2.74265537438406E-02 
372	 2.79248619087425E-02 
373	 2.75048563792622E-02 
374	 2.72432768832773E-02 
375	 2.73110419608259E-02 
376	 2.76505134323671E-02 
377	 2.80295993970146E-02 
378	 2.79069477697632E-02 
379	 0.028079817717408 
380	 2.88854174878894E-02 
381	 2.82237713242306E-02 
382	 2.78799393160387E-02 
383	 2.82815041830653E-02 
384	 2.90129127251207E-02 
385	 0.029106194072495 
386	 0.028934309271457 
387	 2.89155087789638E-02 
388	 2.93273490655232E-02 
389	 2.92772404178531E-02 
390	 2.93001740997619E-02 
391	 0.029783146365983 
392	 3.01572511127088E-02 
393	 2.99045371112558E-02 
394	 2.97033330916536E-02 
395	 3.02820573012341E-02 
396	 3.01458621994462E-02 
397	 0.030177316709576 
398	 3.05614086679259E-02 
399	 0.030788333281363 
400	 3.08693475036106E-02 
401	 3.08727690245136E-02 
402	 0.030892702588086 
403	 3.10495131752117E-02 
404	 3.12589611934409E-02 
405	 3.14174395352913E-02 
406	 3.14528851769505E-02 
407	 3.14968712685653E-02 
408	 0.031618396456674 
409	 3.17838467453163E-02 
410	 3.18739927465859E-02 
411	 3.19881852052268E-02 
412	 3.20510569126499E-02 
413	 3.20834875716785E-02 
414	 3.24442915187277E-02 
415	 3.25397766679802E-02 
416	 3.25637966464447E-02 
417	 3.29233791666108E-02 
418	 0.033212311227021 
419	 3.33733545853547E-02 
420	 0.033504725801243 
421	 3.38276044307403E-02 
422	 0.03397018861962 
423	 3.41244144150539E-02 
424	 3.44512425614516E-02 
425	 3.46986431077269E-02 
426	 3.49704727769604E-02 
427	 3.52006029440293E-02 
428	 3.53055824429871E-02 
429	 3.56601208393791E-02 
430	 3.59976710197275E-02 
431	 3.62410280321167E-02 
432	 3.66030740889835E-02 
433	 3.68702816488629E-02 
434	 0.037089657202872 
435	 3.73495279201073E-02 
436	 3.76802504753769E-02 
437	 3.80677201564847E-02 
438	 3.84221809890809E-02 
439	 3.86445487401356E-02 
440	 3.89463554408183E-02 
441	 3.91995465390783E-02 
442	 3.93939337080256E-02 
443	 3.97454573448564E-02 
444	 4.00588009561739E-02 
445	 4.03096101437356E-02 
446	 4.05385098273838E-02 
447	 4.08465024994668E-02 
448	 4.11251359647977E-02 
449	 4.13396545410188E-02 
450	 4.15196144118989E-02 
451	 4.17173842023967E-02 
452	 4.18887529883473E-02 
453	 0.04201949659905 
454	 4.21826370503495E-02 
455	 4.23778063765283E-02 
456	 4.25467138525181E-02 
457	 4.26354019052609E-02 
458	 0.042736524842396 
459	 4.28560494466599E-02 
460	 4.30038785947083E-02 
461	 4.31913369566644E-02 
462	 4.32854557919662E-02 
463	 4.33615312135731E-02 
464	 4.35113025683963E-02 
465	 4.37730929328827E-02 
466	 4.38694299893725E-02 
467	 4.39108546151734E-02 
468	 4.41426799166659E-02 
469	 4.42035437411971E-02 
470	 4.43291552922466E-02 
471	 4.45555316157053E-02 
472	 4.45859900393315E-02 
473	 4.47003678062998E-02 
474	 4.48802208051098E-02 
475	 4.50554169092443E-02 
476	 4.52705327536175E-02 
477	 4.54383954722765E-02 
478	 0.045581374982418 
479	 4.57905159004872E-02 
480	 4.60044821451612E-02 
481	 4.62305853139149E-02 
482	 4.64591003437956E-02 
483	 4.66194169157377E-02 
484	 4.68299871657221E-02 
485	 4.71081516646439E-02 
486	 4.74237330930938E-02 
487	 4.77416439254098E-02 
488	 4.79973062898956E-02 
489	 4.82193526943097E-02 
490	 4.85193657655893E-02 
491	 4.87967583324729E-02 
492	 4.90528281440652E-02 
493	 4.93275606018423E-02 
494	 4.97226519185366E-02 
495	 5.00977625944772E-02 
496	 5.04435295378431E-02 
497	 5.08022237814519E-02 
498	 5.10195916401161E-02 
499	 0.051303913784223 
500	 5.17405806459768E-02 
501	 5.21768155335392E-02 
502	 5.25187615632899E-02 
503	 0.052879184872582 
504	 5.33512093669999E-02 
505	 0.053666980546177 
506	 5.40325934431806E-02 
507	 5.44679718272036E-02 
508	 5.48423510383082E-02 
509	 5.52170864190833E-02 
510	 5.56075277937377E-02 
511	 5.60297413635913E-02 
512	 5.65368015954573E-02 
513	 5.69492111451002E-02 
514	 5.73850052500655E-02 
515	 5.80234949503066E-02 
516	 5.84710661246927E-02 
517	 5.90079855500515E-02 
518	 5.96835278226684E-02 
519	 0.060199828930436 
520	 6.06747268797357E-02 
521	 6.11614345328802E-02 
522	 6.16978648049883E-02 
523	 6.23160005151652E-02 
524	 0.062872084656032 
525	 6.33759814424671E-02 
526	 6.39484520062789E-02 
527	 6.45882752258419E-02 
528	 0.065237426370725 
529	 6.58335880713029E-02 
530	 6.63050888433197E-02 
531	 6.68933721710413E-02 
532	 6.75419366794699E-02 
533	 6.81109944895814E-02 
534	 6.87336911342551E-02 
535	 6.93077753162889E-02 
536	 6.98474012961049E-02 
537	 0.070505144517092 
538	 7.11072967933134E-02 
539	 7.16688425424601E-02 
540	 7.22521386782026E-02 
541	 7.29218380267307E-02 
542	 7.35561856070118E-02 
543	 7.41370288808382E-02 
544	 7.47169633754793E-02 
545	 7.53056801767163E-02 
546	 7.59045157097761E-02 
547	 7.65034593386527E-02 
548	 0.077077796346476 
549	 7.76349147897426E-02 
550	 7.81902395353171E-02 
551	 7.87635175032356E-02 
552	 7.93699775631399E-02 
553	 7.99589614562848E-02 
554	 8.05193581065884E-02 
555	 8.10854881294113E-02 
556	 8.16683762681625E-02 
557	 8.22147930468032E-02 
558	 8.26992258621626E-02 
559	 8.32665612013129E-02 
560	 8.37402574065864E-02 
561	 8.41475985934084E-02 
562	 8.46337598753455E-02 
563	 8.51131458425783E-02 
564	 0.085526834669493 
565	 8.58581130799992E-02 
566	 8.61649774066804E-02 
567	 0.086428889982073 
568	 8.66858875025717E-02 
569	 8.69720134550986E-02 
570	 8.72166607871178E-02 
571	 8.74721072785922E-02 
572	 8.77223991109021E-02 
573	 8.78739013652715E-02 
574	 8.79944651830748E-02 
575	 8.80796873413803E-02 
576	 8.81346044816557E-02 
577	 8.82539200107549E-02 
578	 8.83181245042253E-02 
579	 8.82846984896365E-02 
580	 0.088170723121011 
581	 8.80359283240821E-02 
582	 8.78971183807516E-02 
583	 8.77509259840172E-02 
584	 8.75847478220318E-02 
585	 8.72133590537377E-02 
586	 8.67116585576069E-02 
587	 8.62330022252919E-02 
588	 8.57567427114682E-02 
589	 8.53385848789787E-02 
590	 8.49850034198118E-02 
591	 8.46179225324282E-02 
592	 8.42502121032663E-02 
593	 8.37235214091427E-02 
594	 8.29845390584866E-02 
595	 8.23575236182533E-02 
596	 0.081626930139395 
597	 8.07529552589314E-02 
598	 7.98136645721493E-02 
599	 7.89207325273451E-02 
600	 7.81642867793921E-02 
601	 7.75756326791252E-02 
602	 0.077093488199363 
603	 7.67864289165249E-02 
604	 7.65949014254822E-02 
605	 7.64352145809323E-02 
606	 7.63136327884618E-02 
607	 0.076276746648814 
608	 7.62823399420991E-02 
609	 0.076202929078266 
610	 7.62133154225084E-02 
611	 7.62132433055092E-02 
612	 7.61223908837127E-02 
613	 7.60827637218846E-02 
614	 7.61137118182002E-02 
615	 7.60930991896578E-02 
616	 0.075879669891584 
617	 7.59462410483445E-02 
618	 7.59862722356746E-02 
619	 7.58414961048257E-02 
620	 7.57207418001247E-02 
621	 7.56473709495505E-02 
622	 0.075614697074207 
623	 0.075588563411598 
624	 7.55111157097178E-02 
625	 7.53730284329649E-02 
626	 7.52354268909543E-02 
627	 7.52113973803283E-02 
628	 7.51106715541611E-02 
629	 0.075034563844338 
630	 0.075053987860928 
631	 7.50238516439206E-02 
632	 7.49184694401787E-02 
633	 7.48061810933642E-02 
634	 7.47783056820462E-02 
635	 7.46870329049544E-02 
636	 7.45924174474866E-02 
637	 7.45163236883142E-02 
638	 7.43970672619853E-02 
639	 7.42624900227693E-02 
640	 7.41280042857234E-02 
641	 7.39908599322793E-02 
642	 7.37753216052307E-02 
643	 0.073604000160481 
644	 7.34413116417162E-02 
645	 7.31333685061356E-02 
646	 7.28319890928414E-02 
647	 7.26652245105527E-02 
648	 7.26127745543741E-02 
649	 7.23138254516162E-02 
650	 7.21038968707986E-02 
651	 7.19164504841317E-02 
652	 7.15690399996529E-02 
653	 7.11428188085923E-02 
654	 7.06689537696129E-02 
655	 7.01269850497977E-02 
656	 6.95070588403091E-02 
657	 6.89802247539578E-02 
658	 6.85603957923593E-02 
659	 6.82074058709438E-02 
660	 6.78889204152087E-02 
661	 6.75738002053923E-02 
662	 6.73063297944239E-02 
663	 6.71654664915218E-02 
664	 6.70023365468647E-02 
665	 6.68600427530073E-02 
666	 6.67440277392015E-02 
667	 6.65430516759352E-02 
668	 6.64624357519724E-02 
669	 6.63834807959369E-02 
670	 0.066168000106621 
671	 6.61511585622563E-02 
672	 6.61210744552074E-02 
673	 6.60195814689605E-02 
674	 6.59527088254338E-02 
675	 6.58898735837538E-02 
676	 6.58161794507341E-02 
677	 6.57381444071534E-02 
678	 6.57210465723749E-02 
679	 6.56462852993317E-02 
680	 6.55477877778878E-02 
681	 6.55082629360316E-02 
682	 6.54040733202424E-02 
683	 6.53719886175593E-02 
684	 6.53791574798295E-02 
685	 6.51267025441539E-02 
686	 6.48598956207036E-02 
687	 6.46533638360347E-02 
688	 6.45063835126531E-02 
689	 0.064355564712657 
690	 6.40905819114923E-02 
691	 6.36973255074773E-02 
692	 6.32193605712888E-02 
693	 6.27028975750828E-02 
694	 0.062273849622628 
695	 6.19242252158337E-02 
696	 6.13936013384808E-02 
697	 6.08190749120335E-02 
698	 6.00830276967993E-02 
699	 5.91408524875587E-02 
700	 5.84198953582282E-02 
701	 5.76684568766952E-02 
702	 0.056839294526004 
703	 5.60405130236334E-02 
704	 5.51784670583331E-02 
705	 5.41782442629442E-02 
706	 5.30723209207608E-02 
707	 5.20497636560007E-02 
708	 5.08761153683766E-02 
709	 4.96167464969929E-02 
710	 4.83900521581174E-02 
711	 0.046953457503182 
712	 4.54460611800507E-02 
713	 4.39178421009411E-02 
714	 0.04226597404675 
715	 4.06710060380277E-02 
716	 3.89453920639625E-02 
717	 3.70735428682646E-02 
718	 3.54605995598791E-02 
719	 3.38898048541585E-02 
720	 3.25082707701477E-02 
721	 3.12476905267246E-02 
722	 3.01352387987568E-02 
723	 2.86794215983291E-02 
724	 0.027035596355544 
725	 2.58644421391897E-02 
726	 2.44927245934539E-02 
727	 2.29822268306088E-02 
728	 2.15158766605764E-02 
729	 2.00419712090128E-02 
730	 1.86249744635945E-02 
731	 1.74252361576889E-02 
732	 1.64936822646195E-02 
733	 1.56219044362328E-02 
734	 0.014883175392106 
735	 1.42970755280763E-02 
736	 1.37686942474141E-02 
737	 1.34720417612039E-02 
738	 1.32950037045729E-02 
739	 1.31227514159761E-02 
740	 1.30375540400554E-02 
741	 1.29626281649846E-02 
742	 1.28611820806224E-02 
743	 1.27386671428194E-02 
744	 1.27407914251481E-02 
745	 1.27715346061551E-02 
746	 1.27512704587154E-02 
747	 1.26580730644146E-02 
748	 1.26359714618328E-02 
749	 0.012624494798568 
750	 1.25610487626327E-02 
751	 1.25635993036629E-02 
752	 1.25493310266166E-02 
753	 1.25379239158936E-02 
754	 0.012586812770705 
755	 1.25687236150781E-02 
756	 0.012557098528413 
757	 1.25792188433107E-02 
758	 1.25666899994263E-02 
759	 1.24144899751934E-02 
760	 0.012217865394012 
761	 1.22653109043328E-02 
762	 1.23273270310897E-02 
763	 0.012381061037739 
764	 1.24856806965147E-02 
765	 1.26655774866778E-02 
766	 1.26749316084643E-02 
767	 1.26994174720011E-02 
768	 1.27918360679795E-02 
769	 1.28775693487461E-02 
770	 1.29458417594394E-02 
771	 1.30363339232271E-02 
772	 1.31535342970389E-02 
773	 1.31720263841184E-02 
774	 1.32062128915367E-02 
775	 1.33072968744958E-02 
776	 0.01347934489471 
777	 1.36513689416414E-02 
778	 0.01369425896293 
779	 1.36863217114993E-02 
780	 1.38960473980313E-02 
781	 1.40818312920732E-02 
782	 1.42466055397061E-02 
783	 1.44132740080103E-02 
784	 1.45529954590595E-02 
785	 1.46022737613188E-02 
786	 1.47038893998457E-02 
787	 1.50034229356487E-02 
788	 1.52426427322776E-02 
789	 1.54824777345243E-02 
790	 1.56643975546995E-02 
791	 1.56757990060817E-02 
792	 1.59272954513925E-02 
793	 1.62593447790722E-02 
794	 1.65033697632933E-02 
795	 1.65983645047392E-02 
796	 1.68536978232023E-02 
797	 1.70840303105609E-02 
798	 1.71207926882887E-02 
799	 1.73240412486797E-02 
800	 1.74948585203513E-02 
801	 1.75763459289817E-02 
802	 1.76220844418735E-02 
803	 1.77818941063881E-02 
804	 1.80230854806516E-02 
805	 1.82079312154954E-02 
806	 1.81296489582858E-02 
807	 1.80648155115388E-02 
808	 1.80256245003296E-02 
809	 1.79834701699964E-02 
810	 1.79669324841659E-02 
811	 1.76917443985773E-02 
812	 1.73448914789786E-02 
813	 1.72609533462989E-02 
814	 1.71826286182485E-02 
815	 1.68516633446467E-02 
816	 1.64622221155359E-02 
817	 1.64408045563623E-02 
818	 1.59327868712322E-02 
819	 1.55288288849437E-02 
820	 1.53771090200261E-02 
821	 1.49594187927748E-02 
822	 1.44905339881555E-02 
823	 0.013944061301479 
824	 1.33173800042481E-02 
825	 1.26969758029272E-02 
826	 1.20250273685581E-02 
827	 1.13709239911729E-02 
828	 0.010856397835072 
829	 1.03218948352478E-02 
830	 9.80927905815062E-03 
831	 9.35639275596979E-03 
832	 9.00353066824534E-03 
833	 8.7895721285968E-03 
834	 8.64392956491552E-03 
835	 8.49521604655382E-03 
836	 8.29876178864608E-03 
837	 8.33637345314347E-03 
838	 8.37600757538792E-03 
839	 8.20207589097004E-03 
840	 7.90183546889952E-03 
841	 7.7975166135743E-03 
842	 7.88470915968689E-03 
843	 7.99857827613464E-03 
844	 7.95676571680536E-03 
845	 7.86082099017543E-03 
846	 7.72911739356756E-03 
847	 7.5440030493943E-03 
848	 7.58586445498561E-03 
849	 7.49141558618815E-03 
850	 7.3068204261715E-03 
851	 7.63089980435128E-03 
852	 7.53476828209787E-03 
853	 7.30104014207755E-03 
854	 7.28560122795605E-03 
855	 7.42568051620943E-03 
856	 7.30576709202019E-03 
857	 7.14421127288942E-03 
858	 7.1803829576961E-03 
859	 7.03690291181896E-03 
860	 6.98457770219333E-03 
861	 7.02704237783276E-03 
862	 7.03620200672879E-03 
863	 7.03245948383366E-03 
864	 6.88967100097419E-03 
865	 6.76537497288634E-03 
866	 6.98822984759321E-03 
867	 6.84592697604428E-03 
868	 6.73153164371779E-03 
869	 6.80010257098099E-03 
870	 6.71517693883418E-03 
871	 6.92661466609452E-03 
872	 6.88809903866039E-03 
873	 6.40370035567359E-03 
874	 6.51808754744175E-03 
875	 6.57839656157176E-03 
876	 6.45768486924422E-03 
877	 6.27300022090155E-03 
878	 6.39865418439563E-03 
879	 6.48189914495321E-03 
880	 6.40302142237527E-03 
881	 6.21867718512435E-03 
882	 6.17488716994439E-03 
883	 6.27397386325533E-03 
884	 6.23673758319271E-03 
885	 5.74682988906181E-03 
886	 5.87321732304916E-03 
887	 5.92941423768035E-03 
888	 5.74312046194272E-03 
889	 5.90008119843881E-03 
890	 5.84202761387023E-03 
891	 5.89209407424244E-03 
892	 6.10181833693825E-03 
893	 5.72905909822427E-03 
894	 5.60332707570411E-03 
895	 5.86503130502205E-03 
896	 6.20041141657598E-03 
897	 5.62413717287695E-03 
898	 5.5979838211129E-03 
899	 5.76380563380086E-03 
900	 5.45535695628631E-03 
901	 5.46209982927493E-03 
902	 5.4457919948954E-03 
903	 5.33253261763977E-03 
904	 5.25515100042294E-03 
905	 5.86440255585941E-03 
906	 5.97334758758496E-03 
907	 5.45394004349274E-03 
908	 5.06674566062766E-03 
909	 5.19776509164133E-03 
910	 5.21398359835106E-03 
911	 5.17090604124264E-03 
912	 5.68773074138705E-03 
913	 5.65843394496983E-03 
914	 5.25930249978653E-03 
915	 5.03092817187096E-03 
916	 5.51066576483143E-03 
917	 5.1520275316425E-03 
918	 4.72284673480927E-03 
919	 4.7634423641871E-03 
920	 5.05405817154079E-03 
921	 5.25252812622041E-03 
922	 5.21537694826002E-03 
923	 4.96779817289293E-03 
924	 4.77607042307297E-03 
925	 4.41666733182355E-03 
926	 4.13736724281014E-03 
927	 4.25310107170357E-03 
928	 4.77152280067625E-03 
929	 4.52380781574264E-03 
930	 3.86684591795368E-03 
931	 4.09379528725258E-03 
932	 4.79439859046205E-03 
933	 2.90981345670082E-03 
934	 1.52630556635728E-03 
935	 4.85292284975898E-03 
936	 7.02389887973848E-03 
937	 5.47811728461928E-03 
938	 3.73241724773843E-03 
939	 4.96277955983728E-03 
940	 4.52554864871291E-03 
941	 5.75366018146481E-03 
942	 7.09170379914756E-03 
943	 5.49264358388437E-03 
944	 4.99013990387206E-03 
945	 0.007018897049591 
946	 8.52624201744898E-03 
947	 5.74062948590065E-03 
948	 5.17821328659033E-03 
949	 5.48381765217591E-03 
950	 5.87132817528377E-03 
951	 6.2476632530498E-03 
952	 6.67218863187777E-03 
953	 6.39989775814836E-03 
954	 5.76141488654611E-03 
955	 5.50768062469382E-03 
956	 3.7872341622274E-03 
957	 3.30590005060353E-03 
958	 3.9306935483115E-03 
959	 3.69160946236502E-03 
960	 4.06522750069015E-03 
961	 5.06029601473897E-03 
962	 5.44187923742271E-03 
963	 3.91884123830949E-03 
964	 3.04555857285361E-03 
965	 3.16264455341706E-03 
966	 3.5685464424553E-03 
967	 3.25934199966693E-03 
968	 3.10160047632519E-03 
969	 3.97510861775639E-03 
970	 4.57269360526112E-03 
971	 2.63797171428752E-03 
972	 4.01221686520761E-03 
973	 4.4821805681445E-03 
974	 3.53222337941471E-03 
975	 4.82341317564772E-03 
976	 6.02581025619861E-03 
977	 0.00526903089388 
978	 3.95361458856982E-03 
979	 5.26878490178498E-03 
980	 5.00801690673505E-03 
981	 4.2888443534739E-03 
982	 0.003805051069717 
983	 3.59070122580089E-03 
984	 5.2254202698955E-03 
985	 6.01203857958411E-03 
986	 5.16333155406933E-03 
987	 4.04135617852883E-03 
988	 5.11511220918077E-03 
989	 5.04764760481172E-03 
990	 3.97954136177176E-03 
991	 4.64827010893366E-03 
992	 5.63141504149002E-03 
993	 5.44204882113594E-03 
994	 0.004716965183787 
995	 4.97411557860097E-03 
996	 3.20362903794311E-03 
997	 3.86464647828409E-03 
998	 5.5191352649099E-03 
999	 3.97811014975271E-03 
1000	 3.1743684528074E-03 
1001	 3.88176070580567E-03 
1002	 3.97027876648105E-03 
1003	 4.03926988163741E-03 
1004	 4.16481408934098E-03 
1005	 4.23256121326501E-03 
1006	 4.42504255342234E-03 
1007	 4.29708022400007E-03 
1008	 4.11213590179041E-03 
1009	 3.92759068597921E-03 
1010	 3.74031019246121E-03 
1011	 3.68683151321354E-03 
1012	 3.61428497965021E-03 
1013	 3.72140183467166E-03 
1014	 3.72501714668646E-03 
1015	 3.53621581490643E-03 
1016	 3.6323471418454E-03 
1017	 4.02527048101196E-03 
1018	 4.13206299485807E-03 
1019	 4.23210029033184E-03 
1020	 4.4536902139469E-03 
1021	 4.76323179653789E-03 
1022	 4.5783898616903E-03 
1023	 4.79632282484668E-03 
1024	 4.87867123219242E-03 
1025	 4.69531712752948E-03 
1026	 4.42035483659847E-03 
1027	 4.22084751170042E-03 
1028	 3.94214868585365E-03 
1029	 3.88910923397239E-03 
1030	 3.95769391821047E-03 
1031	 3.97624845172563E-03 
1032	 4.10881431020823E-03 
1033	 4.15416541124918E-03 
1034	 4.1350643836587E-03 
1035	 4.11923612337116E-03 
1036	 4.03410191499519E-03 
1037	 4.09745293011298E-03 
1038	 4.1364287478074E-03 
1039	 4.39955414544137E-03 
1040	 4.6716819803214E-03 
1041	 4.54373830492817E-03 
1042	 4.4088340736225E-03 
1043	 3.93107128422177E-03 
1044	 3.84013577193461E-03 
1045	 3.76458775032821E-03 
1046	 3.91504067177056E-03 
1047	 4.52827043600738E-03 
1048	 4.60510722926996E-03 
1049	 4.63819885920525E-03 
1050	 4.4966291096226E-03 
1051	 3.63488156269688E-03 
1052	 3.47963831243145E-03 
1053	 3.73030926308847E-03 
1054	 3.80954618848164E-03 
1055	 4.29615848925721E-03 
1056	 4.5231972142038E-03 
1057	 4.60562750742973E-03 
1058	 4.47190288332655E-03 
1059	 4.27143951499924E-03 
1060	 3.73807454920278E-03 
1061	 3.77633287915352E-03 
1062	 3.94870387621755E-03 
1063	 4.08376216200144E-03 
1064	 4.8165044856761E-03 
1065	 4.91558649581587E-03 
1066	 4.43138907750947E-03 
1067	 4.29887730558984E-03 
1068	 4.13369914441706E-03 
1069	 3.99813734537044E-03 
1070	 3.96244417830037E-03 
1071	 3.97517640794779E-03 
1072	 4.07101930942547E-03 
1073	 3.97987625092941E-03 
1074	 4.05734686818778E-03 
1075	 4.3525298874518E-03 
1076	 4.3330086937452E-03 
1077	 4.11534375954368E-03 
1078	 4.1249916777349E-03 
1079	 4.04132569243351E-03 
1080	 4.15819213330225E-03 
1081	 4.70890620308196E-03 
1082	 4.76164137227783E-03 
1083	 4.57554624984842E-03 
1084	 4.48138979949388E-03 
1085	 4.03206512822425E-03 
1086	 3.91137666221205E-03 
1087	 4.19501610273101E-03 
1088	 4.22796980949349E-03 
1089	 4.22171427817204E-03 
1090	 4.17068849282914E-03 
1091	 4.17213048155434E-03 
1092	 4.08209074052869E-03 
1093	 3.97116914157343E-03 
1094	 4.00448705802057E-03 
1095	 3.83074176162359E-03 
1096	 3.22292999705732E-03 
1097	 3.24013422695898E-03 
1098	 3.63758972370772E-03 
1099	 3.69048903316656E-03 
1100	 4.02620507309107E-03 
1101	 4.11860955675312E-03 
1102	 3.76660217342797E-03 
1103	 3.61813097424878E-03 
1104	 3.63766680419217E-03 
1105	 3.34510129404981E-03 
1106	 3.59811684152697E-03 
1107	 3.98656426871473E-03 
1108	 4.22271568428119E-03 
1109	 4.55608219906561E-03 
1110	 4.35649080161842E-03 
1111	 3.08624248525227E-03 
1112	 2.53678878292722E-03 
1113	 2.04778743058642E-03 
1114	 1.81615560101114E-03 
1115	 1.83200783157585E-03 
1116	 2.08942050518707E-03 
1117	 3.18110267544201E-03 
1118	 3.65021499386302E-03 
1119	 4.91769734546559E-03 
1120	 5.63174825109756E-03 
1121	 4.80213649787067E-03 
1122	 3.98139457206792E-03 
1123	 3.47720578184577E-03 
1124	 2.3877442713013E-03 
1125	 5.00397908502986E-03 
1126	 5.77906948192464E-03 
1127	 0.002622447944255 
1128	 1.81752007116443E-03 
1129	 1.87150585838625E-03 
1130	 6.22715501197017E-04 
1131	 1.74537405058519E-03 
1132	 6.21157421746139E-03 
1133	 6.36632735508631E-03 
1134	 4.75594782746104E-03 
1135	 4.27536127268384E-03 
1136	 2.3328108664138E-03 
1137	 2.65633103978594E-03 
1138	 5.09393131148327E-03 
1139	 6.0889219203473E-03 
1140	 4.96560564889495E-03 
1141	 3.4960719739281E-03 
1142	 1.67205082143259E-03 
1143	 1.36432574179295E-03 
1144	 3.14412656999067E-03 
1145	 4.62909996132097E-03 
1146	 4.07941675420358E-03 
1147	 1.39305274288759E-03 
1148	 8.22704099110375E-04 
1149	 3.81528463816908E-03 
1150	 3.83153592944985E-03 
1151	 3.29639883050389E-03 
1152	 3.55005009139593E-03 
1153	 3.02443797038914E-03 
1154	 2.73928165057883E-03 
1155	 2.89617714473178E-03 
1156	 4.0271733616781E-03 
1157	 4.2031306881124E-03 
1158	 3.11289111511515E-03 
1159	 0.002618203587439 
1160	 3.24345535746882E-03 
1161	 3.52795927579194E-03 
1162	 3.37734348154779E-03 
1163	 3.61783635007277E-03 
1164	 3.63909180484079E-03 
1165	 3.39520278576319E-03 
1166	 3.53167303639558E-03 
1167	 3.22798482957956E-03 
1168	 2.7832412681846E-03 
1169	 3.13904219566463E-03 
1170	 3.3176059770813E-03 
1171	 3.26876930090916E-03 
1172	 3.40111012283996E-03 
1173	 3.39405088099394E-03 
1174	 3.00774811598281E-03 
1175	 2.66478562433748E-03 
1176	 3.02799087952064E-03 
1177	 3.38124687811782E-03 
1178	 3.3861584138654E-03 
1179	 3.42757564303518E-03 
1180	 3.33850910885112E-03 
1181	 3.08462268958786E-03 
1182	 3.18654613657902E-03 
1183	 3.41558507838995E-03 
1184	 3.41927883298243E-03 
1185	 3.45690713231644E-03 
1186	 3.29254468959485E-03 
1187	 2.88660324941613E-03 
1188	 2.77203876558536E-03 
1189	 2.8400475697812E-03 
1190	 2.94823550304084E-03 
1191	 3.12107990811108E-03 
1192	 3.23589310224571E-03 
1193	 3.34497762736793E-03 
1194	 3.22946487438138E-03 
1195	 3.00499998392518E-03 
1196	 2.95769242674691E-03 
1197	 2.84104369824762E-03 
1198	 2.77527702798202E-03 
1199	 3.09388193225695E-03 
1200	 3.25709841761782E-03 
1201	 3.26534775907301E-03 
1202	 3.40473987972512E-03 
1203	 3.33871964087066E-03 
1204	 3.18561375283045E-03 
1205	 3.25790378663558E-03 
1206	 3.18819151237898E-03 
1207	 2.9205509569755E-03 
1208	 3.06946788313108E-03 
1209	 3.42780964690535E-03 
1210	 3.4407797676323E-03 
1211	 3.47497708310392E-03 
1212	 3.54761581427354E-03 
1213	 3.30702266686789E-03 
1214	 3.16666872064119E-03 
1215	 3.06874533236178E-03 
1216	 3.21302693567902E-03 
1217	 3.20827673414597E-03 
1218	 3.13517570324184E-03 
1219	 3.21408845878148E-03 
1220	 3.20619344209962E-03 
1221	 3.0988469785158E-03 
1222	 3.02637914439093E-03 
1223	 2.92235190516776E-03 
1224	 2.95159723138948E-03 
1225	 3.14232564960127E-03 
1226	 3.25472895508763E-03 
1227	 3.2516432566582E-03 
1228	 3.21050892503108E-03 
1229	 3.11945240081343E-03 
1230	 3.08679065348846E-03 
1231	 3.18262649802669E-03 
1232	 3.25847143519591E-03 
1233	 3.11994093600468E-03 
1234	 2.96424416761564E-03 
1235	 2.96760254839131E-03 
1236	 3.14037231461032E-03 
1237	 3.14635820587595E-03 
1238	 3.16623327131076E-03 
1239	 3.21686591116723E-03 
1240	 3.10285513008078E-03 
1241	 2.96044413089574E-03 
1242	 2.98923408367688E-03 
1243	 3.15458516125891E-03 
1244	 3.21595720665628E-03 
1245	 3.13983300882829E-03 
1246	 3.19767817879222E-03 
1247	 3.23860419359862E-03 
1248	 3.14364111693223E-03 
1249	 3.19188325622854E-03 
1250	 3.14061360798369E-03 
1251	 2.88094525716316E-03 
1252	 2.90704586074999E-03 
1253	 3.06918293793161E-03 
1254	 3.01814470941456E-03 
1255	 3.00873011721854E-03 
1256	 3.03156217704179E-03 
1257	 2.89162903611072E-03 
1258	 2.86801552812086E-03 
1259	 3.1100940265553E-03 
1260	 3.1512568204987E-03 
1261	 3.01245154606617E-03 
1262	 2.98275642631129E-03 
1263	 2.95324999941279E-03 
1264	 2.97800043778541E-03 
1265	 2.94968893874974E-03 
1266	 2.96240317001654E-03 
1267	 3.03672140906225E-03 
1268	 3.0143319105738E-03 
1269	 3.09843614951514E-03 
1270	 3.22092261329452E-03 
1271	 3.19561544692966E-03 
1272	 3.13389985006823E-03 
1273	 3.08857672723349E-03 
1274	 3.01725502558677E-03 
1275	 2.97911005270783E-03 
1276	 3.08995689552714E-03 
1277	 3.11009905431717E-03 
1278	 3.12737924691637E-03 
1279	 3.25317505689971E-03 
1280	 3.13825878926256E-03 
1281	 3.07595307876467E-03 
1282	 2.95547459662292E-03 
1283	 2.88082132675921E-03 
1284	 2.76302588194004E-03 
1285	 2.79094411889742E-03 
1286	 2.90757087413756E-03 
1287	 2.94450201902218E-03 
1288	 3.17257833250851E-03 
1289	 3.19768874192702E-03 
1290	 3.04894013038695E-03 
1291	 2.79468381661556E-03 
1292	 2.91278857663288E-03 
1293	 3.04218777717774E-03 
1294	 2.88160576611629E-03 
1295	 2.98174079937414E-03 
1296	 3.34067756261701E-03 
1297	 3.2481112168942E-03 
1298	 2.95469631155179E-03 
1299	 2.98203046435888E-03 
1300	 2.96476444890866E-03 
1301	 2.73352508964046E-03 
1302	 2.7569969371073E-03 
1303	 3.05844900537513E-03 
1304	 3.16603959234486E-03 
1305	 2.91047967241282E-03 
1306	 2.76288543215164E-03 
1307	 2.89788878989955E-03 
1308	 2.8571154162941E-03 
1309	 2.37919115682935E-03 
1310	 2.32263230267231E-03 
1311	 2.70579858203527E-03 
1312	 2.73176853855071E-03 
1313	 2.59884733758879E-03 
1314	 2.65678312966834E-03 
1315	 2.79216835970944E-03 
1316	 2.72666523865823E-03 
1317	 2.67471900496445E-03 
1318	 2.66929928022618E-03 
1319	 2.34878074168932E-03 
1320	 2.26656264491619E-03 
1321	 2.54976218994672E-03 
1322	 2.49815758909146E-03 
1323	 2.49751023921977E-03 
1324	 2.69289284634869E-03 
1325	 2.37427642780797E-03 
1326	 2.52954581626685E-03 
1327	 2.98926994679223E-03 
1328	 2.85980141688744E-03 
1329	 2.90017261923994E-03 
1330	 2.83073621780427E-03 
1331	 2.26091452292698E-03 
1332	 2.10060777239648E-03 
1333	 2.45240679556931E-03 
1334	 2.65350866171175E-03 
1335	 2.63616585837062E-03 
1336	 2.55256406816662E-03 
1337	 2.54399190963743E-03 
1338	 2.12841433938555E-03 
1339	 2.09595426723337E-03 
1340	 2.68747738986152E-03 
1341	 2.56915707715311E-03 
1342	 1.94996842236486E-03 
1343	 2.13358503272474E-03 
1344	 2.25911109629894E-03 
1345	 2.29298244634605E-03 
1346	 4.38302045593643E-03 
1347	 4.1367411983424E-03 
1348	-1.77404355897042E-03 
1349	-3.30405112384234E-03 
1350	-1.43195018202085E-03 
1351	-2.10681364368174E-03 
1352	 4.9558909250342E-03 
1353	 1.49511111873924E-02 
1354	 2.78286532853689E-02 
1355	 2.85661981934325E-02 
1356	 2.07435329629575E-02 
1357	 4.15862620577659E-02 
1358	 7.32035664487373E-02 
1359	 5.36152764980238E-02 
1360	-0.027657911511904 
1361	-6.93858443819419E-02 
1362	 3.25128159739802E-02 
1363	 3.81212803149487E-03 
1364	-9.82834913241186E-02 
1365	 2.32684950979124E-02 
1366	 3.99461559959857E-02 
1367	-0.157745162947196 
1368	-0.224005525176941 
1369	-5.23715881469401E-02 
1370	 1.92558116763506E-02 
1371	-3.23240503884079E-02 
1372	-6.38215036869305E-02 
1373	 3.59152160551247E-02 
1374	 3.90469028923343E-02 
1375	-0.172605054611809 
1376	-0.217629408309062 
1377	-0.073122458354577 
1378	-4.66144980441007E-02 
1379	-0.131090479330364 
1380	-5.21336844749093E-02 
1381	 0.171930404184289 
1382	 0.168825368826982 
1383	 0.123944683819381 
1384	 0.156416226716649 
1385	-0.039976607818817 
1386	-7.44207977705188E-02 
1387	 0.271103775606001 
1388	 0.253133330833503 
1389	-0.273676653990512 
1390	-0.339452590465344 
1391	-7.17634038921873E-02 
1392	 3.64666531830305E-02 
1393	 2.94907334003284E-02 
1394	 9.74236244955347E-02 
1395	 7.13527820902825E-02 
1396	-1.17096144751758E-02 
1397	-0.054943636973677 
1398	-0.110100538071441 
1399	-0.200844306518175 
1400	-0.188856336541998 
1401	 2.45347885437271E-02 
1402	 1.15228014079689E-03 
1403	-0.132362742067343 
1404	-9.74652895647787E-02 
1405	-0.108996554764109 
1406	-4.59615874563066E-02 
1407	-7.96580734715516E-02 
1408	-0.197166137399244 
1409	-0.152008491710186 
1410	-4.09754106471397E-02 
1411	-3.16406752083278E-02 
1412	-9.1551647173979E-03 
1413	-2.45107442919292E-02 
1414	-0.113639613516089 
1415	-0.116309481525842 
1416	-7.31974327860775E-02 
1417	-4.91089885582379E-02 
1418	-2.55052109005287E-02 
1419	-1.65356897423962E-02 
1420	-1.53246345536244E-02 
1421	-1.28826329043752E-02 
1422	-1.01967473098956E-02 
1423	-1.07322937150981E-02 
1424	-2.21060670586828E-02 
1425	-1.24805616770468E-02 
1426	 1.43065284981022E-02 
1427	 1.50513867351363E-02 
1428	 6.61194353772963E-03 
1429	 9.30843691463063E-03 
1430	 8.5041646273104E-03 
1431	 5.06029122133624E-03 
1432	 9.08693225207608E-03 
1433	 1.19907083279819E-02 
1434	 7.55747068248549E-03 
1435	 4.30045847872651E-03 
1436	 4.09763286111547E-03 
1437	 6.55788742443427E-03 
1438	 6.05094490982195E-03 
1439	 1.25894492740767E-03 
1440	 2.74368323047503E-03 
1441	 5.51395524519111E-03 
1442	 3.91838999145171E-03 
1443	 5.74410570210701E-03 
1444	 5.78316692128186E-03 
1445	 2.13463579801329E-03 
1446	 2.03595176590105E-03 
1447	 2.52719929560428E-03 
1448	 3.07605735392478E-03 
1449	 2.85392931933811E-03 
1450	 4.14829956280096E-04 
1451	 1.29813752895091E-03 
1452	 3.87460952231335E-03 
1453	 4.82327619951145E-03 
1454	 3.60943456078447E-03 
1455	 1.59574431563662E-03 
1456	 1.38015965151956E-03 
1457	-1.03967860732664E-05 
1458	-1.21629252945136E-05 
1459	 2.26393012273198E-03 
1460	 3.04833130997099E-03 
1461	 2.84150102909507E-03 
1462	 2.3313636595935E-03 
1463	 1.81709185347133E-03 
1464	 2.21124353624817E-03 
1465	 2.23508154103963E-03 
1466	 1.9129570103093E-03 
1467	 2.40197089633112E-03 
1468	 3.09362071825128E-03 
1469	 3.3571449961496E-03 
1470	 2.8241702760982E-03 
1471	 2.44340687492123E-03 
1472	 2.89194482145485E-03 
1473	 2.52557055312162E-03 
1474	 2.22661333286906E-03 
1475	 3.20984164129293E-03 
1476	 3.76604769028313E-03 
1477	 3.63548212688918E-03 
1478	 3.09547738885467E-03 
1479	 2.42906900485486E-03 
1480	 2.78976828510993E-03 
1481	 3.22970484222818E-03 
1482	 3.01509617159185E-03 
1483	 3.5536561405444E-03 
1484	 3.43427623249751E-03 
1485	 2.0510880414315E-03 
1486	 1.56144021183687E-03 
1487	 1.67392839304641E-03 
1488	 1.76425288048968E-03 
1489	 1.73241485286573E-03 
1490	 1.85686421101548E-03 
1491	 2.58733690221718E-03 
1492	 2.41979399801602E-03 
1493	 1.39331290018998E-03 
1494	 1.44210896830549E-03 
1495	 1.83570337134563E-03 
1496	 1.83804839638164E-03 
1497	 2.10874410887504E-03 
1498	 2.41503803930402E-03 
1499	 2.61871125786734E-03 
1500	 2.4798521983411E-03 
1501	 2.0895348416554E-03 
1502	 2.23529705248652E-03 
1503	 2.57025244950726E-03 
1504	 2.40559043881175E-03 
1505	 2.05505392786151E-03 
1506	 2.45391936337877E-03 
1507	 2.51016064618686E-03 
1508	 2.23499274671741E-03 
1509	 2.35933982027567E-03 
1510	 2.56496756035911E-03 
1511	 2.39720705346029E-03 
1512	 2.26350189113383E-03 
1513	 2.28253400541624E-03 
1514	 2.23692700002779E-03 
1515	 2.37782449766968E-03 
1516	 2.52861300857549E-03 
1517	 2.56497552534189E-03 
1518	 2.56362298477783E-03 
1519	 2.37825736138919E-03 
1520	 2.24274632314073E-03 
1521	 2.34364373548727E-03 
1522	 2.49759224867133E-03 
1523	 2.44334932100251E-03 
1524	 2.32324223012134E-03 
1525	 2.31612588216833E-03 
1526	 2.24835793004308E-03 
1527	 2.20605272924967E-03 
1528	 2.25439999337502E-03 
1529	 2.23486928543396E-03 
1530	 2.20300572663592E-03 
1531	 2.20814831678939E-03 
1532	 2.21011438188349E-03 
1533	 2.23997974960371E-03 
1534	 2.24744027143076E-03 
1535	 2.29031136760805E-03 
1536	 2.30738855764255E-03 
1537	 2.22340344179425E-03 
1538	 2.19775073718918E-03 
1539	 2.24433473546678E-03 
1540	 2.19952987203649E-03 
1541	 2.00316396796631E-03 
1542	 2.00074841180115E-03 
1543	 2.14300125277873E-03 
1544	 2.14269930894805E-03 
1545	 2.28943673838667E-03 
1546	 2.46078104508581E-03 
1547	 2.36958302326431E-03 
1548	 2.35615246210559E-03 
1549	 2.38844834683242E-03 
1550	 2.39910263400391E-03 
1551	 2.60976766650405E-03 
1552	 2.60669677745109E-03 
1553	 2.38311430765019E-03 
1554	 2.3428918766202E-03 
1555	 2.43437127614478E-03 
1556	 2.56368889735734E-03 
1557	 2.57382419161315E-03 
1558	 2.5125023881741E-03 
1559	 2.4696265748397E-03 
1560	 2.42614032390398E-03 
1561	 2.47811634719256E-03 
1562	 2.46493945862092E-03 
1563	 2.28154454653496E-03 
1564	 2.24424603843004E-03 
1565	 2.26316128473701E-03 
1566	 2.22905426145871E-03 
1567	 2.40267806017124E-03 
1568	 2.50195174289855E-03 
1569	 2.49180050800692E-03 
1570	 2.49837758252436E-03 
1571	 2.37233421677175E-03 
1572	 2.33200507248329E-03 
1573	 2.43550929628212E-03 
1574	 2.61384465393942E-03 
1575	 2.77486163931707E-03 
1576	 2.67623607080656E-03 
1577	 2.42471185839493E-03 
1578	 2.39100405652307E-03 
1579	 2.51410374098138E-03 
1580	 2.44530186251263E-03 
1581	 2.24771238042892E-03 
1582	 2.18167520616658E-03 
1583	 2.36314149592567E-03 
1584	 2.62069332158911E-03 
1585	 2.65041749709611E-03 
1586	 2.5771993362884E-03 
1587	 2.63584857415927E-03 
1588	 2.49430785074712E-03 
1589	 2.20736964507642E-03 
1590	 2.32703915955743E-03 
1591	 2.50370958359751E-03 
1592	 2.32740669182051E-03 
1593	 2.1540519704517E-03 
1594	 2.32924266238799E-03 
1595	 2.48421329079356E-03 
1596	 2.27991556191576E-03 
1597	 2.32565055150819E-03 
1598	 2.61469160075137E-03 
1599	 2.65093407196228E-03 
1600	 2.70652060959977E-03 
1601	 2.87514705483977E-03 
1602	 2.82599408609962E-03 
1603	 2.43672490448628E-03 
1604	 2.21390920660831E-03 
1605	 2.32458259572832E-03 
1606	 2.31225743818304E-03 
1607	 2.33543860856544E-03 
1608	 2.4634930674753E-03 
1609	 2.51523312733678E-03 
1610	 2.51531306508649E-03 
1611	 2.39645854403808E-03 
1612	 2.38797019673019E-03 
1613	 2.59439895830978E-03 
1614	 2.60694936007232E-03 
1615	 2.34253263158023E-03 
1616	 2.21578250131106E-03 
1617	 2.32331059752994E-03 
1618	 2.37674308883424E-03 
1619	 2.40583485991538E-03 
1620	 2.4646872682547E-03 
1621	 2.34342029889804E-03 
1622	 2.32564203378389E-03 
1623	 2.72828478786462E-03 
1624	 2.85500557589011E-03 
1625	 2.39672501320996E-03 
1626	 2.25896258433359E-03 
1627	 2.4925356216625E-03 
1628	 2.48626312794907E-03 
1629	 2.49207608780513E-03 
1630	 2.47447188141337E-03 
1631	 2.13645193612193E-03 
1632	 2.0905345506192E-03 
1633	 2.49631734423415E-03 
1634	 2.53984776795481E-03 
1635	 2.29395760088688E-03 
1636	 2.34866338117218E-03 
1637	 2.46011632793763E-03 
1638	 2.35767319121903E-03 
1639	 2.11473321645648E-03 
1640	 1.91224105248408E-03 
1641	 1.93285175689937E-03 
1642	 2.03112246557056E-03 
1643	 2.30614699498063E-03 
1644	 2.63161553051053E-03 
1645	 2.50520327437732E-03 
1646	 2.31841285539828E-03 
1647	 2.34587668011427E-03 
1648	 2.23718363603906E-03 
1649	 2.21308170869092E-03 
1650	 2.43504493751447E-03 
1651	 2.36982331293319E-03 
1652	 2.25101582114822E-03 
1653	 2.46499130924199E-03 
1654	 2.3614120133293E-03 
1655	 2.19242109257226E-03 
1656	 2.35267833976704E-03 
1657	 2.43785346017345E-03 
1658	 2.44590410765116E-03 
1659	 2.89951623736545E-03 
1660	 2.87820574565818E-03 
1661	 2.20567241064152E-03 
1662	 2.1309987326995E-03 
1663	 2.30199060580696E-03 
1664	 2.16105387899955E-03 
1665	 2.05923015437482E-03 
1666	 2.14127635525859E-03 
1667	 2.16811053316628E-03 
1668	 2.25152633692252E-03 
1669	 2.48383050440683E-03 
1670	 2.53903461465726E-03 
1671	 2.20656665123551E-03 
1672	 2.2450730570639E-03 
1673	 2.49504094256035E-03 
1674	 2.42537093415332E-03 
1675	 2.39076642029861E-03 
1676	 2.3325025706536E-03 
1677	 2.20417999938118E-03 
1678	 2.24395242016928E-03 
1679	 2.28774085775092E-03 
1680	 2.33373024297617E-03 
1681	 2.28950875463174E-03 
1682	 2.20177316895968E-03 
1683	 2.42260525695355E-03 
1684	 2.70192717837886E-03 
1685	 2.71013794936358E-03 
1686	 2.67447011604306E-03 
1687	 2.67953947504389E-03 
1688	 2.54416430841387E-03 
1689	 2.65319738941254E-03 
1690	 2.95309285970813E-03 
1691	 2.73928361091798E-03 
1692	 2.34670302274444E-03 
1693	 2.17327209718711E-03 
1694	 2.15308564993544E-03 
1695	 2.47741231964713E-03 
1696	 2.69094554080497E-03 
1697	 2.55641929241711E-03 
1698	 2.60352325172039E-03 
1699	 2.47361475926806E-03 
1700	 2.17248972709136E-03 
1701	 2.34729077023945E-03 
1702	 2.29497268158633E-03 
1703	 2.09951652972284E-03 
1704	 2.51937057202335E-03 
1705	 2.68896257769038E-03 
1706	 2.28305442094298E-03 
1707	 2.1536504854543E-03 
1708	 2.4451773298695E-03 
1709	 2.5136888348007E-03 
1710	 2.5113128532473E-03 
1711	 2.61556100344752E-03 
1712	 2.28170196203222E-03 
1713	 2.43020462800069E-03 
1714	 2.57278353098069E-03 
1715	 2.59156063264993E-03 
1716	 2.66119536500897E-03 
1717	 2.54178453856913E-03 
1718	 2.31586160229163E-03 
1719	 2.46564311150562E-03 
1720	 0.002482761648651 
1721	 2.29684258271504E-03 
1722	 2.33190211676643E-03 
1723	 2.53891248360446E-03 
1724	 2.51191960819578E-03 
1725	 2.54810641991975E-03 
1726	 2.80971200948448E-03 
1727	 2.41323751225884E-03 
1728	 2.16918929964478E-03 
1729	 2.76611959513872E-03 
1730	 2.80540940149751E-03 
1731	 2.58019814620968E-03 
1732	 2.4589585708254E-03 
1733	 1.70091733152356E-03 
1734	 1.2515496889833E-03 
1735	 1.72345243994229E-03 
1736	 2.31232412871299E-03 
1737	 2.58820073124926E-03 
1738	 2.58571031400427E-03 
1739	 2.24114542702232E-03 
1740	 1.80012632377598E-03 
1741	 1.71692498714779E-03 
1742	 1.66252156251692E-03 
1743	 1.86494713263628E-03 
1744	 2.55356599685149E-03 
1745	 2.55577666704301E-03 
1746	 2.75613873638075E-03 
1747	 2.95067611441691E-03 
1748	 2.39568292434832E-03 
1749	 2.24935992804937E-03 
1750	 2.70667324805093E-03 
1751	 2.66177350677824E-03 
1752	 2.30975579696358E-03 
1753	 2.40038609196248E-03 
1754	 2.47679492679934E-03 
1755	 2.18640849167475E-03 
1756	 1.96907725899752E-03 
1757	 1.87293515079504E-03 
1758	 1.91880394398297E-03 
1759	 2.37863381442047E-03 
1760	 2.60246811020123E-03 
1761	 2.48602606935008E-03 
1762	 0.002195871730232 
1763	 2.12330011170315E-03 
1764	 1.83830712657194E-03 
1765	 1.97991455374762E-03 
1766	 2.62572336341143E-03 
1767	 2.25748243380021E-03 
1768	 1.92740646607145E-03 
1769	 2.08581280376759E-03 
1770	 1.54674320382602E-03 
1771	 2.20376700725194E-03 
1772	 3.36479021848664E-03 
1773	 2.36981120403333E-03 
1774	 1.78080023176595E-03 
1775	 1.52226642963408E-03 
1776	 1.55452434450332E-03 
1777	 3.60053339027368E-03 
1778	 4.15609297666705E-03 
1779	 3.47455106849047E-03 
1780	 3.25657606642938E-03 
1781	 2.29635375899925E-03 
1782	 1.83810247384802E-03 
1783	 1.88248301302844E-03 
1784	 1.95282884919025E-03 
1785	 2.08611875376312E-03 
1786	 1.82363450797224E-03 
1787	 1.77737196433881E-03 
1788	 1.83648982533326E-03 
1789	 1.69956713436037E-03 
1790	 1.75505469331414E-03 
1791	 1.4403042042209E-03 
1792	 1.1861742065867E-03 
1793	 9.22000129276329E-04 
1794	 1.2869241636123E-03 
1795	 1.29809369422465E-03 
1796	 1.24328403061909E-03 
1797	 2.22157333917132E-03 
1798	 3.25987963190666E-03 
1799	 4.7328812973077E-03 
1800	 2.27287345907273E-03 
1801	 1.33962575516832E-03 
1802	 1.61411140079244E-03 
1803	 8.39660218834319E-04 
1804	 3.50519362955063E-05 
1805	 3.21787667460807E-03 
1806	 8.44245371885768E-03 
1807	 1.88320642224566E-02 
1808	 5.82247152439874E-02 
1809	 5.67956549475085E-02 
1810	-2.70959759627409E-03 
1811	-3.54437418193242E-02 
1812	-0.154324898096298 
1813	-0.165615545905421 
1814	 4.43059952407199E-02 
1815	 9.58994552223016E-02 
1816	 0.135363899929012 
1817	 0.22087205959216 
1818	 0.137713080172697 
1819	 0.274813456834488 
1820	 0.660821975989836 
1821	 0.642688026051787 
1822	 0.453773869506637 
1823	-7.57337370695902E-02 
1824	-0.129697902121885 
1825	 2.25440382405306E-02 
1826	 6.80778775106923E-02 
1827	 0.577840957174924 
1828	 0.857670357098384 
1829	 0.136034956794836 
1830	 7.92670723501967E-02 
1831	 1.37453089141002 
1832	 1.01216367848334 
1833	 0.667918331244113 
1834	 0.492460793379864 
1835	-0.399652321784342 
1836	-1.01212306825935 
1837	-6.56175378030672E-02 
1838	-6.91462717584171E-02 
1839	-0.243630228767685 
1840	-0.314801100370639 
1841	-0.533263512998786 
1842	-0.603753163607758 
1843	-0.778543159170492 
1844	-1.93616037596055 
1845	-3.5526083137563 
1846	 3.09075450661306E-02 
1847	-0.4426970448075 
1848	 3.6875674784109 
1849	 0.947842077443983 
1850	 0.831053095761362 
1851	 0.817532091875858 
1852	 0.600914353497223 
1853	 1.03850988311237 
1854	 0.14298485616425 
1855	 0.790612223190289 
1856	 0.338156198252005 
1857	-1.15002401881603 
1858	-1.33543251148738 
1859	-1.20951784428298 
1860	-1.09329117087596 
1861	-12.1797087031173 
1862	 1.21811621202499 
1863	-2.0869157744295 
1864	 13.7089496771287 
1865	 3.55834140792562 
1866	-1.01255226917555 
1867	-0.861044561894584 
1868	 0.526133004830611 
1869	 0.104339334249074 
1870	 6.68227303035124E-02 
1871	-0.335422648503351 
1872	-1.67021465150282 
1873	 1.91925198063078 
1874	 0.958724085324125 
1875	 7.64142222018554 
1876	 6.57212713383643 
1877	 2.54529807417927 
1878	 0.890544131395976 
1879	-0.54887299483531 
1880	-0.693936351933862 
1881	-0.54703597893365 
1882	-0.367076414276535 
1883	-0.231626222742832 
1884	-0.671431474728178 
1885	-1.72488362520216 
1886	-2.86212910054081 
1887	 4.56310581188997 
1888	 1.00926250978962 
1889	 1.02833827332132 
1890	 3.07227069588434 
1891	 6.05571304491341 
1892	-3.73898734303189 
1893	-1.27117925348322 
1894	-0.392908772427735 
1895	-0.303004240956498 
1896	-0.161426728545434 
1897	 0.177876234565629 
1898	-0.691532432920405 
1899	-0.874875877597868 
1900	-1.18778683617411 
1901	 4.38787986190538 
1902	 2.49825027844278 
1903	 2.8315298772222 
1904	 1.55631567268719 
1905	 3.54133575905303 
1906	-1.38900114593253 
1907	-2.12519883977608 
1908	 0.227841752479555 
1909	 8.22415430879254 
1910	 0.348663683090372 
1911	 0.409313261241676 
1912	-0.280458454076134 
1913	-0.395064279846619 
1914	-0.376511828453619 
1915	-1.01101422448655 
1916	 2.63126655819507 
1917	 0.778459079363056 
1918	 3.42870718382945E-02 
1919	-0.157111912730151 
1920	-1.88983499686008E-02 
1921	 0.127052699618943 
1922	 4.64963424514174E-02 
1923	 0.175468003086295 
1924	 0.13260382905063 
1925	-0.171131801412005 
1926	-0.284066778847732 
1927	-0.262184819939487 
1928	-0.283169850396029 
1929	-0.679818281054624 
1930	-0.468569345081769 
1931	-0.481873654089161 
1932	-0.381146386473262 
1933	-0.30237425250041 
1934	-0.384521185812226 
1935	-0.381832391762163 
1936	-0.360757161095424 
1937	-0.335267723926168 
1938	-0.25922696142509 
1939	-0.200851451750326 
1940	-0.164060014278056 
1941	-9.59910774763899E-02 
1942	-1.74792890471657E-02 
1943	-1.93383817631259E-02 
1944	-3.51380032262768E-02 
1945	-1.36742195750391E-02 
1946	-0.018094559270936 
1947	-3.30240606719017E-02 
1948	-6.72070351082317E-03 
1949	-1.03833117177578E-02 
1950	-3.68112799434031E-02 
1951	-2.37635944836873E-02 
1952	-2.22702445961462E-02 
1953	-1.28624027035848E-02 
1954	-2.09437854983792E-02 
1955	-3.94301541243198E-02 
1956	-4.67484359290725E-02 
1957	-4.08779218930515E-02 
1958	-3.21373339987312E-02 
1959	-1.58505733514852E-02 
1960	-3.95340400897096E-03 
1961	-3.56261307835035E-03 
1962	-6.45618120390116E-03 
1963	-2.51413171647789E-03 
1964	 2.57088342561152E-04 
1965	 5.35606431833947E-04 
1966	 8.39658555145278E-04 
1967	 2.83544118745147E-03 
1968	 2.05831040271785E-03 
1969	 3.93025614821509E-04 
1970	-4.13638977031091E-04 
1971	-8.42861863520156E-05 
1972	 1.91402299117191E-05 
1973	 2.70873569578949E-04 
1974	 9.54070296512162E-04 
1975	 5.54251585274447E-04 
1976	 1.70287765019363E-03 
1977	 2.68908465836694E-03 
1978	 1.72078249777349E-03 
1979	 1.59472517302407E-03 
1980	 2.00401162217394E-03 
1981	 1.82747609167069E-03 
1982	 1.17941816484046E-03 
1983	 2.1374493470139E-03 
1984	 2.53086359381104E-03 
1985	 1.62646422646469E-03 
1986	 1.33536738814224E-03 
1987	 4.18503403242717E-04 
1988	-5.22927052510337E-04 
1989	 4.64890280205307E-04 
1990	 1.07484433064932E-03 
1991	 1.2002596921435E-03 
1992	 1.22518790250014E-03 
1993	 1.33553581437279E-04 
1994	-4.02981777025685E-04 
1995	-1.37661657120118E-03 
1996	-1.83235138388069E-03 
1997	-1.52436795444604E-03 
1998	-9.12782544866812E-05 
1999	-4.19780821349174E-04 
2000	-1.16030943348508E-03 
2001	 3.87818644306965E-06 
2002	 1.93354333190982E-04 
2003	 1.80726503758305E-03 
2004	 4.47985707326878E-03 
2005	 4.5555488897991E-03 
2006	 3.81493699292505E-03 
2007	 4.09311920525257E-03 
2008	 4.04335122586508E-03 
2009	 3.78707687700002E-03 
2010	 5.08925066780027E-03 
2011	 4.77788121313542E-03 
2012	 3.13558526853869E-03 
2013	 4.92315568262837E-04 
2014	 6.05720595348068E-04 
2015	-3.02058325654969E-04 
2016	-1.10200503338968E-03 
2017	 9.52161159987976E-04 
2018	 1.16235361840795E-03 
2019	-4.67490982804205E-04 
2020	-3.4984649783287E-04 
2021	-4.56156947080068E-04 
2022	-5.44397450966134E-04 
2023	-4.9910144782525E-04 
2024	-7.7432415548179E-04 
2025	-2.02998073074976E-03 
2026	-1.49526292457121E-03 
2027	-6.56813538844579E-05 
2028	 3.41914288716489E-04 
2029	 7.36236329512526E-04 
2030	 7.02784628732423E-04 
2031	-3.98879768100988E-05 
2032	-1.71535126393477E-05 
2033	 5.62973542039985E-04 
2034	 1.19613033953656E-03 
2035	 1.47875263329991E-03 
2036	 0.001266935266174 
2037	 7.56027831682598E-04 
2038	 2.26301336486954E-05 
2039	-1.80330451729173E-04 
2040	-5.09546165291921E-04 
2041	-3.66346055572325E-04 
2042	 1.00784568082643E-03 
2043	 1.35627191141372E-03 
2044	 1.31616974276193E-03 
2045	 8.56507677704328E-04 
2046	 7.7531472120328E-04 
2047	 2.73920253795701E-04 
2048	 7.41385766627014E-04 
2049	 1.85027909753077E-03 
2050	 1.47917342502022E-03 
2051	 1.33334218173848E-03 
2052	 1.51146422670433E-03 
2053	 1.0898368346574E-03 
2054	 1.81038258779463E-03 
2055	 2.97280472020174E-03 
2056	 3.06588774819705E-03 
2057	 1.98160092125062E-03 
2058	 1.78274852875272E-03 
2059	 1.51531759562894E-03 
2060	 1.4271485385797E-03 
2061	 2.03508251024286E-03 
2062	 1.71342472688919E-03 
2063	 1.44790791672583E-03 
2064	 5.04867449466807E-04 
2065	-6.49037039769916E-04 
2066	-2.47682104691989E-04 
2067	 6.11981093471616E-04 
2068	 6.54844175172525E-04 
2069	 7.454046341608E-04 
2070	 1.32488561791961E-03 
2071	 1.24907129312322E-03 
2072	 1.29910709785307E-03 
2073	 1.43018352576128E-03 
2074	 1.74516099631235E-03 
2075	 1.69484762676734E-03 
2076	 1.30930977891352E-03 
2077	 1.20346944619367E-03 
2078	 1.32839879635794E-03 
2079	 1.54224317521157E-03 
2080	 1.9417066157521E-03 
2081	 1.93794156260263E-03 
2082	 2.4334632109591E-03 
2083	 2.22034241816531E-03 
2084	 1.4582208624064E-03 
2085	 1.57339274564008E-03 
2086	 1.62405727051722E-03 
2087	 1.18869664282694E-03 
2088	 1.58640525672161E-03 
2089	 2.20737928605431E-03 
2090	 2.2243939377704E-03 
2091	 1.78470744331355E-03 
2092	 1.73712500346195E-03 
2093	 1.45397531610092E-03 
2094	 1.31503720624084E-03 
2095	 1.69138642109161E-03 
2096	 1.78288460575254E-03 
2097	 1.68265841077005E-03 
2098	 1.53973784277969E-03 
2099	 1.31705085053512E-03 
2100	 1.07666546250413E-03 
2101	 1.19094519944903E-03 
2102	 3.97351992690618E-04 
2103	 6.6265357241996E-04 
2104	 0.001620384712525 
2105	 2.25730565008972E-03 
2106	 2.88916632088351E-03 
2107	 2.08116488849744E-03 
2108	 1.12174868325256E-03 
2109	 8.87345431372565E-04 
2110	 7.74583420460566E-04 
2111	 1.21174930977015E-03 
2112	 1.74848574418927E-03 
2113	 2.00124746912839E-03 
2114	 1.62118831391751E-03 
2115	 1.59097789249315E-03 
2116	 1.97825681228831E-03 
2117	 2.0908502667794E-03 
2118	 1.69938555932414E-03 
2119	 1.81463273244756E-03 
2120	 2.4809538802987E-03 
2121	 2.47496600262843E-03 
2122	 1.74324587571784E-03 
2123	 1.2595434108511E-03 
2124	 6.36905225243793E-04 
2125	-3.64065460069163E-04 
2126	-2.6228679797856E-04 
2127	 9.2508529773491E-04 
2128	 1.08914968455613E-03 
2129	 1.23396068512153E-03 
2130	 1.28528879567414E-03 
2131	 4.34198205828239E-04 
2132	-8.75751852370406E-05 
2133	-5.15434272369042E-04 
2134	-4.9454831266955E-04 
2135	 2.17078902328641E-04 
2136	 1.95757087664408E-04 
2137	-1.02920623326271E-04 
2138	 1.60530522298123E-04 
2139	 4.08620674821894E-04 
2140	 3.58716324765008E-04 
2141	 7.65624424779192E-04 
2142	 8.58209003933021E-04 
2143	 6.33557884905294E-05 
2144	 1.39475287310788E-04 
2145	 7.64856255504634E-04 
2146	 9.3601188926468E-04 
2147	 1.31595496072426E-03 
2148	 9.04694354485068E-04 
2149	 8.60392459309025E-05 
2150	 5.94054226370889E-04 
2151	 1.10715792157199E-03 
2152	 6.86048002685226E-04 
2153	 8.04835216536331E-04 
2154	 1.56912138510862E-03 
2155	 1.91942332044353E-03 
2156	 1.83239456280915E-03 
2157	 1.70186673344021E-03 
2158	 1.2439793580786E-03 
2159	 9.24683590610436E-04 
2160	 2.20042663144128E-04 
2161	 7.24661673189051E-05 
2162	 3.42640185309687E-04 
2163	 3.26569375119777E-04 
2164	 5.74627317829988E-04 
2165	 5.67888984580522E-04 
2166	 4.91386441678175E-04 
2167	 2.04545035998518E-04 
2168	-1.20686997591831E-03 
2169	-1.03458852938454E-03 
2170	 4.77817570526521E-04 
2171	 9.361394024305E-04 
2172	 8.17810450188087E-04 
2173	 1.9309002951638E-03 
2174	 1.93665308169457E-03 
2175	 6.44035856290562E-04 
2176	 6.34931099465025E-04 
2177	 9.9646398808338E-04 
2178	 1.06726413965149E-03 
2179	 1.23351235314279E-03 
2180	 1.58313273374743E-03 
2181	 1.68695052447486E-03 
2182	 9.93761502780541E-04 
2183	 1.31830409047076E-03 
2184	 1.53625945428512E-03 
2185	 1.68444136344522E-03 
2186	 1.67328970781298E-03 
2187	 1.03392910995044E-03 
2188	 1.48854823998832E-03 
2189	 3.04414628125762E-03 
2190	 3.15677389444616E-03 
2191	 3.91941822413285E-03 
2192	 3.6237514357099E-03 
2193	 4.06075991193858E-04 
2194	-6.0781558836388E-04 
2195	-3.08180246501543E-04 
2196	-4.7675461133908E-04 
2197	 3.86251909623911E-04 
2198	 8.30719279357251E-04 
2199	 6.4928054794176E-04 
2200	 2.79069164599174E-04 
2201	 1.90079387666091E-03 
2202	 2.09193570889534E-03 
2203	 2.83983404171148E-03 
2204	 3.03466281704614E-03 
2205	 1.23910531362384E-03 
2206	 1.5164516134305E-03 
2207	 2.18732842975953E-03 
2208	 2.37905272521952E-03 
2209	 2.81067497861294E-03 
2210	 1.22712061370534E-03 
2211	 2.1181854890722E-04 
2212	 6.06829155865901E-04 
2213	 7.76105268269719E-04 
2214	 1.2503579528245E-03 
2215	 1.16952755614959E-03 
2216	 6.1178820395883E-04 
2217	 1.23792165515647E-04 
2218	-3.34913283266445E-04 
2219	-4.38104992592101E-04 
2220	-8.49841932950199E-04 
2221	-4.80883873464781E-04 
2222	 8.29785401867014E-04 
2223	 1.21252163699173E-03 
2224	 1.6579225340889E-03 
2225	 2.01445109231942E-03 
2226	 1.87524713103067E-03 
2227	 1.69382924697451E-03 
2228	 1.45513275593773E-03 
2229	 1.53120253293904E-03 
2230	 1.02567033066975E-03 
2231	 1.52993316271574E-03 
2232	 3.92057407611837E-03 
2233	 4.56703192821831E-03 
2234	 4.70623341050962E-03 
2235	 4.57048855119794E-03 
2236	 2.76225801896497E-03 
2237	 4.96590336827942E-04 
2238	-1.20529739984947E-04 
2239	 3.87163110623442E-04 
2240	 1.08613292352381E-03 
2241	 1.67687834690455E-03 
2242	 6.95016498312855E-04 
2243	-8.69800184942012E-04 
2244	-1.80746638384033E-04 
2245	 7.3485760845466E-04 
2246	 7.83842119818839E-05 
2247	 2.64939500253631E-04 
2248	 1.82846845612592E-03 
2249	 1.7009738965436E-03 
2250	 2.2266123221404E-03 
2251	 3.39908395523744E-03 
2252	 1.48914200367781E-03 
2253	-9.09147993972223E-04 
2254	-2.44292858689752E-03 
2255	-2.12981452842132E-03 
2256	-8.49035847479889E-04 
2257	-1.11816028644675E-04 
2258	 2.01404788577067E-03 
2259	 3.37865556235566E-03 
2260	 2.92879542902086E-03 
2261	-1.17666602809928E-04 
2262	-1.89825585843926E-04 
2263	 4.40878567534693E-04 
2264	 6.96772112852162E-05 
2265	 1.0503862073375E-03 
2266	 1.45285736961211E-03 
2267	-5.3088403348865E-04 
2268	-1.80392142558133E-03 
2269	-1.63589503462283E-03 
2270	-1.69154614433804E-03 
2271	-2.08255280691931E-03 
2272	-1.92810793730693E-03 
2273	-1.33215536876407E-03 
2274	-1.28927400835465E-03 
2275	-2.20292954086982E-03 
2276	-1.66805126033358E-03 
2277	 2.55081085589285E-04 
2278	 4.35485270790468E-04 
2279	 1.35264813584635E-03 
2280	 1.30627708961819E-03 
2281	-1.83638593487714E-03 
2282	-1.72239227691708E-03 
2283	 9.1624313394513E-04 
2284	 8.58787165075598E-04 
2285	 1.96597026872779E-03 
2286	 2.16539342030268E-03 
2287	 9.44175079428613E-04 
2288	-9.9741618797838E-04 
2289	-2.46303951828997E-03 
2290	 6.65819886910005E-04 
2291	 2.59437899943016E-03 
2292	 1.11908962903715E-03 
2293	 4.3700939534704E-04 
2294	-2.39606391509117E-03 
2295	-4.21746353562601E-03 
2296	-1.01076366994767E-03 
2297	 7.52486746060023E-04 
2298	 1.91925234067283E-03 
2299	 2.41083086350996E-03 
2300	 1.15533898159768E-03 
2301	 2.33207711754514E-03 
2302	 1.21127049233884E-03 
2303	-2.39094730647931E-03 
2304	-3.10805517890015E-03 
2305	-3.89093242393461E-03 
2306	-5.65546867433581E-03 
2307	-3.61602267576277E-03 
2308	-1.17920635874371E-03 
2309	 6.59379523347794E-04 
2310	 2.1919776993677E-03 
2311	 1.63849449474369E-04 
2312	-1.47791373251328E-03 
2313	-3.42929239715819E-03 
2314	-5.49780198608819E-03 
2315	-4.61439589931718E-03 
2316	-3.79397006012904E-03 
2317	-4.39430263697984E-03 
2318	-5.09327574526417E-03 
2319	-7.26500582464958E-03 
2320	-9.3240522239684E-03 
2321	-9.13677383771008E-03 
2322	-7.44487250600655E-03 
2323	-4.66785211154591E-03 
2324	-6.33938279582467E-03 
2325	-7.75104912915323E-03 
2326	-6.88962177677852E-03 
2327	-7.1744394990531E-03 
2328	-3.7025440104348E-03 
2329	-2.93832695698616E-03 
2330	-6.42918433137622E-03 
2331	-6.10487797564297E-03 
2332	-4.14790527118456E-03 
2333	-2.94192549140964E-03 
2334	-1.28027341079449E-03 
2335	-0.002946922518529 
2336	-4.85629958942987E-03 
2337	-1.30049651937283E-03 
2338	 2.69531857369871E-03 
2339	 6.45167700726685E-03 
2340	 3.80006277556649E-03 
2341	-5.22283221729776E-03 
2342	-6.75016723474731E-03 
2343	-1.29191748215515E-02 
2344	-1.57464693330153E-02 
2345	-7.63661725325121E-03 
2346	-1.20775143439704E-02 
2347	-1.27884785095437E-02 
2348	-5.73399798709494E-03 
2349	-1.16384246866106E-02 
2350	-1.77580337108312E-02 
2351	-0.015925643208879 
2352	-1.58032842136861E-02 
2353	-1.15423782457603E-02 
2354	-3.86143470428148E-03 
2355	-5.57810358700577E-04 
2356	 4.8077788341412E-04 
2357	-2.52648271147296E-03 
2358	-3.0879029237109E-03 
2359	-4.2391096338893E-03 
2360	-3.57355551537567E-03 
2361	-8.09488371738162E-04 
2362	-6.25651584486166E-03 
2363	-4.74951527884522E-03 
2364	 3.48733749984286E-03 
2365	 5.61575415072722E-03 
2366	 4.92450192423695E-03 
2367	 8.23697660177823E-03 
2368	 9.41517060820374E-03 
2369	 6.09018652085992E-03 
2370	 9.45913995775406E-03 
2371	-7.02627270239418E-04 
2372	-1.80332589114965E-02 
2373	-1.58146495372865E-02 
2374	-8.78226131140239E-03 
2375	 4.0250582301727E-03 
2376	 3.98878365335231E-03 
2377	-0.016867399915974 
2378	-2.33879548227928E-02 
2379	-1.98754093724453E-02 
2380	-1.96179878810971E-02 
2381	-2.28938863702322E-04 
2382	 6.32168912674361E-03 
2383	 2.32616619697091E-03 
2384	 3.66508233908509E-02 
2385	 0.03709367182853 
2386	 0.018752602791376 
2387	 3.42696481587379E-02 
2388	 1.86244424224874E-02 
2389	-1.13047508754558E-02 
2390	-1.90880663403486E-02 
2391	-5.21686513235144E-02 
2392	-7.49972993482518E-02 
2393	-4.79134866641912E-02 
2394	-2.31496385990408E-02 
2395	-0.013459614167874 
2396	-1.14263962535599E-02 
2397	-1.63801220458898E-02 
2398	-3.90272159386236E-02 
2399	-4.07429392339228E-02 
2400	-1.26293494823425E-02 
2401	-2.56618230805681E-02 
2402	-3.97463727334622E-02 
2403	-2.87329123135756E-02 
2404	-0.043610618261864 
2405	-4.46452080634651E-02 
2406	-1.44465215038889E-02 
2407	-1.08339867832317E-02 
2408	-0.014836031071323 
2409	-5.93221674581671E-03 
2410	 8.80942623162347E-03 
2411	 4.68842737931866E-02 
2412	 0.067834480579193 
2413	 5.31192299539318E-02 
2414	 6.05602864080746E-02 
2415	 7.34809492572555E-02 
2416	 2.36817444577436E-02 
2417	-3.07602109854058E-02 
2418	-5.65199000674317E-02 
2419	-9.43182072235442E-02 
2420	-7.78574962392715E-02 
2421	-5.70624040897173E-02 
2422	-0.113520486155182 
2423	-0.133526034745225 
2424	-9.22930407102209E-02 
2425	-7.03718744109687E-02 
2426	-7.14950223066121E-03 
2427	-2.33899936739976E-02 
2428	-0.12642186215525 
2429	-8.50987013449399E-02 
2430	-6.06553991428055E-02 
2431	-0.099933677674624 
2432	-6.10851887930063E-02 
2433	-9.34689963057302E-02 
2434	-0.122518869266846 
2435	-2.80163324637114E-02 
2436	-2.83051080551107E-02 
2437	-0.170590522087732 
2438	-0.174009056248671 
2439	-0.104721218654492 
2440	-9.48473789010535E-02 
2441	 2.15334889049346E-02 
2442	 6.31257481345106E-02 
2443	-0.129803360307794 
2444	-8.96326058043322E-02 
2445	-4.02180362080787E-02 
2446	-6.89924169572796E-02 
2447	 0.15385436040435 
2448	 0.1606963636176 
2449	 4.85121662241078E-02 
2450	-1.1585320726947E-03 
2451	-0.337717844638864 
2452	-0.481459444444169 
2453	-0.238612782572678 
2454	-6.11331871193561E-02 
2455	-0.215641045532854 
2456	-0.113444510596373 
2457	-0.107116183713963 
2458	-0.194896736207458 
2459	-6.97736112843156E-02 
2460	-0.214763470558878 
2461	-0.497876535034954 
2462	-0.438948990215734 
2463	-0.340100293503865 
2464	-0.294202121061923 
2465	-0.179226113025487 
2466	-7.82353452281274E-02 
2467	-0.198381563839507 
2468	-0.478017629592443 
2469	-0.683607240298896 
2470	-0.670540238477502 
2471	-1.12945526669182 
2472	-2.9610950667698 
2473	-0.465581980655407 
2474	-0.395239268708515 
2475	-0.409068790133573 
2476	-0.152302730625611 
2477	-0.429499161909053 
2478	-1.70265809710374 
2479	-0.964705761876832 
2480	-0.449089702185008 
2481	-0.13821906138124 
2482	 0.263894009165918 
2483	 0.128845949546811 
2484	-0.554876664834931 
2485	-0.575101757714477 
2486	-0.192862373570794 
2487	-0.389801935355486 
2488	-0.294214903140703 
2489	 0.026866394082534 
2490	-8.54879894083264E-02 
2491	-0.232934181906946 
2492	-0.192609312199934 
2493	-0.681303943851172 
2494	-0.860320889708712 
2495	-0.94228116342878 
2496	-1.96293960469525 
2497	-2.20098167310347 
2498	-0.822758222519961 
2499	-1.20502524527358 
2500	-2.83643745514124 
