Wavelength	rt0721algea00000.asd
350	 5.22849908266236E-02 
351	 5.20235713492394E-02 
352	 5.17632911448639E-02 
353	 5.19101826018201E-02 
354	 5.23613849822102E-02 
355	 5.18440085846982E-02 
356	 5.18611668502215E-02 
357	 5.20769706969241E-02 
358	 0.051856940179483 
359	 5.19252302485449E-02 
360	 5.15240294428445E-02 
361	 5.09921265822034E-02 
362	 5.12987220441347E-02 
363	 5.17286256274109E-02 
364	 5.17269618506799E-02 
365	 5.13211893852922E-02 
366	 5.13435314701048E-02 
367	 5.12031389874119E-02 
368	 5.11427103627161E-02 
369	 0.05138793249005 
370	 5.13047054301447E-02 
371	 5.18371884849692E-02 
372	 5.23535258764596E-02 
373	 5.16261502312655E-02 
374	 0.051798323748797 
375	 0.052006050603832 
376	 5.18281313958969E-02 
377	 5.18675274988281E-02 
378	 5.20468939028264E-02 
379	 5.24014042425429E-02 
380	 5.28307349218523E-02 
381	 5.27861688734685E-02 
382	 5.28807787421645E-02 
383	 5.31221060152306E-02 
384	 5.32569236904444E-02 
385	 5.34909292015296E-02 
386	 5.36598698856086E-02 
387	 5.38417277395931E-02 
388	 5.43676555983304E-02 
389	 5.42080019238034E-02 
390	 5.42430201697147E-02 
391	 5.49897217943689E-02 
392	 5.52600580183458E-02 
393	 5.52542977410022E-02 
394	 5.51916711135388E-02 
395	 5.52885316870607E-02 
396	 0.055610868750732 
397	 5.59060178478051E-02 
398	 5.60395753788807E-02 
399	 0.056014448797809 
400	 5.60981369452455E-02 
401	 5.63644915458731E-02 
402	 5.67194863173486E-02 
403	 5.67786851291417E-02 
404	 0.056890736837504 
405	 5.71032181995725E-02 
406	 5.73167615175302E-02 
407	 5.72682665900882E-02 
408	 5.73953327323443E-02 
409	 5.77216519187488E-02 
410	 5.78514705864921E-02 
411	 5.81045760834125E-02 
412	 5.82500096774697E-02 
413	 5.82198058174313E-02 
414	 5.85739968150629E-02 
415	 5.88031930039493E-02 
416	 5.89016172786433E-02 
417	 5.90803462156523E-02 
418	 5.95281011185515E-02 
419	 5.98669109855872E-02 
420	 0.060017702304597 
421	 0.060258789351185 
422	 6.06530670119162E-02 
423	 6.09902689321507E-02 
424	 6.11580828710785E-02 
425	 6.14771655831686E-02 
426	 6.18590151920566E-02 
427	 6.22089787902973E-02 
428	 0.06247276807176 
429	 6.29418766807535E-02 
430	 0.06335519801953 
431	 6.36757211691869E-02 
432	 6.41830659977569E-02 
433	 6.45101037633582E-02 
434	 6.48017003481762E-02 
435	 6.52234943623759E-02 
436	 6.56697612167202E-02 
437	 6.60585876241953E-02 
438	 6.63994941928667E-02 
439	 6.67555330532901E-02 
440	 6.71626535117546E-02 
441	 6.75793159561473E-02 
442	 6.79576112685126E-02 
443	 0.068251965653552 
444	 6.85627736480805E-02 
445	 6.89199995475268E-02 
446	 6.93103882212897E-02 
447	 6.96654661749903E-02 
448	 6.99111098838382E-02 
449	 7.01042127289257E-02 
450	 7.03817292953935E-02 
451	 7.05757861822085E-02 
452	 0.070769912697199 
453	 7.10116206799886E-02 
454	 7.12050154693451E-02 
455	 7.13456981899598E-02 
456	 7.14573905390236E-02 
457	 7.15750957737271E-02 
458	 0.071712036702451 
459	 7.18055589303939E-02 
460	 7.19061764789214E-02 
461	 0.072162393105504 
462	 0.072226805286787 
463	 7.22433484025518E-02 
464	 7.23683110768771E-02 
465	 7.25135198694265E-02 
466	 7.26372965491469E-02 
467	 7.27748326621919E-02 
468	 7.29743148385789E-02 
469	 7.30527094614475E-02 
470	 7.31506871911387E-02 
471	 7.33075988865575E-02 
472	 7.33897867322982E-02 
473	 0.073454384086752 
474	 7.35788098753149E-02 
475	 7.37975853279189E-02 
476	 7.39822535042052E-02 
477	 7.41404304006292E-02 
478	 7.42948655063814E-02 
479	 7.44873504278275E-02 
480	 7.48471249938325E-02 
481	 7.51410045433542E-02 
482	 7.53025970131766E-02 
483	 7.57093929305475E-02 
484	 7.59472413600177E-02 
485	 0.076118776635999 
486	 7.64583941860401E-02 
487	 7.67976082619831E-02 
488	 7.71453897662614E-02 
489	 7.75072317532131E-02 
490	 7.78790615641506E-02 
491	 7.82326190043794E-02 
492	 7.86191724814134E-02 
493	 0.079078143885781 
494	 7.95958209434112E-02 
495	 8.00373848856661E-02 
496	 8.04722218927116E-02 
497	 8.10356949326265E-02 
498	 8.14212742689349E-02 
499	 8.18780915206461E-02 
500	 8.25199567148133E-02 
501	 8.31716912041638E-02 
502	 8.37728007381382E-02 
503	 8.43321767797802E-02 
504	 8.48965075430858E-02 
505	 8.55240442132899E-02 
506	 8.62177182004778E-02 
507	 8.69564335692699E-02 
508	 8.76990865854298E-02 
509	 8.83837827822572E-02 
510	 8.90920857627758E-02 
511	 8.98832092643676E-02 
512	 9.07351444339479E-02 
513	 9.14632429066771E-02 
514	 9.22060981286102E-02 
515	 9.31709391410881E-02 
516	 9.39482136633838E-02 
517	 9.47985868990395E-02 
518	 9.57512423435876E-02 
519	 9.64905583588812E-02 
520	 9.72413180154275E-02 
521	 9.80426781511861E-02 
522	 9.88862923023108E-02 
523	 9.97440595062869E-02 
524	 0.100588014273571 
525	 0.101384163466711 
526	 0.102115891841491 
527	 0.102953618979956 
528	 0.103799943464776 
529	 0.104568499762997 
530	 0.105258048852743 
531	 0.106059995907116 
532	 0.106893196364518 
533	 0.107614037722863 
534	 0.108419128485319 
535	 0.109175749536283 
536	 0.109885143614936 
537	 0.110712119844755 
538	 0.111406608513226 
539	 0.112084482345221 
540	 0.112876013536508 
541	 0.113663913518181 
542	 0.114416949599552 
543	 0.115161283201951 
544	 0.115952954321581 
545	 0.116701033385997 
546	 0.117458079427558 
547	 0.118236477801973 
548	 0.118937050414705 
549	 0.119627771727018 
550	 0.120351648446466 
551	 0.12111873870384 
552	 0.121799347573906 
553	 0.122460084883928 
554	 0.123125420901588 
555	 0.12375690389759 
556	 0.124443551049072 
557	 0.12509831423119 
558	 0.125648875947771 
559	 0.126240431454231 
560	 0.126765362736843 
561	 0.127237093999393 
562	 0.127737745642444 
563	 0.128191455392725 
564	 0.128620607383277 
565	 0.129027410749501 
566	 0.129355130898394 
567	 0.129594251896857 
568	 0.129832848940627 
569	 0.130163064232091 
570	 0.130474270956881 
571	 0.130740160745235 
572	 0.130998969283453 
573	 0.131345832082066 
574	 0.131576379885774 
575	 0.131714872047575 
576	 0.131856182296707 
577	 0.132142256742541 
578	 0.132406399140508 
579	 0.132562277191549 
580	 0.132603892514219 
581	 0.13274484882395 
582	 0.132862782693515 
583	 0.132883154895224 
584	 0.132900913910327 
585	 0.132813910979315 
586	 0.132609807655232 
587	 0.132335022755396 
588	 0.132168991950203 
589	 0.132042104471858 
590	 0.131947406034181 
591	 0.131948319722881 
592	 0.131933817401482 
593	 0.131840817749391 
594	 0.131671747580311 
595	 0.131578843419257 
596	 0.131484967346341 
597	 0.131352045939713 
598	 0.131168354721177 
599	 0.130949103610672 
600	 0.130734180766426 
601	 0.130573162691029 
602	 0.13053055708342 
603	 0.130504533351054 
604	 0.130457468045915 
605	 0.130394932363979 
606	 0.130418775165527 
607	 0.130429626801625 
608	 0.130414398637505 
609	 0.130453796457633 
610	 0.130435754422976 
611	 0.13036737527313 
612	 0.130291571574019 
613	 0.130274509093588 
614	 0.130284460187722 
615	 0.130240053674146 
616	 0.13007547473565 
617	 0.130120835133042 
618	 0.130124182983162 
619	 0.129988149220487 
620	 0.129964548620082 
621	 0.129916471178006 
622	 0.129871357007401 
623	 0.129869937772891 
624	 0.129780752013403 
625	 0.129631040615544 
626	 0.129493526010469 
627	 0.129470253536242 
628	 0.129490376591283 
629	 0.129488030837689 
630	 0.129434843783139 
631	 0.129397549369709 
632	 0.129320596299755 
633	 0.12920336960995 
634	 0.129065596276193 
635	 0.128871420824818 
636	 0.128647004442485 
637	 0.128406440042553 
638	 0.12813443415209 
639	 0.127848608149148 
640	 0.127574142944969 
641	 0.127309679379444 
642	 0.126927263680775 
643	 0.126579620030106 
644	 0.126238901067909 
645	 0.125738267751762 
646	 0.125168985980716 
647	 0.124823811318896 
648	 0.124782748010603 
649	 0.124548364134112 
650	 0.12436823592089 
651	 0.124236068339503 
652	 0.124079041637822 
653	 0.123975998996804 
654	 0.123763555752173 
655	 0.123447222906592 
656	 0.123319568854338 
657	 0.123084430316753 
658	 0.122792747264333 
659	 0.122536050773184 
660	 0.122359689196207 
661	 0.122021828917345 
662	 0.12163123390598 
663	 0.121481655577216 
664	 0.121236908682524 
665	 0.120985709466848 
666	 0.120793031918131 
667	 0.120589377807994 
668	 0.120429036387441 
669	 0.120290977701727 
670	 0.120152992421037 
671	 0.120106891648239 
672	 0.120103107482389 
673	 0.120083298909466 
674	 0.120000483217945 
675	 0.120064803891381 
676	 0.120118883874033 
677	 0.120086666085008 
678	 0.120282558944487 
679	 0.120474673693059 
680	 0.120705830992041 
681	 0.121112988846229 
682	 0.121556560636781 
683	 0.122178217596767 
684	 0.122895301127264 
685	 0.123347976851273 
686	 0.124009378177915 
687	 0.124933566953096 
688	 0.125944209643466 
689	 0.126952704926363 
690	 0.127894176971285 
691	 0.128714275752351 
692	 0.129392825186508 
693	 0.130156842602485 
694	 0.131038972903867 
695	 0.131922600647999 
696	 0.132639020228111 
697	 0.133122178595743 
698	 0.133410640118742 
699	 0.133594934871882 
700	 0.133963209192761 
701	 0.134299712707918 
702	 0.134526530062329 
703	 0.134702943804506 
704	 0.134726437798773 
705	 0.134639827101852 
706	 0.134491767994256 
707	 0.134310459840847 
708	 0.133891774112751 
709	 0.133329940121681 
710	 0.132796054361179 
711	 0.132212331503921 
712	 0.131361931674326 
713	 0.130236617765074 
714	 0.129018876848353 
715	 0.127589843018254 
716	 0.125955411717672 
717	 0.124310281905045 
718	 0.122759200181694 
719	 0.121509690208599 
720	 0.120596911870065 
721	 0.119682112049351 
722	 0.118242416310998 
723	 0.116526121371814 
724	 0.114900491963842 
725	 0.113268113341045 
726	 0.111555201070104 
727	 0.109709320531421 
728	 0.107693692890449 
729	 0.105362002953492 
730	 0.10317331935961 
731	 0.101315071765254 
732	 9.96626207513152E-02 
733	 9.80891000683213E-02 
734	 0.096571594737551 
735	 9.52018276036927E-02 
736	 9.41887389424013E-02 
737	 9.35227525067708E-02 
738	 9.30795196323885E-02 
739	 9.27560778324276E-02 
740	 9.25890349720372E-02 
741	 0.092466236027118 
742	 9.23578847584593E-02 
743	 9.22892944933159E-02 
744	 9.23408170224536E-02 
745	 9.23609793321663E-02 
746	 9.23077916518448E-02 
747	 9.23151424715051E-02 
748	 9.23256974160487E-02 
749	 0.092347336168913 
750	 9.23781068682648E-02 
751	 9.23311890897621E-02 
752	 0.092334513716631 
753	 9.23692050586205E-02 
754	 0.092355784703296 
755	 9.24592950393263E-02 
756	 9.24940760308544E-02 
757	 9.23746634303714E-02 
758	 9.21463582461194E-02 
759	 0.091732395826797 
760	 9.12264102402671E-02 
761	 9.11090416807005E-02 
762	 9.12833581462004E-02 
763	 9.16584597727098E-02 
764	 0.092116703791837 
765	 0.092571508485053 
766	 9.29657464465528E-02 
767	 9.32736522890825E-02 
768	 9.35331134210932E-02 
769	 9.38225553103186E-02 
770	 9.39732523994661E-02 
771	 9.41810973701927E-02 
772	 9.45513782397771E-02 
773	 9.47453937392122E-02 
774	 9.49445020814669E-02 
775	 9.52456295642305E-02 
776	 9.56612044355483E-02 
777	 9.59183213512813E-02 
778	 9.61797769992574E-02 
779	 9.65195100238415E-02 
780	 0.096886785319987 
781	 9.71989870442808E-02 
782	 9.75794909703528E-02 
783	 9.80538306721351E-02 
784	 9.83413400573339E-02 
785	 9.86247009579447E-02 
786	 9.89066560994511E-02 
787	 9.91616836289026E-02 
788	 9.95320203466419E-02 
789	 0.100071517857315 
790	 0.100620828076884 
791	 0.100925039759385 
792	 0.101499426549731 
793	 0.102067818976071 
794	 0.102439310886612 
795	 0.102716238300612 
796	 0.103164622615359 
797	 0.103572371999603 
798	 0.103761950388311 
799	 0.104111977200624 
800	 0.104419304135298 
801	 0.104635633230147 
802	 0.104832808622059 
803	 0.105185531118478 
804	 0.105580794975927 
805	 0.105823234937068 
806	 0.105688888721245 
807	 0.105572279580731 
808	 0.105399415149369 
809	 0.105086543682648 
810	 0.10478695021337 
811	 0.104230771167983 
812	 0.103521554274851 
813	 0.10293067945633 
814	 0.102535987384118 
815	 0.101984022688871 
816	 0.101351250067024 
817	 0.101013707171811 
818	 0.10057353814827 
819	 0.100008960215445 
820	 9.92723512865144E-02 
821	 9.82446634024498E-02 
822	 9.68052791976711E-02 
823	 9.54883949876975E-02 
824	 9.44938527766548E-02 
825	 9.28218561760016E-02 
826	 9.08245854450673E-02 
827	 8.87023189588993E-02 
828	 0.086732853439324 
829	 8.48051862558611E-02 
830	 8.30999732953681E-02 
831	 8.16209618690454E-02 
832	 8.02960473195283E-02 
833	 7.92901383313052E-02 
834	 0.078508377077161 
835	 0.077815380686725 
836	 7.70943356759161E-02 
837	 7.68379492797085E-02 
838	 7.66069611533585E-02 
839	 7.60513999912452E-02 
840	 7.55522809023938E-02 
841	 7.52238277296709E-02 
842	 7.50334423094406E-02 
843	 7.48568531612684E-02 
844	 7.45241195780923E-02 
845	 7.42329352429232E-02 
846	 7.39452207997464E-02 
847	 0.073488430902667 
848	 7.31205048736704E-02 
849	 7.27929541237932E-02 
850	 0.07250148798499 
851	 7.23275487913169E-02 
852	 7.20870816384233E-02 
853	 7.16977698449187E-02 
854	 7.12495250021218E-02 
855	 7.11098820770429E-02 
856	 7.08069850731773E-02 
857	 7.04503979061837E-02 
858	 7.02358194404397E-02 
859	 7.00668789717923E-02 
860	 0.069850292551141 
861	 6.95816141834378E-02 
862	 6.93087837040522E-02 
863	 6.90720776784708E-02 
864	 6.88606951407138E-02 
865	 6.86328102309202E-02 
866	 6.83271299262979E-02 
867	 6.79097320132585E-02 
868	 6.75971682497231E-02 
869	 6.73799109949004E-02 
870	 6.69424560857267E-02 
871	 6.69094233685699E-02 
872	 6.65921661116001E-02 
873	 6.57358058642806E-02 
874	 6.56848239161108E-02 
875	 6.53076072420194E-02 
876	 6.47508624471814E-02 
877	 6.43965185791222E-02 
878	 6.39547715483076E-02 
879	 6.36195472933015E-02 
880	 6.32372035492082E-02 
881	 6.26125524412573E-02 
882	 6.22689265307979E-02 
883	 6.18637491362527E-02 
884	 0.061443063708411 
885	 6.12925543042853E-02 
886	 6.08209394049089E-02 
887	 6.04848069410502E-02 
888	 6.02659569129804E-02 
889	 5.95475416765393E-02 
890	 5.89957591799042E-02 
891	 5.87301171933655E-02 
892	 5.85703241623361E-02 
893	 5.79680085884639E-02 
894	 5.72922162081906E-02 
895	 5.70177313856428E-02 
896	 5.71649148823152E-02 
897	 5.62650457950389E-02 
898	 5.54596222835178E-02 
899	 5.51686756439624E-02 
900	 5.52599368382739E-02 
901	 5.49981743332548E-02 
902	 5.46019707751374E-02 
903	 5.42138169784438E-02 
904	 5.38918630106403E-02 
905	 5.34293385998578E-02 
906	 5.31730221419068E-02 
907	 5.28367499194081E-02 
908	 5.18255871746763E-02 
909	 0.050920888050386 
910	 5.07438003681423E-02 
911	 5.10643034183743E-02 
912	 5.09164653046163E-02 
913	 4.97215644804294E-02 
914	 4.89080331781882E-02 
915	 0.048782488044294 
916	 4.81625928733176E-02 
917	 4.78893583932158E-02 
918	 4.73345053975842E-02 
919	 4.64133154802457E-02 
920	 4.59560628861412E-02 
921	 4.56564202534548E-02 
922	 4.53095712178864E-02 
923	 4.48269128793048E-02 
924	 4.43540673960603E-02 
925	 4.28625734915882E-02 
926	 4.20980462374403E-02 
927	 4.32623855337801E-02 
928	 4.17838381065285E-02 
929	 4.16887151604211E-02 
930	 4.20001131114493E-02 
931	 3.95354335661698E-02 
932	 3.90823339061457E-02 
933	 3.90314305797141E-02 
934	 3.95311764993566E-02 
935	 4.06921241499146E-02 
936	 0.039540856011938 
937	 3.61259298544931E-02 
938	 3.46801132988701E-02 
939	 3.75952969105095E-02 
940	 3.70633249582354E-02 
941	 0.037058828741823 
942	 3.64144005956677E-02 
943	 3.34329176975391E-02 
944	 3.96019139893674E-02 
945	 4.29643396498025E-02 
946	 4.03200093563729E-02 
947	 3.62066078220205E-02 
948	 3.71389568165276E-02 
949	 3.70920972460967E-02 
950	 3.58873253719757E-02 
951	 3.68337710642914E-02 
952	 0.037755992355658 
953	 3.67707790692415E-02 
954	 3.53362428511667E-02 
955	 3.62000594426089E-02 
956	 3.54695396120778E-02 
957	 3.53463682966976E-02 
958	 3.52110521034181E-02 
959	 3.31483256383568E-02 
960	 3.41543666408963E-02 
961	 3.64294080687808E-02 
962	 3.71621201095117E-02 
963	 0.034734691699541 
964	 3.50386894510474E-02 
965	 3.43343655156339E-02 
966	 3.37576946497945E-02 
967	 3.69602355441168E-02 
968	 3.50355518894743E-02 
969	 3.44607669773531E-02 
970	 3.58176728462463E-02 
971	 0.03442091150702 
972	 3.58382651383359E-02 
973	 3.65432091439229E-02 
974	 3.58732937653222E-02 
975	 0.036535253453453 
976	 3.64259526235058E-02 
977	 0.035853751420126 
978	 3.57544057161867E-02 
979	 0.036799894508931 
980	 3.58289904579937E-02 
981	 3.59557097335179E-02 
982	 3.67538240871804E-02 
983	 3.53645471455977E-02 
984	 3.68692905225631E-02 
985	 3.72853734790924E-02 
986	 3.62854506130179E-02 
987	 3.67327422755387E-02 
988	 3.75603170990174E-02 
989	 3.68681903793866E-02 
990	 3.58296631659062E-02 
991	 3.71199068320222E-02 
992	 3.68191440365788E-02 
993	 3.69644708973866E-02 
994	 0.037475556242237 
995	 3.69290220717644E-02 
996	 3.73379981474252E-02 
997	 3.70609946981432E-02 
998	 3.67870008730966E-02 
999	 3.79345601672674E-02 
1000	 3.68006333222155E-02 
1001	 3.39526472126341E-02 
1002	 3.38076249167122E-02 
1003	 3.37703071540694E-02 
1004	 3.36635063363293E-02 
1005	 3.37229880853264E-02 
1006	 3.39131305467622E-02 
1007	 3.40262617795029E-02 
1008	 3.42580931576424E-02 
1009	 3.44184660598883E-02 
1010	 0.034426230069865 
1011	 3.43971967304334E-02 
1012	 3.41857452484403E-02 
1013	 3.43677379890543E-02 
1014	 0.034379515475616 
1015	 3.41765283891536E-02 
1016	 3.43093325821884E-02 
1017	 3.46823839625354E-02 
1018	 0.034871083090359 
1019	 0.035426259318094 
1020	 3.55093626770333E-02 
1021	 3.52451729703373E-02 
1022	 3.49064583167058E-02 
1023	 0.034577514004938 
1024	 3.44450654613607E-02 
1025	 3.47653893670649E-02 
1026	 3.50177074915439E-02 
1027	 3.51432454562279E-02 
1028	 3.54057539601031E-02 
1029	 3.53189475071284E-02 
1030	 3.48084834901035E-02 
1031	 3.47333114482314E-02 
1032	 0.034569826657488 
1033	 3.46344780331971E-02 
1034	 3.52163704575856E-02 
1035	 0.035381101156642 
1036	 0.035436300138182 
1037	 3.54801557414987E-02 
1038	 3.52072119936044E-02 
1039	 3.51714282338555E-02 
1040	 3.54826007481719E-02 
1041	 3.56582956839289E-02 
1042	 3.58265024943125E-02 
1043	 3.61894781332699E-02 
1044	 3.62548876186835E-02 
1045	 0.036054149251539 
1046	 3.60178106183214E-02 
1047	 3.59130646024188E-02 
1048	 3.59311013822145E-02 
1049	 3.60488092523099E-02 
1050	 3.61485812751396E-02 
1051	 0.036287486606838 
1052	 3.64223278574305E-02 
1053	 3.66469798374441E-02 
1054	 3.67299493286029E-02 
1055	 0.03665789973674 
1056	 0.036730494289939 
1057	 3.68237009750862E-02 
1058	 3.68503524003959E-02 
1059	 3.69701711250602E-02 
1060	 3.73406395232718E-02 
1061	 3.73665631003623E-02 
1062	 3.71831504847817E-02 
1063	 3.71321873496851E-02 
1064	 3.69964484322644E-02 
1065	 3.68950849354092E-02 
1066	 3.68036726978677E-02 
1067	 3.68074608890182E-02 
1068	 3.67865682514626E-02 
1069	 3.68510562116464E-02 
1070	 3.71414648639307E-02 
1071	 3.73224407788681E-02 
1072	 3.76573635540142E-02 
1073	 3.76485552148347E-02 
1074	 3.76116561833426E-02 
1075	 3.74769409024856E-02 
1076	 0.037291499215768 
1077	 3.68858278127254E-02 
1078	 3.66796584843017E-02 
1079	 3.64567683158227E-02 
1080	 3.63542357029542E-02 
1081	 3.64473283242161E-02 
1082	 3.63939229643187E-02 
1083	 3.64231141371472E-02 
1084	 3.62925090249004E-02 
1085	 3.57996322708185E-02 
1086	 3.56409956537494E-02 
1087	 3.56740435539656E-02 
1088	 3.56030065827089E-02 
1089	 3.56595192527678E-02 
1090	 3.58062069370296E-02 
1091	 0.035691042003266 
1092	 3.52915458359566E-02 
1093	 0.035155662237281 
1094	 3.49250643546841E-02 
1095	 3.48996780505713E-02 
1096	 3.52743646110347E-02 
1097	 3.51640203319898E-02 
1098	 3.48269682458325E-02 
1099	 3.47057469196525E-02 
1100	 3.43118434661825E-02 
1101	 0.034115511218842 
1102	 3.44629741565764E-02 
1103	 3.44207868728605E-02 
1104	 3.41907163446971E-02 
1105	 3.36723325958637E-02 
1106	 0.033669528237038 
1107	 3.36005154151186E-02 
1108	 3.35881964074785E-02 
1109	 3.37640269245219E-02 
1110	 3.33694486391381E-02 
1111	 3.18400885833706E-02 
1112	 3.14731874499598E-02 
1113	 3.17583116246765E-02 
1114	 3.14290778504246E-02 
1115	 3.16463341819061E-02 
1116	 3.14622661797919E-02 
1117	 2.97137756218292E-02 
1118	 0.028911415181568 
1119	 2.93959504695167E-02 
1120	 2.92815517053781E-02 
1121	 2.96069753214482E-02 
1122	 2.86718862681226E-02 
1123	 2.91662087020485E-02 
1124	 3.11817543739285E-02 
1125	 3.14270481220766E-02 
1126	 3.20767460237934E-02 
1127	 3.01696686637512E-02 
1128	 2.64657414857354E-02 
1129	 2.63654381919421E-02 
1130	 2.88825585834824E-02 
1131	 2.91373090796236E-02 
1132	 2.90804602139913E-02 
1133	 2.98309345329685E-02 
1134	 0.030820369685786 
1135	 3.05191855398187E-02 
1136	 3.03901412321465E-02 
1137	 3.04965690822823E-02 
1138	 3.01254033164589E-02 
1139	 0.02881366066428 
1140	 2.92197799399693E-02 
1141	 2.92665907903916E-02 
1142	 2.83554360149758E-02 
1143	 2.79434706341042E-02 
1144	 2.65855513236882E-02 
1145	 2.62656109676898E-02 
1146	 2.80627333871058E-02 
1147	 2.74819209355025E-02 
1148	 2.67136352390067E-02 
1149	 2.81815155689486E-02 
1150	 2.84972521401891E-02 
1151	 2.79812546190426E-02 
1152	 2.81840034991341E-02 
1153	 0.028677373589717 
1154	 2.84574295080038E-02 
1155	 0.027881784464835 
1156	 2.79902602422356E-02 
1157	 0.027874717481932 
1158	 0.02837314106827 
1159	 2.89774435148647E-02 
1160	 2.86597971893803E-02 
1161	 2.84455134771563E-02 
1162	 2.88363380129486E-02 
1163	 2.88606350920309E-02 
1164	 2.90173491558975E-02 
1165	 2.93598020193774E-02 
1166	 2.91440575357574E-02 
1167	 2.91267757841071E-02 
1168	 0.02952828017086 
1169	 2.97448905940573E-02 
1170	 2.96754904844952E-02 
1171	 2.96155230892207E-02 
1172	 2.92973136442417E-02 
1173	 2.92819260345085E-02 
1174	 2.94046315991955E-02 
1175	 2.93875090490184E-02 
1176	 2.95480047560821E-02 
1177	 2.95729425750034E-02 
1178	 2.93455784534748E-02 
1179	 2.94165984357629E-02 
1180	 2.95462550184778E-02 
1181	 0.02933020746722 
1182	 2.93053040149361E-02 
1183	 2.95564158292147E-02 
1184	 2.94582682762481E-02 
1185	 2.92634171930343E-02 
1186	 2.93081389252712E-02 
1187	 2.92680912249584E-02 
1188	 2.93473815865175E-02 
1189	 2.95769774898305E-02 
1190	 2.94391366472861E-02 
1191	 2.92226910374922E-02 
1192	 2.92368512532856E-02 
1193	 2.93521392681474E-02 
1194	 2.93969734909007E-02 
1195	 2.94200745914527E-02 
1196	 2.95450914731534E-02 
1197	 2.95128907355853E-02 
1198	 2.92448754953267E-02 
1199	 2.90856338641729E-02 
1200	 2.92426947497269E-02 
1201	 2.92442902375329E-02 
1202	 2.92819461184418E-02 
1203	 0.029729206398879 
1204	 2.97459814190457E-02 
1205	 0.029549302864805 
1206	 2.96715279475781E-02 
1207	 2.96401928204628E-02 
1208	 2.97538613983823E-02 
1209	 2.99924924910231E-02 
1210	 2.98556469851369E-02 
1211	 2.96236229396531E-02 
1212	 2.95316741887382E-02 
1213	 2.94280276504659E-02 
1214	 2.94014221686356E-02 
1215	 2.95374593601843E-02 
1216	 2.98280215467052E-02 
1217	 2.98006462823562E-02 
1218	 2.96965915244285E-02 
1219	 2.96784867719822E-02 
1220	 2.96554981377444E-02 
1221	 2.98661686469332E-02 
1222	 3.00254482844826E-02 
1223	 0.029978978941931 
1224	 0.030016626676337 
1225	 3.00124236884256E-02 
1226	 2.98759041865939E-02 
1227	 2.99937557209653E-02 
1228	 3.01779501872362E-02 
1229	 3.00388181512391E-02 
1230	 3.00813910925752E-02 
1231	 3.03317632698819E-02 
1232	 0.030227205784572 
1233	 3.01020887575668E-02 
1234	 3.03042368980075E-02 
1235	 3.04013688800738E-02 
1236	 3.03621714579269E-02 
1237	 0.030370004673739 
1238	 3.05338597516196E-02 
1239	 3.04879361895368E-02 
1240	 3.02420285683555E-02 
1241	 0.030293469012749 
1242	 3.03699124090568E-02 
1243	 3.01878419895879E-02 
1244	 3.01239471547836E-02 
1245	 3.02160725832749E-02 
1246	 3.03317914460056E-02 
1247	 3.03209995614775E-02 
1248	 3.02592912862777E-02 
1249	 3.02610301223944E-02 
1250	 3.01664174868115E-02 
1251	 3.01991193153059E-02 
1252	 0.030241447255022 
1253	 3.01200052560438E-02 
1254	 3.01675111932938E-02 
1255	 3.02947454901344E-02 
1256	 3.02583765038301E-02 
1257	 3.01976143969325E-02 
1258	 3.01865001832022E-02 
1259	 3.00413287569794E-02 
1260	 2.99606737580496E-02 
1261	 3.00381389958158E-02 
1262	 3.00547816323281E-02 
1263	 3.00222741759015E-02 
1264	 2.98797248906531E-02 
1265	 2.97754784155064E-02 
1266	 2.99011140869915E-02 
1267	 2.99366025564988E-02 
1268	 2.97429397532521E-02 
1269	 2.98950730451401E-02 
1270	 0.030258321871389 
1271	 3.03205778824899E-02 
1272	 3.02096147632924E-02 
1273	 0.029977709497722 
1274	 2.97176029172744E-02 
1275	 2.98114099478626E-02 
1276	 3.00762840647366E-02 
1277	 3.00951760606974E-02 
1278	 3.01122030587622E-02 
1279	 3.01725494566275E-02 
1280	 2.99947138972841E-02 
1281	 0.029848248644807 
1282	 2.98103114214808E-02 
1283	 2.98300602391391E-02 
1284	 2.97402253087901E-02 
1285	 2.96119580359293E-02 
1286	 2.96599775358152E-02 
1287	 2.96710099097476E-02 
1288	 2.94569289466051E-02 
1289	 2.93489237796098E-02 
1290	 2.94599545976404E-02 
1291	 2.94260177833478E-02 
1292	 2.93221193699321E-02 
1293	 2.92893584618551E-02 
1294	 2.92537900695734E-02 
1295	 2.92571966576235E-02 
1296	 2.92048239207691E-02 
1297	 2.90612388476099E-02 
1298	 2.91389849076397E-02 
1299	 2.93548180516091E-02 
1300	 2.91722080528828E-02 
1301	 2.87872850992563E-02 
1302	 2.88640102319602E-02 
1303	 2.90299288022167E-02 
1304	 2.87297086400171E-02 
1305	 2.86022711518802E-02 
1306	 2.85979107362355E-02 
1307	 2.83983824050061E-02 
1308	 2.82039282253158E-02 
1309	 2.84187327753242E-02 
1310	 0.028422971897306 
1311	 2.79505387666691E-02 
1312	 2.78338595178715E-02 
1313	 2.81826287188271E-02 
1314	 2.81532045039428E-02 
1315	 2.78253318930232E-02 
1316	 2.77214260910357E-02 
1317	 2.76158755793751E-02 
1318	 0.027516792278731 
1319	 2.77352265900031E-02 
1320	 2.77299713790181E-02 
1321	 2.76148759026562E-02 
1322	 2.70965843488267E-02 
1323	 2.70106541490672E-02 
1324	 0.027309099878708 
1325	 2.72704072074765E-02 
1326	 2.70660446408708E-02 
1327	 2.68239814273657E-02 
1328	 2.63400267904736E-02 
1329	 2.63859977852648E-02 
1330	 2.63787665808946E-02 
1331	 2.58979911034326E-02 
1332	 2.62410585765199E-02 
1333	 2.61909495060357E-02 
1334	 2.55449475578309E-02 
1335	 2.53378452961617E-02 
1336	 2.47259475329995E-02 
1337	 2.46035776812708E-02 
1338	 2.57025495535289E-02 
1339	 2.57059044598506E-02 
1340	 2.48919168726397E-02 
1341	 2.44958452731435E-02 
1342	 2.33384958835348E-02 
1343	 2.30460560510202E-02 
1344	 2.43846396580675E-02 
1345	 2.44394451903016E-02 
1346	 2.33967966612275E-02 
1347	 2.30261511256869E-02 
1348	 2.21022123224025E-02 
1349	 2.17090801739297E-02 
1350	 2.45602880677449E-02 
1351	 2.57522970208647E-02 
1352	 2.19517759184699E-02 
1353	 2.12609816756389E-02 
1354	 0.026061032880822 
1355	 3.07428484873929E-02 
1356	 3.37657916665639E-02 
1357	 0.026366192510337 
1358	 1.33256226848035E-02 
1359	 4.77168309757445E-02 
1360	 0.101943989547442 
1361	 0.136184192501409 
1362	 0.133199392778675 
1363	 3.26487829566118E-02 
1364	-1.61351466621335E-02 
1365	 6.48437499709855E-02 
1366	 0.111355750120484 
1367	 0.115174031191324 
1368	 0.144273803905083 
1369	 0.181161533042197 
1370	 0.17792439206292 
1371	 0.147753051887432 
1372	 9.74574948776308E-02 
1373	-1.97389975116265E-02 
1374	-5.93223385929676E-02 
1375	-6.53775401712321E-02 
1376	-9.52044731590124E-02 
1377	-0.146513606611191 
1378	-0.147544943262743 
1379	-0.142784647712546 
1380	-0.100648122258942 
1381	 0.102037412114417 
1382	 0.163791454605752 
1383	 8.20681395916868E-02 
1384	 0.135475387913053 
1385	 0.240560988248131 
1386	 0.239725162876515 
1387	 0.236218356300167 
1388	 0.254654306358697 
1389	 0.196333210041105 
1390	 0.183103102492049 
1391	 0.412289770345132 
1392	 0.268685321033989 
1393	 0.037540931811284 
1394	 4.55189251198603E-02 
1395	 0.226273202796413 
1396	 0.184871308317182 
1397	-1.05224421237078E-02 
1398	-3.81573649519432E-02 
1399	-0.123848483672904 
1400	-0.27041528165589 
1401	-0.095169546343266 
1402	-3.36087647397958E-02 
1403	-0.198329970728677 
1404	 2.85757207029738E-02 
1405	 0.127939731893649 
1406	 0.356073748512878 
1407	 0.279297484927983 
1408	 5.74144760565398E-02 
1409	 5.01275094771989E-03 
1410	-8.34183194193885E-02 
1411	-6.94308144738561E-02 
1412	 3.03131803731724E-02 
1413	 4.40869094144361E-02 
1414	 4.95036135757788E-02 
1415	 4.40048494197143E-02 
1416	 0.019776994708004 
1417	 2.86214622125638E-03 
1418	-2.78224071099971E-02 
1419	-1.64080798517539E-02 
1420	 2.24680418925674E-02 
1421	 1.58858761633743E-02 
1422	-1.34050169945713E-04 
1423	 8.23290989864879E-03 
1424	 1.22142776132788E-02 
1425	 5.32811873535163E-03 
1426	 2.26109795780069E-03 
1427	 1.06240690679488E-02 
1428	 2.10638761275793E-02 
1429	 1.85787701162133E-02 
1430	 1.72163230331602E-02 
1431	 2.24702810118559E-02 
1432	 2.20617750210873E-02 
1433	 1.56419804152851E-02 
1434	 9.35576629668671E-03 
1435	 1.54882238486264E-02 
1436	 2.27880317588405E-02 
1437	 2.08120209170112E-02 
1438	 1.67801919504206E-02 
1439	 2.77402804364401E-02 
1440	 2.16380146725264E-02 
1441	 9.24184616969582E-03 
1442	 1.60094452895791E-02 
1443	 1.87196946717072E-02 
1444	 1.40705276009554E-02 
1445	 1.40531700159018E-02 
1446	 0.014706058628932 
1447	 1.66399813011686E-02 
1448	 1.87567820897558E-02 
1449	 1.62642504804777E-02 
1450	 1.20209825710674E-02 
1451	 1.05238611982957E-02 
1452	 1.12621600672645E-02 
1453	 1.16339136650618E-02 
1454	 1.07270999748466E-02 
1455	 1.01193268188028E-02 
1456	 1.06458515457339E-02 
1457	 1.05017183315539E-02 
1458	 1.04249300759825E-02 
1459	 1.13874394191591E-02 
1460	 1.25636339752321E-02 
1461	 1.37897473559582E-02 
1462	 1.30934305164931E-02 
1463	 1.20623876606829E-02 
1464	 1.27573886943478E-02 
1465	 1.19160347045381E-02 
1466	 1.16760506221806E-02 
1467	 1.53241141900805E-02 
1468	 1.55207573207729E-02 
1469	 1.18614214145952E-02 
1470	 1.05297521402654E-02 
1471	 8.95714593874484E-03 
1472	 9.72258664873869E-03 
1473	 1.28664422328898E-02 
1474	 0.013266198493193 
1475	 1.39752191689976E-02 
1476	 1.41726373258958E-02 
1477	 1.21825033597921E-02 
1478	 1.16252388576184E-02 
1479	 1.22456414811462E-02 
1480	 0.012705806922582 
1481	 1.30635174561434E-02 
1482	 1.32319187082615E-02 
1483	 1.34087564225564E-02 
1484	 1.37553194386839E-02 
1485	 1.40580544557909E-02 
1486	 1.41878060546313E-02 
1487	 0.014623252619043 
1488	 1.47222255054027E-02 
1489	 1.44324971708552E-02 
1490	 1.42766094301836E-02 
1491	 1.40232672799034E-02 
1492	 1.39926337899492E-02 
1493	 1.40128145595456E-02 
1494	 1.40798745248944E-02 
1495	 1.43443607978049E-02 
1496	 1.45329715321466E-02 
1497	 1.46143555054544E-02 
1498	 1.47812563920477E-02 
1499	 1.52152261803068E-02 
1500	 1.52154672719957E-02 
1501	 1.47637760110182E-02 
1502	 1.48605592748402E-02 
1503	 1.52563420866819E-02 
1504	 1.52090490184038E-02 
1505	 1.51284024107803E-02 
1506	 1.51472999174991E-02 
1507	 0.015185039029347 
1508	 1.54180083512396E-02 
1509	 0.015662397586623 
1510	 1.58236248028343E-02 
1511	 1.60109942456506E-02 
1512	 1.60535107377667E-02 
1513	 1.61464947002628E-02 
1514	 1.63326412778332E-02 
1515	 1.61568916637198E-02 
1516	 1.58576936112007E-02 
1517	 1.59102035730161E-02 
1518	 1.62861708989252E-02 
1519	 1.66591546001665E-02 
1520	 1.66665122243727E-02 
1521	 1.66766366479901E-02 
1522	 1.69297767456481E-02 
1523	 1.69477387320947E-02 
1524	 1.69857207689508E-02 
1525	 1.72624439662182E-02 
1526	 1.72515661199802E-02 
1527	 1.71217128555185E-02 
1528	 1.73437843403351E-02 
1529	 1.76530932892739E-02 
1530	 1.77206614960691E-02 
1531	 1.78218855753972E-02 
1532	 1.80175291925794E-02 
1533	 1.80334038195582E-02 
1534	 1.79938635598008E-02 
1535	 1.79823846891635E-02 
1536	 0.017993454381467 
1537	 1.80298432420894E-02 
1538	 1.80902333753455E-02 
1539	 1.82585658308594E-02 
1540	 1.82704880992594E-02 
1541	 1.80362545510917E-02 
1542	 1.80519770417386E-02 
1543	 1.83676875637835E-02 
1544	 1.86230283030382E-02 
1545	 1.88259588442352E-02 
1546	 1.89853582859649E-02 
1547	 1.89219530353444E-02 
1548	 1.88044912150957E-02 
1549	 0.018978554413727 
1550	 1.91437554943867E-02 
1551	 1.90480583435389E-02 
1552	 1.90970707582489E-02 
1553	 1.92883089791526E-02 
1554	 1.93753110838166E-02 
1555	 1.93650938116239E-02 
1556	 1.94052385116463E-02 
1557	 0.019539842829093 
1558	 1.95785239369837E-02 
1559	 1.97104047777491E-02 
1560	 0.019848731841789 
1561	 1.97027475538506E-02 
1562	 1.97180774156064E-02 
1563	 1.99513397301487E-02 
1564	 2.00204221126203E-02 
1565	 2.00516055505048E-02 
1566	 2.00623510001667E-02 
1567	 2.00063338494954E-02 
1568	 2.00121404363573E-02 
1569	 0.019973366890472 
1570	 1.99451822752662E-02 
1571	 1.99823151227768E-02 
1572	 2.00604914108579E-02 
1573	 2.03046198035968E-02 
1574	 2.04611858205459E-02 
1575	 2.04327846726981E-02 
1576	 2.04901355640025E-02 
1577	 2.05509130987598E-02 
1578	 0.02054612432662 
1579	 2.04141551701403E-02 
1580	 2.02542753366751E-02 
1581	 2.03930766885009E-02 
1582	 2.05273925977698E-02 
1583	 2.06128494847825E-02 
1584	 2.07936287988978E-02 
1585	 2.07952435692063E-02 
1586	 2.08797843619187E-02 
1587	 2.10950209870322E-02 
1588	 2.11361882846804E-02 
1589	 2.11164881986638E-02 
1590	 2.10294248340318E-02 
1591	 2.09059886516207E-02 
1592	 2.10648893775364E-02 
1593	 2.12208034358296E-02 
1594	 2.10530291538428E-02 
1595	 2.11406507002633E-02 
1596	 2.13388693273927E-02 
1597	 2.11164081958659E-02 
1598	 0.021011387258811 
1599	 2.12971512945127E-02 
1600	 0.021425716642847 
1601	 2.13258203484613E-02 
1602	 2.15260554665745E-02 
1603	 2.16195776281503E-02 
1604	 2.12573648492471E-02 
1605	 2.11204749109853E-02 
1606	 2.10586256597592E-02 
1607	 2.10338423176696E-02 
1608	 2.12029685863467E-02 
1609	 2.12234787853502E-02 
1610	 2.15334501524964E-02 
1611	 2.17001943985789E-02 
1612	 2.14136303892545E-02 
1613	 2.14662335401378E-02 
1614	 2.15386010538847E-02 
1615	 2.14493617090006E-02 
1616	 2.15639873182149E-02 
1617	 2.18286829609491E-02 
1618	 2.20232585066617E-02 
1619	 2.21004544050649E-02 
1620	 2.20478874816939E-02 
1621	 2.18394955701798E-02 
1622	 2.18182465024747E-02 
1623	 2.18575504027323E-02 
1624	 2.18228962614742E-02 
1625	 2.18528708105541E-02 
1626	 2.18512554943311E-02 
1627	 0.021928452829756 
1628	 2.19910972086829E-02 
1629	 2.20481978034618E-02 
1630	 2.20745527031895E-02 
1631	 2.18665892277357E-02 
1632	 2.16838195120269E-02 
1633	 2.18862473743198E-02 
1634	 2.22412906260194E-02 
1635	 0.022208578792246 
1636	 2.19683491679749E-02 
1637	 2.18279472460783E-02 
1638	 2.17275296789362E-02 
1639	 0.021728585324695 
1640	 2.20108653070582E-02 
1641	 2.21867605292038E-02 
1642	 2.18513252617736E-02 
1643	 2.17136181642318E-02 
1644	 2.19053842110715E-02 
1645	 2.19880420583404E-02 
1646	 2.21073095628533E-02 
1647	 2.21318863784117E-02 
1648	 2.21734580779097E-02 
1649	 2.23070512689117E-02 
1650	 2.21882505547603E-02 
1651	 2.21454691388079E-02 
1652	 2.22399481832244E-02 
1653	 2.20552053305067E-02 
1654	 2.20087512806865E-02 
1655	 2.21273059491483E-02 
1656	 2.20954507842581E-02 
1657	 2.19344512901646E-02 
1658	 2.19266076636243E-02 
1659	 0.022054408197432 
1660	 2.20893896525843E-02 
1661	 0.021977321141181 
1662	 0.02197013468412 
1663	 2.21253085389279E-02 
1664	 2.21146117496329E-02 
1665	 2.20703541566381E-02 
1666	 2.21631782808183E-02 
1667	 2.22035252253222E-02 
1668	 2.21119926873622E-02 
1669	 2.21084509008579E-02 
1670	 2.21699798550296E-02 
1671	 2.20529461622598E-02 
1672	 2.20288141471109E-02 
1673	 2.21699809208439E-02 
1674	 2.22023161396311E-02 
1675	 2.21501305923373E-02 
1676	 2.21034697572218E-02 
1677	 2.20092083199661E-02 
1678	 2.19105228097485E-02 
1679	 2.18961322806795E-02 
1680	 2.18395719491222E-02 
1681	 2.19193404930879E-02 
1682	 2.22658330888634E-02 
1683	 2.23649125915742E-02 
1684	 2.21864987735225E-02 
1685	 2.20759281006956E-02 
1686	 2.19958462763599E-02 
1687	 2.19727523592045E-02 
1688	 2.21813294217206E-02 
1689	 2.24203904952583E-02 
1690	 2.20318025375159E-02 
1691	 2.15452525763396E-02 
1692	 0.021731619114649 
1693	 2.19423387570402E-02 
1694	 2.20534311222601E-02 
1695	 2.22116409549315E-02 
1696	 2.19421638847307E-02 
1697	 2.14081692975417E-02 
1698	 0.021307999456576 
1699	 2.16046659507143E-02 
1700	 2.17944548925338E-02 
1701	 2.17825463455184E-02 
1702	 2.18357793070493E-02 
1703	 2.19943607870065E-02 
1704	 2.19408784249321E-02 
1705	 2.18384521978013E-02 
1706	 2.18443651217082E-02 
1707	 2.16660083124943E-02 
1708	 2.13930680100068E-02 
1709	 2.13724125516839E-02 
1710	 2.16633276624577E-02 
1711	 2.18756548624333E-02 
1712	 2.16387749043825E-02 
1713	 2.18313271080961E-02 
1714	 2.19980769073605E-02 
1715	 2.20403535281467E-02 
1716	 2.20665219713877E-02 
1717	 2.21365620730377E-02 
1718	 2.18459623419594E-02 
1719	 2.13113511169576E-02 
1720	 0.021499269574537 
1721	 2.17522730173002E-02 
1722	 2.15375229272608E-02 
1723	 2.16442169948287E-02 
1724	 2.17182125826661E-02 
1725	 0.021062963120213 
1726	 2.05858210038664E-02 
1727	 2.09554571345725E-02 
1728	 2.12514651000322E-02 
1729	 2.11913701852756E-02 
1730	 2.12849900140421E-02 
1731	 2.12099277839845E-02 
1732	 2.09075656217895E-02 
1733	 2.09733736669625E-02 
1734	 2.11617259893724E-02 
1735	 2.08766664104784E-02 
1736	 2.07574241345354E-02 
1737	 2.09659841278463E-02 
1738	 2.06555544068441E-02 
1739	 2.04543350126185E-02 
1740	 2.04805587866495E-02 
1741	 1.99104063229115E-02 
1742	 1.97788102897779E-02 
1743	 2.02188712526626E-02 
1744	 2.05554221108784E-02 
1745	 2.10431805474917E-02 
1746	 2.06301840841037E-02 
1747	 2.04557730263619E-02 
1748	 1.98512854059522E-02 
1749	 1.97047430722981E-02 
1750	 2.04099519901109E-02 
1751	 2.03558706467006E-02 
1752	 1.95649934794209E-02 
1753	 1.96725882415468E-02 
1754	 2.01643036153423E-02 
1755	 2.00919835229811E-02 
1756	 2.04727064223991E-02 
1757	 1.96593064822663E-02 
1758	 1.90941690494122E-02 
1759	 1.96301679083513E-02 
1760	 1.95105914058413E-02 
1761	 1.94801751699501E-02 
1762	 1.99033175352992E-02 
1763	 1.94453797783302E-02 
1764	 1.92513645959657E-02 
1765	 1.93023877569152E-02 
1766	 1.85354233532505E-02 
1767	 1.84667698936699E-02 
1768	 1.90001699836722E-02 
1769	 1.88687695804725E-02 
1770	 1.88862195375851E-02 
1771	 1.87149727544103E-02 
1772	 1.78944850457292E-02 
1773	 1.78650975625252E-02 
1774	 0.018107334129567 
1775	 1.80411073781272E-02 
1776	 1.80647781656112E-02 
1777	 1.78380443276253E-02 
1778	 1.76037475901748E-02 
1779	 1.71482067807026E-02 
1780	 1.69559867975915E-02 
1781	 0.017256628980363 
1782	 1.75092439089802E-02 
1783	 1.81182366830935E-02 
1784	 1.86236951407203E-02 
1785	 1.87196719278633E-02 
1786	 1.80242824469405E-02 
1787	 1.65790327949194E-02 
1788	 1.68506649911935E-02 
1789	 1.79527567299763E-02 
1790	 1.86196008684265E-02 
1791	 2.04687476839134E-02 
1792	 2.10049236237529E-02 
1793	 1.69056813443418E-02 
1794	 1.72015982765258E-02 
1795	 1.79812080135056E-02 
1796	 0.016407466239778 
1797	 1.95849103159951E-02 
1798	 2.00208377148317E-02 
1799	 1.77704979352609E-02 
1800	 1.47300063666423E-02 
1801	 1.52728761607909E-02 
1802	 2.54787720894866E-02 
1803	 2.48470227286728E-02 
1804	 1.85168306289194E-02 
1805	 1.09231918079666E-02 
1806	-3.80696107952735E-02 
1807	-0.053658318173803 
1808	-8.00069550024444E-03 
1809	-2.57954371653776E-03 
1810	 3.74057345523412E-02 
1811	 0.045885988096835 
1812	-5.47934607004383E-02 
1813	-0.10383611891525 
1814	-0.168321084521544 
1815	-0.111293218283124 
1816	 0.118107294344884 
1817	 0.280895561736594 
1818	 0.711326307516454 
1819	 0.328654735263517 
1820	-0.49147635421497 
1821	-0.52120668497006 
1822	-0.499220395156453 
1823	 9.18687688900441E-02 
1824	 0.26484932593399 
1825	 0.342647221001457 
1826	 0.409539260133753 
1827	 0.417205154816805 
1828	 0.560965481896912 
1829	 0.552519117968964 
1830	 0.507976731345562 
1831	 0.362015926348329 
1832	 0.250492365506932 
1833	 0.576476698622528 
1834	 0.712447855635359 
1835	 1.32075729289688 
1836	 1.97208434191886 
1837	 2.17232748406355 
1838	 2.06201043960695 
1839	 1.61743276648859 
1840	 1.19769818800754 
1841	 0.87775811972928 
1842	 0.572908708716264 
1843	 0.51728430169117 
1844	 1.7342196596854 
1845	 3.80718156158985 
1846	 0.22588087316221 
1847	 0.327797871616437 
1848	 0.540121699249404 
1849	 0.506452508139992 
1850	 0.67006826914894 
1851	 1.13198310891779 
1852	 1.27152732526247 
1853	-0.794795649386551 
1854	 0.868442448795077 
1855	 0.404226498307789 
1856	 0.366155370743758 
1857	-0.692268103538129 
1858	-0.679663863366251 
1859	 0.118917483443228 
1860	 0.854562185021731 
1861	 15.5995318375525 
1862	-3.58306153280719 
1863	-5.9864991917572 
1864	 44.595726564977 
1865	 12.9739393365864 
1866	-4.61758050822492 
1867	-3.59146332937001 
1868	-0.511126212843847 
1869	-0.962887793215269 
1870	-0.754682790996189 
1871	-0.54095153172526 
1872	-1.40137099508434 
1873	 1.87383819206277 
1874	 0.795419015620559 
1875	-2.05401521988534 
1876	-1.06000243024292 
1877	-0.176418000294187 
1878	 0.290355346812384 
1879	 0.325711447277847 
1880	 0.352591889281396 
1881	 0.536524285152565 
1882	 0.506331797013091 
1883	 0.359037781887418 
1884	 0.466839018037559 
1885	 1.3644140254352 
1886	 2.59580211143544 
1887	-1.53655223579817 
1888	-0.85428511720587 
1889	-0.657782444598631 
1890	 2.86071442996657E-02 
1891	 0.245419946434762 
1892	 1.06167521392847 
1893	 2.54625940769287E-02 
1894	-0.455272571926955 
1895	-0.566372370723387 
1896	-0.25124292117325 
1897	-0.304549188406351 
1898	-0.517911321827034 
1899	-0.212677195110176 
1900	-0.226907139029049 
1901	 1.02294455120387 
1902	 0.834462389744866 
1903	 2.04981830723921 
1904	 1.68393998650813 
1905	 7.92043104031387 
1906	-4.31289225431455 
1907	-3.29844601062945 
1908	-6.02057798904907 
1909	-16.3844191250634 
1910	 0.722665591533549 
1911	 1.15092861592379 
1912	 2.46425062072767 
1913	 2.78588762386417 
1914	 1.40673396033543 
1915	 1.51978987119322 
1916	-1.11072183751562 
1917	-5.97964219054674E-02 
1918	 3.52672892914171 
1919	-4.13947335703142 
1920	-2.53029353036486 
1921	-0.17466845596747 
1922	-0.609187955675482 
1923	-7.13631600065376E-02 
1924	 8.18930948889912E-02 
1925	-0.324936598495226 
1926	-0.46846193188659 
1927	-0.444261366101868 
1928	-0.527955248288839 
1929	-1.2554208599831 
1930	-1.03425868276599 
1931	-0.910496491836189 
1932	-0.664997499912668 
1933	-0.367110134259698 
1934	-0.331406458526936 
1935	-0.241978361995488 
1936	-6.50957088936904E-03 
1937	 6.43150869023482E-02 
1938	-2.41384396954328E-02 
1939	-2.91963156662128E-02 
1940	-3.97081772785295E-02 
1941	-7.76418834594824E-02 
1942	-0.050949932837131 
1943	 7.5281641318655E-03 
1944	 3.94839789999805E-02 
1945	 8.17970688873146E-02 
1946	 0.079144510181001 
1947	 4.05896489691112E-02 
1948	 3.04025470596144E-02 
1949	 1.37443731489654E-02 
1950	-1.83077179172185E-02 
1951	-1.25095374995924E-02 
1952	-6.45678245116049E-03 
1953	 9.96889066812483E-03 
1954	-4.23231666519266E-04 
1955	-2.58203221823358E-03 
1956	 1.50108624983633E-02 
1957	 1.11998676761086E-02 
1958	-2.4739601868932E-03 
1959	 2.17272372274492E-03 
1960	 3.43692899129355E-03 
1961	 3.28086178651852E-03 
1962	 5.31056165013161E-03 
1963	 5.06347580126613E-03 
1964	 7.65917116651384E-03 
1965	 8.59736184415797E-03 
1966	 7.36252028757452E-03 
1967	 5.94754255276967E-03 
1968	 7.46466950481011E-03 
1969	 7.80659728014609E-03 
1970	 5.66235461785652E-03 
1971	 6.03753125314585E-03 
1972	 6.81736161715621E-03 
1973	 5.99255381718734E-03 
1974	 7.09675898830821E-03 
1975	 8.84703393469494E-03 
1976	 8.78629379425954E-03 
1977	 7.74669767732086E-03 
1978	 6.23583866313495E-03 
1979	 5.93736664924732E-03 
1980	 6.29398776483734E-03 
1981	 7.29691766515029E-03 
1982	 7.14274128434469E-03 
1983	 6.81791374576194E-03 
1984	 6.81228884242157E-03 
1985	 6.91386724871584E-03 
1986	 7.36790609946711E-03 
1987	 8.29827968294967E-03 
1988	 8.15366425352908E-03 
1989	 7.54982043701291E-03 
1990	 7.65058509343995E-03 
1991	 6.65718520090971E-03 
1992	 6.19612047836614E-03 
1993	 6.75173447375404E-03 
1994	 6.51826636927111E-03 
1995	 5.39069899010615E-03 
1996	 5.53049471296483E-03 
1997	 6.59884470754352E-03 
1998	 5.4606366919897E-03 
1999	 4.54153032249604E-03 
2000	 4.86218850130774E-03 
2001	 3.35334966068639E-03 
2002	 1.69783037719709E-03 
2003	 1.21692125895433E-03 
2004	 9.60287617304585E-04 
2005	 1.99361315217883E-03 
2006	 4.65166245843889E-03 
2007	 6.82794474487023E-03 
2008	 8.83637311719643E-03 
2009	 1.00794783768197E-02 
2010	 9.76795713540344E-03 
2011	 9.78117630834634E-03 
2012	 0.010112843192048 
2013	 9.08412149917356E-03 
2014	 8.16229965733934E-03 
2015	 9.43425467689381E-03 
2016	 8.08872247086611E-03 
2017	 6.69146565899405E-03 
2018	 5.39561605337944E-03 
2019	 3.4883080946409E-03 
2020	 4.87469326011579E-03 
2021	 6.31378952500429E-03 
2022	 6.74800890994578E-03 
2023	 7.59451715566507E-03 
2024	 7.77853939010794E-03 
2025	 6.37761302666543E-03 
2026	 6.58396422600169E-03 
2027	 7.81592641503465E-03 
2028	 7.9973199256151E-03 
2029	 7.69808473441239E-03 
2030	 8.3068493288675E-03 
2031	 8.24561773552279E-03 
2032	 8.12275057276254E-03 
2033	 8.64137964415543E-03 
2034	 8.83732165397992E-03 
2035	 8.93263666763841E-03 
2036	 8.81663992813933E-03 
2037	 8.15892726343751E-03 
2038	 7.50956496028878E-03 
2039	 7.39902578798028E-03 
2040	 7.41185058345541E-03 
2041	 7.57439015179038E-03 
2042	 8.4666866682563E-03 
2043	 8.78315753900036E-03 
2044	 8.72514630469731E-03 
2045	 8.8005095173872E-03 
2046	 9.06359517746058E-03 
2047	 9.64772354767894E-03 
2048	 9.36220995025356E-03 
2049	 9.45549997609064E-03 
2050	 0.010668762478324 
2051	 1.06478408367416E-02 
2052	 1.01102281625724E-02 
2053	 1.00257157218146E-02 
2054	 9.07812107928119E-03 
2055	 7.79952480430639E-03 
2056	 7.49157183646252E-03 
2057	 9.10688783720063E-03 
2058	 9.31220950659859E-03 
2059	 8.82577976454376E-03 
2060	 8.69382409433288E-03 
2061	 8.5050846858746E-03 
2062	 8.3455347340194E-03 
2063	 8.3597715776734E-03 
2064	 8.70363206440847E-03 
2065	 9.14986688430503E-03 
2066	 9.65104842170756E-03 
2067	 1.03638827635477E-02 
2068	 1.14212191589014E-02 
2069	 1.23886559547997E-02 
2070	 0.012051972137887 
2071	 1.08028366571618E-02 
2072	 0.010069083036687 
2073	 9.79803779636271E-03 
2074	 9.80970533584112E-03 
2075	 9.91401805107604E-03 
2076	 1.06993374060062E-02 
2077	 1.06390691052738E-02 
2078	 1.01792439196493E-02 
2079	 1.00704810597379E-02 
2080	 9.81986917824664E-03 
2081	 9.45134829029623E-03 
2082	 9.99889890307897E-03 
2083	 9.66293145484177E-03 
2084	 9.09494729079643E-03 
2085	 9.59425778595896E-03 
2086	 9.95735885021357E-03 
2087	 0.010784058062816 
2088	 1.20295776201591E-02 
2089	 1.24861833534639E-02 
2090	 1.25618975630875E-02 
2091	 1.26809522372594E-02 
2092	 1.24691747486993E-02 
2093	 1.15398371548019E-02 
2094	 0.011413802212354 
2095	 1.17647851570303E-02 
2096	 0.011544543313602 
2097	 1.12383188614272E-02 
2098	 1.13463173468184E-02 
2099	 1.15732878717632E-02 
2100	 0.011000543920992 
2101	 0.010979738458076 
2102	 1.15178495689655E-02 
2103	 1.12919911682995E-02 
2104	 1.10846325653649E-02 
2105	 1.15212363808268E-02 
2106	 1.18782278545409E-02 
2107	 1.24791106305723E-02 
2108	 1.31588140013612E-02 
2109	 1.23028587058119E-02 
2110	 1.16092700280813E-02 
2111	 1.21730861059111E-02 
2112	 0.011846304155414 
2113	 1.15847412191722E-02 
2114	 1.23516070279087E-02 
2115	 1.23254513607205E-02 
2116	 1.09163114636806E-02 
2117	 1.06527104868379E-02 
2118	 0.011046056484698 
2119	 1.12296190191814E-02 
2120	 1.15059997831088E-02 
2121	 0.011886609757752 
2122	 1.22034245703605E-02 
2123	 1.24744899404964E-02 
2124	 1.22271897252368E-02 
2125	 1.19182459370689E-02 
2126	 1.17823073032044E-02 
2127	 1.22627951268158E-02 
2128	 1.28672092897106E-02 
2129	 1.30999939446374E-02 
2130	 1.33730721987233E-02 
2131	 1.27178954104251E-02 
2132	 1.23276333080084E-02 
2133	 1.31068194667286E-02 
2134	 1.30388561731115E-02 
2135	 1.27366172706733E-02 
2136	 1.25325073482856E-02 
2137	 1.19097739754084E-02 
2138	 1.15658065498746E-02 
2139	 1.13760460022642E-02 
2140	 1.14001843283222E-02 
2141	 1.15928301853835E-02 
2142	 1.16651927667907E-02 
2143	 1.16447394394861E-02 
2144	 1.23432552200013E-02 
2145	 1.26458280937269E-02 
2146	 1.24040242938397E-02 
2147	 1.24301083342839E-02 
2148	 1.24781633957656E-02 
2149	 1.28697563104728E-02 
2150	 1.36115700055069E-02 
2151	 1.36964777309826E-02 
2152	 1.34871208338649E-02 
2153	 1.24027605476281E-02 
2154	 0.01139633341949 
2155	 1.16701402179867E-02 
2156	 1.15738174574975E-02 
2157	 1.14911431845165E-02 
2158	 1.19852068702973E-02 
2159	 1.20907040057378E-02 
2160	 1.14968676675116E-02 
2161	 1.17021459996306E-02 
2162	 1.25393924910391E-02 
2163	 1.26834679755666E-02 
2164	 1.25606921883009E-02 
2165	 1.27324951033903E-02 
2166	 1.29454410667354E-02 
2167	 1.31879089406514E-02 
2168	 1.38084031539195E-02 
2169	 1.40729794962411E-02 
2170	 1.40893696943196E-02 
2171	 1.37429240354392E-02 
2172	 1.36206390810065E-02 
2173	 1.37904220878382E-02 
2174	 1.44922882496035E-02 
2175	 1.49788668943114E-02 
2176	 1.51013082540994E-02 
2177	 1.50381055003445E-02 
2178	 1.53202920869397E-02 
2179	 1.56639357388169E-02 
2180	 1.51926484125395E-02 
2181	 1.51247199915478E-02 
2182	 1.59592099426941E-02 
2183	 0.016318894606473 
2184	 1.63631573563195E-02 
2185	 0.016039947470468 
2186	 1.54128386065614E-02 
2187	 1.27424201859199E-02 
2188	 0.012107406735261 
2189	 1.27445089589243E-02 
2190	 1.34366915484443E-02 
2191	 1.52314062232373E-02 
2192	 1.53141346755633E-02 
2193	 1.49807428847377E-02 
2194	 1.46717577410221E-02 
2195	 1.28173286669103E-02 
2196	 1.21541467322346E-02 
2197	 1.21240778779517E-02 
2198	 0.011962597938574 
2199	 1.16074689482511E-02 
2200	 1.30546555562086E-02 
2201	 1.29276570407164E-02 
2202	 1.22493209547835E-02 
2203	 1.27261126832542E-02 
2204	 1.20412130505522E-02 
2205	 1.16065609678717E-02 
2206	 1.27562120049951E-02 
2207	 1.26438413504514E-02 
2208	 0.012870590800365 
2209	 1.48093165233779E-02 
2210	 1.53244981661872E-02 
2211	 0.016082008507584 
2212	 1.73692186442194E-02 
2213	 0.017019895095276 
2214	 1.68292030727037E-02 
2215	 1.58373105280192E-02 
2216	 1.39663203565285E-02 
2217	 1.33154057339149E-02 
2218	 1.33599797313984E-02 
2219	 1.27406615330813E-02 
2220	 0.012217245942861 
2221	 1.19629105364668E-02 
2222	 1.15191969605273E-02 
2223	 1.13538015527597E-02 
2224	 0.012066151267579 
2225	 1.19693170285203E-02 
2226	 1.07018605459434E-02 
2227	 1.04105645952894E-02 
2228	 1.02317380581566E-02 
2229	 1.11733019147854E-02 
2230	 1.45444965812985E-02 
2231	 1.49522740947827E-02 
2232	 1.40521953210172E-02 
2233	 1.35145180067246E-02 
2234	 1.07243901411001E-02 
2235	 9.62955863108039E-03 
2236	 1.16484804402394E-02 
2237	 1.19426243624433E-02 
2238	 1.24773350600091E-02 
2239	 1.35869402502142E-02 
2240	 0.013830329675223 
2241	 1.41068360907636E-02 
2242	 1.50383347972398E-02 
2243	 0.014872411280884 
2244	 1.33735831912142E-02 
2245	 1.37976451569032E-02 
2246	 1.34974143326668E-02 
2247	 1.28198637674796E-02 
2248	 1.40291809708526E-02 
2249	 1.39138874989561E-02 
2250	 0.012441249001018 
2251	 1.22361047430243E-02 
2252	 1.23737854159252E-02 
2253	 1.18284909042258E-02 
2254	 1.25289873321493E-02 
2255	 0.01425882174385 
2256	 1.52552683136043E-02 
2257	 1.53703723336268E-02 
2258	 1.54776195323036E-02 
2259	 1.56012411204843E-02 
2260	 1.52096449187914E-02 
2261	 1.31987295425116E-02 
2262	 0.012492197301759 
2263	 1.31646813773342E-02 
2264	 1.28405123537718E-02 
2265	 1.12912287591836E-02 
2266	 1.15944080150359E-02 
2267	 1.24869563844313E-02 
2268	 1.25659323841137E-02 
2269	 1.44541867134902E-02 
2270	 1.48975782598821E-02 
2271	 1.35156525789546E-02 
2272	 1.25503145703705E-02 
2273	 1.10237020693593E-02 
2274	 1.03013617063432E-02 
2275	 9.66129832335366E-03 
2276	 1.00943587609023E-02 
2277	 1.17684980271169E-02 
2278	 0.012463331800909 
2279	 1.35504438610499E-02 
2280	 1.44101040711057E-02 
2281	 1.52591581938993E-02 
2282	 1.47538968925091E-02 
2283	 1.44421951055018E-02 
2284	 1.39160023641689E-02 
2285	 1.26422765632764E-02 
2286	 1.20534839441063E-02 
2287	 1.25861958233624E-02 
2288	 1.26154513962841E-02 
2289	 1.15067741507029E-02 
2290	 1.31523212023563E-02 
2291	 0.01403170591451 
2292	 1.24423016418289E-02 
2293	 1.24454116853856E-02 
2294	 1.13473112150102E-02 
2295	 1.03516844443313E-02 
2296	 1.15373520598887E-02 
2297	 1.18114674303543E-02 
2298	 1.11840543080624E-02 
2299	 1.00271414221101E-02 
2300	 9.23614933118405E-03 
2301	 1.08920321775896E-02 
2302	 1.10400945350583E-02 
2303	 1.13697802179264E-02 
2304	 1.22496718247514E-02 
2305	 9.04511390925109E-03 
2306	 6.04495697102649E-03 
2307	 5.24490195363481E-03 
2308	 6.16969170156126E-03 
2309	 8.00861920421837E-03 
2310	 9.90440443306553E-03 
2311	 0.011829957932248 
2312	 9.34233659060403E-03 
2313	 7.4522528111964E-03 
2314	 9.44704921371622E-03 
2315	 8.82029498320484E-03 
2316	 8.53680685620842E-03 
2317	 7.85329960951256E-03 
2318	 6.82694284028598E-03 
2319	 7.32833409337381E-03 
2320	 7.74371842816144E-03 
2321	 1.15587084573412E-02 
2322	 1.30466003710452E-02 
2323	 1.39687894346041E-02 
2324	 1.67734682412088E-02 
2325	 1.53495876242438E-02 
2326	 0.011366330324742 
2327	 8.05645577187204E-03 
2328	 7.11408682817836E-03 
2329	 5.10807097234682E-03 
2330	 5.27271749819595E-03 
2331	 9.00620332007561E-03 
2332	 9.87709043609697E-03 
2333	 1.15456533601402E-02 
2334	 1.49031406501497E-02 
2335	 0.015282600720259 
2336	 0.012563639889046 
2337	 1.02950162884959E-02 
2338	 0.012171636966971 
2339	 1.04831826546227E-02 
2340	 5.70203592276119E-03 
2341	 9.02592184311415E-03 
2342	 1.36777593107051E-02 
2343	 1.46583274825906E-02 
2344	 1.73020220457398E-02 
2345	 1.85345625259195E-02 
2346	 1.23845893550087E-02 
2347	 3.88366453739473E-03 
2348	 6.30885773160293E-03 
2349	 1.06376668766153E-02 
2350	 6.40037571690684E-03 
2351	 1.44810499055502E-02 
2352	 2.47503505211482E-02 
2353	 0.015829281509981 
2354	 8.31904347754452E-03 
2355	 3.74446391544857E-03 
2356	-4.80672043453809E-03 
2357	-6.25184488841744E-03 
2358	 2.2870693537126E-03 
2359	 7.27888872919121E-03 
2360	-2.56356729250438E-03 
2361	-9.29320695538636E-03 
2362	-1.21728306713444E-02 
2363	-1.79749057815522E-02 
2364	-1.11563891418811E-02 
2365	 2.71394318227758E-03 
2366	 1.20737322721237E-02 
2367	 2.04391574001443E-02 
2368	 2.89295776899566E-02 
2369	 3.47869953867567E-02 
2370	 3.07098148893737E-02 
2371	 3.01665111016781E-02 
2372	 3.19925066846231E-02 
2373	 1.35353952245307E-02 
2374	 3.76252116827874E-03 
2375	 6.18362002337245E-03 
2376	-3.42820884415811E-03 
2377	-8.25991283355628E-03 
2378	 7.43340845153572E-03 
2379	 2.45025146726907E-02 
2380	 2.10486322504878E-02 
2381	 0.016407961388083 
2382	 1.69885402672815E-02 
2383	 3.58788433337568E-03 
2384	-2.20132097790307E-03 
2385	 1.52955027458494E-02 
2386	 2.74265446214353E-02 
2387	 2.93159384181401E-02 
2388	 2.71973230107884E-02 
2389	 0.03656938246492 
2390	 0.037442255511996 
2391	 1.09287289535685E-02 
2392	 6.8195836239499E-03 
2393	 1.67739164795798E-02 
2394	 1.08529307929879E-02 
2395	 1.37920461107437E-02 
2396	 3.02816359264566E-02 
2397	 2.03499972945119E-02 
2398	 1.00882046565309E-02 
2399	 0.020223732082325 
2400	 4.53727366378587E-03 
2401	 3.64108160605889E-03 
2402	 2.83885290505725E-02 
2403	 1.87468357905642E-02 
2404	 2.20403132006235E-02 
2405	 5.42594257386955E-02 
2406	 6.92651226801205E-02 
2407	 0.089851095607308 
2408	 0.104392862881901 
2409	 6.87297549156151E-02 
2410	 3.38085207949257E-02 
2411	 3.94280643188027E-02 
2412	 6.17197433267042E-02 
2413	 6.68758838328097E-02 
2414	 9.53043647110886E-03 
2415	-6.43859225136939E-02 
2416	-8.57051013559344E-02 
2417	-3.33584188082819E-02 
2418	 3.05409276688824E-03 
2419	-1.93267959201795E-02 
2420	-3.04678216508955E-02 
2421	-0.069683658778789 
2422	-8.91046693973301E-02 
2423	-4.00012952795692E-02 
2424	-4.69804923344135E-02 
2425	-0.104129473924682 
2426	-9.81702842552023E-02 
2427	-8.83790922083362E-02 
2428	-0.108931199811018 
2429	-9.22688720881691E-02 
2430	-8.40152765397061E-02 
2431	-0.106694523976264 
2432	-9.97838095853328E-02 
2433	-7.55332178232656E-02 
2434	-6.17806583134493E-02 
2435	-0.032684768832936 
2436	 8.06365391444595E-03 
2437	-3.08433167034021E-02 
2438	-4.24176537560489E-04 
2439	 2.62383386759659E-02 
2440	-0.106097688966038 
2441	-0.149503111599533 
2442	-0.230746665176276 
2443	-0.249639304828485 
2444	-2.50092787363907E-02 
2445	 5.33623487096924E-02 
2446	 0.10029016869279 
2447	 0.105741894718482 
2448	 0.090323097771033 
2449	 0.095589830578722 
2450	-0.106010890994439 
2451	-0.434336025225658 
2452	-0.405959743589286 
2453	-0.117089081418466 
2454	 0.371948657764538 
2455	 0.476722540144771 
2456	 0.274161418708167 
2457	 0.188369904257221 
2458	 0.102106184048113 
2459	-0.209333207908004 
2460	-0.218224651889009 
2461	-0.112095784421828 
2462	 2.39778840183463E-02 
2463	 0.230186420301451 
2464	 0.265422575336604 
2465	 0.12515124132727 
2466	-0.143123794617569 
2467	-0.282025817892138 
2468	-0.333945818624356 
2469	-0.504821319210416 
2470	-0.334792794202918 
2471	-0.226254580294171 
2472	 0.230655976209779 
2473	 0.726105280703785 
2474	 0.556600339100193 
2475	 0.635671255967233 
2476	 0.365055176982207 
2477	 0.392656737774258 
2478	 1.37963333275151 
2479	 1.03283541496773 
2480	 0.534587707455224 
2481	-8.14632317328068E-02 
2482	-0.240137331209934 
2483	-0.104033687840176 
2484	-5.62008920371171E-02 
2485	 0.218263249131584 
2486	 1.03404645849817 
2487	 1.35419174659738 
2488	 0.907702434648 
2489	 0.624457397067129 
2490	 7.68320519608488E-02 
2491	-1.14893498356975E-02 
2492	 0.26438998212482 
2493	 0.802895502597905 
2494	 0.362727475890183 
2495	-1.72856932850739 
2496	-3.56410616766583 
2497	 0.447961932372228 
2498	 3.09169931236543E-02 
2499	 0.658261984927486 
2500	 1.45848253396455 
