Wavelength	rt0721algea_nearby_water00007.asd
350	 4.93757257070428E-02 
351	 0.048660877140194 
352	 4.87431384276509E-02 
353	 4.91176241230543E-02 
354	 4.90662929050097E-02 
355	 0.04808067264956 
356	 4.82634104800806E-02 
357	 4.89334704977921E-02 
358	 0.048884989398067 
359	 4.87890647310007E-02 
360	 0.048497160081378 
361	 4.81820768849733E-02 
362	 4.81825546327948E-02 
363	 4.81304141010951E-02 
364	 4.81287946124564E-02 
365	 4.82220939161299E-02 
366	 4.82942302892363E-02 
367	 4.79657242777376E-02 
368	 4.77187377390638E-02 
369	 4.79681818907212E-02 
370	 4.80557689240035E-02 
371	 4.83054059416935E-02 
372	 4.84931677299631E-02 
373	 4.81694706268702E-02 
374	 4.78108948245902E-02 
375	 4.77055109679287E-02 
376	 4.79475446388505E-02 
377	 4.83957662711195E-02 
378	 4.84080814853361E-02 
379	 4.82940446207168E-02 
380	 0.048461786973615 
381	 4.88849148424728E-02 
382	 4.88852330999091E-02 
383	 4.88827478970949E-02 
384	 4.95874700650713E-02 
385	 4.97580631220913E-02 
386	 4.94815935125671E-02 
387	 4.93504740147743E-02 
388	 5.02632145177106E-02 
389	 4.99275089396289E-02 
390	 4.95120626601598E-02 
391	 5.00517136001075E-02 
392	 5.07079605217566E-02 
393	 5.04954542566584E-02 
394	 5.01179395462474E-02 
395	 5.05619954210915E-02 
396	 5.06496343688844E-02 
397	 5.05970940579767E-02 
398	 5.05599780762973E-02 
399	 5.05671388250735E-02 
400	 5.07772916428567E-02 
401	 5.09409185557037E-02 
402	 5.09351932420549E-02 
403	 5.10383922859673E-02 
404	 0.051131720941835 
405	 5.12179429899495E-02 
406	 5.13274436205778E-02 
407	 5.14038407829075E-02 
408	 5.14684689666878E-02 
409	 5.14983524506037E-02 
410	 5.14344760306956E-02 
411	 5.15211092519558E-02 
412	 5.16114598970722E-02 
413	 5.16280942597909E-02 
414	 5.18395106379191E-02 
415	 5.20464246783453E-02 
416	 5.21562471482619E-02 
417	 5.21864334561147E-02 
418	 5.25334236603947E-02 
419	 5.27714759240354E-02 
420	 5.28006798483018E-02 
421	 5.29232814727819E-02 
422	 5.30612291378969E-02 
423	 5.32641836580736E-02 
424	 5.35402430018716E-02 
425	 5.37342594326063E-02 
426	 5.39010905236978E-02 
427	 5.40698271137844E-02 
428	 0.05426248904407 
429	 5.45275592259324E-02 
430	 5.47893322797041E-02 
431	 5.50147016324038E-02 
432	 5.52358024729439E-02 
433	 0.055451895368532 
434	 5.56663830554103E-02 
435	 5.59033467457915E-02 
436	 5.62685931798643E-02 
437	 5.65095328840946E-02 
438	 5.66732486030761E-02 
439	 5.69541704540227E-02 
440	 5.72683022945089E-02 
441	 5.75385424948133E-02 
442	 5.77388736306956E-02 
443	 5.79117305128259E-02 
444	 5.81655010389833E-02 
445	 5.84343948147263E-02 
446	 5.86448100971827E-02 
447	 0.058915689349365 
448	 5.90981375367193E-02 
449	 5.92040239464377E-02 
450	 5.93628157510768E-02 
451	 5.95488886328491E-02 
452	 5.96883974290349E-02 
453	 5.97720882533169E-02 
454	 5.99344587995746E-02 
455	 6.01225519400621E-02 
456	 6.02386998491829E-02 
457	 6.02237392945378E-02 
458	 6.03188762911714E-02 
459	 6.03423789984556E-02 
460	 6.03324738420501E-02 
461	 6.05482549879036E-02 
462	 6.06781965566332E-02 
463	 6.06989055861107E-02 
464	 6.06904334396808E-02 
465	 6.08544358696749E-02 
466	 6.09365321860903E-02 
467	 6.09672783969499E-02 
468	 6.10969189002558E-02 
469	 0.061221619513399 
470	 6.13495883988089E-02 
471	 6.14565595417003E-02 
472	 6.14629203261229E-02 
473	 6.15599419804961E-02 
474	 6.17257151979086E-02 
475	 0.061877633662326 
476	 6.19277093483485E-02 
477	 6.20858342217931E-02 
478	 6.23111566663373E-02 
479	 6.24129685134762E-02 
480	 6.26082638308932E-02 
481	 6.27942024667005E-02 
482	 0.062929329230348 
483	 6.31845710163778E-02 
484	 6.33978692648102E-02 
485	 0.063591616487662 
486	 6.38422033394574E-02 
487	 6.41243640098913E-02 
488	 6.44039240588946E-02 
489	 0.064674958759284 
490	 0.064961849325081 
491	 6.53007859602234E-02 
492	 6.56233486342491E-02 
493	 6.59060201624215E-02 
494	 6.63067709409958E-02 
495	 6.67416455645521E-02 
496	 6.71916484889234E-02 
497	 6.76566397641752E-02 
498	 6.79955637338931E-02 
499	 6.84467015965706E-02 
500	 6.90792116204129E-02 
501	 6.96524073185948E-02 
502	 7.01380337881403E-02 
503	 7.05867056415658E-02 
504	 7.10859195153757E-02 
505	 7.17265682482355E-02 
506	 7.24079644931637E-02 
507	 7.30520091588736E-02 
508	 7.36147546837831E-02 
509	 7.41873508726737E-02 
510	 7.48919135282126E-02 
511	 7.57195720641705E-02 
512	 7.63677577931779E-02 
513	 7.69528763406215E-02 
514	 7.76389519332093E-02 
515	 7.85422825028736E-02 
516	 7.92479095922464E-02 
517	 8.00360782118548E-02 
518	 8.09384109181518E-02 
519	 8.16170646435049E-02 
520	 8.22959047312256E-02 
521	 8.30157008500707E-02 
522	 8.37765517868145E-02 
523	 8.45865741985184E-02 
524	 8.53291821914258E-02 
525	 8.60219175189286E-02 
526	 8.67740410185538E-02 
527	 8.75140565857076E-02 
528	 8.82268363372055E-02 
529	 8.89123879914208E-02 
530	 8.95810210028601E-02 
531	 9.02816762091411E-02 
532	 9.10038667871632E-02 
533	 9.17102933465416E-02 
534	 9.23844815547125E-02 
535	 9.30177010024682E-02 
536	 9.36480357253018E-02 
537	 9.43570924951896E-02 
538	 9.50274094508688E-02 
539	 9.56922405534078E-02 
540	 9.63876804831427E-02 
541	 9.70324589698247E-02 
542	 9.76957221097614E-02 
543	 9.83848408605451E-02 
544	 9.90663405779996E-02 
545	 9.96752716029464E-02 
546	 0.100335798159575 
547	 0.101063658520263 
548	 0.101617991024136 
549	 0.102199347132882 
550	 0.102828695694497 
551	 0.103464516677463 
552	 0.104088806394644 
553	 0.104671552470671 
554	 0.105221279127472 
555	 0.10578533943891 
556	 0.106330764743836 
557	 0.106867577646369 
558	 0.107397747601307 
559	 0.107886557201424 
560	 0.108334722929272 
561	 0.108761899217955 
562	 0.109195914697733 
563	 0.109592620291832 
564	 0.109947209932519 
565	 0.110258595694881 
566	 0.110519903950298 
567	 0.110791251277146 
568	 0.111035252026181 
569	 0.111188861521238 
570	 0.111271824741453 
571	 0.11137520289695 
572	 0.111532941444233 
573	 0.111710762264379 
574	 0.111817936335381 
575	 0.111880060882009 
576	 0.111955182924767 
577	 0.112113485670752 
578	 0.112210604662903 
579	 0.112253380422598 
580	 0.112334028379397 
581	 0.112367560297389 
582	 0.112383427642402 
583	 0.112413881901424 
584	 0.112483993184618 
585	 0.112387598576162 
586	 0.112213542833779 
587	 0.112133302263333 
588	 0.112099816582359 
589	 0.111946176485744 
590	 0.111715106617606 
591	 0.111650190346576 
592	 0.111538532154513 
593	 0.111332280012083 
594	 0.111067703118888 
595	 0.110919867516779 
596	 0.110723169185675 
597	 0.110442317633417 
598	 0.110125790707831 
599	 0.109823591065235 
600	 0.10959771099903 
601	 0.1094340497076 
602	 0.109180040207543 
603	 0.109099713097394 
604	 0.109116921239857 
605	 0.109069795576306 
606	 0.108972208128145 
607	 0.108915489150272 
608	 0.108918522416516 
609	 0.108919691126978 
610	 0.108894472443414 
611	 0.108852885597459 
612	 0.108802934181274 
613	 0.108713075727447 
614	 0.10864153700349 
615	 0.108591810088483 
616	 0.108533303563732 
617	 0.10843728581475 
618	 0.108344401766564 
619	 0.10826253546582 
620	 0.108132823572562 
621	 0.108075817124834 
622	 0.108040812665752 
623	 0.107958261392429 
624	 0.107969048198296 
625	 0.107930130789921 
626	 0.107802249583735 
627	 0.107661246156792 
628	 0.107661086319903 
629	 0.10763480405511 
630	 0.107476447382949 
631	 0.107422163082874 
632	 0.107262218187689 
633	 0.107053001074954 
634	 0.106927107479059 
635	 0.106560896589031 
636	 0.106179932846773 
637	 0.105905351615981 
638	 0.105635943713208 
639	 0.105217096327244 
640	 0.104808352281534 
641	 0.104556535099251 
642	 0.104127527369221 
643	 0.103696157073808 
644	 0.103297958794722 
645	 0.102851951165721 
646	 0.102341955893638 
647	 0.101978015565097 
648	 0.101810338016242 
649	 0.101389642589263 
650	 0.10121023876314 
651	 0.101107171104366 
652	 0.100767882735565 
653	 0.100647083789656 
654	 0.100489272701065 
655	 0.100200059927021 
656	 0.100004754916 
657	 9.97838478859321E-02 
658	 9.95108586159284E-02 
659	 9.91880574198544E-02 
660	 9.88670237216311E-02 
661	 9.85826379607423E-02 
662	 9.83019196172089E-02 
663	 9.79669496228711E-02 
664	 0.097680619170035 
665	 9.74564903852895E-02 
666	 9.72698820777244E-02 
667	 0.097055224828287 
668	 9.69042803880472E-02 
669	 9.67524735813893E-02 
670	 9.65435184778889E-02 
671	 9.65180338387235E-02 
672	 9.65478471801611E-02 
673	 9.65579594410993E-02 
674	 0.096546462580029 
675	 9.66086393436781E-02 
676	 9.66548895386972E-02 
677	 9.66742060362637E-02 
678	 9.69519444868349E-02 
679	 9.72377478858495E-02 
680	 9.75372050325845E-02 
681	 9.79593250032468E-02 
682	 9.84411985080151E-02 
683	 9.91191898145967E-02 
684	 9.99646884618133E-02 
685	 0.10078587245653 
686	 0.101869873225192 
687	 0.103049750490457 
688	 0.104057455730204 
689	 0.105110132188622 
690	 0.106115038777059 
691	 0.107102108483558 
692	 0.108167536317745 
693	 0.109175421949652 
694	 0.110153775360684 
695	 0.111060178884645 
696	 0.111808141707452 
697	 0.112432918710624 
698	 0.113006724791183 
699	 0.1135439710078 
700	 0.113974291322899 
701	 0.114280566263686 
702	 0.114523164350448 
703	 0.114804428223096 
704	 0.114893388889139 
705	 0.114821038265486 
706	 0.114659506670272 
707	 0.114496844988426 
708	 0.114073368736879 
709	 0.113498132334074 
710	 0.112954111929662 
711	 0.112186717240695 
712	 0.111310950162312 
713	 0.11035671664151 
714	 0.109220322056092 
715	 0.108080633591024 
716	 0.10679404414811 
717	 0.105311357931334 
718	 0.103902818189246 
719	 0.102385046359018 
720	 0.101002341562947 
721	 9.97434189030018E-02 
722	 9.84247895711375E-02 
723	 9.68453271502836E-02 
724	 9.51364452618732E-02 
725	 9.34109513414981E-02 
726	 9.16698890689045E-02 
727	 8.96831657716695E-02 
728	 8.73534293965078E-02 
729	 8.50082915704006E-02 
730	 8.26141636379835E-02 
731	 8.03267560890275E-02 
732	 0.078227199726843 
733	 7.63721973615375E-02 
734	 7.48090555463521E-02 
735	 7.35157281059847E-02 
736	 7.23450501683812E-02 
737	 7.15671252801293E-02 
738	 7.09976618393585E-02 
739	 7.04731114432376E-02 
740	 7.01949526782108E-02 
741	 7.00229219685761E-02 
742	 6.98724720874401E-02 
743	 6.97129024557176E-02 
744	 6.96929180668382E-02 
745	 6.96771954391638E-02 
746	 6.96140922390698E-02 
747	 6.96013272901569E-02 
748	 6.95612913800642E-02 
749	 6.95023006498848E-02 
750	 0.069457009833163 
751	 6.94672093745746E-02 
752	 6.94257111393849E-02 
753	 6.93911592516401E-02 
754	 6.94788574816305E-02 
755	 6.94652991683493E-02 
756	 6.94074213956277E-02 
757	 6.93668034601074E-02 
758	 6.93816765597904E-02 
759	 6.95608323847177E-02 
760	 6.99228986606846E-02 
761	 7.00992739571004E-02 
762	 6.99612378457327E-02 
763	 6.99423403255032E-02 
764	 7.00406222833255E-02 
765	 7.01162228362418E-02 
766	 7.02224506851726E-02 
767	 7.03397513214931E-02 
768	 7.04517184520027E-02 
769	 7.05412448344551E-02 
770	 7.07305079305858E-02 
771	 7.09710573988573E-02 
772	 0.071197898093971 
773	 7.14039711345026E-02 
774	 7.16258094938367E-02 
775	 7.19068268939141E-02 
776	 0.072267057143932 
777	 7.25794006178714E-02 
778	 7.28279625852725E-02 
779	 7.30943030318002E-02 
780	 7.35304608678741E-02 
781	 7.38637240187937E-02 
782	 7.42138525520063E-02 
783	 7.46586276006677E-02 
784	 7.50223715076366E-02 
785	 7.53121601892143E-02 
786	 7.56541771980252E-02 
787	 7.61576918165013E-02 
788	 7.65773271983831E-02 
789	 7.71098204995641E-02 
790	 7.76478654166565E-02 
791	 0.077896890589537 
792	 7.83750325101982E-02 
793	 7.89085999744999E-02 
794	 7.93375674435821E-02 
795	 7.96620846044722E-02 
796	 8.01947876076527E-02 
797	 0.080627096036945 
798	 8.07472582452354E-02 
799	 8.12332769557058E-02 
800	 8.16106833062576E-02 
801	 8.17854958915082E-02 
802	 8.19272134816222E-02 
803	 8.22682597632171E-02 
804	 8.25987873379533E-02 
805	 8.27491689280848E-02 
806	 8.26598423941303E-02 
807	 8.26524983622894E-02 
808	 8.25380274859171E-02 
809	 8.22166779500825E-02 
810	 8.21120033605522E-02 
811	 8.17251992135044E-02 
812	 0.081216129362607 
813	 8.09655616586443E-02 
814	 8.07410937925824E-02 
815	 8.03093433618288E-02 
816	 0.079656052248216 
817	 7.89642591855279E-02 
818	 7.82284258143976E-02 
819	 7.75224939235661E-02 
820	 7.67718263788481E-02 
821	 7.57657325348532E-02 
822	 7.45034980284884E-02 
823	 7.30960120453507E-02 
824	 7.16713121117417E-02 
825	 7.01567604449549E-02 
826	 6.82839187804588E-02 
827	 6.61537980549479E-02 
828	 6.41479410724008E-02 
829	 6.22809389854325E-02 
830	 6.06290954591274E-02 
831	 5.91008811634411E-02 
832	 5.75958401755912E-02 
833	 5.66883721041657E-02 
834	 5.59824671429634E-02 
835	 5.51709953609907E-02 
836	 5.42472867476747E-02 
837	 0.053929197328282 
838	 5.37055591768702E-02 
839	 5.31255461926433E-02 
840	 5.25879894122496E-02 
841	 5.22208506796335E-02 
842	 0.051974531732785 
843	 5.17260548924326E-02 
844	 5.14457324446911E-02 
845	 0.051167759490606 
846	 0.050822136695522 
847	 0.050304673495251 
848	 4.98764233915286E-02 
849	 4.95408421973845E-02 
850	 4.93160910062969E-02 
851	 4.92566910805486E-02 
852	 4.89980395207171E-02 
853	 4.85722519478201E-02 
854	 4.81552418129975E-02 
855	 4.79873837975992E-02 
856	 4.78253129535016E-02 
857	 4.75969971011535E-02 
858	 4.72932231932119E-02 
859	 4.69154785059874E-02 
860	 4.66948221190674E-02 
861	 0.046560253960129 
862	 4.63149292057661E-02 
863	 4.60951258771277E-02 
864	 0.045753892763901 
865	 4.53930043705078E-02 
866	 4.52892023338991E-02 
867	 4.49436816639207E-02 
868	 4.46165729359928E-02 
869	 0.044415559329483 
870	 4.41245174838892E-02 
871	 4.38861582770822E-02 
872	 4.35046507625253E-02 
873	 0.042941183153571 
874	 0.042654303547926 
875	 4.23232788651251E-02 
876	 4.18308500351028E-02 
877	 4.12582076604921E-02 
878	 4.11495911096221E-02 
879	 4.08785247912968E-02 
880	 4.04172986380603E-02 
881	 4.00224362903889E-02 
882	 3.96796873614289E-02 
883	 0.039265589168463 
884	 3.88715965019173E-02 
885	 3.86995834614222E-02 
886	 3.84202517113358E-02 
887	 3.80758841662814E-02 
888	 3.76376178830066E-02 
889	 0.036994409361711 
890	 3.68066724811723E-02 
891	 3.67709334045474E-02 
892	 3.65541400286907E-02 
893	 3.61197617992639E-02 
894	 3.57848952275456E-02 
895	 3.55678804893282E-02 
896	 3.53902224775826E-02 
897	 3.52019312217405E-02 
898	 3.49924694168127E-02 
899	 0.034800394786591 
900	 3.45577512770053E-02 
901	 3.37534932501651E-02 
902	 3.34186435826884E-02 
903	 3.32795817228585E-02 
904	 3.27812735457799E-02 
905	 3.26804461196639E-02 
906	 0.032514835675142 
907	 3.22292377228409E-02 
908	 3.19947021389932E-02 
909	 3.10752509700124E-02 
910	 3.03100478797695E-02 
911	 3.02233126102247E-02 
912	 0.030685595193847 
913	 3.00668270045848E-02 
914	 2.94217432056061E-02 
915	 2.91363092014048E-02 
916	 2.84634370883651E-02 
917	 2.76191546107141E-02 
918	 2.71125343613835E-02 
919	 2.69035225816477E-02 
920	 2.62634252860902E-02 
921	 2.59848028552862E-02 
922	 2.59111082124626E-02 
923	 2.55414014839894E-02 
924	 0.024028209828798 
925	 2.38797013974513E-02 
926	 2.43369974140318E-02 
927	 2.40656978347662E-02 
928	 2.39133682603132E-02 
929	 2.33234405976361E-02 
930	 2.28281451439196E-02 
931	 2.34534451628317E-02 
932	 2.42198895356993E-02 
933	 2.18780759896255E-02 
934	 2.01505036985925E-02 
935	 2.35715332508106E-02 
936	 2.37540714927746E-02 
937	 2.16954882892239E-02 
938	 2.05539142954883E-02 
939	 2.20231839560955E-02 
940	 0.020884715533298 
941	 2.09127091097827E-02 
942	 2.17971580612403E-02 
943	 2.18162388585827E-02 
944	 2.44331373520224E-02 
945	 0.024905029856555 
946	 2.16819058956539E-02 
947	 1.70938669530969E-02 
948	 1.92165934996791E-02 
949	 2.13388793855288E-02 
950	 2.09744522992936E-02 
951	 1.95203561172309E-02 
952	 1.99186475082653E-02 
953	 2.03836412973158E-02 
954	 0.020306535213854 
955	 2.02005872080069E-02 
956	 2.03940679112059E-02 
957	 2.02246440710026E-02 
958	 1.96601117085435E-02 
959	 1.91441212056961E-02 
960	 1.85445114169464E-02 
961	 1.94011213060734E-02 
962	 2.02957801514938E-02 
963	 1.87089859939721E-02 
964	 1.87282161881236E-02 
965	 1.86326940186289E-02 
966	 1.79725362286142E-02 
967	 1.75132715800659E-02 
968	 1.69629098522356E-02 
969	 1.81743123413931E-02 
970	 1.93766788820678E-02 
971	 1.68695907149235E-02 
972	 1.87049096701031E-02 
973	 1.95861153368702E-02 
974	 1.79649190013471E-02 
975	 0.01739967191074 
976	 1.88023636992068E-02 
977	 1.94763173005679E-02 
978	 1.89326841472661E-02 
979	 1.88307069267998E-02 
980	 1.81394890240149E-02 
981	 1.81218784558771E-02 
982	 0.01844623181288 
983	 1.77468685957964E-02 
984	 1.81166843854747E-02 
985	 1.86041701384052E-02 
986	 1.88582678680333E-02 
987	 0.019166338163004 
988	 1.91358624831093E-02 
989	 1.81847145062444E-02 
990	 1.71001492697006E-02 
991	 0.017450818147079 
992	 1.90066426391913E-02 
993	 1.89537904265442E-02 
994	 1.81541759674977E-02 
995	 1.92269128897561E-02 
996	 1.79962117136376E-02 
997	 1.69899628733161E-02 
998	 1.73251440959446E-02 
999	 1.84008495265979E-02 
1000	 1.76784708286693E-02 
1001	 1.50188037143362E-02 
1002	 1.52650959768976E-02 
1003	 1.52684713066234E-02 
1004	 1.53511729447359E-02 
1005	 1.52341168893021E-02 
1006	 1.47063752083675E-02 
1007	 1.45689395588067E-02 
1008	 1.45712277409236E-02 
1009	 1.47980803220484E-02 
1010	 1.54420576798926E-02 
1011	 1.58674933969566E-02 
1012	 1.62212915612253E-02 
1013	 1.63546352839059E-02 
1014	 1.63362465607771E-02 
1015	 1.60265529466936E-02 
1016	 1.58857204677183E-02 
1017	 0.015548809075394 
1018	 1.55261115122776E-02 
1019	 1.57582256753856E-02 
1020	 1.58284545548709E-02 
1021	 1.61736859928605E-02 
1022	 1.60500516889577E-02 
1023	 1.56400395781563E-02 
1024	 1.54742921411158E-02 
1025	 0.0152238463024 
1026	 1.53423111108729E-02 
1027	 1.54807947039564E-02 
1028	 1.58651362576899E-02 
1029	 1.61560429033483E-02 
1030	 0.016637041608918 
1031	 1.67028618153564E-02 
1032	 1.66206137558434E-02 
1033	 1.65258566127864E-02 
1034	 1.59972512092026E-02 
1035	 1.58787379327326E-02 
1036	 1.59603025146289E-02 
1037	 1.60654288090712E-02 
1038	 1.65123582518498E-02 
1039	 1.66240372628518E-02 
1040	 1.64371598860796E-02 
1041	 1.65960047001279E-02 
1042	 1.66519518779508E-02 
1043	 1.65624417509401E-02 
1044	 1.65950821690095E-02 
1045	 1.68033572121886E-02 
1046	 1.68650589264792E-02 
1047	 1.68099672195573E-02 
1048	 0.016849611290754 
1049	 1.69950930105251E-02 
1050	 0.017006942578938 
1051	 1.68677349560865E-02 
1052	 1.68921983042287E-02 
1053	 1.68802663233201E-02 
1054	 1.69715329121085E-02 
1055	 1.74329597162452E-02 
1056	 1.75958647150188E-02 
1057	 1.76445509395668E-02 
1058	 1.75817896661396E-02 
1059	 1.75343559042819E-02 
1060	 1.73042797129668E-02 
1061	 1.71783814934753E-02 
1062	 1.70089517844465E-02 
1063	 1.70620612200868E-02 
1064	 1.72579414989542E-02 
1065	 1.73402539674192E-02 
1066	 1.76746911493023E-02 
1067	 1.77356399261334E-02 
1068	 1.74209968016212E-02 
1069	 1.73460422451777E-02 
1070	 1.72760643244563E-02 
1071	 1.72762980597469E-02 
1072	 1.74217944482207E-02 
1073	 1.76424964126566E-02 
1074	 1.75904777146843E-02 
1075	 1.73848389338863E-02 
1076	 1.73613880486947E-02 
1077	 1.71903435358022E-02 
1078	 1.72118068261228E-02 
1079	 1.76087284811574E-02 
1080	 1.75953281871791E-02 
1081	 1.73572923995193E-02 
1082	 1.72522107693085E-02 
1083	 1.69807118356415E-02 
1084	 1.68477915006737E-02 
1085	 1.69095505890241E-02 
1086	 1.68808319119719E-02 
1087	 0.016814489073423 
1088	 1.67391818579862E-02 
1089	 1.65946119955434E-02 
1090	 1.65285482308559E-02 
1091	 1.65110847750079E-02 
1092	 1.65437133326207E-02 
1093	 1.66003708995895E-02 
1094	 1.68281006094009E-02 
1095	 1.67372026602133E-02 
1096	 1.64496270614907E-02 
1097	 1.62650141048532E-02 
1098	 1.59195336910411E-02 
1099	 0.015733242032463 
1100	 1.55267037770251E-02 
1101	 1.56070812572271E-02 
1102	 1.61866291094776E-02 
1103	 1.61326613427228E-02 
1104	 0.015763842600642 
1105	 1.58817105874856E-02 
1106	 1.50439442036343E-02 
1107	 1.46323287796039E-02 
1108	 1.55914777348177E-02 
1109	 1.60375372071688E-02 
1110	 1.61292865844511E-02 
1111	 1.63021351811624E-02 
1112	 1.62764063643459E-02 
1113	 0.014994547281296 
1114	 1.49327491931532E-02 
1115	 1.58623510585353E-02 
1116	 1.64366352509238E-02 
1117	 1.84304789476256E-02 
1118	 1.88697250559683E-02 
1119	 1.74701138020881E-02 
1120	 1.67044020868403E-02 
1121	 1.37302200902019E-02 
1122	 1.09612383715089E-02 
1123	 1.40098338487029E-02 
1124	 1.82786285158709E-02 
1125	 2.11849969709348E-02 
1126	 2.00925741102904E-02 
1127	 0.016823512918041 
1128	 1.43616100007671E-02 
1129	 1.36062323993914E-02 
1130	 0.015729815066166 
1131	 1.72439087241864E-02 
1132	 1.87716030386685E-02 
1133	 1.82394538588188E-02 
1134	 1.77216642405565E-02 
1135	 1.65869642685513E-02 
1136	 0.013050627142338 
1137	 1.29259581454604E-02 
1138	 1.47521725315338E-02 
1139	 1.51697972644781E-02 
1140	 1.58504996129591E-02 
1141	 1.64069841407335E-02 
1142	 1.49490730630734E-02 
1143	 1.27353906341543E-02 
1144	 0.012690627871584 
1145	 1.42414538363646E-02 
1146	 1.46974202151279E-02 
1147	 0.015495246470355 
1148	 1.57790001940124E-02 
1149	 0.014423134997221 
1150	 1.38497700611593E-02 
1151	 1.37263916516465E-02 
1152	 1.37387158179109E-02 
1153	 1.33205465048752E-02 
1154	 0.013426899770389 
1155	 1.39815923149231E-02 
1156	 1.44357001122969E-02 
1157	 1.38673760263537E-02 
1158	 1.35804121483893E-02 
1159	 1.37410842649641E-02 
1160	 1.38386238448071E-02 
1161	 1.36447007079848E-02 
1162	 0.013718513408666 
1163	 1.36651653589665E-02 
1164	 1.31992613825214E-02 
1165	 1.34116809497123E-02 
1166	 1.38464091578329E-02 
1167	 1.37441134982869E-02 
1168	 1.36253583530889E-02 
1169	 0.013615536069978 
1170	 1.35653803988045E-02 
1171	 1.33971549525421E-02 
1172	 1.31075242373181E-02 
1173	 1.30033596086844E-02 
1174	 1.28183004011534E-02 
1175	 1.28364118389229E-02 
1176	 1.30028103974553E-02 
1177	 1.31443335069369E-02 
1178	 1.30305396050429E-02 
1179	 1.29743261180644E-02 
1180	 1.29175511592944E-02 
1181	 1.29474348120771E-02 
1182	 1.34229091063985E-02 
1183	 1.35534362582534E-02 
1184	 1.31993255102718E-02 
1185	 1.31530461030903E-02 
1186	 1.31878933597253E-02 
1187	 1.30238112408071E-02 
1188	 1.30809820213548E-02 
1189	 1.32154052812728E-02 
1190	 0.013039706142577 
1191	 1.28373629180875E-02 
1192	 1.27900287680303E-02 
1193	 1.28967094582295E-02 
1194	 0.012946269647929 
1195	 1.28786676039228E-02 
1196	 1.30470307843617E-02 
1197	 1.31995455468562E-02 
1198	 1.29999175145868E-02 
1199	 1.30172507127115E-02 
1200	 1.31075165571711E-02 
1201	 1.29532396367873E-02 
1202	 1.29470538576489E-02 
1203	 1.30342031077773E-02 
1204	 0.013079355799881 
1205	 1.30574435193791E-02 
1206	 1.29485737864663E-02 
1207	 0.012919180412499 
1208	 1.28305984573642E-02 
1209	 1.26135876077354E-02 
1210	 1.26838151097979E-02 
1211	 0.012895809012583 
1212	 1.28828604258825E-02 
1213	 1.29190999203351E-02 
1214	 1.29899887248846E-02 
1215	 1.31022833343226E-02 
1216	 1.30734638790069E-02 
1217	 1.30988651403077E-02 
1218	 1.31452273284387E-02 
1219	 1.31088667764123E-02 
1220	 1.30520359474783E-02 
1221	 1.31353187455708E-02 
1222	 0.013293536407247 
1223	 1.32648243410236E-02 
1224	 1.32168021168905E-02 
1225	 1.31570315084457E-02 
1226	 1.30146250892737E-02 
1227	 1.30524058754881E-02 
1228	 1.31620869066451E-02 
1229	 1.31900961341945E-02 
1230	 1.32507238690825E-02 
1231	 0.013232651487539 
1232	 1.31006049650175E-02 
1233	 1.31196671664105E-02 
1234	 0.013250825721881 
1235	 1.32692961441426E-02 
1236	 1.32973254289722E-02 
1237	 1.33003249890681E-02 
1238	 1.32610923556764E-02 
1239	 1.31348754630308E-02 
1240	 0.013018791325754 
1241	 1.30701274531014E-02 
1242	 1.31742553557097E-02 
1243	 1.30795662549623E-02 
1244	 1.29791583333332E-02 
1245	 1.31275290401142E-02 
1246	 1.31936369924114E-02 
1247	 1.30054154101153E-02 
1248	 1.31079689553273E-02 
1249	 1.33233458637482E-02 
1250	 1.31433629903021E-02 
1251	 1.31139284252757E-02 
1252	 1.33024379952814E-02 
1253	 1.31184471088639E-02 
1254	 1.28923172747401E-02 
1255	 1.31076017485345E-02 
1256	 1.31914122752118E-02 
1257	 1.31052942150209E-02 
1258	 1.30028172462936E-02 
1259	 1.29867657655963E-02 
1260	 1.30477895402692E-02 
1261	 1.31213749502549E-02 
1262	 0.013036723011657 
1263	 1.29847582782501E-02 
1264	 0.012910561113099 
1265	 1.29335106880174E-02 
1266	 1.29442090575309E-02 
1267	 1.30267595044489E-02 
1268	 1.31823523368547E-02 
1269	 1.30469417481182E-02 
1270	 1.29172780817922E-02 
1271	 1.29876654677811E-02 
1272	 1.28734873926934E-02 
1273	 1.28312033680701E-02 
1274	 1.28268388380378E-02 
1275	 1.26995766051056E-02 
1276	 1.28107555357203E-02 
1277	 1.28441310719373E-02 
1278	 1.28218308379636E-02 
1279	 1.29020243055279E-02 
1280	 1.27965144331156E-02 
1281	 0.012832843873524 
1282	 1.27654536342635E-02 
1283	 1.27024284565071E-02 
1284	 1.28423430631109E-02 
1285	 1.29131340320848E-02 
1286	 1.27831303126524E-02 
1287	 1.27668895693146E-02 
1288	 0.012940413797684 
1289	 1.28582905018063E-02 
1290	 1.25869990214166E-02 
1291	 0.012418648706678 
1292	 1.23535414794714E-02 
1293	 0.012417114151101 
1294	 1.23567939098286E-02 
1295	 1.22932553527728E-02 
1296	 1.24667571313321E-02 
1297	 1.25861708633078E-02 
1298	 0.012652152404038 
1299	 1.27364730337462E-02 
1300	 0.012653913403846 
1301	 1.24738084357178E-02 
1302	 1.24550235194689E-02 
1303	 1.25692348523472E-02 
1304	 1.26118731827759E-02 
1305	 1.26976153947969E-02 
1306	 1.26477259450002E-02 
1307	 1.26841061485192E-02 
1308	 1.25423388795439E-02 
1309	 1.19757178287538E-02 
1310	 1.19363624925552E-02 
1311	 1.23562997671916E-02 
1312	 1.24323283465954E-02 
1313	 1.24741264295002E-02 
1314	 1.24625833941431E-02 
1315	 1.22032323259161E-02 
1316	 1.20926228184419E-02 
1317	 0.012196465056507 
1318	 1.22955241692603E-02 
1319	 0.012220735718124 
1320	 1.22676903882605E-02 
1321	 1.25542914941642E-02 
1322	 0.012828392811615 
1323	 1.25887069469329E-02 
1324	 1.22385720385708E-02 
1325	 1.24242752722082E-02 
1326	 1.25369769589895E-02 
1327	 1.24000946208332E-02 
1328	 1.25514063639602E-02 
1329	 1.24959536857866E-02 
1330	 1.21934706857439E-02 
1331	 1.21325300945858E-02 
1332	 1.21905061413069E-02 
1333	 1.20369370030535E-02 
1334	 1.20247583722249E-02 
1335	 1.21774586132024E-02 
1336	 1.28155051778806E-02 
1337	 1.29527671809794E-02 
1338	 1.30398118584146E-02 
1339	 1.30739207612373E-02 
1340	 1.24352554102729E-02 
1341	 1.24623943526068E-02 
1342	 0.013671357525689 
1343	 1.36312042636127E-02 
1344	 1.21579209415453E-02 
1345	 1.23232933050035E-02 
1346	 1.25612602966938E-02 
1347	 1.28677474349484E-02 
1348	 1.79916030234643E-02 
1349	 2.06835282367994E-02 
1350	 1.57647263913212E-02 
1351	 1.62165563377078E-02 
1352	 2.42371403560212E-02 
1353	 2.85701322807367E-02 
1354	 4.06157698439342E-02 
1355	 5.11577548851196E-02 
1356	 7.35110723779168E-02 
1357	 6.96758564308211E-02 
1358	 3.84924838520198E-02 
1359	 9.61660454911609E-02 
1360	 0.179615453204568 
1361	 0.211448625862126 
1362	 0.24561658944333 
1363	 0.230818941645908 
1364	 0.203037602932081 
1365	 0.218691951578223 
1366	 0.155886414821337 
1367	 0.102550848069552 
1368	 0.189388852168754 
1369	 0.273428162774942 
1370	 0.179245998354825 
1371	 0.157622749747972 
1372	 0.261812268467096 
1373	 0.22133667548189 
1374	 0.159771679600983 
1375	 0.344362459029747 
1376	 0.426124861090635 
1377	 0.207233528285944 
1378	 0.147151589774964 
1379	 0.268274493967037 
1380	 0.424776822958317 
1381	 0.606985490978881 
1382	 0.60182549013893 
1383	 0.761669864756355 
1384	 0.901585374360802 
1385	 0.550539691252589 
1386	 0.384006243306094 
1387	 0.217947816951275 
1388	 0.270307350929913 
1389	 0.437068695384269 
1390	 0.420639088844823 
1391	 0.502990762802868 
1392	 0.65809914650009 
1393	 0.509858499612343 
1394	 0.397950760345596 
1395	 0.334714588833554 
1396	 0.295432959788261 
1397	 0.615324024997848 
1398	 0.635933318441664 
1399	 0.430434195835406 
1400	 0.517511676204694 
1401	 0.572518051384652 
1402	 0.436915820302065 
1403	 0.429045337916137 
1404	 0.522480418671834 
1405	 0.480467413811208 
1406	 0.201090962621693 
1407	 8.31568369948639E-02 
1408	 8.91753657733183E-02 
1409	 0.094715638489586 
1410	 7.10359165554912E-02 
1411	 7.20183809415411E-02 
1412	 0.136258849861795 
1413	 0.142281161047562 
1414	 9.45601766731251E-02 
1415	 7.37105838095509E-02 
1416	 7.38219568103795E-02 
1417	 8.50456625335035E-02 
1418	 0.102350476357204 
1419	 9.02769206076965E-02 
1420	 8.04506031848842E-02 
1421	 6.90995551188593E-02 
1422	 4.32311331449552E-02 
1423	 3.15532635191666E-02 
1424	 2.53376885807972E-02 
1425	 2.89375335177172E-02 
1426	 4.32595292200578E-02 
1427	 4.13988985864235E-02 
1428	 3.73209068274864E-02 
1429	 3.21294919234654E-02 
1430	 1.23142296434738E-02 
1431	 4.90617898274251E-03 
1432	 5.78041713250246E-03 
1433	 8.24766334518484E-03 
1434	 1.72646796857258E-02 
1435	 2.06123351990818E-02 
1436	 2.29391425652171E-02 
1437	 2.66867032162566E-02 
1438	 2.78143015178297E-02 
1439	 2.17190121173958E-02 
1440	 2.43496477707489E-02 
1441	 2.65001246540054E-02 
1442	 1.62447462951541E-02 
1443	 1.11804723082839E-02 
1444	 1.25323742321564E-02 
1445	 1.28527822002312E-02 
1446	 1.28554143345005E-02 
1447	 1.24850852537517E-02 
1448	 1.43170422974174E-02 
1449	 1.43134017787985E-02 
1450	 1.28167066830452E-02 
1451	 1.40242275164217E-02 
1452	 1.35303395390773E-02 
1453	 1.10121138304976E-02 
1454	 1.06257120839245E-02 
1455	 1.24295024459814E-02 
1456	 0.012816960340808 
1457	 1.25615798319929E-02 
1458	 1.20634775571664E-02 
1459	 1.14726549825653E-02 
1460	 1.12901653994621E-02 
1461	 0.010667201635098 
1462	 1.05242137789411E-02 
1463	 1.13623069453838E-02 
1464	 1.13916284614334E-02 
1465	 1.04141926189376E-02 
1466	 1.07106635201639E-02 
1467	 1.20395040537089E-02 
1468	 1.19427317683541E-02 
1469	 1.16788071674152E-02 
1470	 1.18837472722126E-02 
1471	 1.14530281939359E-02 
1472	 1.11975754310408E-02 
1473	 1.16236542315531E-02 
1474	 1.13468550483289E-02 
1475	 9.76565515465565E-03 
1476	 1.00821219776944E-02 
1477	 0.012164329425795 
1478	 1.20537052583323E-02 
1479	 1.12029229077929E-02 
1480	 1.09800596396945E-02 
1481	 1.00576438753853E-02 
1482	 9.72859487846683E-03 
1483	 0.01045581903862 
1484	 1.05653343744206E-02 
1485	 1.01651761986673E-02 
1486	 9.8041366473543E-03 
1487	 9.2287197057057E-03 
1488	 9.29959570263853E-03 
1489	 9.54394879734057E-03 
1490	 9.73085414347041E-03 
1491	 1.06591119144164E-02 
1492	 1.06236219210671E-02 
1493	 9.66156111178098E-03 
1494	 9.5575082799566E-03 
1495	 9.75632407895824E-03 
1496	 9.61750968688542E-03 
1497	 9.50404656117428E-03 
1498	 9.57475431717195E-03 
1499	 9.54254840222449E-03 
1500	 9.4523983995875E-03 
1501	 9.59220108793831E-03 
1502	 0.00971727190583 
1503	 9.56306205895843E-03 
1504	 9.55554662171347E-03 
1505	 9.68280587832008E-03 
1506	 9.93562159862503E-03 
1507	 9.9993961158466E-03 
1508	 1.00463527240588E-02 
1509	 1.00992796240841E-02 
1510	 1.01049357036649E-02 
1511	 1.01127325053522E-02 
1512	 1.01656863690518E-02 
1513	 1.01977471036604E-02 
1514	 1.02538120000491E-02 
1515	 1.04097496078102E-02 
1516	 1.03773939847259E-02 
1517	 1.02171787249627E-02 
1518	 1.03872369979489E-02 
1519	 1.05788513898836E-02 
1520	 1.05198193863259E-02 
1521	 1.05282001649037E-02 
1522	 1.05461162302151E-02 
1523	 1.03986605360525E-02 
1524	 1.04506758898945E-02 
1525	 0.01076402312742 
1526	 1.08071680750918E-02 
1527	 1.06985888502285E-02 
1528	 1.07617226618225E-02 
1529	 1.08992421425527E-02 
1530	 1.09487268437034E-02 
1531	 1.08987083147987E-02 
1532	 1.09688829989478E-02 
1533	 1.10886924372274E-02 
1534	 1.10288332839083E-02 
1535	 1.10024873534978E-02 
1536	 1.10724601207574E-02 
1537	 1.10040180929961E-02 
1538	 1.09495322983438E-02 
1539	 1.09929674312969E-02 
1540	 1.10395960713945E-02 
1541	 1.12224305041217E-02 
1542	 1.13737092706144E-02 
1543	 1.12768080723585E-02 
1544	 1.11816157878595E-02 
1545	 1.11817278967062E-02 
1546	 1.12360318570753E-02 
1547	 1.13992682464095E-02 
1548	 1.16136000863413E-02 
1549	 1.15956082375645E-02 
1550	 1.13338887390933E-02 
1551	 0.011382841413202 
1552	 1.15791804086381E-02 
1553	 1.15855602661632E-02 
1554	 1.16643166926069E-02 
1555	 1.17122551320422E-02 
1556	 1.15726005197139E-02 
1557	 1.13587083319255E-02 
1558	 1.12189157382014E-02 
1559	 1.12067252037996E-02 
1560	 1.12769564211554E-02 
1561	 1.13665750539933E-02 
1562	 1.13908565503347E-02 
1563	 1.13259344063941E-02 
1564	 0.011282158361541 
1565	 1.13045936878674E-02 
1566	 1.14059864537489E-02 
1567	 1.15681605988849E-02 
1568	 1.15757989778156E-02 
1569	 1.13521995955669E-02 
1570	 0.011311542375768 
1571	 1.15175868178484E-02 
1572	 1.15178216665352E-02 
1573	 1.14634053178193E-02 
1574	 0.011532044947496 
1575	 1.15561722078559E-02 
1576	 1.14881783279915E-02 
1577	 1.14087330695366E-02 
1578	 1.15799326191052E-02 
1579	 1.17888706759081E-02 
1580	 1.17131667892218E-02 
1581	 1.16941798251396E-02 
1582	 1.17858634770307E-02 
1583	 1.15643558285483E-02 
1584	 1.12910331046387E-02 
1585	 1.15359914928927E-02 
1586	 0.011821571043864 
1587	 1.17168646275454E-02 
1588	 1.16379125264776E-02 
1589	 1.16440687911226E-02 
1590	 1.16118239492269E-02 
1591	 1.16577514143095E-02 
1592	 0.011811472587987 
1593	 1.19655649137561E-02 
1594	 1.20390295150827E-02 
1595	 1.20481792082788E-02 
1596	 1.19666566943236E-02 
1597	 1.17218145251119E-02 
1598	 1.14797691884264E-02 
1599	 1.15789971885461E-02 
1600	 1.17753220366741E-02 
1601	 1.17810480864764E-02 
1602	 1.18122500822075E-02 
1603	 1.18931704523974E-02 
1604	 1.19281250130835E-02 
1605	 0.011819370457643 
1606	 1.17633998990867E-02 
1607	 1.18418714572052E-02 
1608	 1.17442300680683E-02 
1609	 0.011906740329939 
1610	 1.23052305633059E-02 
1611	 1.20173223879462E-02 
1612	 1.17446789913447E-02 
1613	 1.20034686412108E-02 
1614	 1.19508977996322E-02 
1615	 1.20417846725574E-02 
1616	 1.25016759967699E-02 
1617	 1.25042678105979E-02 
1618	 1.22590949942908E-02 
1619	 1.24496284451835E-02 
1620	 1.26492572399141E-02 
1621	 1.24538032491273E-02 
1622	 1.25231925111822E-02 
1623	 0.012795695023493 
1624	 1.26958073114203E-02 
1625	 1.25935459146671E-02 
1626	 1.26952304071573E-02 
1627	 1.26748845466509E-02 
1628	 1.27330184771063E-02 
1629	 1.30299210067842E-02 
1630	 1.31399741241409E-02 
1631	 1.29565422806386E-02 
1632	 1.27753255647215E-02 
1633	 1.29245860530884E-02 
1634	 1.33700860331398E-02 
1635	 1.37114236483052E-02 
1636	 1.36140724326657E-02 
1637	 1.32876750035627E-02 
1638	 1.34233362676313E-02 
1639	 0.013659066346271 
1640	 1.36444001297787E-02 
1641	 0.013756322355844 
1642	 1.37563519986576E-02 
1643	 0.013755830680763 
1644	 1.39245648687516E-02 
1645	 1.41075237933472E-02 
1646	 1.41786756995863E-02 
1647	 1.38940372814803E-02 
1648	 1.39009403926523E-02 
1649	 1.43425699032284E-02 
1650	 1.43466581442888E-02 
1651	 0.014112179526413 
1652	 1.41859738256845E-02 
1653	 1.43400909694892E-02 
1654	 1.42105029127162E-02 
1655	 1.42209761531944E-02 
1656	 1.43043592793477E-02 
1657	 1.38978794183344E-02 
1658	 1.39437584000576E-02 
1659	 1.46817858027203E-02 
1660	 1.47757836232775E-02 
1661	 1.46006337384131E-02 
1662	 1.47064871933914E-02 
1663	 1.46327924770651E-02 
1664	 1.45266644479754E-02 
1665	 1.46209468460857E-02 
1666	 1.45924652158593E-02 
1667	 1.43268571535703E-02 
1668	 1.46945263726814E-02 
1669	 1.48673256002923E-02 
1670	 0.014808192013527 
1671	 1.48999034430033E-02 
1672	 1.50550810512418E-02 
1673	 1.47954808515905E-02 
1674	 1.47290028450436E-02 
1675	 1.51511615156595E-02 
1676	 1.50992317624584E-02 
1677	 1.46365662167464E-02 
1678	 1.47026865537223E-02 
1679	 1.47983520808019E-02 
1680	 1.43468191210129E-02 
1681	 1.45240698707811E-02 
1682	 1.50693546434758E-02 
1683	 1.47998305400769E-02 
1684	 1.47655643129402E-02 
1685	 0.015116449577535 
1686	 1.47428445610487E-02 
1687	 0.014420218385139 
1688	 0.014699585979589 
1689	 1.48253148017554E-02 
1690	 1.47576335081577E-02 
1691	 1.47077733398797E-02 
1692	 1.46128674601239E-02 
1693	 1.45390629395977E-02 
1694	 1.45603531260458E-02 
1695	 1.47679866591537E-02 
1696	 1.49666704176041E-02 
1697	 1.49237536855635E-02 
1698	 1.48116782872853E-02 
1699	 1.48601866404592E-02 
1700	 1.49023059804537E-02 
1701	 1.48139986785279E-02 
1702	 1.48492022387001E-02 
1703	 1.48535258186323E-02 
1704	 1.47380985764418E-02 
1705	 1.47795810839727E-02 
1706	 1.50411108598343E-02 
1707	 1.52668983266489E-02 
1708	 1.51572367991673E-02 
1709	 1.51119020286678E-02 
1710	 1.51072413443964E-02 
1711	 1.46662899423078E-02 
1712	 1.45482939615944E-02 
1713	 1.47363354020778E-02 
1714	 1.46633191729179E-02 
1715	 1.51924864368678E-02 
1716	 1.54605551455695E-02 
1717	 1.50239658027216E-02 
1718	 0.015142215183631 
1719	 1.50804223653735E-02 
1720	 1.47168125426488E-02 
1721	 1.50579238704458E-02 
1722	 1.50948455413119E-02 
1723	 1.46312487297398E-02 
1724	 1.47435295393013E-02 
1725	 1.47249713500795E-02 
1726	 1.47191143918359E-02 
1727	 1.54529950851642E-02 
1728	 1.55179849516211E-02 
1729	 1.49771959302198E-02 
1730	 1.48938109818353E-02 
1731	 1.46781706554313E-02 
1732	 1.46524771199016E-02 
1733	 1.50461725862837E-02 
1734	 0.015598085268885 
1735	 1.58902794124228E-02 
1736	 1.52686232378304E-02 
1737	 1.49977053540078E-02 
1738	 0.014898655287505 
1739	 1.41647027459327E-02 
1740	 1.41885849886044E-02 
1741	 1.47748875667207E-02 
1742	 1.51269751254657E-02 
1743	 1.53374141220733E-02 
1744	 1.53677702539274E-02 
1745	 0.015113640546075 
1746	 1.41421456171483E-02 
1747	 1.40680906112869E-02 
1748	 1.52171519706744E-02 
1749	 1.52639118865663E-02 
1750	 1.47403700772658E-02 
1751	 1.46077766569472E-02 
1752	 0.013797091606109 
1753	 1.36332742732533E-02 
1754	 0.014653225238536 
1755	 1.49384328633104E-02 
1756	 0.014849808083196 
1757	 0.015187195393702 
1758	 1.50280310399026E-02 
1759	 1.47544441005585E-02 
1760	 1.47552521278841E-02 
1761	 1.48206152918199E-02 
1762	 1.44999206046494E-02 
1763	 1.39745391751169E-02 
1764	 1.41744456261381E-02 
1765	 1.42231164260786E-02 
1766	 1.39864094428995E-02 
1767	 0.015152866572115 
1768	 1.58032291398069E-02 
1769	 1.49992849989528E-02 
1770	 1.50578615685241E-02 
1771	 1.48861553932352E-02 
1772	 1.40770556144232E-02 
1773	 1.42480260398391E-02 
1774	 1.42144571321912E-02 
1775	 1.36354645983168E-02 
1776	 1.36546235057365E-02 
1777	 1.46174385320324E-02 
1778	 1.46891607478327E-02 
1779	 1.37755376212707E-02 
1780	 1.38794978235808E-02 
1781	 1.42845687519184E-02 
1782	 1.46913524772859E-02 
1783	 0.017060486907071 
1784	 1.67440522861748E-02 
1785	 1.36971397318669E-02 
1786	 1.26980229642419E-02 
1787	 1.06328412191725E-02 
1788	 0.010058920671224 
1789	 1.19222248800923E-02 
1790	 1.09718906570833E-02 
1791	 1.27765697721706E-02 
1792	 1.45088097868157E-02 
1793	 1.55653369851038E-02 
1794	 1.59017978618811E-02 
1795	 1.39087109030301E-02 
1796	 1.11867744276813E-02 
1797	 9.65987831014528E-03 
1798	 1.29430025778021E-02 
1799	 1.92638925179017E-02 
1800	 2.92583038029505E-02 
1801	 0.032160438219474 
1802	 0.017948162801469 
1803	 1.41743908643832E-02 
1804	 8.60221884930166E-03 
1805	 5.4609673896306E-03 
1806	 3.01167692871105E-02 
1807	 3.23832617756155E-02 
1808	-1.96007906470217E-03 
1809	-6.49642279515994E-03 
1810	-2.32311949698531E-02 
1811	 6.70279422134417E-03 
1812	 0.195072069615388 
1813	 0.244969108788108 
1814	 0.211942832640281 
1815	 0.17056519359602 
1816	-0.193549916369194 
1817	-6.67408361258253E-02 
1818	 0.146361078431088 
1819	 0.51500542620929 
1820	 1.26925426854499 
1821	 0.634572980561936 
1822	 0.422981501990099 
1823	 0.15893541452462 
1824	 0.181756380779264 
1825	 0.765578671176843 
1826	 0.921295006418917 
1827	 0.997531993359177 
1828	 1.23207600547231 
1829	 0.571051988034323 
1830	 0.543247246776427 
1831	-1.11752306774402 
1832	-1.03530948788776 
1833	-0.839483633232202 
1834	-0.763013932154511 
1835	-0.21650779305391 
1836	 0.145298777046589 
1837	 3.87122236045226E-02 
1838	-0.064967553593331 
1839	-0.440861948910591 
1840	-0.690118390823426 
1841	-0.590521996116323 
1842	-0.574789224127606 
1843	-0.665579317324433 
1844	-0.764629978777272 
1845	-1.12722648538095 
1846	 0.133988849930561 
1847	 0.115182647526504 
1848	 9.35580786181229E-02 
1849	-0.374115640596044 
1850	-0.484981685818931 
1851	-0.749812444284852 
1852	-1.34040598187886 
1853	-6.62382676455324 
1854	 2.08480040291903 
1855	 0.733504613737807 
1856	 0.52585740110788 
1857	 0.844462771400159 
1858	 0.962649573699718 
1859	 1.2105281324346 
1860	 1.08616544087755 
1861	 20.0175763089209 
1862	-4.72067631976081 
1863	 5.16251669773773 
1864	-22.4421654961409 
1865	-5.78400357708909 
1866	 1.72228281216891 
1867	 2.30810987909357 
1868	-2.62967083376201 
1869	-1.82002181128063 
1870	-2.13246593562433 
1871	-2.62642264469832 
1872	-3.8959471568306 
1873	 1.89943724321451 
1874	-1.79602274183304E-02 
1875	 3.53481096946811 
1876	 2.94401705468416 
1877	 0.531819647707464 
1878	 0.189217104612695 
1879	-0.480378257178085 
1880	-0.530312771468515 
1881	-0.362911520468334 
1882	-5.63859565253773E-02 
1883	-0.398474367545374 
1884	-0.107316680236735 
1885	 0.617451074488346 
1886	-1.28280859349446 
1887	-3.44733095294669 
1888	-2.40972951500754 
1889	-2.4049706769327 
1890	-2.17501921202038 
1891	-4.47938584493662 
1892	 2.70541680566568 
1893	 1.10732153169559 
1894	 1.82723484692682 
1895	 1.84702526402338 
1896	 0.744759622713808 
1897	 1.05429173195672 
1898	 1.1418423685263 
1899	 1.11032603011038 
1900	 1.50947062325063 
1901	-4.62569524555684 
1902	-1.83069417264195 
1903	-1.54454612819703 
1904	 0.30184504844832 
1905	 5.38126001223174 
1906	-2.68281672805902 
1907	-4.25732272194096 
1908	-10.1728182609698 
1909	-28.4840178933211 
1910	 1.2961200120826 
1911	 0.783246682381052 
1912	 1.06557439989197 
1913	 0.736383269223471 
1914	 0.146656790653091 
1915	 0.129360156812178 
1916	-0.116732418599958 
1917	 0.882378050319624 
1918	 3.9276309216945 
1919	-0.625131068744725 
1920	-1.7772624569459 
1921	-2.74162882729132 
1922	-1.35402702645717 
1923	-0.595166461363243 
1924	-0.452025112401957 
1925	-0.361993331610945 
1926	-0.291147672037679 
1927	-0.235073235944936 
1928	-0.461784523174231 
1929	-0.932330988870092 
1930	-0.306196208421334 
1931	-0.102660840877942 
1932	-0.148486418159726 
1933	-1.66596304203121E-02 
1934	-0.196166182333581 
1935	-0.403717332846339 
1936	-0.361959364749082 
1937	-0.408898261398106 
1938	-0.452758441803186 
1939	-0.356045907033285 
1940	-0.198108328287501 
1941	-0.139061355272326 
1942	-0.118527837296532 
1943	-0.080483901275663 
1944	-6.88188678392044E-02 
1945	-5.23385581916014E-02 
1946	-2.43296243308543E-02 
1947	-2.00940003467232E-02 
1948	-1.11444461449416E-02 
1949	-1.60485466089603E-02 
1950	-0.023504365852772 
1951	-0.016888530752844 
1952	-1.42041712314012E-02 
1953	-1.31377101509788E-02 
1954	-1.28717182072178E-02 
1955	-1.64446506264391E-02 
1956	-1.54683250180243E-02 
1957	-7.65544902699268E-03 
1958	-4.02399402425484E-03 
1959	-1.47553122790325E-03 
1960	 5.13182852094869E-03 
1961	 2.65635134948945E-03 
1962	 8.20262122918452E-04 
1963	 2.6694410846764E-03 
1964	 3.94028014522907E-04 
1965	 4.61454509891047E-03 
1966	 5.89814688372172E-03 
1967	 7.13582654141813E-03 
1968	 5.33674592393535E-03 
1969	 5.95214768897995E-03 
1970	 3.5994960744291E-03 
1971	 2.14501100628125E-03 
1972	 4.32674344420648E-03 
1973	 5.08445841692087E-03 
1974	 4.50766157858828E-03 
1975	 5.1912394135493E-03 
1976	 5.38934035347978E-03 
1977	 5.07003697546417E-03 
1978	 5.62854221746236E-03 
1979	 5.71218093061198E-03 
1980	 5.36352798694265E-03 
1981	 5.15130008883124E-03 
1982	 5.19664930627382E-03 
1983	 4.8949041724057E-03 
1984	 4.96581833411655E-03 
1985	 4.20584154530559E-03 
1986	 3.23931417085211E-03 
1987	 2.76137186831638E-03 
1988	 2.62551516692324E-03 
1989	 2.55748036302103E-03 
1990	 2.26745217940371E-03 
1991	 2.82032633646212E-03 
1992	 3.2614227059268E-03 
1993	 2.79680654182359E-03 
1994	 3.07711624909262E-03 
1995	 3.94033830112922E-03 
1996	 4.95956825947922E-03 
1997	 5.06897076593418E-03 
1998	 5.31419512293065E-03 
1999	 5.4287236853846E-03 
2000	 3.73879064920407E-03 
2001	 3.2315591675197E-04 
2002	-1.59337949449555E-03 
2003	-1.46472406385096E-03 
2004	-1.60841849869546E-03 
2005	 1.45075944409922E-03 
2006	 5.87054442265951E-03 
2007	 6.17222931302123E-03 
2008	 5.04000884489655E-03 
2009	 4.46686774382597E-03 
2010	 2.36705485832408E-03 
2011	 1.98616088431432E-03 
2012	 2.49163817422251E-03 
2013	 3.37787074442197E-03 
2014	 4.02799591606139E-03 
2015	 4.94394407840907E-03 
2016	 4.71852250362685E-03 
2017	 4.77959709248602E-03 
2018	 5.16266273314255E-03 
2019	 3.9392704720606E-03 
2020	 4.24549031213502E-03 
2021	 5.00478884909524E-03 
2022	 3.58741342855646E-03 
2023	 3.35606667921671E-03 
2024	 3.48907030858628E-03 
2025	 3.06020142694465E-03 
2026	 3.26306679469053E-03 
2027	 4.46951000004188E-03 
2028	 5.00331265420102E-03 
2029	 4.9339704480045E-03 
2030	 5.11363428798012E-03 
2031	 5.06445207531334E-03 
2032	 5.32424822483704E-03 
2033	 5.60892767015214E-03 
2034	 5.47344634280449E-03 
2035	 5.11801364354086E-03 
2036	 4.83138447202939E-03 
2037	 4.24789804509606E-03 
2038	 3.49829520238126E-03 
2039	 3.59959340769085E-03 
2040	 4.63774827749119E-03 
2041	 4.49190631856886E-03 
2042	 4.25427512610093E-03 
2043	 4.34624813942495E-03 
2044	 3.70017241102491E-03 
2045	 3.44257940959593E-03 
2046	 4.51456490866913E-03 
2047	 5.4871140961966E-03 
2048	 5.97432311585497E-03 
2049	 5.80490162091059E-03 
2050	 5.06526208201997E-03 
2051	 4.17412149019452E-03 
2052	 2.68187394881266E-03 
2053	 0.002001833500864 
2054	 2.21698806593668E-03 
2055	 2.15232411784822E-03 
2056	 2.81787189540459E-03 
2057	 5.11285750803832E-03 
2058	 5.7287926394554E-03 
2059	 5.82183025721752E-03 
2060	 6.04510279793989E-03 
2061	 5.85261587799718E-03 
2062	 5.01370581030802E-03 
2063	 4.70072078841489E-03 
2064	 5.26328460262585E-03 
2065	 5.30684007608567E-03 
2066	 4.84637130446131E-03 
2067	 5.07515635898315E-03 
2068	 5.0316007293537E-03 
2069	 4.78773323202503E-03 
2070	 4.90161994849485E-03 
2071	 5.24323790002653E-03 
2072	 5.2614883974014E-03 
2073	 5.16027829047983E-03 
2074	 5.20261904700459E-03 
2075	 5.38513705893718E-03 
2076	 5.24238806566282E-03 
2077	 5.13491281191968E-03 
2078	 5.20735357495632E-03 
2079	 5.35709984545788E-03 
2080	 5.33325212528493E-03 
2081	 5.6271049347245E-03 
2082	 6.07300137270183E-03 
2083	 5.94132858457544E-03 
2084	 6.05744875437894E-03 
2085	 6.52975689561604E-03 
2086	 6.50634456287313E-03 
2087	 6.59661109060213E-03 
2088	 6.00694432539671E-03 
2089	 5.1645684791447E-03 
2090	 5.55318225632392E-03 
2091	 5.86300193287132E-03 
2092	 5.92204106548106E-03 
2093	 6.31656478350508E-03 
2094	 6.38277436192484E-03 
2095	 5.79297542277277E-03 
2096	 5.78172503657964E-03 
2097	 6.13472237623666E-03 
2098	 6.25570310152028E-03 
2099	 6.55117583011442E-03 
2100	 6.31042195223201E-03 
2101	 6.04738499990353E-03 
2102	 6.20481540331668E-03 
2103	 5.78237815986808E-03 
2104	 5.5020938077452E-03 
2105	 5.88760184633417E-03 
2106	 5.34701815611535E-03 
2107	 5.03684288999824E-03 
2108	 5.89106330168605E-03 
2109	 6.22129275607013E-03 
2110	 6.20809822781043E-03 
2111	 6.03922827512889E-03 
2112	 5.44900286979674E-03 
2113	 5.42399465252012E-03 
2114	 5.59120657652076E-03 
2115	 5.67714549265291E-03 
2116	 6.42136909468837E-03 
2117	 6.44901993092027E-03 
2118	 5.56314248677888E-03 
2119	 5.46571863152168E-03 
2120	 5.79768314820478E-03 
2121	 5.54338493020436E-03 
2122	 5.18607215674904E-03 
2123	 5.65399151664745E-03 
2124	 6.05897768706001E-03 
2125	 5.98129867485717E-03 
2126	 6.01876059201478E-03 
2127	 6.03143651894496E-03 
2128	 5.62472972985559E-03 
2129	 5.09719263786476E-03 
2130	 5.69974729246852E-03 
2131	 5.74259137600104E-03 
2132	 4.8706548021817E-03 
2133	 5.46711439243005E-03 
2134	 5.49111510980948E-03 
2135	 4.77167780681595E-03 
2136	 5.09992037755426E-03 
2137	 6.43129799465384E-03 
2138	 6.61784275108682E-03 
2139	 7.01617379053069E-03 
2140	 7.0538687051245E-03 
2141	 5.90643103506992E-03 
2142	 5.41599177424418E-03 
2143	 5.10784822383808E-03 
2144	 5.10712300168476E-03 
2145	 4.66480465337473E-03 
2146	 5.09576205808511E-03 
2147	 5.46693720665576E-03 
2148	 4.77625545925354E-03 
2149	 4.83657962880674E-03 
2150	 4.96206155449304E-03 
2151	 4.73994811622723E-03 
2152	 5.40619118811233E-03 
2153	 5.87516717928501E-03 
2154	 5.82138536559038E-03 
2155	 5.52246075511351E-03 
2156	 4.63853168943214E-03 
2157	 4.93592132146013E-03 
2158	 6.0420584057987E-03 
2159	 6.43188592749583E-03 
2160	 7.5521303107501E-03 
2161	 8.10073493509658E-03 
2162	 7.37686056252052E-03 
2163	 7.6244861121628E-03 
2164	 8.91847437835913E-03 
2165	 8.82672775574898E-03 
2166	 8.18263486479255E-03 
2167	 7.73874207546891E-03 
2168	 6.10631417619323E-03 
2169	 5.57915564090514E-03 
2170	 5.8681954043934E-03 
2171	 6.38621020957016E-03 
2172	 6.24326768511193E-03 
2173	 6.37748086230091E-03 
2174	 6.05038354044828E-03 
2175	 5.56336263002606E-03 
2176	 6.23202272569743E-03 
2177	 6.1589756865295E-03 
2178	 5.60406643048799E-03 
2179	 5.3550487802867E-03 
2180	 5.30113703431262E-03 
2181	 0.006138498775575 
2182	 7.48660729973424E-03 
2183	 8.48214248138015E-03 
2184	 8.29270952309238E-03 
2185	 7.11059249676243E-03 
2186	 6.82152901168304E-03 
2187	 6.91284421616431E-03 
2188	 6.4732382126368E-03 
2189	 6.2628907367761E-03 
2190	 5.7759745809681E-03 
2191	 3.89460124048514E-03 
2192	 3.6246669182806E-03 
2193	 4.58179626231354E-03 
2194	 5.15475079941065E-03 
2195	 6.34728664818678E-03 
2196	 7.04533232456677E-03 
2197	 7.96448420202528E-03 
2198	 8.0277425466967E-03 
2199	 7.47013265966038E-03 
2200	 6.97938703165259E-03 
2201	 5.39732691778106E-03 
2202	 3.78994519463314E-03 
2203	 3.44718348336273E-03 
2204	 3.3225033100897E-03 
2205	 5.54550395296107E-03 
2206	 8.19946050250558E-03 
2207	 8.41050931847405E-03 
2208	 8.29993596932777E-03 
2209	 6.7731866428155E-03 
2210	 5.04847216746731E-03 
2211	 5.51425784327507E-03 
2212	 6.36286010534453E-03 
2213	 7.37372806529733E-03 
2214	 7.43260159245839E-03 
2215	 6.47752949160558E-03 
2216	 7.05818850274843E-03 
2217	 6.69608407850844E-03 
2218	 5.6361346322929E-03 
2219	 5.33291048862194E-03 
2220	 5.14952455463366E-03 
2221	 4.54800817511748E-03 
2222	 4.38253292488568E-03 
2223	 4.23402064036641E-03 
2224	 3.19407759143906E-03 
2225	 3.27988221926898E-03 
2226	 5.29284849424556E-03 
2227	 5.06220911066934E-03 
2228	 3.21858891984809E-03 
2229	 2.85305918122088E-03 
2230	 1.54744323604886E-03 
2231	 1.75535018777918E-03 
2232	 5.16169705745613E-03 
2233	 5.80920029147628E-03 
2234	 5.48097010700508E-03 
2235	 4.31369485683423E-03 
2236	 3.71064198606839E-03 
2237	 4.5266221681778E-03 
2238	 6.0884313850257E-03 
2239	 7.30934318191862E-03 
2240	 6.44773883769523E-03 
2241	 0.00492631788169 
2242	 5.21478073023435E-03 
2243	 5.14814700072745E-03 
2244	 4.3458371248804E-03 
2245	 4.61735224716899E-03 
2246	 3.81269312474856E-03 
2247	 2.81992779213248E-03 
2248	 3.25904484476959E-03 
2249	 3.44126457757897E-03 
2250	 4.5868843817159E-03 
2251	 6.44790002308685E-03 
2252	 8.14351849305068E-03 
2253	 9.30979158344674E-03 
2254	 8.52800333401878E-03 
2255	 7.57262621848517E-03 
2256	 6.29184424812874E-03 
2257	 5.35966452594113E-03 
2258	 5.56382447256736E-03 
2259	 4.91717755092667E-03 
2260	 4.93061783103116E-03 
2261	 5.95972191230398E-03 
2262	 5.80493894415349E-03 
2263	 4.86203759938991E-03 
2264	 0.005318015263264 
2265	 5.98993334510807E-03 
2266	 5.66642046244353E-03 
2267	 6.11106268425149E-03 
2268	 5.9413510963471E-03 
2269	 4.18163159174782E-03 
2270	 3.56704512998108E-03 
2271	 4.11663668615689E-03 
2272	 3.82219124908964E-03 
2273	 2.12617483406767E-03 
2274	 2.31873857707284E-03 
2275	 4.01573248606005E-03 
2276	 4.57073080585426E-03 
2277	 6.09628189905073E-03 
2278	 6.17169838986954E-03 
2279	 3.76232451267702E-03 
2280	 3.23256327904182E-03 
2281	 3.00784562969562E-03 
2282	 3.33438144502668E-03 
2283	 4.67518435110792E-03 
2284	 6.67747067312729E-03 
2285	 7.56619603358656E-03 
2286	 9.15750441210392E-03 
2287	 9.88997072517416E-03 
2288	 8.04623161493386E-03 
2289	 5.90293063653215E-03 
2290	 3.26247893719551E-03 
2291	 1.15940523959283E-03 
2292	 1.74336690362734E-03 
2293	 2.83598387887386E-03 
2294	 4.3467678414276E-03 
2295	 6.57215962944918E-03 
2296	 5.10795722057085E-03 
2297	 2.64131898034076E-03 
2298	 4.21168648157208E-03 
2299	 4.67055909369083E-03 
2300	 4.79938019141164E-03 
2301	 6.87334167768407E-03 
2302	 4.44849892709294E-03 
2303	 2.23180402083694E-03 
2304	 3.4054539884464E-03 
2305	 4.79744272215651E-03 
2306	 7.1990512118976E-03 
2307	 4.83146233996063E-03 
2308	 2.12159641172506E-03 
2309	 3.94474435552352E-03 
2310	 1.2346927146577E-03 
2311	 2.92264138669416E-03 
2312	 9.85123320168304E-03 
2313	 7.03305088904488E-03 
2314	 5.47973816355917E-03 
2315	 5.81163061186397E-03 
2316	 6.87250517088109E-05 
2317	-2.8277774897771E-03 
2318	-2.3975126504404E-03 
2319	 6.72453018218166E-05 
2320	-9.94637946349152E-04 
2321	-2.59031050532568E-03 
2322	 1.89518965750091E-03 
2323	 2.1077032366728E-03 
2324	 4.18845971405989E-03 
2325	 7.69957649985851E-03 
2326	 5.03417415843576E-03 
2327	 3.11001052973577E-03 
2328	-1.0819694510995E-03 
2329	-4.98655610276389E-03 
2330	-5.7670076084564E-03 
2331	-6.85947934094804E-03 
2332	-5.32398286674445E-03 
2333	 8.24123952486295E-04 
2334	 4.44565756845425E-03 
2335	 1.15934795914807E-03 
2336	-1.07215145479297E-03 
2337	-1.9424547070876E-03 
2338	-5.7359106246003E-03 
2339	-5.41357366838761E-03 
2340	-1.37749363554914E-03 
2341	-1.17571971689539E-03 
2342	 2.61537251680312E-03 
2343	 9.70720821801592E-03 
2344	 7.67495420684798E-03 
2345	 1.11819716249732E-03 
2346	-4.37580440585973E-03 
2347	-1.03125572065778E-02 
2348	-6.7165726042467E-03 
2349	 4.55287841312006E-03 
2350	 4.93495967083002E-03 
2351	 1.31617796581758E-03 
2352	 3.84577713066976E-04 
2353	-7.90399089104693E-03 
2354	-9.60024365496672E-03 
2355	-0.012442479928571 
2356	-1.56919460038746E-02 
2357	-3.09265801278298E-03 
2358	-2.04428859477509E-03 
2359	-4.32636100387926E-03 
2360	-7.06559338147077E-04 
2361	-7.27860561499122E-03 
2362	-9.83390283202368E-03 
2363	-5.42264830720834E-03 
2364	 1.68693722844301E-03 
2365	 9.81495610067154E-03 
2366	 1.54620183151913E-02 
2367	 1.86161249900128E-02 
2368	 1.19313898225694E-02 
2369	 7.25215997171265E-03 
2370	 1.05920336603081E-02 
2371	 1.51681807370044E-03 
2372	-8.21641922367295E-03 
2373	-0.003353049376665 
2374	-6.51786509379671E-03 
2375	-1.91200016664941E-02 
2376	-2.83677862256264E-02 
2377	-3.51873365173335E-02 
2378	-5.06966568759188E-02 
2379	-5.02751604593401E-02 
2380	-2.11190879568727E-02 
2381	-3.18985782921086E-02 
2382	-6.18612126310922E-02 
2383	-0.053444190869105 
2384	-4.26571501344844E-02 
2385	-2.93110398632467E-02 
2386	-6.43377367508923E-03 
2387	-1.71073970478583E-02 
2388	-4.34501249006041E-02 
2389	-0.046317851509022 
2390	-4.22363991449623E-02 
2391	-4.19514260242957E-02 
2392	-4.18338334668702E-02 
2393	-4.04286420244821E-02 
2394	-3.48402128873978E-02 
2395	-1.40008259443684E-02 
2396	-0.019067429829615 
2397	-4.67426279175111E-02 
2398	-6.04397320903555E-02 
2399	-9.39563760517318E-02 
2400	-9.05155591012399E-02 
2401	-7.03448026081731E-02 
2402	-8.66043537883007E-02 
2403	-8.47466608110465E-02 
2404	-8.63947171259802E-02 
2405	-7.52106252042859E-02 
2406	-5.67888114053528E-02 
2407	-6.20330542065818E-02 
2408	-5.53650499913436E-02 
2409	-6.71930862899822E-02 
2410	-0.069587189792968 
2411	-0.022731450984222 
2412	-3.82189132363037E-03 
2413	-1.80637111656982E-02 
2414	 1.85942117691038E-02 
2415	 2.69692968062678E-02 
2416	 8.20604568539555E-03 
2417	-1.40278042264896E-02 
2418	-9.83102179658003E-02 
2419	-0.186775437230755 
2420	-0.230158765708641 
2421	-0.156936696968196 
2422	-9.17898361225968E-02 
2423	-5.31267313623135E-02 
2424	 6.96494214866799E-03 
2425	 9.26058532585181E-03 
2426	-0.017014428204389 
2427	-5.65490758415995E-02 
2428	-9.40245359718359E-02 
2429	-9.03197761051151E-02 
2430	-0.108473782334022 
2431	-0.124579359638003 
2432	-0.111537602236557 
2433	-0.126517413032474 
2434	-0.115484640098597 
2435	-9.07295785664754E-02 
2436	-6.23857755332227E-02 
2437	-5.87116922820415E-02 
2438	-0.121637072175345 
2439	-8.11449258847518E-02 
2440	-4.49991940724003E-02 
2441	-9.27942537725625E-02 
2442	 7.64300746570778E-03 
2443	 5.96814714893827E-02 
2444	-5.20794663539817E-03 
2445	 4.14241195411677E-02 
2446	 2.60527971579482E-02 
2447	-6.50723831145939E-02 
2448	-0.101561051726435 
2449	-0.219487983346061 
2450	-0.585970909759545 
2451	-0.670658857290066 
2452	-0.963150419183628 
2453	-1.29984278668755 
2454	-0.873896171602876 
2455	-0.332055192046458 
2456	-0.182660028941348 
2457	-0.137543316703295 
2458	-0.231452283035205 
2459	-0.351574978362659 
2460	-0.220794871712948 
2461	-0.228416960889239 
2462	-0.21198765406783 
2463	-0.183122050922048 
2464	-0.255132025044271 
2465	-0.149018489269158 
2466	-0.10168332095758 
2467	-0.227452429816699 
2468	-0.359257204921219 
2469	-0.537304609325051 
2470	-0.52327691493523 
2471	-0.424519089814504 
2472	-0.270788457529946 
2473	-0.178754787141406 
2474	-0.447173524970291 
2475	-0.807423076658068 
2476	-0.793113085275462 
2477	-0.897581219645378 
2478	-2.0499987797656 
2479	-1.79713098383243 
2480	-1.49962412276449 
2481	-1.5124736149905 
2482	-0.496125683027325 
2483	-0.281166819627833 
2484	 2.59466483019569E-02 
2485	-2.07216728943486E-02 
2486	-1.21235932664318 
2487	-1.24242193293201 
2488	-0.390174169332307 
2489	-0.318443573195032 
2490	-0.125901423541037 
2491	-3.01226123912136E-02 
2492	-0.138488029550854 
2493	 0.367016288993785 
2494	 0.521626088448946 
2495	 0.858956702007084 
2496	-0.998549024377417 
2497	-6.9794630806003 
2498	-3.54508995337525 
2499	-5.48497467683996 
2500	-9.81044531606558 
