Wavelength	rt0721far00001.asd
350	 2.78497132739315E-02 
351	 2.73041204303375E-02 
352	 0.026986284284039 
353	 2.72874871497492E-02 
354	 2.79671768628628E-02 
355	 2.76261393590608E-02 
356	 0.027490978193228 
357	 2.77121133174382E-02 
358	 0.028009924699505 
359	 2.78863749858198E-02 
360	 2.74661758293703E-02 
361	 2.70079216787197E-02 
362	 2.68423573485614E-02 
363	 2.73483571313689E-02 
364	 2.76229473928241E-02 
365	 2.73662725848149E-02 
366	 2.74025295101778E-02 
367	 2.68902994607388E-02 
368	 2.65600136743653E-02 
369	 2.70446835856009E-02 
370	 2.72105309802094E-02 
371	 2.75082429186545E-02 
372	 2.77174466174642E-02 
373	 2.73583709191374E-02 
374	 2.72245706930875E-02 
375	 2.71964814282545E-02 
376	 2.72585169385006E-02 
377	 2.76572646006419E-02 
378	 2.79922742827772E-02 
379	 2.80026779126833E-02 
380	 2.77400547760448E-02 
381	 2.80462215143568E-02 
382	 2.81942084206914E-02 
383	 2.81530515183444E-02 
384	 2.82593768885181E-02 
385	 2.88454639508539E-02 
386	 2.90206351749572E-02 
387	 2.88614741427658E-02 
388	 2.95258362896448E-02 
389	 0.029261364108736 
390	 0.029034541174828 
391	 2.95740383441428E-02 
392	 2.98076416418896E-02 
393	 0.029787517767075 
394	 2.96765447434859E-02 
395	 2.96681575404041E-02 
396	 2.97185828210447E-02 
397	 3.00158062682044E-02 
398	 3.03769943646433E-02 
399	 3.03489205381698E-02 
400	 3.04061694906432E-02 
401	 3.05058757218375E-02 
402	 3.05926168629525E-02 
403	 3.07895437854871E-02 
404	 3.09006604057104E-02 
405	 3.09467371217422E-02 
406	 3.10163800309456E-02 
407	 0.031063341454898 
408	 3.11568456902109E-02 
409	 3.12788969382267E-02 
410	 3.13322009414979E-02 
411	 3.15224446066166E-02 
412	 3.17086456790793E-02 
413	 3.17830167753854E-02 
414	 3.18446964428841E-02 
415	 3.20365269507858E-02 
416	 3.22430167280595E-02 
417	 3.23120138142297E-02 
418	 3.25836481625572E-02 
419	 3.28858341178639E-02 
420	 3.30970073883571E-02 
421	 3.31971913528657E-02 
422	 3.33871803652855E-02 
423	 0.033694513259855 
424	 3.40301705804534E-02 
425	 3.40767152906783E-02 
426	 3.43510906614181E-02 
427	 3.47008009612262E-02 
428	 3.47498402822973E-02 
429	 3.50540736433679E-02 
430	 3.54204390899066E-02 
431	 3.57267810389425E-02 
432	 3.60203282911087E-02 
433	 3.62087642172788E-02 
434	 3.64198791904194E-02 
435	 3.67588586465892E-02 
436	 3.71501730395059E-02 
437	 3.73952498811349E-02 
438	 0.037551995566278 
439	 3.78140758542908E-02 
440	 0.038198851257903 
441	 3.85395445411347E-02 
442	 3.87566510452724E-02 
443	 3.89196946476433E-02 
444	 3.92293957883242E-02 
445	 3.95744840318564E-02 
446	 3.98002269028237E-02 
447	 0.039952394619261 
448	 4.01551402234673E-02 
449	 4.04107911316052E-02 
450	 4.06296898320053E-02 
451	 4.07871744002939E-02 
452	 4.09536829147397E-02 
453	 4.11533322377076E-02 
454	 4.12807781450979E-02 
455	 4.14619821550573E-02 
456	 4.16041683877709E-02 
457	 4.16086804784813E-02 
458	 4.17863151887087E-02 
459	 4.18761099038247E-02 
460	 0.0418950455618 
461	 4.21443547741776E-02 
462	 4.22619105614686E-02 
463	 4.23438289486962E-02 
464	 4.24980402676821E-02 
465	 4.26046564244558E-02 
466	 4.27253260987062E-02 
467	 0.042884574451626 
468	 4.30696012269549E-02 
469	 4.31343450705232E-02 
470	 4.32229108043809E-02 
471	 4.33845224294502E-02 
472	 4.35076247510487E-02 
473	 4.35704120809895E-02 
474	 4.37109042594533E-02 
475	 4.39956295957796E-02 
476	 4.40769916350472E-02 
477	 4.42484839174284E-02 
478	 4.44717069621412E-02 
479	 4.45165644152691E-02 
480	 4.47418837649233E-02 
481	 4.50148621177278E-02 
482	 4.52276242459619E-02 
483	 4.54610965184953E-02 
484	 4.55962198527118E-02 
485	 4.57683153203807E-02 
486	 4.61280617397569E-02 
487	 4.63770772238683E-02 
488	 4.66542186466768E-02 
489	 0.046977251549095 
490	 4.72317623735169E-02 
491	 4.74552465014121E-02 
492	 4.77141072222861E-02 
493	 4.80276052981654E-02 
494	 4.82627444627676E-02 
495	 4.86211931573147E-02 
496	 4.90330304057704E-02 
497	 4.93158964054123E-02 
498	 4.96069995192217E-02 
499	 4.99138756760801E-02 
500	 5.02511732411573E-02 
501	 5.06664460818871E-02 
502	 5.10250293078951E-02 
503	 5.13441697965418E-02 
504	 5.16795416476552E-02 
505	 5.20278664214287E-02 
506	 5.24291784329832E-02 
507	 5.28662853609194E-02 
508	 0.05327210095054 
509	 5.35388089542497E-02 
510	 5.38456747728302E-02 
511	 5.43061518198963E-02 
512	 5.47944280771818E-02 
513	 5.52088020842616E-02 
514	 5.56096545524938E-02 
515	 0.0561153621544 
516	 5.66558156469988E-02 
517	 0.057212359774894 
518	 5.77681413573726E-02 
519	 5.83089045735801E-02 
520	 5.87376070796968E-02 
521	 0.059162688959649 
522	 5.96997132134364E-02 
523	 6.03240454505938E-02 
524	 6.08868869525973E-02 
525	 6.13818154398671E-02 
526	 6.19094392210009E-02 
527	 6.24972499900033E-02 
528	 6.30424239868897E-02 
529	 6.35220191166688E-02 
530	 6.41088450065857E-02 
531	 0.064715164372327 
532	 6.52956112555317E-02 
533	 6.58342412372499E-02 
534	 0.066425975537275 
535	 6.69882545827563E-02 
536	 6.75153428289371E-02 
537	 6.80946055509657E-02 
538	 6.86534472691518E-02 
539	 6.92123269833141E-02 
540	 6.97978965460023E-02 
541	 7.03852155112764E-02 
542	 7.09743817157586E-02 
543	 0.071551754814543 
544	 0.072103022071671 
545	 7.26606417367899E-02 
546	 7.32592447387887E-02 
547	 7.38680120329929E-02 
548	 7.43235512588558E-02 
549	 7.48514934139349E-02 
550	 7.54496480190481E-02 
551	 7.60333126690767E-02 
552	 7.65570568935754E-02 
553	 7.70641938514407E-02 
554	 7.75850667263236E-02 
555	 7.81254211994247E-02 
556	 7.86972398532482E-02 
557	 7.92342875262102E-02 
558	 7.96929393003535E-02 
559	 8.01829867235505E-02 
560	 8.06433591433711E-02 
561	 8.10690482106414E-02 
562	 8.14905716530699E-02 
563	 8.18994459757148E-02 
564	 8.22617800490115E-02 
565	 8.25711944932556E-02 
566	 8.28775183199721E-02 
567	 8.32315651615857E-02 
568	 8.35245600337938E-02 
569	 8.36479437082343E-02 
570	 8.38682087310974E-02 
571	 8.40543149375861E-02 
572	 0.084197597410396 
573	 8.44395422995713E-02 
574	 8.46249493611787E-02 
575	 8.46962997091063E-02 
576	 8.46855063276721E-02 
577	 8.48396071852074E-02 
578	 8.48917773835168E-02 
579	 0.084812046443872 
580	 8.47230135509736E-02 
581	 8.46626551990039E-02 
582	 8.45395259183575E-02 
583	 8.43146492749516E-02 
584	 8.40760954546948E-02 
585	 8.37924335800579E-02 
586	 8.33916385802098E-02 
587	 8.28344196486347E-02 
588	 8.23988180321629E-02 
589	 8.19868829986646E-02 
590	 8.15928015712932E-02 
591	 8.12945501187349E-02 
592	 8.08715955558467E-02 
593	 8.03329210576464E-02 
594	 7.97384424051813E-02 
595	 7.91139687443409E-02 
596	 7.83603989422947E-02 
597	 7.75142400132851E-02 
598	 7.66870769223981E-02 
599	 7.58291226176434E-02 
600	 7.50730133302215E-02 
601	 7.45040077563047E-02 
602	 7.40966503915055E-02 
603	 7.37396733919893E-02 
604	 7.34658342806269E-02 
605	 7.33370978764672E-02 
606	 0.073291179351979 
607	 0.073212409463892 
608	 7.31198441333014E-02 
609	 7.31662620555861E-02 
610	 7.32051910152593E-02 
611	 7.31934561250637E-02 
612	 7.31210635647521E-02 
613	 7.29810780061527E-02 
614	 7.29970359680227E-02 
615	 7.30538344113448E-02 
616	 7.28928564317911E-02 
617	 7.28849778968312E-02 
618	 7.28471733790836E-02 
619	 0.072703080879923 
620	 7.26444959786129E-02 
621	 7.25427474142144E-02 
622	 7.24721796866197E-02 
623	 7.25058625708986E-02 
624	 7.24102193642702E-02 
625	 7.22287143225299E-02 
626	 7.20682056579263E-02 
627	 7.20683016216421E-02 
628	 7.19803857590148E-02 
629	 7.19084378341576E-02 
630	 7.19321713789962E-02 
631	 7.18989383462608E-02 
632	 7.17560135929169E-02 
633	 7.16413555577858E-02 
634	 7.17207748981578E-02 
635	 7.15821366891213E-02 
636	 7.14168621618791E-02 
637	 7.13344298159562E-02 
638	 7.12444775924571E-02 
639	 7.10743911994675E-02 
640	 7.09325772940528E-02 
641	 7.08968753325009E-02 
642	 7.06784123381321E-02 
643	 7.04928417949318E-02 
644	 7.03178098378976E-02 
645	 6.99495298481065E-02 
646	 0.069642504117729 
647	 6.94446431857736E-02 
648	 6.93159648661008E-02 
649	 0.069098203000358 
650	 0.068952592871779 
651	 0.06877530904218 
652	 0.068406639614487 
653	 6.79772540991218E-02 
654	 6.74839895642003E-02 
655	 6.69518687496909E-02 
656	 6.65184802323233E-02 
657	 6.60185128959694E-02 
658	 6.55705782197572E-02 
659	 6.52609197134081E-02 
660	 6.49695128231011E-02 
661	 6.46254940535148E-02 
662	 6.43286230810809E-02 
663	 6.42512168325753E-02 
664	 6.40407689207006E-02 
665	 6.38793511737071E-02 
666	 6.38403935465473E-02 
667	 6.36850883395806E-02 
668	 6.35462279317075E-02 
669	 6.34175244424931E-02 
670	 6.32745712085542E-02 
671	 0.063214048189725 
672	 6.31915056690124E-02 
673	 6.31600331630906E-02 
674	 6.30800883136005E-02 
675	 6.29478556675171E-02 
676	 6.28425265873599E-02 
677	 6.28076152062745E-02 
678	 6.27666569703069E-02 
679	 6.26968841693258E-02 
680	 6.26198985225352E-02 
681	 6.25761885070026E-02 
682	 6.25601482597217E-02 
683	 6.25488983377341E-02 
684	 6.24631811359644E-02 
685	 6.21288711897192E-02 
686	 6.18914138602754E-02 
687	 6.17605191233809E-02 
688	 6.16274107437609E-02 
689	 6.14552606575768E-02 
690	 6.11475437278541E-02 
691	 6.07499391473702E-02 
692	 6.03777881122289E-02 
693	 5.99261378367313E-02 
694	 5.94542918074547E-02 
695	 5.90326963144375E-02 
696	 5.86714444896263E-02 
697	 0.058070063204858 
698	 5.73204991098807E-02 
699	 5.66351683300031E-02 
700	 5.58709429259665E-02 
701	 5.50703949153665E-02 
702	 0.05428063022988 
703	 5.35117534370527E-02 
704	 5.27205438843076E-02 
705	 5.18062256518163E-02 
706	 5.07670103101111E-02 
707	 4.97612559957971E-02 
708	 4.86556233313475E-02 
709	 4.74474837464062E-02 
710	 0.046185325946985 
711	 4.49271306844816E-02 
712	 4.35583934958587E-02 
713	 4.20644783878471E-02 
714	 4.05079338292857E-02 
715	 3.89668325814199E-02 
716	 3.73450802070534E-02 
717	 3.56625986894559E-02 
718	 3.39136886168337E-02 
719	 3.24085729564461E-02 
720	 3.12401463618612E-02 
721	 3.00978030593145E-02 
722	 2.89619310774765E-02 
723	 2.75694229402757E-02 
724	 2.60646863979471E-02 
725	 2.47471186411877E-02 
726	 2.35386422117475E-02 
727	 2.22160974791314E-02 
728	 2.07127273169876E-02 
729	 1.94293077967851E-02 
730	 1.81208659104146E-02 
731	 1.68882747322333E-02 
732	 1.58895185271901E-02 
733	 1.51885290855661E-02 
734	 0.014518784886661 
735	 0.013854464041846 
736	 1.34835741174429E-02 
737	 1.31829689117857E-02 
738	 1.29050918889726E-02 
739	 1.26831435474907E-02 
740	 1.26608015265641E-02 
741	 1.25683097226249E-02 
742	 1.24305635237051E-02 
743	 1.24069268743044E-02 
744	 1.23577529361735E-02 
745	 1.23409270819606E-02 
746	 1.23615666281203E-02 
747	 1.23302656679482E-02 
748	 1.23062010717323E-02 
749	 1.23000922467383E-02 
750	 1.22920547805663E-02 
751	 1.21940090804471E-02 
752	 1.21639396321308E-02 
753	 1.21815436780789E-02 
754	 1.21502011043131E-02 
755	 1.22570452639202E-02 
756	 1.22476540717393E-02 
757	 1.20972670120061E-02 
758	 1.21898022340633E-02 
759	 1.21413661117825E-02 
760	 1.20191152750098E-02 
761	 1.21135052902386E-02 
762	 1.19793766444738E-02 
763	 1.19981359298001E-02 
764	 1.21364427812036E-02 
765	 1.22363527349636E-02 
766	 0.012287459559557 
767	 1.23285054721686E-02 
768	 1.23858138089154E-02 
769	 1.24730599115579E-02 
770	 0.012515842171008 
771	 1.26275981467756E-02 
772	 1.28235216928846E-02 
773	 1.27361988003205E-02 
774	 1.27562200313991E-02 
775	 1.29172109997219E-02 
776	 1.30823247281564E-02 
777	 0.013139238610131 
778	 1.32197338907446E-02 
779	 1.33571711756564E-02 
780	 1.34700590122215E-02 
781	 1.35988948091662E-02 
782	 1.37642358752504E-02 
783	 1.39588399839983E-02 
784	 0.014133219147175 
785	 1.41597334579224E-02 
786	 1.42054000175833E-02 
787	 1.44684633671263E-02 
788	 0.014683717464809 
789	 1.49084241179541E-02 
790	 1.51123413055297E-02 
791	 1.52136508301236E-02 
792	 1.54029898382589E-02 
793	 1.56866412102547E-02 
794	 1.59670568646797E-02 
795	 1.60119158215431E-02 
796	 1.62845387065961E-02 
797	 1.65224299090763E-02 
798	 0.016485068126302 
799	 1.66944770881321E-02 
800	 1.69161082619618E-02 
801	 1.70261623359646E-02 
802	 1.70150467035595E-02 
803	 1.71201862646859E-02 
804	 1.73875487130927E-02 
805	 1.76064735640018E-02 
806	 1.73588287731157E-02 
807	 1.73156682408366E-02 
808	 0.01740203013716 
809	 1.74178616594398E-02 
810	 1.72417618458603E-02 
811	 1.70573426394389E-02 
812	 1.68672288360374E-02 
813	 1.66118309314817E-02 
814	 1.63293273732926E-02 
815	 1.61635068758137E-02 
816	 1.60361847520466E-02 
817	 1.57128984685469E-02 
818	 1.52904219108017E-02 
819	 1.50765383256324E-02 
820	 1.49921420894007E-02 
821	 1.44972728620035E-02 
822	 1.38906274767676E-02 
823	 1.33757132764817E-02 
824	 1.29755024753006E-02 
825	 1.23387808414033E-02 
826	 1.16646696852325E-02 
827	 1.09959672380214E-02 
828	 1.03813947061085E-02 
829	 9.89964748904481E-03 
830	 9.53329387310437E-03 
831	 9.15834885885219E-03 
832	 8.65471368714644E-03 
833	 8.51307226340328E-03 
834	 8.42171871179469E-03 
835	 8.19737725386549E-03 
836	 7.95706319725785E-03 
837	 8.03370786660764E-03 
838	 8.11180465185093E-03 
839	 7.93713007433788E-03 
840	 7.77140423601157E-03 
841	 7.70766543319899E-03 
842	 7.72172562181542E-03 
843	 7.7327590279999E-03 
844	 7.70078897288802E-03 
845	 7.58253200367683E-03 
846	 7.41638877218008E-03 
847	 7.30467750131272E-03 
848	 7.39240937521535E-03 
849	 7.35355780023471E-03 
850	 7.16959674149374E-03 
851	 7.25295937197235E-03 
852	 7.22455999032068E-03 
853	 7.08949436966633E-03 
854	 6.96139917780554E-03 
855	 6.98947417101582E-03 
856	 7.05844422207623E-03 
857	 7.03720346866944E-03 
858	 6.88557861716703E-03 
859	 6.87370155663417E-03 
860	 6.8754465839862E-03 
861	 6.90616374601648E-03 
862	 6.99399901950331E-03 
863	 6.78700723357219E-03 
864	 6.65728996865034E-03 
865	 6.68423574356925E-03 
866	 6.63983327829528E-03 
867	 6.58042993963313E-03 
868	 6.46185425361785E-03 
869	 6.40137698284228E-03 
870	 6.71085033528952E-03 
871	 6.90597277236481E-03 
872	 6.77998505472901E-03 
873	 6.4117894688849E-03 
874	 6.34074793690798E-03 
875	 6.22856228260398E-03 
876	 6.15817779331897E-03 
877	 6.2432694425515E-03 
878	 6.26539298888716E-03 
879	 6.18625453876124E-03 
880	 6.03494967729058E-03 
881	 5.89145860826098E-03 
882	 5.84906111249355E-03 
883	 5.94645095221174E-03 
884	 6.03235806338683E-03 
885	 5.87683992540917E-03 
886	 5.77918010713788E-03 
887	 5.81169875116811E-03 
888	 5.88062595825847E-03 
889	 5.7568122165446E-03 
890	 5.5580705289592E-03 
891	 5.57049326248806E-03 
892	 5.81815173808563E-03 
893	 5.77626691143447E-03 
894	 5.71992122143238E-03 
895	 5.66727370974736E-03 
896	 5.62969304581784E-03 
897	 5.81523937320369E-03 
898	 5.66586694906226E-03 
899	 5.49913383985602E-03 
900	 5.67803385868693E-03 
901	 5.58259921313894E-03 
902	 5.3517623023579E-03 
903	 5.26129186309808E-03 
904	 5.47585972914735E-03 
905	 5.39112447493462E-03 
906	 5.30509852547004E-03 
907	 5.36576886629505E-03 
908	 5.48678655538583E-03 
909	 4.87980717582119E-03 
910	 4.78568214207226E-03 
911	 5.39882521987143E-03 
912	 5.75370244879035E-03 
913	 5.19300923201755E-03 
914	 4.90084140010839E-03 
915	 5.22536644120002E-03 
916	 5.28480452639939E-03 
917	 4.94348779662353E-03 
918	 4.61343656999367E-03 
919	 4.50780393492102E-03 
920	 4.47018149144399E-03 
921	 4.43173516868299E-03 
922	 4.75530361215195E-03 
923	 5.33822246972158E-03 
924	 4.93665569010789E-03 
925	 4.13837179276927E-03 
926	 3.76669811281946E-03 
927	 4.30344263022759E-03 
928	 4.48149143406978E-03 
929	 4.32942373576868E-03 
930	 3.69152509693959E-03 
931	 2.67655327301699E-03 
932	 3.00087999372368E-03 
933	 2.27216102259864E-03 
934	 2.68951471945157E-03 
935	 6.72973534232068E-03 
936	 8.63584355473868E-03 
937	 7.61626883811268E-03 
938	 5.77603896869881E-03 
939	 5.18994584192987E-03 
940	 5.15084948009465E-03 
941	 4.51258867439958E-03 
942	 3.65921054977505E-03 
943	 3.96374214282675E-03 
944	 7.30051842209753E-03 
945	 9.24363587605627E-03 
946	 7.92646688120353E-03 
947	 4.62878746962937E-03 
948	 4.85220526893599E-03 
949	 5.4672594528534E-03 
950	 5.08801609538824E-03 
951	 4.12200521753039E-03 
952	 3.88015240503235E-03 
953	 5.01002217642634E-03 
954	 5.50566327011722E-03 
955	 3.14000331343198E-03 
956	 5.20495263672314E-03 
957	 5.20361980221516E-03 
958	 3.37923457117266E-03 
959	 4.34895878637121E-03 
960	 3.26028277080173E-03 
961	 4.04693870505668E-03 
962	 5.30140798190309E-03 
963	 2.90386534351622E-03 
964	 3.06140341760403E-03 
965	 3.99918986723672E-03 
966	 4.20162971988023E-03 
967	 3.2358861188337E-03 
968	 2.6886009393052E-03 
969	 3.26155908127491E-03 
970	 3.9826409751124E-03 
971	 3.1196725320507E-03 
972	 4.14948459861556E-03 
973	 4.40411415733289E-03 
974	 3.58173446183666E-03 
975	 4.0914217768833E-03 
976	 5.11543168293606E-03 
977	 4.54597992291854E-03 
978	 3.45674265006503E-03 
979	 4.83641135126324E-03 
980	 4.17505416155775E-03 
981	 3.50356893640098E-03 
982	 3.73906685666948E-03 
983	 4.25787889896214E-03 
984	 4.62694720005698E-03 
985	 5.07348627028492E-03 
986	 5.18680699598146E-03 
987	 4.34065960625679E-03 
988	 4.40673641546109E-03 
989	 3.40118056780935E-03 
990	 2.33770862796681E-03 
991	 3.80529162133826E-03 
992	 3.45089123624982E-03 
993	 3.96825691953699E-03 
994	 4.84113510039716E-03 
995	 3.77779320019956E-03 
996	 4.43872457006773E-03 
997	 4.27580056981938E-03 
998	 4.0978296166967E-03 
999	 5.85892452157855E-03 
1000	 4.31980650751892E-03 
1001	 3.62959803292701E-03 
1002	 4.28308728155126E-03 
1003	 4.4521663339036E-03 
1004	 4.31756699140619E-03 
1005	 4.22583167757364E-03 
1006	 3.87833225432666E-03 
1007	 3.66765565967177E-03 
1008	 3.52972246951939E-03 
1009	 3.50227182397586E-03 
1010	 3.84809014290508E-03 
1011	 3.70087779298497E-03 
1012	 3.44594752557307E-03 
1013	 3.31350747444688E-03 
1014	 3.23339631922081E-03 
1015	 2.94727147567919E-03 
1016	 3.06189117400287E-03 
1017	 3.67235618560721E-03 
1018	 3.86076098092841E-03 
1019	 3.97612130247711E-03 
1020	 4.02093146603119E-03 
1021	 3.82615027576942E-03 
1022	 3.76043984042367E-03 
1023	 3.75226554970171E-03 
1024	 3.95821253152269E-03 
1025	 4.10417108365288E-03 
1026	 4.15321943308264E-03 
1027	 4.17037023227641E-03 
1028	 4.10416294692183E-03 
1029	 4.02817468677601E-03 
1030	 3.92649353183329E-03 
1031	 3.81508754515953E-03 
1032	 3.59179451425181E-03 
1033	 3.52622411172039E-03 
1034	 3.51346636901416E-03 
1035	 3.53272180588344E-03 
1036	 3.63034947362887E-03 
1037	 3.73498434362723E-03 
1038	 3.92904539403947E-03 
1039	 4.07641754307338E-03 
1040	 4.03181382046643E-03 
1041	 4.01457865488671E-03 
1042	 3.99001435007115E-03 
1043	 3.83469976740386E-03 
1044	 3.8082602832198E-03 
1045	 3.88666003666352E-03 
1046	 3.90152486993074E-03 
1047	 3.82956807010903E-03 
1048	 3.89187259159744E-03 
1049	 4.10253550822345E-03 
1050	 4.17149979274901E-03 
1051	 4.28623279294056E-03 
1052	 4.30741122515238E-03 
1053	 4.15229896474841E-03 
1054	 4.07357211947727E-03 
1055	 3.9236660368884E-03 
1056	 3.89775911877948E-03 
1057	 3.93599146530708E-03 
1058	 4.07127328815718E-03 
1059	 4.09792483848444E-03 
1060	 4.19726910603445E-03 
1061	 4.20183338934646E-03 
1062	 4.10362383821305E-03 
1063	 4.01320630134066E-03 
1064	 3.87254439137145E-03 
1065	 0.003813747119662 
1066	 3.76884173756265E-03 
1067	 3.69803540373006E-03 
1068	 3.52767232233908E-03 
1069	 3.61471646637934E-03 
1070	 3.98354520176588E-03 
1071	 4.07510542505126E-03 
1072	 4.29737091068809E-03 
1073	 4.36310787320241E-03 
1074	 4.26823622164224E-03 
1075	 3.72227032553527E-03 
1076	 3.64758870399891E-03 
1077	 3.68588788008907E-03 
1078	 3.79723163198715E-03 
1079	 4.24987517392383E-03 
1080	 4.29407556764451E-03 
1081	 4.18587337817141E-03 
1082	 4.07587645194653E-03 
1083	 3.57379099356667E-03 
1084	 3.48615274334978E-03 
1085	 3.8699709329538E-03 
1086	 3.87258286360274E-03 
1087	 3.63653370007038E-03 
1088	 3.64848204893661E-03 
1089	 3.6099270825514E-03 
1090	 3.55680309946473E-03 
1091	 3.58238062421942E-03 
1092	 4.08777720435497E-03 
1093	 4.0467656333695E-03 
1094	 3.42860973915565E-03 
1095	 3.39530208768717E-03 
1096	 3.54610884255457E-03 
1097	 3.56153342291488E-03 
1098	 4.02522686503088E-03 
1099	 4.06500798922125E-03 
1100	 3.41358350000388E-03 
1101	 3.25025452949144E-03 
1102	 3.29086016337101E-03 
1103	 3.24830152677211E-03 
1104	 3.14050353439493E-03 
1105	 3.77052561682853E-03 
1106	 3.82676869009365E-03 
1107	 3.21345959319859E-03 
1108	 3.22319652961838E-03 
1109	 3.06277639323659E-03 
1110	 2.89091711877622E-03 
1111	 3.01676870842061E-03 
1112	 2.95536743794458E-03 
1113	 2.36218973854452E-03 
1114	 2.13771007502883E-03 
1115	 2.44156828910602E-03 
1116	 2.26754228105085E-03 
1117	 1.71271820913061E-03 
1118	 1.47774535465478E-03 
1119	 6.30954909762372E-04 
1120	 4.20086061741471E-04 
1121	 1.22674793219539E-03 
1122	 3.37187765402827E-03 
1123	 3.0917345092199E-03 
1124	 9.2081447997629E-04 
1125	 1.31237107988856E-04 
1126	 1.33444455620754E-03 
1127	 4.83843470910242E-04 
1128	 8.08018097598886E-04 
1129	 1.14310268757452E-03 
1130	-1.95900722621668E-03 
1131	-1.45008233824292E-03 
1132	 3.8963090235099E-03 
1133	 3.85954781891301E-03 
1134	 1.73987841326674E-03 
1135	 1.67527077505473E-03 
1136	-7.07563337524206E-04 
1137	-6.82552797693644E-04 
1138	 2.17190747039206E-03 
1139	 3.47336665542115E-03 
1140	 2.49045517747036E-03 
1141	 3.07405403089517E-03 
1142	 2.38307294833798E-03 
1143	 2.05429150561283E-03 
1144	 3.07043535843995E-03 
1145	 2.98576147448291E-03 
1146	 2.29880105820417E-03 
1147	 1.21303160136036E-03 
1148	 1.48166197805536E-03 
1149	 2.50750137422681E-03 
1150	 2.4798725715665E-03 
1151	 2.35816573795505E-03 
1152	 2.71699663940284E-03 
1153	 2.43623454344291E-03 
1154	 2.7088931836615E-03 
1155	 3.79682161000455E-03 
1156	 4.0487325322453E-03 
1157	 3.51078492700617E-03 
1158	 3.06147886981214E-03 
1159	 2.43612769800788E-03 
1160	 2.44211723701327E-03 
1161	 3.02811470945237E-03 
1162	 3.1852280447297E-03 
1163	 2.94053955561464E-03 
1164	 0.003018363496332 
1165	 2.98386898039975E-03 
1166	 2.63329467662985E-03 
1167	 3.04983480201757E-03 
1168	 3.41575342220811E-03 
1169	 2.95699780204299E-03 
1170	 2.73073830344885E-03 
1171	 2.77679093466245E-03 
1172	 2.74915074950353E-03 
1173	 2.71070762245426E-03 
1174	 2.91846389840357E-03 
1175	 3.29863517246334E-03 
1176	 3.23099575839938E-03 
1177	 2.96154945724976E-03 
1178	 3.11183023014851E-03 
1179	 3.37876859716858E-03 
1180	 3.26879475212674E-03 
1181	 2.88920592673209E-03 
1182	 2.67066063182418E-03 
1183	 2.74041644646272E-03 
1184	 2.89483075978461E-03 
1185	 3.07698817828106E-03 
1186	 3.23834025135578E-03 
1187	 3.18208027574196E-03 
1188	 2.86912398730729E-03 
1189	 2.74349786933134E-03 
1190	 2.83556342681537E-03 
1191	 2.88678471875689E-03 
1192	 2.94100711315894E-03 
1193	 3.11434860083243E-03 
1194	 3.25172891927557E-03 
1195	 3.1705554342731E-03 
1196	 2.99616357754562E-03 
1197	 2.87953123745389E-03 
1198	 2.95200414446705E-03 
1199	 3.03183247292269E-03 
1200	 3.00742233685915E-03 
1201	 2.88853928578021E-03 
1202	 2.82619118181103E-03 
1203	 2.86389897521466E-03 
1204	 2.91746994367735E-03 
1205	 2.8534594300521E-03 
1206	 2.70278788055518E-03 
1207	 2.88565219995716E-03 
1208	 3.07844191298416E-03 
1209	 2.96396269969357E-03 
1210	 2.91451647114884E-03 
1211	 2.92735877910751E-03 
1212	 2.92334895341249E-03 
1213	 3.12125975335281E-03 
1214	 3.15216043461986E-03 
1215	 3.27150000951657E-03 
1216	 2.93493978756158E-03 
1217	 2.75420781236544E-03 
1218	 2.96467772108451E-03 
1219	 0.003163435419183 
1220	 3.34246345081602E-03 
1221	 3.39732287933489E-03 
1222	 3.16337331573975E-03 
1223	 2.95222969559644E-03 
1224	 3.0089171364159E-03 
1225	 3.00508196249021E-03 
1226	 2.83427431012135E-03 
1227	 2.81416172611045E-03 
1228	 2.89032574516381E-03 
1229	 2.90070540409653E-03 
1230	 3.03667093869459E-03 
1231	 3.17239912874992E-03 
1232	 3.05737679848636E-03 
1233	 2.96567903995067E-03 
1234	 3.04833365641119E-03 
1235	 3.06800166776747E-03 
1236	 3.00761770845683E-03 
1237	 3.02261448556956E-03 
1238	 3.14897008397208E-03 
1239	 3.12208301509762E-03 
1240	 3.01334409868594E-03 
1241	 3.03565843657164E-03 
1242	 3.02409573843894E-03 
1243	 3.0190042532445E-03 
1244	 3.16773941526578E-03 
1245	 3.25064326320313E-03 
1246	 3.1051536507784E-03 
1247	 3.04471096706333E-03 
1248	 3.07537042208671E-03 
1249	 2.88624322150945E-03 
1250	 2.7730131729721E-03 
1251	 2.92126649181902E-03 
1252	 2.94987029964516E-03 
1253	 2.93787129959176E-03 
1254	 3.15081102532517E-03 
1255	 3.11331519535552E-03 
1256	 3.00763045458909E-03 
1257	 2.65127206511897E-03 
1258	 2.67704524256088E-03 
1259	 2.8238934879062E-03 
1260	 2.83648085671769E-03 
1261	 3.00790987450148E-03 
1262	 3.07086204481632E-03 
1263	 2.97108137153413E-03 
1264	 0.002902758933828 
1265	 2.95248408351646E-03 
1266	 2.98246137593247E-03 
1267	 2.97551262195899E-03 
1268	 2.98041457022241E-03 
1269	 2.97669360931469E-03 
1270	 3.09081336229667E-03 
1271	 3.17263406736464E-03 
1272	 3.16122826885133E-03 
1273	 3.29676959100147E-03 
1274	 3.32207024842848E-03 
1275	 3.15746855141924E-03 
1276	 3.09720155082389E-03 
1277	 3.10513826751942E-03 
1278	 3.02573163442678E-03 
1279	 2.93689102812318E-03 
1280	 3.02033649590527E-03 
1281	 3.03788201169139E-03 
1282	 3.02170987673121E-03 
1283	 3.00060716739423E-03 
1284	 3.02594815181233E-03 
1285	 3.02587966717515E-03 
1286	 2.95767951714042E-03 
1287	 2.93529410872208E-03 
1288	 2.92801617395791E-03 
1289	 2.95681623869992E-03 
1290	 3.00941852973127E-03 
1291	 3.14024581554095E-03 
1292	 3.06501897324906E-03 
1293	 2.83059540953666E-03 
1294	 2.79177669282231E-03 
1295	 2.93072821327653E-03 
1296	 2.97552173672724E-03 
1297	 2.88114398665032E-03 
1298	 2.77743836722615E-03 
1299	 2.53890012743867E-03 
1300	 2.52489955011022E-03 
1301	 2.80162558248192E-03 
1302	 2.88688926944545E-03 
1303	 2.89375323071599E-03 
1304	 2.93399572307992E-03 
1305	 3.00330929102751E-03 
1306	 3.02952147938557E-03 
1307	 2.90362046682828E-03 
1308	 2.85235592509325E-03 
1309	 2.88657202063274E-03 
1310	 2.85971487367082E-03 
1311	 2.73128659414218E-03 
1312	 2.70191503837842E-03 
1313	 2.74403825891273E-03 
1314	 2.83860993365701E-03 
1315	 3.10225418846294E-03 
1316	 3.01872482890357E-03 
1317	 2.68773135369381E-03 
1318	 2.66932673266747E-03 
1319	 2.57409869265869E-03 
1320	 2.42920973065582E-03 
1321	 2.47711379249536E-03 
1322	 2.59749434507851E-03 
1323	 2.49785982963972E-03 
1324	 2.84098811843816E-03 
1325	 2.93155117229202E-03 
1326	 0.002349099996212 
1327	 2.27384695440624E-03 
1328	 2.1231317876874E-03 
1329	 1.75712080678554E-03 
1330	 2.38088933682988E-03 
1331	 2.50887620894356E-03 
1332	 1.81854622627028E-03 
1333	 1.57461157130587E-03 
1334	 1.5532997019065E-03 
1335	 1.87048602893999E-03 
1336	 2.20434260251252E-03 
1337	 1.99387078857994E-03 
1338	 2.2102384246205E-03 
1339	 2.36405760584557E-03 
1340	 1.43467147469584E-03 
1341	 1.08152887135884E-03 
1342	 1.46752492645941E-03 
1343	 2.05309207192697E-03 
1344	 3.36111845169718E-03 
1345	 3.08481044486736E-03 
1346	 1.70283702194851E-03 
1347	 1.89931627933661E-03 
1348	 1.10009675304251E-03 
1349	-1.05804525680646E-03 
1350	-1.7857397083701E-03 
1351	-6.30066398266737E-04 
1352	-2.55361561656713E-03 
1353	-7.65427867668238E-03 
1354	-9.71190800176696E-03 
1355	 0.011961586929239 
1356	 1.27788525384302E-02 
1357	-1.09865821807639E-02 
1358	 5.80133530516118E-04 
1359	 2.28807644210831E-02 
1360	 1.47518627088145E-02 
1361	-2.87446793473174E-02 
1362	-8.53163172658506E-02 
1363	-8.35995066163288E-02 
1364	-9.67405300550918E-03 
1365	 7.7115057755877E-03 
1366	-0.125278763503523 
1367	-0.218468439347317 
1368	-0.175422147104265 
1369	-0.121661788420049 
1370	-0.153894039452827 
1371	-1.27089428110374E-02 
1372	 6.97917982687479E-02 
1373	-1.94665568976903E-02 
1374	-0.112757273861194 
1375	-0.141422937925856 
1376	-0.096404971884336 
1377	-8.96493082984266E-02 
1378	-0.1661757338426 
1379	-0.129106429525966 
1380	-1.32005521179199E-02 
1381	 2.09147325645989E-02 
1382	-9.02713537029222E-02 
1383	-0.480405877696193 
1384	-0.316092019777855 
1385	 0.101164979375557 
1386	 3.28042501899116E-02 
1387	 0.123027364679337 
1388	 0.39476628734388 
1389	 0.468174763779954 
1390	 0.160858400877891 
1391	-9.43059994018381E-02 
1392	 4.49419215432503E-02 
1393	-8.02918091781232E-02 
1394	-0.160583098721557 
1395	-5.73252993777514E-02 
1396	 7.73293133688498E-02 
1397	 5.71783023962952E-02 
1398	-2.13426358267835E-02 
1399	 2.98755571008069E-02 
1400	 0.109262655744679 
1401	 0.116268105363291 
1402	 5.81896004270022E-02 
1403	-2.20734001956644E-02 
1404	-2.95453090192128E-02 
1405	 2.78197550630299E-02 
1406	-6.80812725694543E-02 
1407	-6.15950665289081E-02 
1408	 0.1442033987624 
1409	 0.138640512942549 
1410	-2.93943111292463E-02 
1411	-1.03793810750838E-02 
1412	 0.104661456900296 
1413	 8.10116945892731E-02 
1414	 1.22164521160383E-02 
1415	 1.58958871915034E-02 
1416	 1.92823475981602E-02 
1417	-1.99690054448494E-03 
1418	-4.53006454887436E-03 
1419	 1.17144652525693E-02 
1420	 1.55997236839046E-02 
1421	 2.49707051226652E-03 
1422	 5.18974297082684E-03 
1423	 7.28653685860813E-03 
1424	-7.30816896450281E-03 
1425	-1.40955026156979E-02 
1426	-1.49515192054171E-02 
1427	-8.42806798515412E-03 
1428	 6.5034140948791E-04 
1429	 2.30598697538688E-03 
1430	 1.36431952367807E-02 
1431	 1.59871250302226E-02 
1432	 6.11052325392454E-04 
1433	-3.0148415230705E-03 
1434	-8.36404355242905E-04 
1435	 2.70488777984129E-04 
1436	 5.56376298230623E-03 
1437	 8.65232737001378E-03 
1438	 8.97364010531921E-03 
1439	 6.34943176587622E-03 
1440	 3.39371902730586E-03 
1441	-2.99874639595386E-04 
1442	-3.84771748132227E-03 
1443	-2.51737514395591E-03 
1444	 1.31679785891466E-03 
1445	 4.92479691261753E-03 
1446	 4.46990096012034E-03 
1447	 3.03882749888218E-03 
1448	 1.05306075139209E-03 
1449	-1.13164173059484E-03 
1450	 2.19529553489222E-03 
1451	 4.41630802288078E-03 
1452	 2.81986576667567E-03 
1453	 2.44445062346551E-03 
1454	 2.67909037258954E-03 
1455	 2.60293053903244E-03 
1456	 1.62882353262098E-03 
1457	 6.47430997731065E-04 
1458	 1.00363575408062E-03 
1459	 7.25297148286189E-04 
1460	 1.18510818694232E-03 
1461	 3.85954127288747E-03 
1462	 4.52311588413616E-03 
1463	 4.31360602376653E-03 
1464	 3.62886292890665E-03 
1465	 9.49915138992462E-04 
1466	 1.35666622655531E-03 
1467	 3.84366156593298E-03 
1468	 3.51487065940166E-03 
1469	 3.67824339295884E-03 
1470	 4.03971445256365E-03 
1471	 1.99652185729089E-03 
1472	 7.25566029966298E-04 
1473	 4.65970423849753E-04 
1474	 1.58602515230225E-03 
1475	 3.48384157231167E-03 
1476	 3.01921664959624E-03 
1477	 2.6720610657262E-03 
1478	 3.01309356080455E-03 
1479	 1.54141609399912E-03 
1480	 1.29506383115249E-03 
1481	 3.0099777929337E-03 
1482	 3.52231499381843E-03 
1483	 3.5303428469704E-03 
1484	 3.19003288415085E-03 
1485	 2.24625795587181E-03 
1486	 2.36899477397943E-03 
1487	 2.9201921316855E-03 
1488	 2.67370198918854E-03 
1489	 2.43515197141879E-03 
1490	 2.59725380466899E-03 
1491	 2.64338700267109E-03 
1492	 2.36341747415302E-03 
1493	 2.14539717904049E-03 
1494	 2.23098621776273E-03 
1495	 2.06424416798013E-03 
1496	 1.99827610545157E-03 
1497	 2.55025199401488E-03 
1498	 2.62429383719798E-03 
1499	 2.03908893907486E-03 
1500	 1.95321014640292E-03 
1501	 2.25563267182374E-03 
1502	 2.22406909484679E-03 
1503	 2.04697393968279E-03 
1504	 2.11325717519741E-03 
1505	 2.20615028847527E-03 
1506	 2.16612336943955E-03 
1507	 2.07751418054996E-03 
1508	 2.14263272062969E-03 
1509	 2.13740167491686E-03 
1510	 1.93396335199132E-03 
1511	 2.13596332893994E-03 
1512	 2.60435997159501E-03 
1513	 2.53113542006392E-03 
1514	 2.24864683645398E-03 
1515	 2.25609863319936E-03 
1516	 2.37513485618042E-03 
1517	 2.46991408633836E-03 
1518	 2.49498150017176E-03 
1519	 2.42629622739028E-03 
1520	 2.30099593284753E-03 
1521	 2.17538551917452E-03 
1522	 2.12029899659145E-03 
1523	 2.19734963976772E-03 
1524	 2.27275738905416E-03 
1525	 2.24349852426516E-03 
1526	 2.26718213299799E-03 
1527	 2.36966215275409E-03 
1528	 2.38916372432779E-03 
1529	 2.41794632127326E-03 
1530	 2.60842395388962E-03 
1531	 2.62639155835889E-03 
1532	 2.32076978132241E-03 
1533	 2.22695780594444E-03 
1534	 2.46811918734808E-03 
1535	 2.56867685790386E-03 
1536	 2.47826689564616E-03 
1537	 2.43344048311496E-03 
1538	 2.40594633354375E-03 
1539	 2.37377380775865E-03 
1540	 2.38093026698794E-03 
1541	 2.31531151896933E-03 
1542	 2.24480550845636E-03 
1543	 2.35488739486847E-03 
1544	 2.3746177458594E-03 
1545	 2.25773993424647E-03 
1546	 2.29465727191939E-03 
1547	 2.27685706146259E-03 
1548	 2.21213371829666E-03 
1549	 2.44518245991321E-03 
1550	 2.56093779525194E-03 
1551	 2.3882053612191E-03 
1552	 2.48046322271251E-03 
1553	 2.52314338818241E-03 
1554	 2.38373495698968E-03 
1555	 2.37684305872195E-03 
1556	 2.38080634123595E-03 
1557	 2.34229601254564E-03 
1558	 2.19271833433908E-03 
1559	 2.24999833002023E-03 
1560	 2.34462385001488E-03 
1561	 2.23285099320601E-03 
1562	 2.32792073960986E-03 
1563	 2.2672666886017E-03 
1564	 1.97648318792265E-03 
1565	 2.00955471014655E-03 
1566	 2.18878612733369E-03 
1567	 2.18497712250691E-03 
1568	 2.20075530707071E-03 
1569	 2.26029295115172E-03 
1570	 2.04581056914337E-03 
1571	 1.92937324193685E-03 
1572	 2.18298794382112E-03 
1573	 2.27089232059287E-03 
1574	 2.20361082554219E-03 
1575	 2.30168450569928E-03 
1576	 2.39745705615366E-03 
1577	 2.40003917634413E-03 
1578	 2.50045536211315E-03 
1579	 2.60876569753474E-03 
1580	 2.49602464180855E-03 
1581	 2.43816788441148E-03 
1582	 2.44771175568523E-03 
1583	 2.22422855929117E-03 
1584	 2.23276241529202E-03 
1585	 2.36462749343922E-03 
1586	 2.2881418299475E-03 
1587	 2.59125805323827E-03 
1588	 2.8546023448682E-03 
1589	 2.54237368781066E-03 
1590	 2.34355737299367E-03 
1591	 2.40774297404164E-03 
1592	 2.37387199717236E-03 
1593	 2.4244474987206E-03 
1594	 2.49680030314461E-03 
1595	 2.36653698821201E-03 
1596	 2.23148982547845E-03 
1597	 2.12434842899252E-03 
1598	 2.09828126517254E-03 
1599	 2.1825485401459E-03 
1600	 2.04462605623075E-03 
1601	 1.85261875154298E-03 
1602	 2.0186694929997E-03 
1603	 2.1955130753833E-03 
1604	 2.18463949066371E-03 
1605	 2.29706469681026E-03 
1606	 2.42493854152092E-03 
1607	 2.25626872508214E-03 
1608	 2.01778193872015E-03 
1609	 2.14500453791749E-03 
1610	 2.34460260946474E-03 
1611	 2.27629689619922E-03 
1612	 2.15713479687692E-03 
1613	 2.12456949053544E-03 
1614	 2.18460169533033E-03 
1615	 2.23780142640356E-03 
1616	 2.22593710480336E-03 
1617	 2.18611983602731E-03 
1618	 2.18261364248121E-03 
1619	 2.2438284633653E-03 
1620	 2.32021741200323E-03 
1621	 2.42894498737869E-03 
1622	 2.40384544938081E-03 
1623	 2.12945262644834E-03 
1624	 2.07880931238144E-03 
1625	 2.43328032869056E-03 
1626	 2.46445324086376E-03 
1627	 2.18712544496088E-03 
1628	 2.19856615409135E-03 
1629	 2.02880781933775E-03 
1630	 1.75594595480039E-03 
1631	 2.0387948040816E-03 
1632	 2.36288536072238E-03 
1633	 2.31973711582426E-03 
1634	 2.19970627507721E-03 
1635	 2.16136439143785E-03 
1636	 2.25833351555963E-03 
1637	 2.42495542241595E-03 
1638	 2.40816458115914E-03 
1639	 2.19865525404985E-03 
1640	 2.12571902109242E-03 
1641	 2.1976371086593E-03 
1642	 2.22736647834998E-03 
1643	 2.19995384750969E-03 
1644	 2.13844200144782E-03 
1645	 2.02273288530303E-03 
1646	 1.91091408649154E-03 
1647	 2.23157572074074E-03 
1648	 2.55050629913129E-03 
1649	 2.30474245408005E-03 
1650	 2.11089366605765E-03 
1651	 2.10847577379549E-03 
1652	 2.16582911710056E-03 
1653	 2.6140278532222E-03 
1654	 2.67519902509712E-03 
1655	 2.19904251068239E-03 
1656	 2.1294101512396E-03 
1657	 2.17736526584978E-03 
1658	 2.2245356432824E-03 
1659	 2.61205991515865E-03 
1660	 2.55484759736191E-03 
1661	 2.06947468714276E-03 
1662	 2.04006097259085E-03 
1663	 2.19524515902447E-03 
1664	 2.06746108162661E-03 
1665	 1.93355263385507E-03 
1666	 2.0671152819833E-03 
1667	 2.05997255554156E-03 
1668	 1.95177599997587E-03 
1669	 2.21863219644797E-03 
1670	 2.1619559953138E-03 
1671	 2.13837221411375E-03 
1672	 2.38680453550435E-03 
1673	 2.29328906366131E-03 
1674	 0.002125529559648 
1675	 2.26149666807323E-03 
1676	 2.39392661307298E-03 
1677	 2.43301896618171E-03 
1678	 2.54805641416899E-03 
1679	 2.42168016163543E-03 
1680	 1.98779288619069E-03 
1681	 2.01252730971216E-03 
1682	 2.22246126465284E-03 
1683	 2.2733693168488E-03 
1684	 2.45449165879326E-03 
1685	 2.39622907541552E-03 
1686	 2.15887456877401E-03 
1687	 2.22991947345048E-03 
1688	 2.23316759033627E-03 
1689	 2.03452330922637E-03 
1690	 2.22565682567246E-03 
1691	 2.41844566465783E-03 
1692	 2.27233188844849E-03 
1693	 2.15447507735617E-03 
1694	 2.07061340827626E-03 
1695	 1.97901377288629E-03 
1696	 1.93331614350983E-03 
1697	 2.04654106677307E-03 
1698	 2.18566726637468E-03 
1699	 2.05400057259124E-03 
1700	 1.9468103425378E-03 
1701	 2.14607042229637E-03 
1702	 1.97599135412097E-03 
1703	 1.61483851911265E-03 
1704	 1.86930323835485E-03 
1705	 2.29338045918698E-03 
1706	 2.69033152420582E-03 
1707	 2.64279776497223E-03 
1708	 2.06614709496109E-03 
1709	 2.05674237171754E-03 
1710	 2.06726686538352E-03 
1711	 2.07555093413912E-03 
1712	 2.71636190954562E-03 
1713	 2.06667647105246E-03 
1714	 1.96957358209945E-03 
1715	 2.43079307052884E-03 
1716	 2.40445552019278E-03 
1717	 2.63006249337713E-03 
1718	 2.65320988823442E-03 
1719	 2.38558580979375E-03 
1720	 2.31583590876967E-03 
1721	 2.40150267090583E-03 
1722	 2.21591323429871E-03 
1723	 2.10913981619056E-03 
1724	 2.37644221271799E-03 
1725	 2.56910646665594E-03 
1726	 2.58499985844201E-03 
1727	 2.33186606618648E-03 
1728	 2.04535913277936E-03 
1729	 1.86422200349775E-03 
1730	 1.92502772367829E-03 
1731	 2.53648820832166E-03 
1732	 2.73309816381482E-03 
1733	 2.05278683570415E-03 
1734	 1.97929722676664E-03 
1735	 2.43915631976374E-03 
1736	 2.3139209002615E-03 
1737	 2.56570658637829E-03 
1738	 2.68410486852196E-03 
1739	 1.88719475568233E-03 
1740	 1.89869322464542E-03 
1741	 2.27759778694697E-03 
1742	 2.0749329424954E-03 
1743	 2.17064514026306E-03 
1744	 2.11678421540812E-03 
1745	 1.63967357764077E-03 
1746	 1.96472117332305E-03 
1747	 2.13394031797989E-03 
1748	 2.19255047188141E-03 
1749	 2.36402919024154E-03 
1750	 2.66494972763558E-03 
1751	 2.65733133882086E-03 
1752	 2.52423556418787E-03 
1753	 2.61019675010933E-03 
1754	 2.57972877128855E-03 
1755	 2.49253350317379E-03 
1756	 2.63981646611256E-03 
1757	 2.16811960957455E-03 
1758	 1.93908146654602E-03 
1759	 1.99398375780433E-03 
1760	 1.62176444309934E-03 
1761	 1.30307747386469E-03 
1762	 1.5082343272986E-03 
1763	 1.90776301822157E-03 
1764	 2.2476358642357E-03 
1765	 2.60601757456667E-03 
1766	 2.71749865201075E-03 
1767	 2.48588616865968E-03 
1768	 2.63501773157688E-03 
1769	 2.86772240493624E-03 
1770	 2.63514917648453E-03 
1771	 2.22862164949821E-03 
1772	 1.62578766557745E-03 
1773	 1.29087856040732E-03 
1774	 1.5017215598256E-03 
1775	 1.94106544131768E-03 
1776	 2.01626638719757E-03 
1777	 2.09186249920719E-03 
1778	 2.07860943103311E-03 
1779	 1.10049918880421E-03 
1780	 1.32846745700409E-03 
1781	 3.2492951961225E-03 
1782	 3.35316816893591E-03 
1783	 3.2259430908635E-03 
1784	 2.9126555551552E-03 
1785	-2.701874993506E-05 
1786	-6.04853514868622E-04 
1787	 4.70695670161334E-04 
1788	 1.30124836911822E-03 
1789	 4.44366384507342E-03 
1790	 5.82421903160813E-03 
1791	 5.25533889860962E-03 
1792	 4.5308320662537E-03 
1793	-9.6183847774354E-04 
1794	-4.19146041352069E-03 
1795	-3.7519258276736E-03 
1796	-6.93406897063082E-04 
1797	 4.88837382984517E-03 
1798	 5.36701193418315E-03 
1799	 3.79249388165297E-03 
1800	-1.70351142911509E-03 
1801	-4.4643971878594E-03 
1802	 3.37375853443899E-03 
1803	 4.6261886198457E-03 
1804	-9.84625410772593E-04 
1805	-3.40196654463393E-03 
1806	-1.87905041240484E-02 
1807	-1.65505414300873E-02 
1808	 2.00082587717323E-02 
1809	 4.19983903750195E-02 
1810	 9.20514309146937E-02 
1811	 0.113746628346467 
1812	 6.01627759523357E-02 
1813	 4.91532507213106E-02 
1814	 0.016365069540435 
1815	 1.67422447069461E-02 
1816	 8.66887280521716E-02 
1817	-0.032231782797947 
1818	 1.45221409369387E-02 
1819	-1.75594939507956E-02 
1820	 2.93306091395669E-02 
1821	-0.329180930714862 
1822	-0.474224409390618 
1823	-0.702324176807248 
1824	-0.77061032588137 
1825	-0.706553000798148 
1826	-0.453965962184939 
1827	 0.310570607517415 
1828	 0.615663814693674 
1829	 0.220530829097314 
1830	 5.78682949005267E-02 
1831	 0.161965500209799 
1832	-6.5755125886542E-03 
1833	-0.374649443439654 
1834	-0.417202269787504 
1835	-9.79038003939021E-02 
1836	-9.49824737909808E-03 
1837	-0.104077549077821 
1838	 1.37449419179568E-02 
1839	 0.199283499079838 
1840	-8.74459067083293E-02 
1841	 0.142281432239133 
1842	 0.260692219291575 
1843	 0.248991472801517 
1844	-0.479004409344306 
1845	-1.81213136726024 
1846	 0.7733263513983 
1847	 0.678954981674805 
1848	-0.914353771515147 
1849	 0.297285761868658 
1850	 0.721251430802332 
1851	 1.10245078965897 
1852	 1.82036380387489 
1853	 11.6424523229766 
1854	-4.23365709236432 
1855	-1.95688841094594 
1856	-1.10758641116135 
1857	-0.692102294374333 
1858	-0.598654375862152 
1859	-0.449952616950593 
1860	-0.239130932627799 
1861	-7.12442180406808 
1862	 6.97308630446895 
1863	-9.43507689897277 
1864	 15.238532269293 
1865	 3.00761813673026 
1866	-0.467698009009116 
1867	 0.307304475733387 
1868	-1.12253029208511 
1869	-0.65498037907196 
1870	-0.547738257818022 
1871	 0.488459029362343 
1872	 3.70607787433059 
1873	-3.98638640686947 
1874	-3.79424025247199 
1875	 27.5699262563658 
1876	 9.29201830044836 
1877	-0.435131689056035 
1878	-0.446270868611422 
1879	-0.563599156088016 
1880	-0.404348158960812 
1881	 0.163896397681046 
1882	 0.462512170512392 
1883	 0.549457702595327 
1884	 0.848524755740929 
1885	 1.51065680760828 
1886	 2.51850579315248 
1887	-5.66184334423588 
1888	-2.42933189265501 
1889	-2.06441181522542 
1890	-1.27773405962957 
1891	-2.51750119220678 
1892	 2.78249575567118 
1893	 0.815714198236917 
1894	 0.314536812851504 
1895	 0.217032640862767 
1896	-0.344598914998565 
1897	-0.418706315469946 
1898	 2.03665822040928E-02 
1899	 0.48478134002072 
1900	 0.56518091995384 
1901	 0.98757172225963 
1902	 0.758946102896565 
1903	 0.907980568113733 
1904	 2.42554803143307 
1905	 4.47213789470194 
1906	 1.61906413678399 
1907	 2.67348155043329 
1908	 7.4977317472924 
1909	 16.1814093181513 
1910	 1.23012428815 
1911	 0.148063249703837 
1912	-0.876923296149813 
1913	-1.22495728899138 
1914	-2.02824016841683 
1915	-3.58395233194255 
1916	 3.56088117697369 
1917	 0.901752951521554 
1918	 9.03153990638269 
1919	 9.86807171474377 
1920	 3.12558365184346 
1921	 1.49472746937859 
1922	 0.220379686099651 
1923	-0.116971960494849 
1924	 2.91538455398511E-02 
1925	 0.265176622118213 
1926	 0.324867996144376 
1927	 0.284206293983069 
1928	 0.159852576381205 
1929	 0.056911735335448 
1930	-0.373157929011574 
1931	 2.35266106953243E-03 
1932	 0.315196288654092 
1933	-1.12912705247459E-02 
1934	 2.91367684101315E-02 
1935	 0.12869352198896 
1936	 5.25300494997084E-02 
1937	 8.97760516684936E-02 
1938	 0.138798516684147 
1939	 0.10037308283405 
1940	-2.54478801151062E-02 
1941	-3.85220072969561E-02 
1942	 1.13628060691495E-02 
1943	 1.55600281719053E-02 
1944	-1.44953490365663E-02 
1945	-5.08821691927248E-02 
1946	-0.075180706430081 
1947	-8.62525732178973E-02 
1948	-7.19696384867757E-02 
1949	-1.93471985173261E-02 
1950	 4.26066431023832E-03 
1951	-6.75627880802783E-03 
1952	-8.82960469766408E-03 
1953	-1.01523657550856E-02 
1954	-2.12252090172831E-02 
1955	-1.71433974087442E-02 
1956	-5.59216538538214E-03 
1957	-4.06711436634585E-03 
1958	-1.09573908709424E-03 
1959	 5.88450295161408E-04 
1960	-5.96037409309631E-04 
1961	 1.8034965585458E-03 
1962	 7.39424060501442E-03 
1963	 7.67760026459323E-03 
1964	 3.57418882776015E-03 
1965	 3.17177383121518E-03 
1966	 3.70349605818727E-03 
1967	 4.15447333741345E-03 
1968	 2.07387936121144E-03 
1969	 2.8484030467819E-03 
1970	 4.18419492047761E-03 
1971	 2.01054994544344E-03 
1972	 1.17214360056228E-03 
1973	 2.42767350508116E-03 
1974	 1.49857546797095E-03 
1975	-3.71937298510003E-04 
1976	-5.93807062040677E-04 
1977	-1.13400666951863E-03 
1978	-1.39606328226875E-03 
1979	-7.03890414495863E-04 
1980	 1.64168735452148E-03 
1981	 2.59612226813882E-03 
1982	 2.28528714193867E-03 
1983	 2.45438354980619E-03 
1984	 1.42797491836159E-03 
1985	 6.19397952856579E-04 
1986	 1.68851088292439E-03 
1987	 1.59186035111006E-03 
1988	-8.06512316771691E-05 
1989	-5.34574068743271E-04 
1990	 3.54537262157952E-05 
1991	 3.45550258580239E-04 
1992	 1.04264165275907E-03 
1993	 2.52371566971966E-03 
1994	 3.1240707777617E-03 
1995	 1.72553972874735E-03 
1996	 8.24963937675102E-04 
1997	 3.93738744806494E-03 
1998	 4.82124685968435E-03 
1999	 4.09125641605215E-03 
2000	 4.29887130702494E-03 
2001	 5.90275141582248E-04 
2002	-1.57598576752603E-03 
2003	 6.42566301394522E-05 
2004	 7.76201151251396E-04 
2005	 1.85384186760651E-03 
2006	 6.92280235579666E-04 
2007	 1.53554468491988E-04 
2008	 1.94109229599795E-03 
2009	 1.56932437753966E-03 
2010	 2.03134228834227E-04 
2011	 1.1983535100571E-03 
2012	 2.65661644332332E-03 
2013	 1.91099793792664E-03 
2014	 3.21986389313034E-03 
2015	 4.63610287656815E-03 
2016	 3.41340204105694E-03 
2017	 1.82738236648111E-03 
2018	 3.34666467419281E-03 
2019	 3.90415867374586E-03 
2020	 2.76921322098571E-03 
2021	 3.41181958077759E-03 
2022	 3.26392076573877E-03 
2023	 2.75657648247421E-03 
2024	 2.66334242193243E-03 
2025	 3.49183107187576E-03 
2026	 3.19175931724448E-03 
2027	 2.23432562331081E-03 
2028	 1.84040026511781E-03 
2029	 1.6441715652004E-03 
2030	 1.36678689037265E-03 
2031	 1.50756688305081E-03 
2032	 1.50092415574618E-03 
2033	 1.13841540204439E-03 
2034	 1.16877505314734E-03 
2035	 1.7636441283964E-03 
2036	 1.95254328793203E-03 
2037	 1.25962180745877E-03 
2038	 1.01310993423105E-03 
2039	 1.16283887149435E-03 
2040	 1.28408493135292E-03 
2041	 1.25191119800617E-03 
2042	 1.79576850848913E-03 
2043	 2.08676324370465E-03 
2044	 1.84180875421047E-03 
2045	 1.69913194303072E-03 
2046	 2.34329235876981E-03 
2047	 2.8889069390456E-03 
2048	 2.60911366462858E-03 
2049	 2.00501265033516E-03 
2050	 1.61893533095309E-03 
2051	 1.50673433324287E-03 
2052	 1.02771886565273E-03 
2053	 1.16789637505592E-03 
2054	 1.45558520240391E-03 
2055	 9.52739767960509E-04 
2056	 9.81812235093313E-04 
2057	 1.69148578663429E-03 
2058	 1.72328401951604E-03 
2059	 1.32519540225724E-03 
2060	 1.47046602883255E-03 
2061	 1.75390437230822E-03 
2062	 1.86109643872873E-03 
2063	 1.73482355114973E-03 
2064	 1.89262621803481E-03 
2065	 2.05426149295691E-03 
2066	 1.56326520762429E-03 
2067	 1.29068521586554E-03 
2068	 1.80438739612522E-03 
2069	 1.61259903192657E-03 
2070	 1.05993474652822E-03 
2071	 1.64689768509568E-03 
2072	 1.66666227930757E-03 
2073	 1.70051265394901E-03 
2074	 2.06011716607294E-03 
2075	 2.31527259485899E-03 
2076	 2.09422948081181E-03 
2077	 2.17275902726789E-03 
2078	 2.57725261560257E-03 
2079	 2.44663197866888E-03 
2080	 1.86327805970341E-03 
2081	 2.09163519135915E-03 
2082	 2.33719988335195E-03 
2083	 2.23877440290702E-03 
2084	 1.88675903031146E-03 
2085	 1.70997951600595E-03 
2086	 2.0194763636257E-03 
2087	 1.99545889064108E-03 
2088	 2.17288224739772E-03 
2089	 2.39362036296835E-03 
2090	 2.02096414507137E-03 
2091	 2.43045386596921E-03 
2092	 2.72138807081464E-03 
2093	 3.61983789979926E-03 
2094	 3.7646081525195E-03 
2095	 3.38978148473505E-03 
2096	 3.22816934762631E-03 
2097	 3.08507517802966E-03 
2098	 3.00538196201299E-03 
2099	 3.23255081173495E-03 
2100	 2.72620753914395E-03 
2101	 2.04851197622635E-03 
2102	 1.73930744885921E-03 
2103	 1.73340554946003E-03 
2104	 1.70469382722163E-03 
2105	 1.7971782048399E-03 
2106	 1.6658386515887E-03 
2107	 1.02619327034838E-03 
2108	 9.68311768699038E-04 
2109	 1.52781890379495E-03 
2110	 1.81640592765383E-03 
2111	 2.2770309621819E-03 
2112	 2.87598567648571E-03 
2113	 3.27912942608736E-03 
2114	 3.74394029230364E-03 
2115	 3.62674045648731E-03 
2116	 2.96787102981811E-03 
2117	 2.65157634604357E-03 
2118	 1.79917512688082E-03 
2119	 1.44390198425116E-03 
2120	 1.47677471841264E-03 
2121	 1.86930082699067E-03 
2122	 2.05840881407449E-03 
2123	 2.3766647451746E-03 
2124	 3.12775985009522E-03 
2125	 3.04257464254182E-03 
2126	 2.12816941637043E-03 
2127	 1.99356990292566E-03 
2128	 2.03777192816115E-03 
2129	 2.14153549650765E-03 
2130	 2.96405994241083E-03 
2131	 3.20119727168038E-03 
2132	 2.92050883853828E-03 
2133	 2.7218514561594E-03 
2134	 2.3721905841006E-03 
2135	 1.67029811233407E-03 
2136	 1.66955159476817E-03 
2137	 1.98190561786167E-03 
2138	 1.96335969867782E-03 
2139	 2.4235440709818E-03 
2140	 2.49982754966121E-03 
2141	 1.74747472947843E-03 
2142	 1.59700920746832E-03 
2143	 1.94317538343479E-03 
2144	 1.73477196127485E-03 
2145	 1.83314241620528E-03 
2146	 3.1155168459619E-03 
2147	 3.21259032189822E-03 
2148	 2.87986210885449E-03 
2149	 2.68028847976701E-03 
2150	 1.2779784685891E-03 
2151	 7.03277400725285E-04 
2152	 1.23963309589623E-03 
2153	 1.4872676842597E-03 
2154	 1.38876220356827E-03 
2155	 1.54344921392271E-03 
2156	 1.79783604936032E-03 
2157	 1.83385576392632E-03 
2158	 2.33028158972595E-03 
2159	 2.12049229509483E-03 
2160	 4.00614144223836E-04 
2161	 4.27585387708585E-04 
2162	 1.27979534446691E-03 
2163	 1.39425275275534E-03 
2164	 2.64050510653206E-03 
2165	 3.07105399511783E-03 
2166	 1.81439283435578E-03 
2167	 1.77107695595753E-03 
2168	 2.88194698623558E-03 
2169	 3.01248206306379E-03 
2170	 3.03400458152565E-03 
2171	 2.80820030801511E-03 
2172	 2.11757424070261E-03 
2173	 1.87937564464344E-03 
2174	 1.88979628739342E-03 
2175	 2.69718320334667E-03 
2176	 3.40242415408727E-03 
2177	 2.73804632908754E-03 
2178	 3.06622202560047E-03 
2179	 2.67573465971867E-03 
2180	 1.67746926628929E-03 
2181	 1.35191946605429E-03 
2182	 3.55531378496167E-04 
2183	 7.72186872722551E-04 
2184	 1.33756732010735E-03 
2185	 1.02008281374329E-03 
2186	 1.5536632062727E-03 
2187	 2.61640185494477E-03 
2188	 2.70022543810017E-03 
2189	 2.7800976801616E-03 
2190	 3.24636342884369E-03 
2191	 3.41130572585894E-03 
2192	 3.40658914467705E-03 
2193	 3.82919782623137E-03 
2194	 3.69426713956778E-03 
2195	 2.44263710909343E-03 
2196	 1.40314019729882E-03 
2197	 8.3828677874195E-04 
2198	 1.59664410491253E-04 
2199	-1.25114193241979E-03 
2200	-1.97187658456892E-03 
2201	-4.97663574595356E-04 
2202	 1.09281831176578E-03 
2203	 1.47171082707342E-03 
2204	 3.04076713145979E-03 
2205	 4.33294233356045E-03 
2206	 2.2104914542524E-03 
2207	 1.84851059169774E-03 
2208	 3.26035946131759E-03 
2209	 2.95745919942443E-03 
2210	 3.23252008168746E-03 
2211	 3.57120881824838E-03 
2212	 2.88157332630159E-03 
2213	 3.01663442900594E-03 
2214	 2.53213095503853E-03 
2215	 2.17729008421486E-03 
2216	 3.06652320125158E-03 
2217	 2.3702389329212E-03 
2218	-3.37632732008196E-05 
2219	-2.93688791355664E-04 
2220	-4.83162618215491E-04 
2221	-5.26305219672181E-04 
2222	 7.61399158444913E-04 
2223	 1.86625753131192E-03 
2224	 3.50329575556411E-03 
2225	 3.85595862859933E-03 
2226	 4.1904210074122E-03 
2227	 3.67131930263306E-03 
2228	 7.6536487238288E-04 
2229	-2.37792108191169E-04 
2230	-5.71480291672797E-04 
2231	-6.49579735576198E-04 
2232	 5.03295937937506E-05 
2233	 5.48408460961116E-04 
2234	 1.10045967705192E-03 
2235	 2.41002177180848E-03 
2236	 2.44381660478478E-03 
2237	 2.59096573086831E-03 
2238	 2.35396762927108E-03 
2239	 2.10921314430566E-03 
2240	 2.43088478098758E-03 
2241	 2.07353451476236E-03 
2242	 1.11476177150217E-03 
2243	 2.69797578684141E-04 
2244	 1.23114945298233E-03 
2245	 1.49707323013419E-03 
2246	 6.12178657917488E-04 
2247	 1.34642909596645E-03 
2248	 1.17346218928681E-03 
2249	-7.43563297833397E-05 
2250	 2.91072279695136E-04 
2251	 2.98016380345616E-03 
2252	 4.62856371697381E-03 
2253	 4.18643921287539E-03 
2254	 5.36159642662422E-03 
2255	 4.86481049896566E-03 
2256	 2.43227236970732E-03 
2257	 2.22134479835657E-03 
2258	 2.54711050511325E-03 
2259	 2.51585425357627E-03 
2260	 3.28583364925711E-03 
2261	 5.54366349976997E-03 
2262	 7.12412620182314E-03 
2263	 8.98448301037024E-03 
2264	 8.77669359942953E-03 
2265	 7.66954983048214E-03 
2266	 6.60983199646903E-03 
2267	 3.54522139119243E-03 
2268	 2.95089508407677E-03 
2269	 3.26022180948529E-03 
2270	 3.29681108619167E-03 
2271	 5.12018782754932E-03 
2272	 5.57356083481549E-03 
2273	 5.63619281316152E-03 
2274	 0.005273538993746 
2275	 3.68543060386809E-03 
2276	 2.49904862787379E-03 
2277	 2.54907058708001E-04 
2278	-1.58233169306574E-04 
2279	 8.47255992755585E-04 
2280	 1.13190476277666E-03 
2281	 2.03461305900901E-03 
2282	 3.62058495198384E-03 
2283	 2.61491404436223E-03 
2284	 4.08264349942945E-03 
2285	 5.63683804994105E-03 
2286	 4.34229229274992E-03 
2287	 5.04996056792545E-03 
2288	 3.06510109230569E-03 
2289	-1.46562544663822E-04 
2290	 3.51761008675791E-04 
2291	 8.89513243586359E-04 
2292	 4.65939622337885E-04 
2293	 1.19764244631491E-03 
2294	 1.20156583078554E-03 
2295	 3.82921237919949E-04 
2296	 3.17915399723053E-03 
2297	 5.69504681361551E-03 
2298	 6.26860896811779E-03 
2299	 7.27575044328923E-03 
2300	 5.87750765426812E-03 
2301	 5.22615783719956E-03 
2302	 5.85126800411908E-03 
2303	 3.89515288825453E-03 
2304	 2.15196496748492E-03 
2305	 1.74573493327755E-03 
2306	 1.84433561508577E-03 
2307	 1.82602915740123E-03 
2308	 8.12465387733734E-04 
2309	-1.18212299142032E-03 
2310	-2.75655994277012E-03 
2311	-1.50429919083964E-03 
2312	-1.72370405442373E-04 
2313	 1.19412930721186E-04 
2314	-8.50156011774573E-04 
2315	-4.79540728368697E-03 
2316	-6.72234581493984E-03 
2317	-4.79286177203319E-03 
2318	-3.64198172820949E-03 
2319	-4.09201868269949E-03 
2320	-4.15902514286191E-03 
2321	-6.03893817368631E-03 
2322	-8.21163550616176E-03 
2323	-6.71463179705192E-03 
2324	-4.3472933243201E-03 
2325	 6.60520917844469E-04 
2326	 6.37599109239472E-03 
2327	 1.03987258636108E-02 
2328	 1.44525229412142E-02 
2329	 1.22276018645164E-02 
2330	 6.8877875282678E-03 
2331	 6.00868758308738E-03 
2332	 4.94709111866999E-03 
2333	 1.80273941777228E-03 
2334	-1.68356598359318E-03 
2335	-6.99099310784624E-03 
2336	-9.0987420029578E-03 
2337	-6.01432946585361E-03 
2338	 7.11723250485658E-04 
2339	 8.6634804088965E-03 
2340	 0.00735426816406 
2341	 3.15930469096241E-03 
2342	 4.99953768056846E-03 
2343	 2.21276781023483E-03 
2344	 3.73781444686731E-03 
2345	 1.35650091210642E-02 
2346	 5.82090533764814E-03 
2347	-6.02086411284787E-03 
2348	-3.0610474457691E-03 
2349	-6.64813507409228E-03 
2350	-7.67092613812579E-03 
2351	-2.7256553776043E-04 
2352	-4.7217033532913E-03 
2353	-9.24869142486616E-03 
2354	-6.15868535809575E-03 
2355	-4.11262851240666E-03 
2356	-1.4685001182313E-03 
2357	-3.79960454410468E-03 
2358	-8.70851337391127E-03 
2359	-4.50002385035406E-03 
2360	-2.17722502585943E-04 
2361	 3.8315134349527E-03 
2362	 7.58837624031661E-03 
2363	 3.24049391209012E-03 
2364	 1.81061333646327E-03 
2365	-6.59898793304424E-04 
2366	-5.73625433754287E-03 
2367	-4.76109738555944E-03 
2368	-1.10371528032884E-03 
2369	 4.83728095961951E-03 
2370	 9.89777398278848E-03 
2371	 5.5521826663033E-03 
2372	-5.46064410625214E-03 
2373	-0.010553964813257 
2374	-3.51339219746627E-03 
2375	 1.64234391457769E-02 
2376	 3.08526063731217E-02 
2377	 2.43052190406828E-02 
2378	 9.82907317049731E-03 
2379	 1.16511367036685E-02 
2380	 1.40478797335626E-02 
2381	 1.21111869856672E-02 
2382	 2.68729354723993E-02 
2383	 1.68427501551008E-02 
2384	-6.57090035148932E-03 
2385	-7.48207291311014E-05 
2386	 7.88782350743611E-03 
2387	 1.38976447925228E-02 
2388	 2.34858864401264E-02 
2389	 2.38370394650559E-02 
2390	 1.75601765132382E-02 
2391	 1.64329826915616E-02 
2392	 1.88072782986747E-02 
2393	 0.026662355913318 
2394	 0.024453164619373 
2395	 5.97444891207642E-03 
2396	-4.69532524026426E-03 
2397	-0.014874148422217 
2398	-6.89198720048523E-03 
2399	 8.81768152603543E-03 
2400	-8.10414130725224E-04 
2401	-3.26481223896608E-03 
2402	-0.010800375893452 
2403	-2.92602569983432E-02 
2404	-1.85405948372029E-02 
2405	-0.010755666322259 
2406	-2.35958069320066E-02 
2407	-3.56645818225554E-02 
2408	-4.78955573913064E-02 
2409	-3.69101948477788E-02 
2410	-3.36309553374205E-02 
2411	-4.32994923993678E-02 
2412	-2.43051226924036E-02 
2413	-2.65085206159509E-02 
2414	-4.70069663244773E-02 
2415	-2.04299362815741E-02 
2416	-4.16220486821519E-02 
2417	-8.77842975295768E-02 
2418	-6.34682531385384E-02 
2419	-8.18667865628234E-02 
2420	-7.49090659233191E-02 
2421	-4.14762937761308E-02 
2422	-7.04445836425824E-02 
2423	-7.12976415151993E-02 
2424	-5.47217954941243E-03 
2425	 0.048682459632927 
2426	 7.90175343832862E-02 
2427	 9.33386501183346E-02 
2428	 3.03461970537441E-02 
2429	-1.48689895364574E-02 
2430	-2.57271417847375E-02 
2431	-3.64456576637003E-02 
2432	 2.42139518550653E-02 
2433	 6.56617030848312E-02 
2434	 2.77761604773066E-02 
2435	-3.49102040652838E-03 
2436	-0.017718493190547 
2437	-3.81720939500486E-02 
2438	-0.116697131386432 
2439	-0.138316279373311 
2440	-6.59963837935619E-02 
2441	-5.30801806679943E-02 
2442	 5.41585544959024E-02 
2443	 0.252208338220623 
2444	 0.191271969386217 
2445	 0.092961968230885 
2446	 2.80144141331428E-02 
2447	-0.188084736683624 
2448	-0.182295209713307 
2449	-3.20863113256306E-02 
2450	 0.168801562968826 
2451	 0.804931903654763 
2452	 0.440503703838331 
2453	 3.24599421137207E-02 
2454	 8.84305965702247E-02 
2455	-0.134617643595567 
2456	-0.2102518059723 
2457	 2.45690313932565E-02 
2458	 0.06343572144943 
2459	-0.11893300595017 
2460	-2.71736100024775E-03 
2461	 1.99123701457463E-02 
2462	 2.30421080558791E-02 
2463	 0.225875658733581 
2464	 0.293625263639398 
2465	 0.317485948792332 
2466	 0.316999454444097 
2467	 7.14097391398302E-02 
2468	 0.104984904040187 
2469	 0.376794837919054 
2470	 0.222837277663376 
2471	 0.330791256164377 
2472	 0.584222229403443 
2473	-0.211395879517225 
2474	 0.168261501147439 
2475	 0.57827844448574 
2476	 0.424767049768543 
2477	 0.324379497292571 
2478	 0.426891949205673 
2479	-0.500964401388879 
2480	-0.402332726310063 
2481	-0.225276402353953 
2482	-0.230980084027757 
2483	 0.366179634904601 
2484	 1.11186718002757 
2485	 0.530531953536407 
2486	 0.429072712954418 
2487	 0.664466766636816 
2488	 0.2840036291648 
2489	 0.339195270519432 
2490	 0.493198297148868 
2491	 0.337611773248691 
2492	 0.599978367971784 
2493	 0.748511588553192 
2494	 0.721167322477077 
2495	 0.927772964250002 
2496	 2.97420494898095 
2497	 3.77981848514656 
2498	 1.57620782954242 
2499	 3.0121603888804 
2500	 2.75088961184056 
