Wavelength	rt0721algea_nearby_water00001.asd
350	 4.35229251538807E-02 
351	 4.32822696809584E-02 
352	 4.30348280741183E-02 
353	 4.32412174619646E-02 
354	 4.37325733749453E-02 
355	 0.043035265905777 
356	 4.28143163657964E-02 
357	 4.30263331261533E-02 
358	 0.043231585604764 
359	 4.39381410745489E-02 
360	 4.34954764049872E-02 
361	 4.24151063470679E-02 
362	 4.25013090208439E-02 
363	 4.25826631537381E-02 
364	 4.26443593430746E-02 
365	 4.26566517055497E-02 
366	 4.23549688207678E-02 
367	 4.22381846141212E-02 
368	 4.23697307910239E-02 
369	 4.25970765773754E-02 
370	 4.24604195960651E-02 
371	 4.26384912401363E-02 
372	 4.29891599156699E-02 
373	 4.29401144897489E-02 
374	 4.27919693183514E-02 
375	 4.25153996453766E-02 
376	 4.23805127006388E-02 
377	 4.30558590729753E-02 
378	 0.042904117117804 
379	 4.29158409228969E-02 
380	 4.38271175905914E-02 
381	 4.36328410141007E-02 
382	 4.33211794617335E-02 
383	 4.33867773827685E-02 
384	 4.39459267782957E-02 
385	 4.43989800753152E-02 
386	 4.43756982795058E-02 
387	 4.41479917737894E-02 
388	 4.45897328292356E-02 
389	 4.45922398027165E-02 
390	 4.45482122406126E-02 
391	 4.48535136190723E-02 
392	 4.52625604364128E-02 
393	 4.51529609656228E-02 
394	 4.49634073064738E-02 
395	 4.53041145309122E-02 
396	 4.54286821678137E-02 
397	 4.55368817700143E-02 
398	 4.56839056599595E-02 
399	 4.57636257260464E-02 
400	 4.59517631308609E-02 
401	 4.59718721486894E-02 
402	 4.58289267489739E-02 
403	 4.63501215818204E-02 
404	 4.64750963763261E-02 
405	 4.63244490264092E-02 
406	 4.63975642498703E-02 
407	 4.66080487644986E-02 
408	 4.67348615920691E-02 
409	 0.046778879581808 
410	 4.69540611175251E-02 
411	 4.71596919499784E-02 
412	 4.72142194582664E-02 
413	 0.047130054565769 
414	 4.74269476723521E-02 
415	 4.75373001201182E-02 
416	 4.75743762231948E-02 
417	 4.78524672416737E-02 
418	 4.80987347935095E-02 
419	 4.83105453655425E-02 
420	 4.85159926644717E-02 
421	 4.87524879889515E-02 
422	 4.88894237849167E-02 
423	 4.90581642064511E-02 
424	 4.93347181156109E-02 
425	 0.049474791912656 
426	 4.97770409650355E-02 
427	 5.01256131398565E-02 
428	 5.02713013850763E-02 
429	 5.05661975068246E-02 
430	 5.09072587979857E-02 
431	 5.12051980926173E-02 
432	 0.051441805387802 
433	 5.17103883470771E-02 
434	 5.19893306252582E-02 
435	 5.22541236965699E-02 
436	 5.25599250760369E-02 
437	 0.052825337430643 
438	 5.30881349768747E-02 
439	 5.34294425274911E-02 
440	 5.36981248261725E-02 
441	 5.40260644176732E-02 
442	 5.44037533077927E-02 
443	 5.45703153025089E-02 
444	 5.47843559374039E-02 
445	 5.50403431560339E-02 
446	 0.055278650492832 
447	 5.55317971298428E-02 
448	 5.57901016071958E-02 
449	 5.60142428341387E-02 
450	 0.05615432004887 
451	 5.62843384798721E-02 
452	 5.64192790974596E-02 
453	 5.65648301055869E-02 
454	 5.67308891032486E-02 
455	 5.68664106958066E-02 
456	 5.69720508050698E-02 
457	 5.70651986483175E-02 
458	 5.71340719204116E-02 
459	 5.71838364031495E-02 
460	 5.72533892506115E-02 
461	 5.74055930894533E-02 
462	 0.057493260648022 
463	 5.75535943582494E-02 
464	 5.76515510001815E-02 
465	 5.78393009670772E-02 
466	 5.78704905420122E-02 
467	 5.78706311703102E-02 
468	 5.80874633428226E-02 
469	 5.81634348812243E-02 
470	 5.82264680852977E-02 
471	 5.83111410270449E-02 
472	 5.82684867672327E-02 
473	 5.83858973954344E-02 
474	 5.86199491943529E-02 
475	 5.88360176479185E-02 
476	 5.89181464686706E-02 
477	 5.90141033528968E-02 
478	 5.91620231104574E-02 
479	 5.93252630729414E-02 
480	 5.95636618010119E-02 
481	 0.05978903674483 
482	 5.99615696572566E-02 
483	 6.01752088411321E-02 
484	 6.03588276374539E-02 
485	 6.05804199842091E-02 
486	 6.09066610207849E-02 
487	 6.11196675106819E-02 
488	 6.13929738508136E-02 
489	 6.17505466676959E-02 
490	 6.20583262888037E-02 
491	 6.23297429881288E-02 
492	 6.26052318021178E-02 
493	 6.29277146869917E-02 
494	 6.33323021322019E-02 
495	 6.37763780275821E-02 
496	 6.42435452177663E-02 
497	 6.47229640327445E-02 
498	 6.51224274787117E-02 
499	 0.065540422911164 
500	 6.60456057984182E-02 
501	 6.66347158239546E-02 
502	 6.71016640223134E-02 
503	 6.75634442917717E-02 
504	 0.068162111027836 
505	 6.87205572561916E-02 
506	 0.069313010173308 
507	 6.99501569696145E-02 
508	 7.05863279810111E-02 
509	 7.11734133807028E-02 
510	 7.18293671177378E-02 
511	 7.25999320797334E-02 
512	 0.073318422132279 
513	 7.39714240945451E-02 
514	 7.46847599168497E-02 
515	 7.55829644118457E-02 
516	 7.62934056884843E-02 
517	 7.70992819660869E-02 
518	 7.80356995596796E-02 
519	 7.87733618314908E-02 
520	 7.95380565199728E-02 
521	 8.02936197179965E-02 
522	 8.09994427771197E-02 
523	 8.17845680648081E-02 
524	 8.26105570178595E-02 
525	 8.33910664597403E-02 
526	 8.40390922038042E-02 
527	 8.48251210530559E-02 
528	 8.56038262615562E-02 
529	 8.62806127329608E-02 
530	 8.69750297708235E-02 
531	 0.08771707475489 
532	 8.84496811732062E-02 
533	 0.089106986256525 
534	 8.98311296270921E-02 
535	 9.04973112490124E-02 
536	 0.091107640090986 
537	 0.091816725208414 
538	 9.24456204334948E-02 
539	 9.30843775007805E-02 
540	 9.38127318400589E-02 
541	 9.44617665063071E-02 
542	 9.51250691716476E-02 
543	 9.58092945643561E-02 
544	 9.64685320304772E-02 
545	 9.70759134941549E-02 
546	 9.77101955249655E-02 
547	 9.84020315640889E-02 
548	 9.90769860874359E-02 
549	 9.96480087347761E-02 
550	 0.100209320994716 
551	 0.100877653749852 
552	 0.10146947523459 
553	 0.102022278730564 
554	 0.102580144972464 
555	 0.103174409656446 
556	 0.103701037691947 
557	 0.104194745395799 
558	 0.104690985490168 
559	 0.105125580604706 
560	 0.10554124390844 
561	 0.105931775789785 
562	 0.106271418626461 
563	 0.106653413555128 
564	 0.106983368626958 
565	 0.107211854138214 
566	 0.107422331337439 
567	 0.10760203014083 
568	 0.107784965807272 
569	 0.10799579492131 
570	 0.108135113999566 
571	 0.108216223194536 
572	 0.108292967715316 
573	 0.108448374321992 
574	 0.108546017140219 
575	 0.108566614334819 
576	 0.108553477803038 
577	 0.10865648508918 
578	 0.10873648753046 
579	 0.108722229608061 
580	 0.108611427841763 
581	 0.108597349922865 
582	 0.10860508215275 
583	 0.108558341702454 
584	 0.108443995830284 
585	 0.108264012354637 
586	 0.10799867148181 
587	 0.107656873301018 
588	 0.107468983929985 
589	 0.107221901639778 
590	 0.106936115181214 
591	 0.106871222259753 
592	 0.106706337572934 
593	 0.106448541683794 
594	 0.106161952022065 
595	 0.105842994163146 
596	 0.105553489043333 
597	 0.105223708080667 
598	 0.104743196658919 
599	 0.104361918747135 
600	 0.104029340208979 
601	 0.1037245667778 
602	 0.103543564423887 
603	 0.103421101687271 
604	 0.103322255349592 
605	 0.103229018279045 
606	 0.103154588864932 
607	 0.103112650921681 
608	 0.103092108792384 
609	 0.103056926094104 
610	 0.103006734820338 
611	 0.102937345404737 
612	 0.102845480609329 
613	 0.102712416267603 
614	 0.102720217346777 
615	 0.10271749700996 
616	 0.102437091229336 
617	 0.102412323862743 
618	 0.102399049118765 
619	 0.102244715072703 
620	 0.102073779553778 
621	 0.102006996223978 
622	 0.102036325928676 
623	 0.102072842415068 
624	 0.101920254346156 
625	 0.101745092954252 
626	 0.101633376653545 
627	 0.101574262251436 
628	 0.101493499178643 
629	 0.101378210907536 
630	 0.101247848680292 
631	 0.101183474741653 
632	 0.100998818895287 
633	 0.100756823786917 
634	 0.100604320312865 
635	 0.100327978803995 
636	 0.099983782437942 
637	 9.96236223212516E-02 
638	 9.92502814400187E-02 
639	 9.88481192457353E-02 
640	 9.84810100394653E-02 
641	 9.81857203151505E-02 
642	 9.77878706042553E-02 
643	 9.73918971505705E-02 
644	 0.097003977758035 
645	 9.65520545445035E-02 
646	 9.60456345287057E-02 
647	 9.56744166970443E-02 
648	 9.54980327984094E-02 
649	 9.51852455094648E-02 
650	 9.49512904080623E-02 
651	 9.47646647210876E-02 
652	 9.45318574252069E-02 
653	 9.43370689475459E-02 
654	 9.40851092504983E-02 
655	 9.37761077443125E-02 
656	 9.35892017738828E-02 
657	 9.32880346983385E-02 
658	 9.30105344279088E-02 
659	 9.28420373178567E-02 
660	 9.25118215960703E-02 
661	 9.21339988202723E-02 
662	 9.18291904824465E-02 
663	 9.16920841835265E-02 
664	 9.14161824619899E-02 
665	 9.11647136692183E-02 
666	 0.091025110131403 
667	 9.08466633847322E-02 
668	 9.07156596336097E-02 
669	 9.05530812118114E-02 
670	 9.03053347419974E-02 
671	 9.02990950014254E-02 
672	 9.03187455472839E-02 
673	 0.09028423212722 
674	 0.090267562817459 
675	 0.090281048676745 
676	 9.03028958258112E-02 
677	 9.03607987921443E-02 
678	 9.06537293084336E-02 
679	 9.08014288397762E-02 
680	 9.09611087081473E-02 
681	 0.091454074853757 
682	 9.18484280253823E-02 
683	 9.23626949491691E-02 
684	 9.30463914417261E-02 
685	 9.37149883453973E-02 
686	 9.45304798968557E-02 
687	 9.54640618019724E-02 
688	 0.09639663375569 
689	 9.74000769071473E-02 
690	 9.82583889496976E-02 
691	 9.90561822464555E-02 
692	 0.100037457588342 
693	 0.100920050895188 
694	 0.101797015102441 
695	 0.102652443932031 
696	 0.10331398362549 
697	 0.103868082517515 
698	 0.104329559085683 
699	 0.10468626771655 
700	 0.10511556225455 
701	 0.105431170834872 
702	 0.105596106971044 
703	 0.105714146912786 
704	 0.105815096098025 
705	 0.105735144508792 
706	 0.105425554119514 
707	 0.105157704448975 
708	 0.104674726586137 
709	 0.104033693889277 
710	 0.103371127935561 
711	 0.102588538618753 
712	 0.101616151715605 
713	 0.100441466014115 
714	 0.099082673411086 
715	 9.77655815708566E-02 
716	 9.63344849053654E-02 
717	 9.47069250762555E-02 
718	 9.30339268611839E-02 
719	 0.091407417985526 
720	 0.090047826707278 
721	 0.08877902581274 
722	 8.72589515784849E-02 
723	 8.55322348202873E-02 
724	 8.37888324370958E-02 
725	 8.18297066305309E-02 
726	 0.079948957290809 
727	 7.79483059561267E-02 
728	 7.56534513198957E-02 
729	 7.31662875146452E-02 
730	 7.06837203655327E-02 
731	 6.84148892944184E-02 
732	 6.63908458385828E-02 
733	 6.46555418707847E-02 
734	 6.31310226356245E-02 
735	 6.17814497218689E-02 
736	 6.06012414957756E-02 
737	 5.98563632995086E-02 
738	 5.93175978082116E-02 
739	 5.87984415047527E-02 
740	 0.058593350210476 
741	 5.84309789240162E-02 
742	 5.82215842532583E-02 
743	 5.80063078216308E-02 
744	 5.80175269467942E-02 
745	 5.80335635823217E-02 
746	 0.057966681804266 
747	 5.79708170153534E-02 
748	 5.78968034468287E-02 
749	 5.78396861326574E-02 
750	 5.78680384850837E-02 
751	 5.77436346139853E-02 
752	 5.77411817541651E-02 
753	 0.057804131799594 
754	 5.77343090069881E-02 
755	 0.057818217395315 
756	 5.78440870450337E-02 
757	 5.77710910188202E-02 
758	 5.78959374425931E-02 
759	 5.79430373844587E-02 
760	 5.79358652918166E-02 
761	 5.80194892162851E-02 
762	 0.057922343325836 
763	 5.79766981344156E-02 
764	 5.80911000052503E-02 
765	 0.058115865225813 
766	 5.83070824480926E-02 
767	 5.84659307515972E-02 
768	 5.85901653984844E-02 
769	 5.88520335166032E-02 
770	 0.058967844952997 
771	 5.90662038395783E-02 
772	 5.92798982673986E-02 
773	 5.95228551162828E-02 
774	 5.97559835386199E-02 
775	 5.99977266482877E-02 
776	 6.02907027088796E-02 
777	 6.06214104336401E-02 
778	 6.09418453042062E-02 
779	 0.061229119116359 
780	 6.14964194651281E-02 
781	 6.18227057581672E-02 
782	 6.21990870640318E-02 
783	 6.25910249632344E-02 
784	 6.29562493228108E-02 
785	 6.32392429155457E-02 
786	 6.35654063932165E-02 
787	 6.40646712763778E-02 
788	 6.45211272271134E-02 
789	 6.49845724610324E-02 
790	 6.54236076006503E-02 
791	 6.57671709575151E-02 
792	 6.62412108128337E-02 
793	 6.67636936521414E-02 
794	 6.72188056649112E-02 
795	 6.74873425778505E-02 
796	 6.79332320195581E-02 
797	 6.83519985279084E-02 
798	 6.85531609698816E-02 
799	 6.89035353565199E-02 
800	 6.92859612701249E-02 
801	 6.95532592496138E-02 
802	 6.96242364501256E-02 
803	 6.99363788960299E-02 
804	 7.02859825846175E-02 
805	 7.04624291859477E-02 
806	 7.03387693472501E-02 
807	 7.02810640189646E-02 
808	 0.070201646030936 
809	 7.00089029110984E-02 
810	 6.98627060080049E-02 
811	 6.94838290858194E-02 
812	 6.90295048778477E-02 
813	 6.87647945521283E-02 
814	 6.82664815787916E-02 
815	 6.77730506316246E-02 
816	 6.73850295351743E-02 
817	 6.69837747871539E-02 
818	 6.61106390941019E-02 
819	 6.53128789401997E-02 
820	 6.46754770228199E-02 
821	 0.063669061557798 
822	 6.23789036943947E-02 
823	 6.10479126999511E-02 
824	 5.98089418319168E-02 
825	 5.83122286723059E-02 
826	 5.65083592236889E-02 
827	 5.44967817864914E-02 
828	 5.25940048561422E-02 
829	 0.050942099460599 
830	 0.049383515966246 
831	 4.79173427545642E-02 
832	 4.67079350969833E-02 
833	 4.57694338669362E-02 
834	 0.045074160287423 
835	 4.44674683253323E-02 
836	 4.36781726181841E-02 
837	 0.043381996443132 
838	 4.32096558343256E-02 
839	 4.27809248282888E-02 
840	 4.22662047457204E-02 
841	 4.19547116118497E-02 
842	 4.17559977062728E-02 
843	 4.14875598900675E-02 
844	 4.13485727225778E-02 
845	 4.09838246694514E-02 
846	 4.05205150789538E-02 
847	 4.03571476590163E-02 
848	 4.00317803856054E-02 
849	 3.97304195830627E-02 
850	 3.95614915265935E-02 
851	 3.94329884585247E-02 
852	 3.92244562501716E-02 
853	 3.88529249713993E-02 
854	 3.84044975343937E-02 
855	 3.82494487914619E-02 
856	 3.81203229877797E-02 
857	 3.79185870691947E-02 
858	 3.76510155701125E-02 
859	 3.75059071855029E-02 
860	 3.74118799024633E-02 
861	 3.72393762413217E-02 
862	 3.68906977804956E-02 
863	 0.036618393727382 
864	 3.64658049327947E-02 
865	 3.63467247695834E-02 
866	 3.60927339469157E-02 
867	 3.58529197414284E-02 
868	 3.55082369258221E-02 
869	 3.51847207282997E-02 
870	 3.53315117297875E-02 
871	 3.51358602120674E-02 
872	 0.034674070775949 
873	 3.42245658314847E-02 
874	 3.40478465907764E-02 
875	 3.37906604732038E-02 
876	 3.34390811436977E-02 
877	 3.30871070761468E-02 
878	 3.27803269659597E-02 
879	 3.25635907215024E-02 
880	 3.23445525817029E-02 
881	 3.19888975726041E-02 
882	 3.14968005784532E-02 
883	 3.12608315304347E-02 
884	 3.11406260498912E-02 
885	 3.06701790867281E-02 
886	 3.03395927827011E-02 
887	 3.02445984165332E-02 
888	 3.01473687606002E-02 
889	 2.95743791736653E-02 
890	 2.95670293608146E-02 
891	 2.95320625064352E-02 
892	 2.90974723034557E-02 
893	 2.88738591316713E-02 
894	 2.84345399562803E-02 
895	 2.81795019993852E-02 
896	 2.83693257291107E-02 
897	 2.80582346037223E-02 
898	 2.77297564384745E-02 
899	 2.74534946831387E-02 
900	 2.71804613704489E-02 
901	 2.70020710456714E-02 
902	 2.66102762236958E-02 
903	 2.62964085357415E-02 
904	 2.64141644688062E-02 
905	 2.64873308702747E-02 
906	 2.62124032240193E-02 
907	 0.02568711848301 
908	 0.025276838514661 
909	 2.46470211679114E-02 
910	 2.44293834319304E-02 
911	 2.47109862604465E-02 
912	 2.49196044068491E-02 
913	 2.38675075711685E-02 
914	 2.37673502560304E-02 
915	 2.44467034196697E-02 
916	 2.30060197625918E-02 
917	 2.24972626802021E-02 
918	 2.24059928652928E-02 
919	 0.022078886443027 
920	 2.14321600647192E-02 
921	 2.11586832371045E-02 
922	 2.12352327148175E-02 
923	 2.12770969237425E-02 
924	 2.04624526921823E-02 
925	 1.99348397764363E-02 
926	 1.97895695526101E-02 
927	 1.97157491334219E-02 
928	 1.91736574367442E-02 
929	 1.90042237108043E-02 
930	 1.92069364419847E-02 
931	 1.93816478855072E-02 
932	 2.04487960486667E-02 
933	 1.88983548809575E-02 
934	 0.01742538701316 
935	 1.98714379875817E-02 
936	 1.92868608201166E-02 
937	 1.87185292359228E-02 
938	 1.82377481411196E-02 
939	 1.75152995715502E-02 
940	 1.88430904136375E-02 
941	 1.93263350161237E-02 
942	 0.018729611382135 
943	 1.84800231343925E-02 
944	 2.07365041508424E-02 
945	 2.25067857470792E-02 
946	 2.05727250051819E-02 
947	 1.47569093308024E-02 
948	 1.83277614283529E-02 
949	 0.018609784521104 
950	 1.56339875218633E-02 
951	 0.017000645769558 
952	 1.88104285275412E-02 
953	 1.81298553158966E-02 
954	 1.70727016270056E-02 
955	 1.93762459209131E-02 
956	 1.66918951504431E-02 
957	 1.58270118961649E-02 
958	 1.75474833980984E-02 
959	 1.77381315663291E-02 
960	 0.015732554785417 
961	 1.49079474037059E-02 
962	 1.55416661068584E-02 
963	 0.015708855242732 
964	 1.65229332124139E-02 
965	 1.65333980471785E-02 
966	 0.015710840952888 
967	 1.50801377390872E-02 
968	 1.45104960650078E-02 
969	 1.53635555384388E-02 
970	 1.63652301802466E-02 
971	 1.48145151065497E-02 
972	 1.62872934584022E-02 
973	 1.67498149426685E-02 
974	 1.54980492850497E-02 
975	 1.58254898032509E-02 
976	 0.016700342392586 
977	 1.71019875163892E-02 
978	 1.71827261213127E-02 
979	 1.77894957767707E-02 
980	 1.67136875186485E-02 
981	 1.60876017942188E-02 
982	 1.61078897405606E-02 
983	 1.54302959648485E-02 
984	 1.63571016116263E-02 
985	 1.72246788288846E-02 
986	 1.70138514006311E-02 
987	 1.60177093179176E-02 
988	 1.74304524410935E-02 
989	 1.74436864592908E-02 
990	 1.60439392460573E-02 
991	 1.62139613456892E-02 
992	 1.70218933549371E-02 
993	 0.017213572547554 
994	 1.68337455644065E-02 
995	 1.67861125949354E-02 
996	 1.68886150873486E-02 
997	 1.68194726374106E-02 
998	 1.64743507882736E-02 
999	 1.60548452577996E-02 
1000	 1.63985344078558E-02 
1001	 1.79233970744716E-02 
1002	 1.76472600715526E-02 
1003	 1.74133376208288E-02 
1004	 1.72699496268976E-02 
1005	 1.71502641687497E-02 
1006	 1.68443788230535E-02 
1007	 1.67937123653282E-02 
1008	 1.69685617117416E-02 
1009	 1.71247681498023E-02 
1010	 1.72334485406879E-02 
1011	 1.71606623026314E-02 
1012	 1.70381270680183E-02 
1013	 1.68266458801544E-02 
1014	 1.67951069316765E-02 
1015	 1.69293625787424E-02 
1016	 1.69917196550732E-02 
1017	 1.71248978004736E-02 
1018	 1.71857301160002E-02 
1019	 1.71907332341742E-02 
1020	 1.71730059865417E-02 
1021	 0.017062237380151 
1022	 1.70837516558163E-02 
1023	 1.72189644481013E-02 
1024	 1.71203950122381E-02 
1025	 1.69765459033683E-02 
1026	 1.70239081658548E-02 
1027	 1.70054186329074E-02 
1028	 1.68225890353216E-02 
1029	 1.70016508101166E-02 
1030	 1.74770349945939E-02 
1031	 1.76648195114166E-02 
1032	 1.80028926053095E-02 
1033	 1.80722810242059E-02 
1034	 0.017854038565203 
1035	 1.77334737535082E-02 
1036	 1.74608314568393E-02 
1037	 1.73190422710256E-02 
1038	 1.73233410921577E-02 
1039	 1.71270579022394E-02 
1040	 1.69307897511642E-02 
1041	 0.017243247497667 
1042	 1.73707286924669E-02 
1043	 0.017560495064257 
1044	 1.77087482063311E-02 
1045	 1.78738945034882E-02 
1046	 1.80327851575613E-02 
1047	 1.82717948617032E-02 
1048	 1.83021119930428E-02 
1049	 1.82600417180494E-02 
1050	 1.81867125410481E-02 
1051	 1.77528064792792E-02 
1052	 1.77014959090568E-02 
1053	 1.79362506948075E-02 
1054	 1.80174152801335E-02 
1055	 1.82707723572691E-02 
1056	 1.84152398040414E-02 
1057	 1.84819127479487E-02 
1058	 0.018344223412748 
1059	 1.84138387259653E-02 
1060	 1.86107779022869E-02 
1061	 1.85939404837039E-02 
1062	 1.84748948194939E-02 
1063	 1.84880956730676E-02 
1064	 1.83524693290828E-02 
1065	 1.84225654841757E-02 
1066	 1.88784836579905E-02 
1067	 1.89804351397613E-02 
1068	 1.90036759992148E-02 
1069	 1.89464558917594E-02 
1070	 1.86459964929263E-02 
1071	 1.84090314970402E-02 
1072	 1.80977849404752E-02 
1073	 1.77926509276495E-02 
1074	 0.017802337292789 
1075	 0.017955651972639 
1076	 1.81357562873934E-02 
1077	 1.87041386928475E-02 
1078	 1.88110877831116E-02 
1079	 1.87229190698773E-02 
1080	 1.86094215138607E-02 
1081	 1.82928119415187E-02 
1082	 1.81075012511135E-02 
1083	 1.77967773717727E-02 
1084	 1.77117553146903E-02 
1085	 1.77760569620706E-02 
1086	 1.77951207154774E-02 
1087	 1.81417135981885E-02 
1088	 1.81788894517105E-02 
1089	 1.79042550206718E-02 
1090	 0.017833077492064 
1091	 1.76107393869805E-02 
1092	 1.70948723589126E-02 
1093	 1.70100266162065E-02 
1094	 1.70512359047047E-02 
1095	 1.71273032585536E-02 
1096	 1.76689940059974E-02 
1097	 1.76565135955595E-02 
1098	 1.72802757781508E-02 
1099	 1.71431675451648E-02 
1100	 1.67136683115592E-02 
1101	 1.65900940735544E-02 
1102	 1.68927004297826E-02 
1103	 1.70069847388869E-02 
1104	 0.017284948642614 
1105	 1.72502618602461E-02 
1106	 1.68065787299611E-02 
1107	 1.66589211109206E-02 
1108	 1.64223168970346E-02 
1109	 1.60662984889655E-02 
1110	 1.58888071850261E-02 
1111	 0.015869400834613 
1112	 1.59459151367918E-02 
1113	 1.63405753228745E-02 
1114	 1.63251512305664E-02 
1115	 1.64584388814385E-02 
1116	 1.63105017918048E-02 
1117	 1.46677249364918E-02 
1118	 1.44201536915646E-02 
1119	 0.016125309824133 
1120	 1.66406383051488E-02 
1121	 0.018314370137584 
1122	 1.78675948009849E-02 
1123	 1.75945822724835E-02 
1124	 1.55448698474834E-02 
1125	 1.20097839616175E-02 
1126	 1.44995817142856E-02 
1127	 0.016978940524045 
1128	 1.55338488237403E-02 
1129	 1.57644765845033E-02 
1130	 1.79475891436432E-02 
1131	 1.80417985108208E-02 
1132	 1.70436253532967E-02 
1133	 1.67259412668446E-02 
1134	 1.54623381510589E-02 
1135	 1.53213084323085E-02 
1136	 1.62191969585867E-02 
1137	 0.016250343400367 
1138	 1.65014969117978E-02 
1139	 1.64250910421194E-02 
1140	 1.59337374937213E-02 
1141	 1.62976191082869E-02 
1142	 1.69306658822786E-02 
1143	 0.017345715878569 
1144	 1.76653480629896E-02 
1145	 1.74284070656998E-02 
1146	 1.62464631032434E-02 
1147	 1.56135475096174E-02 
1148	 1.56642765536838E-02 
1149	 1.43564487286951E-02 
1150	 1.42052228453884E-02 
1151	 1.52620935959204E-02 
1152	 1.54421917264278E-02 
1153	 1.51682699459634E-02 
1154	 1.50495214912469E-02 
1155	 1.48220945161582E-02 
1156	 1.45444935214189E-02 
1157	 1.43000320395395E-02 
1158	 1.51398653201855E-02 
1159	 1.57451197647535E-02 
1160	 1.52130841256694E-02 
1161	 1.49910540696711E-02 
1162	 1.49830180724271E-02 
1163	 1.47988400576922E-02 
1164	 1.48508576547085E-02 
1165	 1.49009651348043E-02 
1166	 1.50057967899472E-02 
1167	 0.015200909983902 
1168	 1.53009628022484E-02 
1169	 1.50902751867036E-02 
1170	 1.48786524547765E-02 
1171	 1.48993106423342E-02 
1172	 0.014871729695945 
1173	 0.01490810145862 
1174	 1.52737198146022E-02 
1175	 1.54395643061228E-02 
1176	 1.51058016383382E-02 
1177	 1.49966294480909E-02 
1178	 1.48425439863467E-02 
1179	 1.47300533002674E-02 
1180	 1.48813706238619E-02 
1181	 1.48616397070735E-02 
1182	 1.49768815277102E-02 
1183	 1.51186060553715E-02 
1184	 1.48368387605721E-02 
1185	 1.48227689558527E-02 
1186	 1.50739754993312E-02 
1187	 1.50460937767094E-02 
1188	 0.015162980938562 
1189	 1.52423214183393E-02 
1190	 1.49591465750702E-02 
1191	 1.49695098291331E-02 
1192	 1.49834675633068E-02 
1193	 1.51091334031473E-02 
1194	 1.51212165371296E-02 
1195	 1.52815178509311E-02 
1196	 1.52174221074202E-02 
1197	 1.49781345487937E-02 
1198	 1.49227435840486E-02 
1199	 1.50917404032796E-02 
1200	 1.51214280955616E-02 
1201	 1.49654334363079E-02 
1202	 0.015015401979171 
1203	 1.50677543040528E-02 
1204	 1.49996266729739E-02 
1205	 1.50770273573593E-02 
1206	 1.51747856359484E-02 
1207	 1.50948430596821E-02 
1208	 1.49743656951419E-02 
1209	 1.49808292450158E-02 
1210	 1.50894543052528E-02 
1211	 0.01508411772235 
1212	 1.50295600849882E-02 
1213	 1.49522540685852E-02 
1214	 1.49477289055332E-02 
1215	 1.49637113515888E-02 
1216	 1.50360551032891E-02 
1217	 1.49081457892123E-02 
1218	 1.48992257870391E-02 
1219	 1.50452708233221E-02 
1220	 1.50137244121714E-02 
1221	 1.50754732913181E-02 
1222	 1.53302545942777E-02 
1223	 1.52721741462303E-02 
1224	 1.48996369984711E-02 
1225	 1.48032863058417E-02 
1226	 1.48118769247311E-02 
1227	 1.47284187232896E-02 
1228	 1.48992328123295E-02 
1229	 1.51057789160625E-02 
1230	 1.49841141701083E-02 
1231	 1.48068389564542E-02 
1232	 1.47992118977795E-02 
1233	 1.46855173650804E-02 
1234	 1.46297418303246E-02 
1235	 1.46585997280175E-02 
1236	 1.48033899273192E-02 
1237	 1.47884261700563E-02 
1238	 1.47278881346029E-02 
1239	 1.48596251332127E-02 
1240	 1.47073765935079E-02 
1241	 1.46141870812234E-02 
1242	 1.46796564299031E-02 
1243	 1.46475193974022E-02 
1244	 1.47469506016345E-02 
1245	 1.48128836571382E-02 
1246	 1.48197299631987E-02 
1247	 1.47455997368968E-02 
1248	 1.45334515677218E-02 
1249	 1.45830391231173E-02 
1250	 1.47834932484133E-02 
1251	 1.47557091675712E-02 
1252	 1.46570492645592E-02 
1253	 1.47511425813796E-02 
1254	 0.014891825430921 
1255	 1.48943008410613E-02 
1256	 1.48690435840549E-02 
1257	 1.48917400968472E-02 
1258	 1.49354425115735E-02 
1259	 1.48173631706855E-02 
1260	 1.47921847548499E-02 
1261	 1.49728657722617E-02 
1262	 1.50044747129474E-02 
1263	 1.48659591191003E-02 
1264	 1.48932375578189E-02 
1265	 1.49266648119951E-02 
1266	 1.48790314911346E-02 
1267	 1.47538487446608E-02 
1268	 1.46875137302035E-02 
1269	 1.48375761191215E-02 
1270	 1.48943239895475E-02 
1271	 1.49359832566769E-02 
1272	 1.50222521502863E-02 
1273	 1.49129035346043E-02 
1274	 1.48083118327137E-02 
1275	 1.47274915678108E-02 
1276	 1.46414564963006E-02 
1277	 1.47585082270539E-02 
1278	 1.49480041745795E-02 
1279	 1.49023090628483E-02 
1280	 0.014692718238124 
1281	 1.46582269094318E-02 
1282	 1.45489180534643E-02 
1283	 1.45559566195978E-02 
1284	 1.48286416047286E-02 
1285	 1.49187237771278E-02 
1286	 1.48425455831211E-02 
1287	 1.48225611931155E-02 
1288	 0.014918621927748 
1289	 1.48707235372491E-02 
1290	 1.47045293728027E-02 
1291	 1.46188881600375E-02 
1292	 1.46408339213801E-02 
1293	 1.45062855115828E-02 
1294	 0.014659226003794 
1295	 1.48247267657672E-02 
1296	 1.47517071287306E-02 
1297	 1.48693987586484E-02 
1298	 1.47698336118728E-02 
1299	 1.46148508927659E-02 
1300	 1.47838696720996E-02 
1301	 1.48035430722095E-02 
1302	 1.48234674929408E-02 
1303	 1.48852559562985E-02 
1304	 1.47622295669599E-02 
1305	 0.014595596315558 
1306	 1.45476881527632E-02 
1307	 0.014685435677647 
1308	 1.46827270315448E-02 
1309	 0.014580082908167 
1310	 1.46242935216137E-02 
1311	 1.47980409324326E-02 
1312	 1.47441808721514E-02 
1313	 1.46245889266177E-02 
1314	 1.46117153136554E-02 
1315	 1.44941916614274E-02 
1316	 1.43451095806717E-02 
1317	 1.42344898304498E-02 
1318	 1.42243245936489E-02 
1319	 1.42135674011459E-02 
1320	 1.41583115928826E-02 
1321	 1.42734896945581E-02 
1322	 1.42909964818919E-02 
1323	 1.42127210441135E-02 
1324	 1.41214361125182E-02 
1325	 1.40988696521899E-02 
1326	 1.42190910222503E-02 
1327	 1.41418148162252E-02 
1328	 1.36191632828609E-02 
1329	 1.34906918109907E-02 
1330	 1.41502388674523E-02 
1331	 1.49194474499484E-02 
1332	 1.48109981521379E-02 
1333	 0.01402973380198 
1334	 1.36867914903854E-02 
1335	 1.35763014526049E-02 
1336	 1.34991185478498E-02 
1337	 0.013793236993783 
1338	 1.52497214202864E-02 
1339	 1.50885274773389E-02 
1340	 1.36705481144002E-02 
1341	 1.33348559836441E-02 
1342	 1.23533424451592E-02 
1343	 1.20687762869302E-02 
1344	 1.37010790406744E-02 
1345	 1.43903932372791E-02 
1346	 1.48211026728757E-02 
1347	 0.015151045906526 
1348	 1.41434411139413E-02 
1349	 1.46382868653653E-02 
1350	 1.74187378211814E-02 
1351	 1.89213300398089E-02 
1352	 2.07631775357491E-02 
1353	 2.49600234097888E-02 
1354	 3.22031526360026E-02 
1355	 2.61229533439613E-02 
1356	 2.06519208924439E-02 
1357	 5.49105233351389E-02 
1358	 0.051317441200576 
1359	 5.03399862349828E-03 
1360	 0.021160991103882 
1361	 7.21711055366338E-02 
1362	 0.128972234270201 
1363	 0.208092873492828 
1364	 0.224493184054374 
1365	 0.157262968247726 
1366	 0.180559260765827 
1367	 0.255404028484847 
1368	 0.24654647331227 
1369	 0.215655153502988 
1370	 0.194455084762959 
1371	 5.54318532601444E-02 
1372	 0.107141265023667 
1373	 0.427457109985969 
1374	 0.398715237102482 
1375	 0.198693994537504 
1376	 0.215173005934681 
1377	 0.188687496141083 
1378	 0.111406257546729 
1379	 0.182813281553048 
1380	 0.258693990674635 
1381	 0.245602162875903 
1382	 0.165527499284331 
1383	-4.86482262815391E-02 
1384	-3.37404575004448E-02 
1385	-3.32307467256642E-02 
1386	-5.17048874933474E-02 
1387	 0.397046165598301 
1388	 0.593706349301987 
1389	 0.548744295204394 
1390	 0.5736649494869 
1391	 0.686719630441593 
1392	 0.416820527833248 
1393	 0.3281644186825 
1394	 0.495163865082175 
1395	 0.449130605711274 
1396	 0.191401872063364 
1397	 0.197354760397872 
1398	 0.165354059967818 
1399	 0.126090170060564 
1400	 0.274010066211133 
1401	 0.582872544621104 
1402	 0.67092125586192 
1403	 0.388913268201684 
1404	 0.396394690647732 
1405	 0.363830777972966 
1406	 4.72650771226771E-02 
1407	 9.87331888606614E-03 
1408	 0.24862890000156 
1409	 0.277606278109328 
1410	 0.264777409146693 
1411	 0.181958407302806 
1412	 6.03894507492803E-02 
1413	 6.65370200457415E-02 
1414	 7.81860513934232E-02 
1415	 6.90304095575995E-02 
1416	 0.119432922609926 
1417	 0.122415054125194 
1418	 8.96658210876138E-02 
1419	 6.01122127134519E-02 
1420	 3.72380381619616E-02 
1421	 2.94355447408895E-02 
1422	 4.73562965859906E-03 
1423	 4.61009284385854E-03 
1424	 3.48103554495673E-02 
1425	 0.034886611498845 
1426	 2.19461848507405E-02 
1427	 0.018307988417369 
1428	 7.98495790328055E-03 
1429	 7.01413170934047E-03 
1430	 1.91763725888455E-02 
1431	 1.99402596907545E-02 
1432	 1.46821811899572E-02 
1433	 1.31774803666959E-02 
1434	 6.71009165798496E-03 
1435	 6.67691109898986E-03 
1436	 1.54002811394405E-02 
1437	 1.81824602648155E-02 
1438	 1.73722423149494E-02 
1439	 2.00464016071495E-02 
1440	 2.27826784345893E-02 
1441	 2.11807442624759E-02 
1442	 1.75241316443387E-02 
1443	 0.016631781927076 
1444	 1.50489187290644E-02 
1445	 1.28813400666621E-02 
1446	 0.013401247215801 
1447	 1.37863527005814E-02 
1448	 1.33610014254971E-02 
1449	 1.15843862395242E-02 
1450	 1.01386929194641E-02 
1451	 1.13526793057582E-02 
1452	 1.32983252819428E-02 
1453	 1.38409511278803E-02 
1454	 1.20798419289988E-02 
1455	 8.91343716879177E-03 
1456	 8.49940014791665E-03 
1457	 7.39982090231355E-03 
1458	 7.01174030193484E-03 
1459	 8.59986008316298E-03 
1460	 9.0062188488946E-03 
1461	 8.08256583227057E-03 
1462	 8.16561675699642E-03 
1463	 9.65980596026894E-03 
1464	 9.98435909310708E-03 
1465	 9.00256471734813E-03 
1466	 9.09293410794357E-03 
1467	 9.96294890845498E-03 
1468	 1.04739239031593E-02 
1469	 1.16441185337568E-02 
1470	 1.16150617083687E-02 
1471	 1.00963970352217E-02 
1472	 9.74281269368569E-03 
1473	 9.53201162360942E-03 
1474	 0.009329297221682 
1475	 9.59594414896324E-03 
1476	 9.79603573865741E-03 
1477	 1.02287830042241E-02 
1478	 9.86806566185408E-03 
1479	 8.85165905542566E-03 
1480	 8.97283247679353E-03 
1481	 9.0213754822895E-03 
1482	 9.14669843094927E-03 
1483	 1.05015341570746E-02 
1484	 1.04381201009505E-02 
1485	 8.99431683964931E-03 
1486	 8.95424171697437E-03 
1487	 9.80565105704143E-03 
1488	 9.52069335892196E-03 
1489	 8.83448413688073E-03 
1490	 8.87028030902246E-03 
1491	 8.71242156494429E-03 
1492	 8.48357324516973E-03 
1493	 8.74424415431564E-03 
1494	 8.87891685422862E-03 
1495	 8.61113898636039E-03 
1496	 8.54731131522214E-03 
1497	 8.77193263944583E-03 
1498	 8.88803919096582E-03 
1499	 8.8517058446108E-03 
1500	 8.93037954722336E-03 
1501	 9.2582937290078E-03 
1502	 0.009309403951178 
1503	 9.16366586990562E-03 
1504	 9.14985954057077E-03 
1505	 9.03524264813405E-03 
1506	 8.94771127912302E-03 
1507	 9.27268352073267E-03 
1508	 9.50189115296452E-03 
1509	 9.56879812186231E-03 
1510	 9.65346262237925E-03 
1511	 9.42945498532196E-03 
1512	 9.18759885426922E-03 
1513	 9.28984855439723E-03 
1514	 9.41022356716869E-03 
1515	 9.60297765452321E-03 
1516	 9.81770830798668E-03 
1517	 9.65119455420996E-03 
1518	 9.41506113358753E-03 
1519	 9.39880062744061E-03 
1520	 9.48503458704645E-03 
1521	 9.60419504004344E-03 
1522	 9.70258055828616E-03 
1523	 9.72960419748494E-03 
1524	 9.65315629310541E-03 
1525	 9.55679155525302E-03 
1526	 9.5307502902611E-03 
1527	 9.56402867959749E-03 
1528	 9.77181383739609E-03 
1529	 9.98872068020916E-03 
1530	 9.97728403620476E-03 
1531	 9.97371668867038E-03 
1532	 9.97071042531657E-03 
1533	 9.90340120310766E-03 
1534	 9.9504753897083E-03 
1535	 1.01639279525457E-02 
1536	 1.03109867725859E-02 
1537	 1.03167997452367E-02 
1538	 1.04175092192383E-02 
1539	 1.03744373614016E-02 
1540	 1.02301586401627E-02 
1541	 1.03748372865653E-02 
1542	 1.05734722283559E-02 
1543	 1.06465566763302E-02 
1544	 1.06183636946376E-02 
1545	 1.04444139757396E-02 
1546	 1.02396820268565E-02 
1547	 1.02031352171214E-02 
1548	 0.010262157414197 
1549	 1.03951874758391E-02 
1550	 1.06740282321122E-02 
1551	 1.06279104363099E-02 
1552	 1.04782869382435E-02 
1553	 1.07472055304551E-02 
1554	 1.08942499788255E-02 
1555	 0.010882156325221 
1556	 1.10179145655841E-02 
1557	 1.09618657770964E-02 
1558	 1.06925992133227E-02 
1559	 1.06770261890033E-02 
1560	 1.09076149325141E-02 
1561	 1.08925893913471E-02 
1562	 1.07671570803054E-02 
1563	 1.07870861060825E-02 
1564	 1.07951489900706E-02 
1565	 1.09581955749324E-02 
1566	 1.11486851171927E-02 
1567	 1.09348478026533E-02 
1568	 1.07709133194818E-02 
1569	 1.09211863067881E-02 
1570	 1.08378366436169E-02 
1571	 1.07999266227021E-02 
1572	 0.011061839167212 
1573	 1.11179678710246E-02 
1574	 1.10624569400119E-02 
1575	 0.011106346963683 
1576	 1.10889103255501E-02 
1577	 1.10637852674954E-02 
1578	 1.10148379202208E-02 
1579	 1.10233087638244E-02 
1580	 1.12039601052451E-02 
1581	 1.12655495436487E-02 
1582	 0.011218117988733 
1583	 1.12678320771114E-02 
1584	 0.011381989250248 
1585	 1.14790871378379E-02 
1586	 1.14043733951978E-02 
1587	 1.13260021837662E-02 
1588	 1.14030286382898E-02 
1589	 1.12837065811613E-02 
1590	 1.11408895904298E-02 
1591	 1.12568887174728E-02 
1592	 1.12751762643227E-02 
1593	 1.10925531587692E-02 
1594	 1.10336467507887E-02 
1595	 1.12701595644717E-02 
1596	 0.011459788267268 
1597	 0.0113690761304 
1598	 1.13814277815346E-02 
1599	 1.15254574801683E-02 
1600	 1.14184057067073E-02 
1601	 1.12893939072286E-02 
1602	 0.011409252224962 
1603	 1.14387552586876E-02 
1604	 1.12528401169953E-02 
1605	 1.13237271399146E-02 
1606	 1.15064289377522E-02 
1607	 1.13208463473594E-02 
1608	 1.13095929418028E-02 
1609	 1.16281143427882E-02 
1610	 1.16683816575604E-02 
1611	 1.15833506085953E-02 
1612	 1.15410506016267E-02 
1613	 1.13397166213153E-02 
1614	 1.13018101078029E-02 
1615	 1.14566666759193E-02 
1616	 1.14063843786708E-02 
1617	 1.14660282551376E-02 
1618	 1.17124953875504E-02 
1619	 0.011667231186692 
1620	 1.17236363630528E-02 
1621	 1.19787897563296E-02 
1622	 0.01198312296338 
1623	 1.18880720783461E-02 
1624	 1.17478858625621E-02 
1625	 1.15638857517342E-02 
1626	 1.14690351772445E-02 
1627	 1.15865870944575E-02 
1628	 1.17789976164166E-02 
1629	 1.17621215248022E-02 
1630	 1.16826551642282E-02 
1631	 1.17243505256032E-02 
1632	 1.17434761751273E-02 
1633	 1.16409331981005E-02 
1634	 1.15358502888987E-02 
1635	 1.14225191959901E-02 
1636	 0.011487085563569 
1637	 1.17424052514554E-02 
1638	 1.17169526705653E-02 
1639	 1.17018561154913E-02 
1640	 1.19321945328788E-02 
1641	 1.18900499841168E-02 
1642	 1.17553056739882E-02 
1643	 1.18968537209032E-02 
1644	 0.011861364857778 
1645	 1.16486936941144E-02 
1646	 1.17499999355564E-02 
1647	 1.18629996075617E-02 
1648	 1.17260881285134E-02 
1649	 1.16415047146197E-02 
1650	 1.14992730837556E-02 
1651	 1.12226412117412E-02 
1652	 1.13721788738594E-02 
1653	 1.18245520408838E-02 
1654	 1.19190146833354E-02 
1655	 1.20279341740105E-02 
1656	 1.20353714827423E-02 
1657	 1.17118280069541E-02 
1658	 1.17334862289494E-02 
1659	 1.19078448299097E-02 
1660	 1.17904052435543E-02 
1661	 1.17160649421253E-02 
1662	 1.17361973037014E-02 
1663	 1.16181336676195E-02 
1664	 1.16482232954893E-02 
1665	 1.18130970605039E-02 
1666	 1.17576044818857E-02 
1667	 1.16262723913162E-02 
1668	 1.17391510404598E-02 
1669	 1.19754324640422E-02 
1670	 1.20690878388378E-02 
1671	 0.011778417127516 
1672	 1.15325557628979E-02 
1673	 1.14903127825356E-02 
1674	 1.13124765878998E-02 
1675	 1.11043171264884E-02 
1676	 1.14019060469921E-02 
1677	 1.16806461923233E-02 
1678	 1.14515006525567E-02 
1679	 1.14712883210609E-02 
1680	 0.011555592302182 
1681	 1.11693248138381E-02 
1682	 1.12135183236418E-02 
1683	 1.17380259252012E-02 
1684	 1.17616859388193E-02 
1685	 1.15371722966132E-02 
1686	 1.15713482182085E-02 
1687	 1.16073311021044E-02 
1688	 0.011335507325609 
1689	 1.12459918415297E-02 
1690	 1.14192601426961E-02 
1691	 1.13374406774948E-02 
1692	 1.14618066712633E-02 
1693	 1.16565187472098E-02 
1694	 1.15099565821265E-02 
1695	 1.14252033562955E-02 
1696	 1.14804902443395E-02 
1697	 1.15418400439038E-02 
1698	 0.011438244937307 
1699	 1.13033821503559E-02 
1700	 1.12329354204354E-02 
1701	 1.11899861578882E-02 
1702	 1.13982417874829E-02 
1703	 1.15220222615115E-02 
1704	 1.14859921836277E-02 
1705	 1.15428040970726E-02 
1706	 1.15588448040467E-02 
1707	 1.14934885096557E-02 
1708	 1.13678414533498E-02 
1709	 1.11524344937312E-02 
1710	 1.08305634120974E-02 
1711	 1.08405130311667E-02 
1712	 1.11427652323087E-02 
1713	 1.10955608876664E-02 
1714	 1.12920114096515E-02 
1715	 1.14660471793012E-02 
1716	 1.12033466037828E-02 
1717	 1.09456113117578E-02 
1718	 1.08254124651465E-02 
1719	 1.11474916423799E-02 
1720	 1.12212290526562E-02 
1721	 1.13464160752062E-02 
1722	 1.14505439515567E-02 
1723	 1.11429557935352E-02 
1724	 1.12161692055915E-02 
1725	 0.011298873262123 
1726	 1.06579927978217E-02 
1727	 1.02340896728291E-02 
1728	 1.05492667402377E-02 
1729	 1.10265237051094E-02 
1730	 1.11297202167771E-02 
1731	 1.11618181198786E-02 
1732	 1.11570648489913E-02 
1733	 1.07409866546911E-02 
1734	 1.07748464104111E-02 
1735	 1.10766104070678E-02 
1736	 1.09992477323738E-02 
1737	 1.13129529645131E-02 
1738	 1.16658265637527E-02 
1739	 1.14494597007658E-02 
1740	 1.10245081649295E-02 
1741	 1.02538405304862E-02 
1742	 1.01718747207341E-02 
1743	 1.09123101343112E-02 
1744	 1.08418685974525E-02 
1745	 1.08124143877607E-02 
1746	 1.04547685417622E-02 
1747	 1.01590800945837E-02 
1748	 1.04524636065689E-02 
1749	 1.07178914746024E-02 
1750	 1.08671180902543E-02 
1751	 1.08449328399576E-02 
1752	 1.07887920925262E-02 
1753	 0.010684245057842 
1754	 1.02187011696542E-02 
1755	 1.03893681474385E-02 
1756	 1.12845623117247E-02 
1757	 1.14674176577673E-02 
1758	 0.011230731523305 
1759	 1.06713962635692E-02 
1760	 1.02912110880564E-02 
1761	 1.05754870674005E-02 
1762	 1.03607856106671E-02 
1763	 9.96981257939629E-03 
1764	 1.04966039913553E-02 
1765	 1.11696629023331E-02 
1766	 1.14153869247979E-02 
1767	 0.011341798959464 
1768	 1.08889179850846E-02 
1769	 1.00688615144044E-02 
1770	 1.02704719548004E-02 
1771	 1.13191923516992E-02 
1772	 1.08976217325111E-02 
1773	 1.00393517014875E-02 
1774	 9.96042155649255E-03 
1775	 1.02739502484897E-02 
1776	 1.04623003814192E-02 
1777	 1.08217272662442E-02 
1778	 1.06656146601293E-02 
1779	 9.62684005312079E-03 
1780	 9.57451115233646E-03 
1781	 1.03763097554145E-02 
1782	 1.09144155202651E-02 
1783	 1.24300175899774E-02 
1784	 1.21178781605442E-02 
1785	 9.89570026117198E-03 
1786	 9.0652634329825E-03 
1787	 7.28306486084393E-03 
1788	 6.96142815613151E-03 
1789	 9.09672959183061E-03 
1790	 9.2195546443518E-03 
1791	 9.92307679484941E-03 
1792	 1.08614722951096E-02 
1793	 0.010027234897016 
1794	 1.18678740009607E-02 
1795	 1.43141618033829E-02 
1796	 0.013141497105141 
1797	 1.39642092892594E-02 
1798	 1.35637224390808E-02 
1799	 1.12267751017907E-02 
1800	 1.26228411248867E-02 
1801	 1.14553898050078E-02 
1802	-5.45161257813127E-04 
1803	-2.08156428225516E-03 
1804	 1.30759028438608E-02 
1805	 2.04831475645979E-02 
1806	 4.21952992435833E-02 
1807	 5.11607409303224E-02 
1808	 1.81329568046267E-02 
1809	-6.69863213457109E-04 
1810	-3.41448424499645E-02 
1811	-0.027135787047798 
1812	 4.81004938769628E-02 
1813	 9.41110738068015E-02 
1814	 0.205671405933688 
1815	 0.196966011043958 
1816	-1.40641623725379E-02 
1817	-0.140865443636625 
1818	-0.262903127883595 
1819	 0.292375018267531 
1820	 0.973820790277217 
1821	 0.809812817761598 
1822	 0.63779396334344 
1823	-0.196676472304623 
1824	-0.361156214351446 
1825	-0.225149358558285 
1826	-5.24616177301274E-02 
1827	 0.678395082845787 
1828	 1.06022345067938 
1829	 0.602730578099811 
1830	 0.462550393808748 
1831	-1.23801218627633 
1832	-1.21548259735945 
1833	-1.2426397476621 
1834	-1.1799886402748 
1835	-1.63543853776484 
1836	-1.5190939344131 
1837	-0.527730310856746 
1838	-6.01092432376744E-02 
1839	 0.513595388089458 
1840	 0.227760231382429 
1841	 2.85918833082777E-02 
1842	 0.360480662311703 
1843	 0.559385182421372 
1844	 1.39371605569448 
1845	 3.23348797639316 
1846	-0.689912935315437 
1847	-0.560101698117829 
1848	-0.785335643935706 
1849	 0.123334570488987 
1850	 0.3580031575196 
1851	 0.135289194058183 
1852	 0.143259254541617 
1853	 3.27184008633666 
1854	-0.61920477599503 
1855	 5.22341801128883E-02 
1856	 0.272170243750553 
1857	 1.19818376574663 
1858	 1.29355122545896 
1859	 1.01170814795131 
1860	 0.688503761518551 
1861	 1.61236937764447 
1862	 3.56964802198148 
1863	-9.49784170654597 
1864	 24.4215491903884 
1865	 5.31313629617726 
1866	-0.366978943923443 
1867	 0.527389288225691 
1868	-1.78526822964983 
1869	-1.19865013169279 
1870	-0.351141559040236 
1871	-8.14176769871386E-02 
1872	 0.269208858490501 
1873	-0.889565226482879 
1874	-0.47658595077065 
1875	 2.38071290091848 
1876	 1.40753043714551 
1877	 0.945826081884214 
1878	 0.468013511480586 
1879	 0.386074948021557 
1880	 0.250428357785426 
1881	 8.53880215964444E-02 
1882	-0.267723198647896 
1883	-0.251470434243898 
1884	-4.11986966269742E-02 
1885	-0.431042751221506 
1886	-1.53949422420955 
1887	 1.61679155514994 
1888	 0.935947125270195 
1889	 1.34325550562703 
1890	 1.42492631718835 
1891	 2.50321688485687 
1892	-2.22555584311736 
1893	-1.34465542976968 
1894	-1.29983933777814 
1895	-1.60191889452014 
1896	-1.11781028632895 
1897	-1.31870845772629 
1898	-1.11037803388498 
1899	 0.038923294848393 
1900	 0.322810322429687 
1901	-0.982631993666949 
1902	-1.0706469796381 
1903	-1.7271674793137 
1904	-1.90863828760516 
1905	-6.90834670191208 
1906	 2.53480923491318 
1907	 2.93908414241685 
1908	 2.02408405407056 
1909	-11.5942951737479 
1910	 0.967590055654189 
1911	 7.13590471659907E-02 
1912	 0.312195485735172 
1913	 0.189950250126069 
1914	-0.995445455196914 
1915	-2.03047116625937 
1916	 2.58721272781508 
1917	 0.734114315861648 
1918	 3.10479886738993 
1919	-0.333770022457693 
1920	-1.55132151051904 
1921	 0.421311318782069 
1922	 0.332929713070984 
1923	 0.226142160155696 
1924	 0.20562435506782 
1925	-1.23920652033454E-02 
1926	-0.117180886740325 
1927	-0.230056228161601 
1928	-0.356686382826536 
1929	-0.736180382912349 
1930	-0.643453082571065 
1931	-0.306951779411915 
1932	 0.203514943506953 
1933	 5.64187585853206E-02 
1934	 8.09889407458518E-02 
1935	 7.02899617727707E-02 
1936	-0.102484646890002 
1937	-7.66555513577068E-02 
1938	-0.06970785944629 
1939	-6.22437700626053E-02 
1940	-0.063220754213291 
1941	-3.91189877890475E-03 
1942	-1.08894220937791E-02 
1943	-7.39085166086249E-03 
1944	 3.02348572506685E-02 
1945	 3.15130952508795E-02 
1946	 1.95607393152864E-02 
1947	 1.56637017907968E-02 
1948	-1.05256506107306E-02 
1949	-2.24721922338608E-02 
1950	-8.35966931981158E-03 
1951	-7.90497227442378E-03 
1952	-5.14981533692432E-03 
1953	-1.36206041809591E-03 
1954	 4.2914173253587E-03 
1955	 1.01688244463828E-02 
1956	 1.49015185769185E-02 
1957	 9.08347675416317E-03 
1958	 5.07914679007912E-03 
1959	-3.6008972535167E-03 
1960	-9.93960446206804E-03 
1961	-4.33877308265337E-03 
1962	-2.6809706976243E-04 
1963	 4.10188221503303E-03 
1964	 7.40491218839415E-03 
1965	 4.52364768550114E-03 
1966	 2.91751450740438E-03 
1967	-4.08028623123949E-04 
1968	-1.80546980843829E-03 
1969	-2.4982689081164E-04 
1970	 3.05902156028019E-03 
1971	 5.39441199675103E-03 
1972	 5.63344917953788E-03 
1973	 5.13820764017169E-03 
1974	 5.35455089920556E-03 
1975	 5.85291737454423E-03 
1976	 4.89432969377646E-03 
1977	 3.14485819245201E-03 
1978	 2.34046641623838E-03 
1979	 2.05582271475142E-03 
1980	 1.76792178855148E-03 
1981	 2.73424525956539E-03 
1982	 3.83567463376876E-03 
1983	 4.47337393135991E-03 
1984	 4.95018299331324E-03 
1985	 4.61339466005863E-03 
1986	 4.83021470151643E-03 
1987	 4.76133653737088E-03 
1988	 4.16115989023084E-03 
1989	 5.10268896800002E-03 
1990	 5.89029749650618E-03 
1991	 5.39639207384346E-03 
1992	 5.15181466340937E-03 
1993	 5.31482698752265E-03 
1994	 5.38661514704964E-03 
1995	 5.51483205721985E-03 
1996	 6.41078510020084E-03 
1997	 7.41537451340352E-03 
1998	 6.51878233127128E-03 
1999	 5.46123207396792E-03 
2000	 7.49216546572368E-03 
2001	 7.90373993063472E-03 
2002	 7.00930521175777E-03 
2003	 8.63822666681836E-03 
2004	 5.51078745394761E-03 
2005	 2.2848749777627E-03 
2006	 3.40139892792519E-03 
2007	 2.70449599704192E-03 
2008	 2.1466763073617E-03 
2009	 3.07232807916737E-03 
2010	 5.07518402761463E-03 
2011	 6.27617327355469E-03 
2012	 8.89740871495765E-03 
2013	 1.02756743528753E-02 
2014	 6.28492479742411E-03 
2015	 5.71609450515255E-03 
2016	 6.30358867929766E-03 
2017	 5.05010474647791E-03 
2018	 5.72930810518442E-03 
2019	 6.09099504722293E-03 
2020	 6.13357884810046E-03 
2021	 5.65424108679636E-03 
2022	 4.64315949243444E-03 
2023	 4.34451888365026E-03 
2024	 4.76607484756031E-03 
2025	 5.32754631658942E-03 
2026	 5.41214792759892E-03 
2027	 6.25626974210306E-03 
2028	 6.38330386280438E-03 
2029	 5.93792366666499E-03 
2030	 5.35729527131993E-03 
2031	 5.12822352637183E-03 
2032	 5.71420923823949E-03 
2033	 6.01889080121871E-03 
2034	 5.81074671669793E-03 
2035	 6.59473470201841E-03 
2036	 7.22141600268231E-03 
2037	 6.47999518012686E-03 
2038	 6.66808911190688E-03 
2039	 6.76922788817632E-03 
2040	 6.49913395945452E-03 
2041	 6.23304505648371E-03 
2042	 6.08293382665431E-03 
2043	 6.02229552300044E-03 
2044	 5.77817548133111E-03 
2045	 6.06278663184574E-03 
2046	 5.71204153600734E-03 
2047	 6.55102084091507E-03 
2048	 6.46866851014638E-03 
2049	 5.57581364820325E-03 
2050	 6.92377595862371E-03 
2051	 0.006585931286509 
2052	 5.37396063665459E-03 
2053	 5.95149850898145E-03 
2054	 5.31997545345981E-03 
2055	 4.80250687705485E-03 
2056	 4.78727718288858E-03 
2057	 5.43147319997591E-03 
2058	 5.7067040083208E-03 
2059	 6.14523832184384E-03 
2060	 6.51351193278878E-03 
2061	 7.21475539268901E-03 
2062	 6.89787332544789E-03 
2063	 6.76937240039554E-03 
2064	 7.50715131935219E-03 
2065	 7.18899859645787E-03 
2066	 7.2736700091853E-03 
2067	 7.11462113763139E-03 
2068	 5.68262245210068E-03 
2069	 5.46823893523625E-03 
2070	 5.81029163231546E-03 
2071	 6.0743285742384E-03 
2072	 6.37089593402452E-03 
2073	 6.33422779959194E-03 
2074	 5.63426420261907E-03 
2075	 5.53827180307178E-03 
2076	 5.77102134783407E-03 
2077	 6.08296982479813E-03 
2078	 6.49550363768252E-03 
2079	 6.63722125718389E-03 
2080	 6.84321365123539E-03 
2081	 6.84274368192078E-03 
2082	 6.45812516717887E-03 
2083	 6.8637645090345E-03 
2084	 7.29173636604528E-03 
2085	 6.96995575748961E-03 
2086	 6.37545723728485E-03 
2087	 6.35425108327813E-03 
2088	 6.72565314096896E-03 
2089	 6.71996767925188E-03 
2090	 7.19023982925705E-03 
2091	 7.9546347058866E-03 
2092	 7.81902392360151E-03 
2093	 6.67933289379811E-03 
2094	 6.27229801288743E-03 
2095	 5.65095827220966E-03 
2096	 5.54529065667971E-03 
2097	 6.0410574793871E-03 
2098	 6.30976034104511E-03 
2099	 6.81889593226087E-03 
2100	 7.03844055022505E-03 
2101	 6.52719291814485E-03 
2102	 6.59602258530519E-03 
2103	 7.40365675770998E-03 
2104	 7.1465591056403E-03 
2105	 6.40657917384093E-03 
2106	 6.69377149470184E-03 
2107	 7.11283981793325E-03 
2108	 6.8305397907328E-03 
2109	 7.2007534426143E-03 
2110	 7.88644821310056E-03 
2111	 7.86646514135198E-03 
2112	 7.71884635774921E-03 
2113	 7.61777862364492E-03 
2114	 7.49856373435587E-03 
2115	 7.41808409787058E-03 
2116	 7.25295592680975E-03 
2117	 7.35363743691733E-03 
2118	 7.7724667165646E-03 
2119	 7.97848590663004E-03 
2120	 8.4431491568593E-03 
2121	 8.05317383581904E-03 
2122	 7.95244696540016E-03 
2123	 8.23853741542562E-03 
2124	 7.7626869215072E-03 
2125	 7.66631205003261E-03 
2126	 7.22893663498702E-03 
2127	 6.21535948364539E-03 
2128	 6.04965992445387E-03 
2129	 6.41374043342976E-03 
2130	 6.99232446929511E-03 
2131	 7.33098855134298E-03 
2132	 7.42610724981438E-03 
2133	 7.34547045077046E-03 
2134	 7.14718711443968E-03 
2135	 6.56350993418668E-03 
2136	 6.62266509457556E-03 
2137	 6.85085607454381E-03 
2138	 6.82353272634889E-03 
2139	 6.92993519521051E-03 
2140	 7.22375743638141E-03 
2141	 7.95293784528983E-03 
2142	 7.87166942084271E-03 
2143	 7.85427680433416E-03 
2144	 6.8377558038082E-03 
2145	 5.79615135425072E-03 
2146	 5.33437383535518E-03 
2147	 5.84559681615992E-03 
2148	 7.2707557692604E-03 
2149	 7.52988217820887E-03 
2150	 7.23341635069197E-03 
2151	 7.32637245020148E-03 
2152	 7.34140633990679E-03 
2153	 7.62738509149065E-03 
2154	 7.85213333809826E-03 
2155	 7.62227721453365E-03 
2156	 7.31037957744721E-03 
2157	 7.3268713777785E-03 
2158	 7.76968097974266E-03 
2159	 7.69874110942747E-03 
2160	 7.5727697112198E-03 
2161	 7.3880738641059E-03 
2162	 6.79907121201494E-03 
2163	 6.55055932429604E-03 
2164	 6.24262308945028E-03 
2165	 6.27173570717278E-03 
2166	 6.95514293318069E-03 
2167	 7.16731416273523E-03 
2168	 7.52976514399805E-03 
2169	 7.60821124738556E-03 
2170	 7.43284285462707E-03 
2171	 6.3754860871042E-03 
2172	 6.4121601401265E-03 
2173	 5.91817663342083E-03 
2174	 5.68205094778074E-03 
2175	 7.27675855034777E-03 
2176	 7.89050336059212E-03 
2177	 8.49191405641192E-03 
2178	 9.09375637109127E-03 
2179	 8.18751575012635E-03 
2180	 8.14581398662308E-03 
2181	 9.39991507783675E-03 
2182	 9.65795756333169E-03 
2183	 9.75264485652336E-03 
2184	 9.42670127618452E-03 
2185	 7.8695229817168E-03 
2186	 7.62560725384474E-03 
2187	 8.62136404974346E-03 
2188	 8.46485635914264E-03 
2189	 8.08319861108729E-03 
2190	 8.07508739405859E-03 
2191	 8.00795136187406E-03 
2192	 7.88020099879626E-03 
2193	 7.80518914356132E-03 
2194	 8.1584561736186E-03 
2195	 8.36593257311874E-03 
2196	 8.05964924916802E-03 
2197	 8.18545593107697E-03 
2198	 8.2531328503989E-03 
2199	 7.48571900910328E-03 
2200	 7.52769181565133E-03 
2201	 8.25017531284029E-03 
2202	 8.8243408170645E-03 
2203	 8.85210265759269E-03 
2204	 8.34552492823398E-03 
2205	 7.76046570200398E-03 
2206	 6.63606820260624E-03 
2207	 5.77059912424233E-03 
2208	 6.06883269457285E-03 
2209	 6.56519600696624E-03 
2210	 7.55147725576822E-03 
2211	 7.74283810781108E-03 
2212	 6.57645486240022E-03 
2213	 5.90175073033544E-03 
2214	 5.09613143919783E-03 
2215	 5.63867945687442E-03 
2216	 7.25064552698441E-03 
2217	 7.90236581796219E-03 
2218	 8.96906523511765E-03 
2219	 9.10031085596687E-03 
2220	 7.84428702065102E-03 
2221	 0.007476719821513 
2222	 6.87294352977903E-03 
2223	 6.69189821885876E-03 
2224	 7.05712580497055E-03 
2225	 7.3248257028551E-03 
2226	 8.08790033742714E-03 
2227	 8.11399263129195E-03 
2228	 8.28867579492173E-03 
2229	 7.8766693010502E-03 
2230	 5.44780743749342E-03 
2231	 5.25573110957085E-03 
2232	 6.62448525860019E-03 
2233	 6.8900077831009E-03 
2234	 8.2376707069139E-03 
2235	 8.18901911617686E-03 
2236	 7.34499552121345E-03 
2237	 6.40839768679566E-03 
2238	 6.38489619020594E-03 
2239	 8.62849235372345E-03 
2240	 9.8983463806427E-03 
2241	 9.65712967596742E-03 
2242	 1.03372866755697E-02 
2243	 1.05730384346968E-02 
2244	 1.00054946407404E-02 
2245	 1.00085509583351E-02 
2246	 9.23763488482474E-03 
2247	 7.72906736100904E-03 
2248	 6.88383610043087E-03 
2249	 5.37396552916683E-03 
2250	 3.59355494648715E-03 
2251	 3.27775098635621E-03 
2252	 2.32477553788805E-03 
2253	 2.97553297861699E-03 
2254	 6.1115286095035E-03 
2255	 6.49510206106933E-03 
2256	 6.75393955237137E-03 
2257	 7.57412860032633E-03 
2258	 5.50768744770266E-03 
2259	 5.12205175845108E-03 
2260	 5.34066516182878E-03 
2261	 6.94435818782949E-03 
2262	 6.65770920315492E-03 
2263	 6.00475249078419E-03 
2264	 6.49518734945888E-03 
2265	 6.81792865543699E-03 
2266	 6.97667618295476E-03 
2267	 7.6887176230921E-03 
2268	 8.08175093522771E-03 
2269	 8.3244362848732E-03 
2270	 8.34867057987889E-03 
2271	 8.54299247326505E-03 
2272	 9.14791289675175E-03 
2273	 9.3437000607295E-03 
2274	 8.79907654214735E-03 
2275	 8.20738708953427E-03 
2276	 7.75869039354673E-03 
2277	 6.45814194390748E-03 
2278	 5.87730784861909E-03 
2279	 7.59371007857601E-03 
2280	 7.55895151014833E-03 
2281	 7.36520230119272E-03 
2282	 3.01342973764399E-03 
2283	 9.46503870836586E-04 
2284	 1.09989946222147E-03 
2285	 2.39357231969633E-03 
2286	 4.37787977731345E-03 
2287	 5.38927273762426E-03 
2288	 6.09677550698367E-03 
2289	 5.61219570328264E-03 
2290	 5.76229023351228E-03 
2291	 5.8570784505421E-03 
2292	 5.25731409354566E-03 
2293	 4.9535842588112E-03 
2294	 4.63696862919322E-03 
2295	 4.5247569743312E-03 
2296	 3.08894825070204E-03 
2297	 2.78437559572634E-03 
2298	 5.9215819330558E-03 
2299	 8.61581995049672E-03 
2300	 9.01088600693445E-03 
2301	 8.48794935470214E-03 
2302	 5.87520617831872E-03 
2303	 5.52221437152518E-03 
2304	 9.11988487454042E-03 
2305	 9.19861252066551E-03 
2306	 6.46916301370784E-03 
2307	 5.55029979206279E-03 
2308	 5.05672711127532E-03 
2309	 4.68404457020068E-03 
2310	 0.009003612146639 
2311	 1.28900057382495E-02 
2312	 1.05231560000805E-02 
2313	 8.25960625538368E-03 
2314	 6.72210154955221E-03 
2315	 3.58151251255791E-03 
2316	 1.43842070345574E-03 
2317	 2.13472858400077E-03 
2318	 5.34659223820422E-03 
2319	 7.60093634559439E-03 
2320	 6.73439847730415E-03 
2321	 0.003589729380249 
2322	-7.13465752426291E-04 
2323	-1.33871341189512E-03 
2324	 3.10388072114978E-03 
2325	 7.14804500283688E-03 
2326	 8.83182801731606E-03 
2327	 8.68326624848063E-03 
2328	 5.62689188516173E-03 
2329	 3.50150559548751E-03 
2330	 3.34499006544906E-03 
2331	 4.11989362009839E-03 
2332	 7.10513409147101E-03 
2333	 5.58255072224187E-03 
2334	 2.73066501226179E-03 
2335	 3.04465970612025E-03 
2336	 1.53228301649177E-03 
2337	 4.39484222340025E-03 
2338	 9.22282473400189E-03 
2339	 8.76237666778593E-03 
2340	 7.31538622800827E-03 
2341	 1.61299569976614E-03 
2342	-3.83393588415663E-03 
2343	-0.006404975072768 
2344	-1.33497975210408E-02 
2345	-1.46478593106085E-02 
2346	-7.22199285280221E-03 
2347	-3.66740823984627E-04 
2348	 3.21889577552867E-03 
2349	 3.4079017752455E-03 
2350	-3.47905747211026E-04 
2351	-6.89113339495565E-03 
2352	-1.08451807082151E-02 
2353	-7.50223686125536E-03 
2354	 1.50919674587437E-03 
2355	 4.93607945426198E-03 
2356	 3.65865715966078E-03 
2357	 8.99007467684393E-03 
2358	 1.16178303378758E-02 
2359	 1.29743150064204E-02 
2360	 1.94797204226798E-02 
2361	 1.84300892889156E-02 
2362	 8.40018442782549E-03 
2363	 9.4066836816849E-04 
2364	-6.72322272153361E-04 
2365	-9.22452401132932E-03 
2366	-1.13832678603253E-02 
2367	-8.56408493464791E-03 
2368	-2.17295086044098E-02 
2369	-1.60637723937956E-02 
2370	-8.70828403641215E-03 
2371	-2.19927673092757E-02 
2372	-1.17528261616655E-02 
2373	-3.05356448110902E-03 
2374	-7.24539558575601E-03 
2375	-9.87504649289134E-04 
2376	 1.13129701326192E-03 
2377	 1.90558567288007E-04 
2378	-5.73355989506768E-04 
2379	-2.69800783269037E-04 
2380	 2.58411062569448E-03 
2381	 8.90014166480056E-03 
2382	 1.01944790619282E-02 
2383	-0.011311023602592 
2384	-3.29964330200739E-02 
2385	-2.86824486594922E-02 
2386	-4.51187332298137E-03 
2387	 1.50889614948468E-02 
2388	 1.85924235082715E-02 
2389	 0.022559359531112 
2390	 8.53686582157918E-03 
2391	-3.12192925237144E-03 
2392	 2.08469300847584E-02 
2393	 1.97777627035879E-02 
2394	-2.18764750465234E-02 
2395	-3.97570792021935E-02 
2396	-0.026793295686785 
2397	-1.52842912445072E-02 
2398	 1.08178361046072E-02 
2399	 5.01221808676569E-02 
2400	 3.60467039125852E-02 
2401	 4.16808953893516E-03 
2402	 2.08604156367974E-03 
2403	-2.32877689310387E-02 
2404	-2.12284107202285E-02 
2405	-2.55624144274085E-02 
2406	-0.05439557758104 
2407	-0.020363976947409 
2408	-1.01783729466515E-02 
2409	 1.87682878538156E-02 
2410	 4.14719971034189E-02 
2411	-3.56977514484814E-03 
2412	-1.10258631075645E-02 
2413	-4.51894421229126E-02 
2414	-0.076276084894566 
2415	-7.90723861282535E-02 
2416	-0.170198137580627 
2417	-0.174969479128703 
2418	-0.100647265724689 
2419	-0.103657244659085 
2420	-5.63149057523694E-02 
2421	 1.07316120702134E-02 
2422	 4.23663093247573E-02 
2423	 6.06963878011287E-02 
2424	 6.44466623439803E-02 
2425	 8.96585376535533E-03 
2426	-9.44540329778767E-02 
2427	-0.156562626370418 
2428	-0.123325609271492 
2429	-4.86155143915319E-02 
2430	-1.81236640446002E-02 
2431	 3.71774019608302E-02 
2432	 0.055860844188001 
2433	 0.025665657485491 
2434	 6.80772156784303E-02 
2435	 0.100950990733434 
2436	 5.78974994602721E-02 
2437	 1.30009936112942E-02 
2438	-0.002346582585271 
2439	 8.24431462915241E-03 
2440	 4.34838280466546E-02 
2441	 4.93863658860355E-02 
2442	 6.97838475151045E-03 
2443	-6.83921396754898E-02 
2444	-4.28893323056483E-02 
2445	 4.51791344033584E-02 
2446	 2.48784767889784E-02 
2447	-3.78392366119046E-02 
2448	-6.93091397818576E-03 
2449	-1.58194034701977E-03 
2450	-0.024734396490958 
2451	 0.131334108812286 
2452	-2.29114495334835E-02 
2453	-0.380570476688 
2454	-0.576058987813937 
2455	-0.139676589157719 
2456	 5.09093607772867E-02 
2457	 0.171829743680762 
2458	 0.343769860536892 
2459	 0.338551690613293 
2460	 0.130856051966143 
2461	 0.24848196045453 
2462	 0.259401262576155 
2463	 0.145112714023813 
2464	 0.132570948934011 
2465	 6.41547857768729E-02 
2466	 6.29297633614345E-02 
2467	 0.137623267335517 
2468	 1.63232797687151E-02 
2469	-0.347997739378783 
2470	-0.764940726835197 
2471	-1.10838376276097 
2472	-1.65849903698902 
2473	 0.16283747754644 
2474	 0.247434834200431 
2475	 0.608209814484115 
2476	 0.306210550602208 
2477	 2.83387619911071E-02 
2478	 0.253639314438153 
2479	-0.106472423155237 
2480	 9.49560909107603E-02 
2481	 1.35631346995549 
2482	 1.04622300821907 
2483	 0.969262035781934 
2484	 1.12361446431563 
2485	 1.12025919155665 
2486	 1.724420054611 
2487	 1.20987101819646 
2488	 0.645874271388871 
2489	 0.376168090491153 
2490	-0.184496115048963 
2491	-0.164420754069333 
2492	-0.109577553932713 
2493	-0.404034116270545 
2494	-0.353182072477534 
2495	-0.567622778931225 
2496	-2.69600881689042 
2497	-4.11730109450804E-03 
2498	 0.413752663314372 
2499	-0.642715756763836 
2500	-2.46533218920169 
