Wavelength	rt0721algea00007.asd
350	 4.77697731260757E-02 
351	 4.70630215989327E-02 
352	 4.68440147080605E-02 
353	 4.70683327974776E-02 
354	 4.73303069257001E-02 
355	 4.71264644811548E-02 
356	 4.70218105158873E-02 
357	 4.71183587030628E-02 
358	 0.047321459559748 
359	 4.74786700636923E-02 
360	 4.70781052721364E-02 
361	 4.64314133574754E-02 
362	 4.63555028314599E-02 
363	 4.69082116381393E-02 
364	 4.68736763419478E-02 
365	 4.61045514479846E-02 
366	 0.046229698371665 
367	 4.64553940599743E-02 
368	 0.046756568904264 
369	 4.71115814436838E-02 
370	 4.68373464678452E-02 
371	 4.69002320292359E-02 
372	 4.70841192339014E-02 
373	 4.66494525661692E-02 
374	 4.68266613347366E-02 
375	 4.70757241734434E-02 
376	 4.72075061280728E-02 
377	 4.77451423682606E-02 
378	 0.047850817718447 
379	 4.78716345531927E-02 
380	 4.81379186499928E-02 
381	 4.79905322174138E-02 
382	 4.80692993200095E-02 
383	 4.84185185259206E-02 
384	 4.88080950277529E-02 
385	 4.94223733303927E-02 
386	 4.96099130514818E-02 
387	 4.94191435981723E-02 
388	 4.96898303211058E-02 
389	 0.049944149682437 
390	 5.01255793902176E-02 
391	 5.03065816068054E-02 
392	 0.050718154105797 
393	 5.07482445645278E-02 
394	 5.06994677449725E-02 
395	 5.10144138080387E-02 
396	 5.09347814696975E-02 
397	 5.09349829904505E-02 
398	 5.11722843766482E-02 
399	 5.14619553594581E-02 
400	 5.14323579222238E-02 
401	 5.14789281306671E-02 
402	 5.18021565114683E-02 
403	 5.19149520067104E-02 
404	 5.20813042751341E-02 
405	 5.22460320583608E-02 
406	 5.22827697614274E-02 
407	 5.23052800226063E-02 
408	 5.25755889977919E-02 
409	 0.05289357816049 
410	 5.26725520836251E-02 
411	 5.29848421143985E-02 
412	 5.33599021349602E-02 
413	 5.33871855197725E-02 
414	 5.34511706128847E-02 
415	 0.053648734901381 
416	 5.38848865887908E-02 
417	 5.40321704848241E-02 
418	 5.43610171859163E-02 
419	 5.46640843237661E-02 
420	 5.48791026875775E-02 
421	 5.51314213126468E-02 
422	 5.53678963237323E-02 
423	 5.56632145359829E-02 
424	 5.60168204772101E-02 
425	 5.61330326428278E-02 
426	 5.64399340307538E-02 
427	 0.056823738672938 
428	 0.056995586602912 
429	 5.74773741354982E-02 
430	 5.79014867451666E-02 
431	 5.81750545865485E-02 
432	 5.86170013987952E-02 
433	 0.058869918019889 
434	 5.90994865926917E-02 
435	 5.94832413140058E-02 
436	 5.98989273113284E-02 
437	 6.02876157313111E-02 
438	 6.06270896842114E-02 
439	 6.09357234155283E-02 
440	 6.13886500670686E-02 
441	 6.17108201564366E-02 
442	 6.18794681647009E-02 
443	 6.23085917047555E-02 
444	 6.26468050868812E-02 
445	 6.29014536788228E-02 
446	 6.31682414759428E-02 
447	 6.34915547582705E-02 
448	 6.37857254535201E-02 
449	 0.0640190529567 
450	 6.42124278731511E-02 
451	 6.44709083278996E-02 
452	 6.46646578529544E-02 
453	 6.47628051045953E-02 
454	 6.50113995673347E-02 
455	 6.51716593520836E-02 
456	 6.52396955893258E-02 
457	 6.53028379767055E-02 
458	 6.54437690845605E-02 
459	 6.55268455815021E-02 
460	 6.55701263102281E-02 
461	 0.065745730588883 
462	 6.59032491020337E-02 
463	 6.59857497975841E-02 
464	 6.60199860406426E-02 
465	 6.62141787287372E-02 
466	 0.066323810455602 
467	 6.64078164980865E-02 
468	 6.66278530269103E-02 
469	 6.67121731952509E-02 
470	 6.67738962561496E-02 
471	 6.68748852416804E-02 
472	 6.69601969705359E-02 
473	 6.71236440218322E-02 
474	 6.72744577604783E-02 
475	 6.73555729764817E-02 
476	 6.76135109125503E-02 
477	 6.78039296100284E-02 
478	 6.79020027060924E-02 
479	 6.80447276328803E-02 
480	 6.83237386320546E-02 
481	 6.85968880951291E-02 
482	 6.88043571917206E-02 
483	 6.91251154510038E-02 
484	 6.93313395026502E-02 
485	 6.95239192511512E-02 
486	 6.98696982247121E-02 
487	 7.01870395988698E-02 
488	 7.04976761537419E-02 
489	 7.08217856496549E-02 
490	 7.11683343622669E-02 
491	 0.071504847571421 
492	 7.19084634118838E-02 
493	 7.24063939285929E-02 
494	 7.28414460620362E-02 
495	 7.33103095002427E-02 
496	 0.07380580326341 
497	 7.42755358351039E-02 
498	 7.47249863057738E-02 
499	 7.52634787337356E-02 
500	 7.59214318856478E-02 
501	 7.65990166097351E-02 
502	 7.72046661541588E-02 
503	 7.77948123001234E-02 
504	 7.84451872712927E-02 
505	 7.90841393428054E-02 
506	 7.98135629129261E-02 
507	 0.080635400388509 
508	 0.081466324765023 
509	 8.22512873191525E-02 
510	 8.29830764419798E-02 
511	 8.37182240952736E-02 
512	 8.46607917205025E-02 
513	 8.55081471183329E-02 
514	 8.63183951181282E-02 
515	 8.72696501176498E-02 
516	 8.82046421122794E-02 
517	 8.91783292488005E-02 
518	 9.01516516780796E-02 
519	 9.09597715221665E-02 
520	 9.18051905855468E-02 
521	 9.26416250060511E-02 
522	 9.34313983134245E-02 
523	 9.43595175185537E-02 
524	 9.52771253130264E-02 
525	 9.61041155170068E-02 
526	 9.68380175096544E-02 
527	 9.76881022723516E-02 
528	 9.85248169075882E-02 
529	 9.92625857719619E-02 
530	 9.99965084134154E-02 
531	 0.100756768118706 
532	 0.10152833068137 
533	 0.102269688527288 
534	 0.10293955726887 
535	 0.103594625532279 
536	 0.104289410320738 
537	 0.105061246483896 
538	 0.105781539573936 
539	 0.106455615650782 
540	 0.107124946209079 
541	 0.107828239452226 
542	 0.108514560905323 
543	 0.109193739876559 
544	 0.109904150823485 
545	 0.11050699147965 
546	 0.111162638097852 
547	 0.111915787104679 
548	 0.112515277842751 
549	 0.113157558125323 
550	 0.113835827725048 
551	 0.114480909171688 
552	 0.115091148527503 
553	 0.115672633587502 
554	 0.116243269730143 
555	 0.11682798808354 
556	 0.117342214465197 
557	 0.117848444947488 
558	 0.118384808919791 
559	 0.118812234828155 
560	 0.119165911978847 
561	 0.119517315203763 
562	 0.119940965419459 
563	 0.12027600698558 
564	 0.120524697352928 
565	 0.120721262929112 
566	 0.120915847210929 
567	 0.121098389528572 
568	 0.121272426562802 
569	 0.121438418490739 
570	 0.121570302027703 
571	 0.121663265128549 
572	 0.12176988880947 
573	 0.121993954942675 
574	 0.122081980127351 
575	 0.122104313071005 
576	 0.122185725621806 
577	 0.122385372018699 
578	 0.122441297830073 
579	 0.122414038496586 
580	 0.122535497901358 
581	 0.122559438217223 
582	 0.122559397118555 
583	 0.12257334671475 
584	 0.122507293738129 
585	 0.122336276167298 
586	 0.122065494270548 
587	 0.121734094547111 
588	 0.121470217524146 
589	 0.121317205764617 
590	 0.121237304004049 
591	 0.121112476661955 
592	 0.120995551774896 
593	 0.120843039408284 
594	 0.120632809917547 
595	 0.120443387335248 
596	 0.120276669784691 
597	 0.120095170195245 
598	 0.119852642799337 
599	 0.119655497832912 
600	 0.119447176625991 
601	 0.119216395064014 
602	 0.119061792456126 
603	 0.118942077855034 
604	 0.118870717347763 
605	 0.11884868679098 
606	 0.118736749518381 
607	 0.118609554391408 
608	 0.118516855661089 
609	 0.118470115375648 
610	 0.118459419122338 
611	 0.118385394254055 
612	 0.118204200031014 
613	 0.118074867182491 
614	 0.117994769697363 
615	 0.117898680380326 
616	 0.117712822217129 
617	 0.117653204119253 
618	 0.117572566821344 
619	 0.117407034468347 
620	 0.117289028672538 
621	 0.117198852779495 
622	 0.117154549560256 
623	 0.117152727721096 
624	 0.11706985562407 
625	 0.116894155968695 
626	 0.116698922035581 
627	 0.116623107797883 
628	 0.116544642509534 
629	 0.116475482048409 
630	 0.116422842816334 
631	 0.116328977620984 
632	 0.116116583403657 
633	 0.115885092907955 
634	 0.115760512658245 
635	 0.115344340042534 
636	 0.114956827100236 
637	 0.114702787341941 
638	 0.114281452656472 
639	 0.113819742346736 
640	 0.113383931355077 
641	 0.112987547742415 
642	 0.112463847554921 
643	 0.111997788265694 
644	 0.11154536224794 
645	 0.110892809593421 
646	 0.11026952272951 
647	 0.109806820757675 
648	 0.109518320989974 
649	 0.109172738466464 
650	 0.108940485056895 
651	 0.108773449540737 
652	 0.108568916448015 
653	 0.108394461905331 
654	 0.108144192284881 
655	 0.107822892795139 
656	 0.107636797483336 
657	 0.107335731828944 
658	 0.107019728366113 
659	 0.106748771766282 
660	 0.106265468038633 
661	 0.105805013411033 
662	 0.105424855738766 
663	 0.105072019372949 
664	 0.104697896105882 
665	 0.104368841933569 
666	 0.104105867056793 
667	 0.103831193536337 
668	 0.103584568521828 
669	 0.103366347878366 
670	 0.103175326318746 
671	 0.10304945498271 
672	 0.102997444223741 
673	 0.102986066724066 
674	 0.102951578940183 
675	 0.102964345104912 
676	 0.102992598120551 
677	 0.103057452737408 
678	 0.103375633487534 
679	 0.103687498199236 
680	 0.103994944301771 
681	 0.104431821770019 
682	 0.105113025327776 
683	 0.10596121195188 
684	 0.106880688973609 
685	 0.107862012433476 
686	 0.109032035459541 
687	 0.110396805061954 
688	 0.111822309813698 
689	 0.113274695793549 
690	 0.114645253033476 
691	 0.115970354536706 
692	 0.117373308525428 
693	 0.118729041737395 
694	 0.120145988479671 
695	 0.121560928349747 
696	 0.122768559013885 
697	 0.123740881426671 
698	 0.124602071585419 
699	 0.125436090543027 
700	 0.126229685612725 
701	 0.126937327241291 
702	 0.127534810760413 
703	 0.128037035885243 
704	 0.128415785911926 
705	 0.128674625686071 
706	 0.128819007871225 
707	 0.128892567600849 
708	 0.128665626407974 
709	 0.12833538772485 
710	 0.128148920156065 
711	 0.127677106831803 
712	 0.126973033961948 
713	 0.126100497301719 
714	 0.125077505776411 
715	 0.123876598147415 
716	 0.122417647073359 
717	 0.120844911769853 
718	 0.119705804268567 
719	 0.118581944134472 
720	 0.117582706000401 
721	 0.116706260047684 
722	 0.115516323401197 
723	 0.113982345535771 
724	 0.112377994651179 
725	 0.11090754471431 
726	 0.109378326014101 
727	 0.107665648822709 
728	 0.105734321751208 
729	 0.103644138671508 
730	 0.101637982713572 
731	 9.98392921755741E-02 
732	 0.098191314560646 
733	 9.68272038127737E-02 
734	 9.55405212724842E-02 
735	 9.43159786450835E-02 
736	 9.33879087817486E-02 
737	 9.27871070728086E-02 
738	 9.23759751264955E-02 
739	 9.20427956323017E-02 
740	 9.18742290380823E-02 
741	 9.17320504100949E-02 
742	 9.16227914996531E-02 
743	 9.16143210396211E-02 
744	 9.16129343313619E-02 
745	 9.15805396699729E-02 
746	 9.15420770036113E-02 
747	 9.15959687855406E-02 
748	 0.091592684264607 
749	 9.15414843594031E-02 
750	 9.15018923388675E-02 
751	 9.15521625654036E-02 
752	 9.15891761840598E-02 
753	 9.15786354891541E-02 
754	 9.15441315816112E-02 
755	 9.16210853767144E-02 
756	 9.16576571151488E-02 
757	 9.16003734560088E-02 
758	 9.15628669294789E-02 
759	 9.13543185447556E-02 
760	 0.090981955515137 
761	 0.0908397323083 
762	 9.08652769770565E-02 
763	 9.11083373926539E-02 
764	 0.091416904286199 
765	 9.16527885380194E-02 
766	 9.19332896011609E-02 
767	 9.21864886865051E-02 
768	 9.24185979697983E-02 
769	 9.26960570184368E-02 
770	 9.28443442241157E-02 
771	 9.30121907302141E-02 
772	 9.32940116353692E-02 
773	 9.34500257390878E-02 
774	 0.093660672151242 
775	 9.39325391221244E-02 
776	 9.42011765570867E-02 
777	 9.44518148020861E-02 
778	 9.47382874301005E-02 
779	 9.50404087171894E-02 
780	 9.52717710262554E-02 
781	 9.55943067355659E-02 
782	 9.59803842359663E-02 
783	 0.096355193040139 
784	 9.66241516112575E-02 
785	 9.68371646759782E-02 
786	 9.70904785034137E-02 
787	 9.74658451590126E-02 
788	 9.78686622782874E-02 
789	 9.83076971922797E-02 
790	 9.87369441404526E-02 
791	 9.90963038073699E-02 
792	 9.96122803715102E-02 
793	 0.100109747960152 
794	 0.100454704368956 
795	 0.100645871629033 
796	 0.101107442557888 
797	 0.101531535530891 
798	 0.101644775146938 
799	 0.101979393637743 
800	 0.102301758146642 
801	 0.102466182205915 
802	 0.102473779125315 
803	 0.102878470522314 
804	 0.103321733229058 
805	 0.103522850828361 
806	 0.103407434246258 
807	 0.1033710881967 
808	 0.103271302821013 
809	 0.102971396863269 
810	 0.102640487838717 
811	 0.102224615687439 
812	 0.101725063183295 
813	 0.101180855400626 
814	 0.100673700151846 
815	 0.100207826185499 
816	 9.97576648497573E-02 
817	 9.92741675494133E-02 
818	 9.87600761284137E-02 
819	 9.82623511039081E-02 
820	 9.76509420554508E-02 
821	 9.65940712391816E-02 
822	 9.54665538113799E-02 
823	 9.43551989000389E-02 
824	 9.32189568460723E-02 
825	 9.18346912304422E-02 
826	 9.01045241403681E-02 
827	 8.81807399733485E-02 
828	 8.64167031644123E-02 
829	 8.47085328639727E-02 
830	 8.32083833442764E-02 
831	 8.19285668614176E-02 
832	 8.08175731772029E-02 
833	 7.99450651507319E-02 
834	 7.92469400958698E-02 
835	 7.86238751313909E-02 
836	 7.79754556905812E-02 
837	 7.76771791627502E-02 
838	 7.74933479508931E-02 
839	 7.71754806859121E-02 
840	 7.67941844967041E-02 
841	 7.64291728202681E-02 
842	 0.076154883258265 
843	 7.59991301062391E-02 
844	 7.58482712609075E-02 
845	 7.54852551100516E-02 
846	 7.50646483191855E-02 
847	 7.49237766896667E-02 
848	 7.45660908013443E-02 
849	 7.42618690119266E-02 
850	 7.40995132505725E-02 
851	 0.073836847481178 
852	 7.37500373832099E-02 
853	 7.34156806394646E-02 
854	 7.27696774410608E-02 
855	 7.27587374943882E-02 
856	 7.27101761405371E-02 
857	 7.24919922252911E-02 
858	 7.21906163699179E-02 
859	 7.20981981931665E-02 
860	 7.19158385769182E-02 
861	 7.15857489735512E-02 
862	 7.12215362358624E-02 
863	 7.11074658289391E-02 
864	 7.10252365371062E-02 
865	 7.08239899830735E-02 
866	 7.04778001966486E-02 
867	 7.01142560891294E-02 
868	 0.069916820327453 
869	 6.98129922777599E-02 
870	 6.94304548708204E-02 
871	 6.93594263957336E-02 
872	 0.069175121946453 
873	 6.86214787689537E-02 
874	 6.82973077176132E-02 
875	 6.80914682803928E-02 
876	 6.77481425175153E-02 
877	 6.71872759240437E-02 
878	 6.71705907254055E-02 
879	 6.68462683335662E-02 
880	 6.62901030384027E-02 
881	 6.59726887583869E-02 
882	 6.57497257641804E-02 
883	 6.54138795641743E-02 
884	 6.50104240342337E-02 
885	 6.47436359731125E-02 
886	 6.43816144341695E-02 
887	 6.40608531350185E-02 
888	 6.37567250046172E-02 
889	 6.32574021152755E-02 
890	 6.30693651609426E-02 
891	 6.28406982642665E-02 
892	 6.24568410072534E-02 
893	 6.25416363784025E-02 
894	 6.18374689168519E-02 
895	 6.10253064691757E-02 
896	 6.09334619904459E-02 
897	 6.08065185340076E-02 
898	 6.03750703242225E-02 
899	 5.98066894806846E-02 
900	 5.94694385909005E-02 
901	 5.97080295830571E-02 
902	 5.91264123992019E-02 
903	 5.85884160980221E-02 
904	 0.059245194691354 
905	 5.91940389372815E-02 
906	 5.85738460734793E-02 
907	 5.78285096486109E-02 
908	 5.75002580606177E-02 
909	 5.69270395908084E-02 
910	 5.62756402516449E-02 
911	 5.60205720112927E-02 
912	 5.65308437698449E-02 
913	 5.54519096911155E-02 
914	 5.46101422954189E-02 
915	 5.46768720781772E-02 
916	 5.44027204506336E-02 
917	 5.38767017258691E-02 
918	 5.32220235533115E-02 
919	 5.26366341242128E-02 
920	 0.052366597663675 
921	 5.21842499311984E-02 
922	 5.21914680424684E-02 
923	 5.21931386721402E-02 
924	 5.12538382834151E-02 
925	 0.049708506302986 
926	 4.89072948704671E-02 
927	 4.97114728065675E-02 
928	 4.97299576038152E-02 
929	 4.85433740131679E-02 
930	 4.74196170759202E-02 
931	 4.84404628703475E-02 
932	 4.84669446123779E-02 
933	 4.76181630757915E-02 
934	 4.63281949940535E-02 
935	 4.58285637491642E-02 
936	 4.83109113396075E-02 
937	 4.90432352162828E-02 
938	 4.69349825937468E-02 
939	 0.043603621918821 
940	 4.52916478619668E-02 
941	 0.04678125852195 
942	 4.67195038519155E-02 
943	 4.61584210947752E-02 
944	 4.73988766923772E-02 
945	 4.89256697221886E-02 
946	 4.74737395837786E-02 
947	 4.17776421402311E-02 
948	 4.41801073798403E-02 
949	 4.64336345206512E-02 
950	 4.52642224111921E-02 
951	 4.23693903021228E-02 
952	 4.27955216738318E-02 
953	 0.043625605454272 
954	 4.37831246615923E-02 
955	 4.38230243087023E-02 
956	 4.28989987857816E-02 
957	 4.27946130148003E-02 
958	 4.27776405574211E-02 
959	 4.10343467540313E-02 
960	 4.12654114252612E-02 
961	 4.32298182586197E-02 
962	 4.42781062032241E-02 
963	 4.17922940132715E-02 
964	 4.09295956929637E-02 
965	 4.10602495234832E-02 
966	 0.041335495472936 
967	 4.12292323444796E-02 
968	 4.02930488149888E-02 
969	 4.11704763634367E-02 
970	 0.042781462626552 
971	 4.15446917413769E-02 
972	 4.23293262833481E-02 
973	 4.26369292829923E-02 
974	 4.20415687478938E-02 
975	 4.25451600041121E-02 
976	 4.18037121294624E-02 
977	 4.17079079068801E-02 
978	 4.24521394246195E-02 
979	 4.25085067935067E-02 
980	 4.22645045851336E-02 
981	 4.23079302512156E-02 
982	 4.26351535786526E-02 
983	 4.28034243558622E-02 
984	 4.30782564012061E-02 
985	 4.32841209309023E-02 
986	 4.34155891328239E-02 
987	 4.35686364810856E-02 
988	 4.33875954960394E-02 
989	 4.28290723732388E-02 
990	 4.22718593929272E-02 
991	 4.23447916006859E-02 
992	 0.043397118390039 
993	 4.39325666358374E-02 
994	 4.39317900291513E-02 
995	 4.42408179371985E-02 
996	 4.34227359820624E-02 
997	 4.31308513568056E-02 
998	 4.37638316920417E-02 
999	 4.44013438368063E-02 
1000	 0.042675617841537 
1001	 4.26814702126153E-02 
1002	 4.24053419785613E-02 
1003	 4.24371340684944E-02 
1004	 4.26146339069492E-02 
1005	 4.27335045163677E-02 
1006	 4.29603457775204E-02 
1007	 4.31511743625586E-02 
1008	 4.32111386840125E-02 
1009	 4.32743361386729E-02 
1010	 4.33506610086465E-02 
1011	 4.33882481391008E-02 
1012	 4.35634800733893E-02 
1013	 4.36887048572451E-02 
1014	 4.35966361632211E-02 
1015	 4.31793532241555E-02 
1016	 4.32070353293927E-02 
1017	 4.32017263640956E-02 
1018	 4.33821780704466E-02 
1019	 4.43067953022962E-02 
1020	 4.44347345662825E-02 
1021	 4.41419151149134E-02 
1022	 4.38817598252075E-02 
1023	 4.33141534845293E-02 
1024	 4.30708415601804E-02 
1025	 4.35141697010323E-02 
1026	 4.40057577455429E-02 
1027	 4.42738611038282E-02 
1028	 4.47514639109736E-02 
1029	 4.48691011345839E-02 
1030	 4.44930054170906E-02 
1031	 4.45791546262262E-02 
1032	 4.48345067288713E-02 
1033	 4.49453629798144E-02 
1034	 4.52028838233847E-02 
1035	 4.53312669880222E-02 
1036	 4.52905869031289E-02 
1037	 4.52925806493368E-02 
1038	 4.51943908764211E-02 
1039	 0.045319549215111 
1040	 4.53891270771683E-02 
1041	 4.55146115123076E-02 
1042	 4.55896811475593E-02 
1043	 4.57574386485296E-02 
1044	 4.57973778094948E-02 
1045	 4.57169530289132E-02 
1046	 4.56867733674847E-02 
1047	 4.55846844704615E-02 
1048	 0.045623897312764 
1049	 4.56771994611745E-02 
1050	 4.58357732355126E-02 
1051	 4.63175147959892E-02 
1052	 4.64831614096168E-02 
1053	 4.65432226508627E-02 
1054	 4.65704813934599E-02 
1055	 4.62084367543728E-02 
1056	 4.61601015656476E-02 
1057	 4.62405253837832E-02 
1058	 4.65098393609987E-02 
1059	 4.66213605334693E-02 
1060	 4.68913946099055E-02 
1061	 4.69631357193946E-02 
1062	 4.68308353936063E-02 
1063	 4.68172209238205E-02 
1064	 4.68374979563723E-02 
1065	 4.68084823024021E-02 
1066	 4.67051946004085E-02 
1067	 4.67006072948224E-02 
1068	 4.67953254686907E-02 
1069	 4.67756520371886E-02 
1070	 4.68098663783164E-02 
1071	 4.67496895232819E-02 
1072	 4.67185791333405E-02 
1073	 4.62112744494688E-02 
1074	 4.61999668789378E-02 
1075	 4.63252970241868E-02 
1076	 4.64180748751279E-02 
1077	 0.046881233194068 
1078	 4.67833108361959E-02 
1079	 4.62667102363147E-02 
1080	 4.60249235891107E-02 
1081	 4.53916515128064E-02 
1082	 4.53539225307277E-02 
1083	 4.61562141461242E-02 
1084	 4.62099874596279E-02 
1085	 4.60495079306411E-02 
1086	 0.045982996834984 
1087	 4.53494708498724E-02 
1088	 0.045067198443428 
1089	 4.51063351791884E-02 
1090	 4.53815371906419E-02 
1091	 4.53131394489507E-02 
1092	 4.52151611997389E-02 
1093	 4.49887244981688E-02 
1094	 4.44013127289072E-02 
1095	 4.42128512384957E-02 
1096	 4.41409980088507E-02 
1097	 0.044043999139363 
1098	 4.41853465588626E-02 
1099	 4.42207121159651E-02 
1100	 4.43177189400129E-02 
1101	 4.41255314962923E-02 
1102	 4.36606975720275E-02 
1103	 4.34192386099905E-02 
1104	 4.30252843197439E-02 
1105	 0.042636932933558 
1106	 4.26697503125782E-02 
1107	 4.24254609960954E-02 
1108	 4.23222920820181E-02 
1109	 0.042701810198659 
1110	 4.25068876870174E-02 
1111	 4.21628612353693E-02 
1112	 4.20038886351392E-02 
1113	 4.10726668837133E-02 
1114	 4.07360430402478E-02 
1115	 4.19199034170033E-02 
1116	 0.04192885369605 
1117	 4.06085934604812E-02 
1118	 4.03362256168549E-02 
1119	 3.99397475557647E-02 
1120	 3.93081133034728E-02 
1121	 3.96208100964065E-02 
1122	 4.17755669156005E-02 
1123	 3.86439811376635E-02 
1124	 3.40265948238616E-02 
1125	 0.034335058511391 
1126	 3.39993179667492E-02 
1127	 3.33467920427132E-02 
1128	 3.66126695785898E-02 
1129	 3.77728115049165E-02 
1130	 0.036111248309268 
1131	 3.57257620159952E-02 
1132	 3.73502252558735E-02 
1133	 3.70969179164929E-02 
1134	 3.46540939153139E-02 
1135	 3.46998286991007E-02 
1136	 3.64646989578118E-02 
1137	 3.65340380994212E-02 
1138	 0.036446953378391 
1139	 3.59831899155033E-02 
1140	 3.66763797038937E-02 
1141	 0.036131967484331 
1142	 3.46664955045423E-02 
1143	 3.54037736515156E-02 
1144	 3.57468947961399E-02 
1145	 3.55392793045364E-02 
1146	 3.67903467410978E-02 
1147	 3.74924126273451E-02 
1148	 3.66171475226928E-02 
1149	 3.54603891918435E-02 
1150	 3.48835284851011E-02 
1151	 0.034031186176514 
1152	 3.41481948308583E-02 
1153	 3.52616558708405E-02 
1154	 3.52383319437642E-02 
1155	 3.49438924712785E-02 
1156	 3.51198140243573E-02 
1157	 0.034588994680361 
1158	 0.03435234385171 
1159	 3.51518693479242E-02 
1160	 3.56603574440173E-02 
1161	 3.57029671389765E-02 
1162	 3.54938899039568E-02 
1163	 3.49914820826493E-02 
1164	 3.49280891667566E-02 
1165	 3.53490772455091E-02 
1166	 3.54634195309873E-02 
1167	 0.03553519814844 
1168	 3.55693498440036E-02 
1169	 3.52885155110257E-02 
1170	 3.54320519442688E-02 
1171	 3.55598589937578E-02 
1172	 3.58378705842158E-02 
1173	 3.57182137347635E-02 
1174	 3.54025386646057E-02 
1175	 3.53912796305652E-02 
1176	 3.53307734649749E-02 
1177	 3.52976784180338E-02 
1178	 3.55704274926648E-02 
1179	 0.035682711790718 
1180	 3.54087815250607E-02 
1181	 0.03517502224585 
1182	 3.50763673562153E-02 
1183	 3.49781732951381E-02 
1184	 3.50422807833764E-02 
1185	 3.52889777041714E-02 
1186	 3.54669135136622E-02 
1187	 3.54894578329298E-02 
1188	 3.53864647521961E-02 
1189	 3.53376852070952E-02 
1190	 3.54497109452628E-02 
1191	 3.54410382943488E-02 
1192	 3.54278042486571E-02 
1193	 3.54512326647774E-02 
1194	 0.035460135704877 
1195	 0.035277954187968 
1196	 3.52702912196896E-02 
1197	 3.53903352929024E-02 
1198	 3.52622392291435E-02 
1199	 3.51277403630202E-02 
1200	 3.51871365165466E-02 
1201	 3.50769116231914E-02 
1202	 3.50708440370463E-02 
1203	 3.54105317469843E-02 
1204	 3.55339045862153E-02 
1205	 3.55335107271386E-02 
1206	 3.55820883509043E-02 
1207	 3.54452636090937E-02 
1208	 3.54868130622452E-02 
1209	 3.56172144408262E-02 
1210	 0.035440785112671 
1211	 0.035299549068602 
1212	 3.54076384604854E-02 
1213	 3.56270609696089E-02 
1214	 3.56315260645607E-02 
1215	 3.57340909281644E-02 
1216	 3.57944522608616E-02 
1217	 3.56189660563699E-02 
1218	 3.53134875688891E-02 
1219	 3.54117825048159E-02 
1220	 3.56292601179533E-02 
1221	 3.56925151110596E-02 
1222	 3.56531074449821E-02 
1223	 3.54806247273132E-02 
1224	 0.035559356848148 
1225	 0.035803143605682 
1226	 3.57527063014668E-02 
1227	 3.57374745974411E-02 
1228	 3.58499786324989E-02 
1229	 3.57769939334521E-02 
1230	 3.58556117302696E-02 
1231	 3.60430665636944E-02 
1232	 3.58957779189807E-02 
1233	 3.58079771553804E-02 
1234	 3.58829983321632E-02 
1235	 3.58441167130335E-02 
1236	 3.58233762901087E-02 
1237	 0.035847743136175 
1238	 3.58147938907806E-02 
1239	 3.57961126395615E-02 
1240	 3.59232293490199E-02 
1241	 3.59002627930474E-02 
1242	 3.58700763934294E-02 
1243	 3.59262309187795E-02 
1244	 3.60215976656152E-02 
1245	 3.61344373169411E-02 
1246	 3.60791794823151E-02 
1247	 3.59184805379615E-02 
1248	 3.57043048432596E-02 
1249	 3.55328588135572E-02 
1250	 3.57155998171863E-02 
1251	 3.59527177665096E-02 
1252	 3.58586565226065E-02 
1253	 3.58509925734944E-02 
1254	 3.60661221259815E-02 
1255	 3.60733908289972E-02 
1256	 0.035966295868086 
1257	 3.57984100239822E-02 
1258	 3.58456742657712E-02 
1259	 0.035853062998054 
1260	 3.57537693045717E-02 
1261	 3.58142058254728E-02 
1262	 3.58522611891527E-02 
1263	 3.56819655760269E-02 
1264	 3.55293920635495E-02 
1265	 3.58327925731545E-02 
1266	 3.59403673652907E-02 
1267	 3.55393801893698E-02 
1268	 3.54174553818054E-02 
1269	 3.53779690845633E-02 
1270	 3.53573414603585E-02 
1271	 3.55997811358656E-02 
1272	 3.56180730155701E-02 
1273	 3.55341662946314E-02 
1274	 3.54286787604998E-02 
1275	 3.53482522265695E-02 
1276	 3.54479993929752E-02 
1277	 3.53648120673769E-02 
1278	 3.52984964468161E-02 
1279	 3.55219273345635E-02 
1280	 3.56193398988832E-02 
1281	 3.55690881542429E-02 
1282	 3.53962835551305E-02 
1283	 3.53618411149283E-02 
1284	 3.52358425749545E-02 
1285	 3.51468870892813E-02 
1286	 3.52593568201497E-02 
1287	 3.52334131346863E-02 
1288	 3.49585285805856E-02 
1289	 3.48798174090411E-02 
1290	 3.49459704790683E-02 
1291	 3.48960601551441E-02 
1292	 3.47961225191449E-02 
1293	 3.48293020918131E-02 
1294	 3.48659606813476E-02 
1295	 3.48339024878735E-02 
1296	 3.45751517216818E-02 
1297	 3.43986073571785E-02 
1298	 3.44030099519235E-02 
1299	 3.41349013824542E-02 
1300	 3.40663791790716E-02 
1301	 3.43741515149582E-02 
1302	 3.40521572001032E-02 
1303	 3.36175327878481E-02 
1304	 3.39501453570717E-02 
1305	 3.40325898004833E-02 
1306	 3.38553692189063E-02 
1307	 3.36565585275412E-02 
1308	 3.35846163219139E-02 
1309	 3.31289830397174E-02 
1310	 3.29122935316249E-02 
1311	 3.31595698349221E-02 
1312	 3.30296862083144E-02 
1313	 3.25426855474162E-02 
1314	 3.23314304441516E-02 
1315	 3.21353613774662E-02 
1316	 3.20538992934332E-02 
1317	 3.23261150150689E-02 
1318	 3.21987404959994E-02 
1319	 3.17186346733793E-02 
1320	 3.16190217119585E-02 
1321	 3.15988154015467E-02 
1322	 3.14653616917031E-02 
1323	 0.031556252111756 
1324	 3.17855512856854E-02 
1325	 3.14291505861539E-02 
1326	 3.09071719849564E-02 
1327	 3.08528650381078E-02 
1328	 3.10627759924721E-02 
1329	 3.13573930327024E-02 
1330	 3.12599573848495E-02 
1331	 3.07159790323947E-02 
1332	 3.03525705466463E-02 
1333	 2.98929834814795E-02 
1334	 0.029318524747708 
1335	 2.93744851710902E-02 
1336	 3.00918687329842E-02 
1337	 3.01653130086601E-02 
1338	 3.04298830412859E-02 
1339	 3.04610469361136E-02 
1340	 0.029800061061901 
1341	 2.92793143829238E-02 
1342	 2.87844979211788E-02 
1343	 0.028667980415756 
1344	 2.82196568488808E-02 
1345	 2.84321241347336E-02 
1346	 3.13260639971613E-02 
1347	 3.18197737899627E-02 
1348	 2.95057258617651E-02 
1349	 2.85035621328052E-02 
1350	 2.36915291747836E-02 
1351	 1.94608056697433E-02 
1352	 2.15855216272907E-02 
1353	 0.022891547613318 
1354	 2.62054460725297E-02 
1355	 2.90747007261637E-02 
1356	 3.21293739371599E-02 
1357	 0.03032365200272 
1358	 1.59010036563811E-02 
1359	-1.23529054793311E-03 
1360	-5.90263947320844E-02 
1361	-9.05220940001145E-02 
1362	 7.16387882322348E-02 
1363	 0.159078461588337 
1364	 0.049878611304895 
1365	 4.61994130516321E-02 
1366	 0.017630541346702 
1367	-0.150223097460621 
1368	-0.19397362195371 
1369	 7.54146118288324E-02 
1370	 0.16151016686956 
1371	 5.34085651730131E-02 
1372	 4.81897404110739E-02 
1373	 0.232172605159502 
1374	 0.145213555475269 
1375	-0.234840727082606 
1376	-0.239525512902087 
1377	-7.97432101523448E-02 
1378	-1.18608564202351E-03 
1379	 0.450526534276794 
1380	 0.545866772715289 
1381	 8.10120597430797E-02 
1382	-6.97560269032355E-03 
1383	-5.22132857713005E-02 
1384	-0.123243251778258 
1385	 3.64426515210121E-02 
1386	 0.080795650798977 
1387	 4.34658434118408E-02 
1388	-2.73382307292839E-03 
1389	-6.67257876625387E-02 
1390	-8.15598904823205E-02 
1391	-0.139316421288839 
1392	-0.111859676489557 
1393	 0.124951765270494 
1394	 0.20182020567871 
1395	 0.126522358877579 
1396	 0.265614611909681 
1397	 0.159074855849542 
1398	-8.11247453638895E-02 
1399	 0.055339557380597 
1400	 0.226190733866014 
1401	 0.164372057096048 
1402	 0.184419140348378 
1403	 0.443192755859019 
1404	 0.446281895464486 
1405	 0.340025745975527 
1406	 0.281654765403905 
1407	 0.276068044600186 
1408	 0.134818459812786 
1409	 0.045425722674101 
1410	 3.79772488688129E-02 
1411	 0.045755148934255 
1412	 1.47479402158153E-02 
1413	-3.02233256441173E-03 
1414	 2.32697463112816E-02 
1415	 3.80005336850393E-02 
1416	 0.014310357431381 
1417	 1.01787373393543E-02 
1418	 4.98983613501849E-02 
1419	 5.04777799842369E-02 
1420	 1.86579010836896E-02 
1421	 1.74967228594288E-02 
1422	 3.31577486366892E-02 
1423	 0.025938162569123 
1424	 9.79939550721859E-03 
1425	 1.00791685414014E-02 
1426	 8.46720729804956E-03 
1427	 8.80120129441514E-03 
1428	 2.14187499720019E-02 
1429	 2.49102062612552E-02 
1430	 2.38508794782596E-02 
1431	 1.98436661519313E-02 
1432	 8.70450153617283E-03 
1433	 6.57987899798066E-03 
1434	 1.09349521339015E-03 
1435	 6.76371689988821E-04 
1436	 1.13550982929958E-02 
1437	 2.45524458890577E-02 
1438	 1.09743198681643E-02 
1439	 6.73870757868211E-03 
1440	 9.60119331069256E-03 
1441	 1.29922931333497E-04 
1442	-3.27814436075795E-04 
1443	 9.73780026881829E-03 
1444	 1.42103074305784E-02 
1445	 1.44130333313028E-02 
1446	 1.38258739191029E-02 
1447	 1.59538499766694E-02 
1448	 1.65085425199418E-02 
1449	 1.38059406480997E-02 
1450	 0.015254980728793 
1451	 0.015984931028812 
1452	 1.40490372156783E-02 
1453	 1.43408254491311E-02 
1454	 1.45614193820612E-02 
1455	 1.45872236504497E-02 
1456	 1.38720236258967E-02 
1457	 1.38228605291922E-02 
1458	 1.35752746055406E-02 
1459	 1.16679994128947E-02 
1460	 1.18357516739998E-02 
1461	 1.42677876341463E-02 
1462	 1.39425235418356E-02 
1463	 1.22036004686351E-02 
1464	 1.22474004713314E-02 
1465	 0.011460308923843 
1466	 1.14504669214528E-02 
1467	 1.40103713527926E-02 
1468	 1.51683842282366E-02 
1469	 1.53233567647594E-02 
1470	 1.56327719541978E-02 
1471	 1.65594242673526E-02 
1472	 0.015754617561071 
1473	 1.29639532444802E-02 
1474	 1.26503920856077E-02 
1475	 1.24492627460262E-02 
1476	 1.26890632145921E-02 
1477	 1.50772261595066E-02 
1478	 1.52083162899442E-02 
1479	 1.32832287469461E-02 
1480	 1.37331424610322E-02 
1481	 1.52782600639989E-02 
1482	 1.53114321246691E-02 
1483	 1.56346834466911E-02 
1484	 1.57460940109008E-02 
1485	 1.47489593463613E-02 
1486	 1.44100340247246E-02 
1487	 1.48398278643248E-02 
1488	 1.48771058663035E-02 
1489	 1.43114050928578E-02 
1490	 1.43294829958019E-02 
1491	 0.014776781263883 
1492	 1.49504677669778E-02 
1493	 1.51579119991606E-02 
1494	 1.53598113991868E-02 
1495	 1.54242603257711E-02 
1496	 1.55041266716705E-02 
1497	 1.56984783266881E-02 
1498	 1.58222259428459E-02 
1499	 1.59262205751039E-02 
1500	 0.015922389010925 
1501	 0.015639493709083 
1502	 1.57665486869979E-02 
1503	 1.62600007025673E-02 
1504	 1.63761723286339E-02 
1505	 1.64358084058803E-02 
1506	 1.65796523181185E-02 
1507	 1.66346512288995E-02 
1508	 1.67009728606987E-02 
1509	 1.70279345277253E-02 
1510	 1.73771566008228E-02 
1511	 1.73862210441609E-02 
1512	 1.71797193488902E-02 
1513	 1.71236989819311E-02 
1514	 1.72385340999869E-02 
1515	 1.74178378248291E-02 
1516	 0.017515177667629 
1517	 1.75575814476157E-02 
1518	 1.76762231249873E-02 
1519	 1.76425506301278E-02 
1520	 1.75746211924437E-02 
1521	 1.78266556929593E-02 
1522	 0.018103393372238 
1523	 1.82334699477277E-02 
1524	 1.84516753583157E-02 
1525	 1.86689771414934E-02 
1526	 1.86333822053631E-02 
1527	 1.83392590592989E-02 
1528	 1.83242972830733E-02 
1529	 1.86183392259587E-02 
1530	 1.86032490085577E-02 
1531	 1.86149195319727E-02 
1532	 1.89634317529462E-02 
1533	 1.92114837349436E-02 
1534	 0.019316625132332 
1535	 1.94195336658705E-02 
1536	 1.95345462214309E-02 
1537	 0.019505609285674 
1538	 1.92931270560139E-02 
1539	 1.93388458518503E-02 
1540	 1.95293534396913E-02 
1541	 1.95869782253185E-02 
1542	 1.97227268085322E-02 
1543	 1.98610975971099E-02 
1544	 1.99937397046596E-02 
1545	 2.01312432283996E-02 
1546	 2.01721916397278E-02 
1547	 2.02982895474223E-02 
1548	 2.04209409000475E-02 
1549	 2.03884831607236E-02 
1550	 2.05177609468203E-02 
1551	 2.08396913427179E-02 
1552	 0.020915089691184 
1553	 2.07214326522218E-02 
1554	 2.05984693332921E-02 
1555	 2.05342562455032E-02 
1556	 2.06061069059801E-02 
1557	 2.10090876649254E-02 
1558	 2.12426176298324E-02 
1559	 2.11607051910181E-02 
1560	 0.021148013291694 
1561	 0.021079978211855 
1562	 0.021136101791571 
1563	 2.14280639471612E-02 
1564	 2.14435858268441E-02 
1565	 2.14179775232394E-02 
1566	 2.16382441748317E-02 
1567	 2.15826740259929E-02 
1568	 2.14890315872409E-02 
1569	 2.15829895722584E-02 
1570	 2.15046858454624E-02 
1571	 2.15035047332516E-02 
1572	 2.15479766496279E-02 
1573	 2.15997145230963E-02 
1574	 2.18105307798347E-02 
1575	 2.18734357650828E-02 
1576	 2.19525879092546E-02 
1577	 2.21647909631938E-02 
1578	 2.21064538297309E-02 
1579	 2.19727811780356E-02 
1580	 2.21995078151075E-02 
1581	 2.24746311760869E-02 
1582	 2.25697220334266E-02 
1583	 2.25077492751191E-02 
1584	 2.22611385075473E-02 
1585	 2.23731249653612E-02 
1586	 2.27128110184274E-02 
1587	 2.29122484843167E-02 
1588	 2.30857687070674E-02 
1589	 2.28836977993801E-02 
1590	 2.26952205434587E-02 
1591	 0.022839642000183 
1592	 2.28484437539981E-02 
1593	 2.29483275376629E-02 
1594	 2.30729166949596E-02 
1595	 2.29410656093127E-02 
1596	 2.30908748830689E-02 
1597	 2.32367359933798E-02 
1598	 2.29734845928209E-02 
1599	 2.29342452343627E-02 
1600	 2.30526123553416E-02 
1601	 2.29855818809132E-02 
1602	 0.022970433117687 
1603	 2.30490678863579E-02 
1604	 0.023104505553599 
1605	 2.31572743310601E-02 
1606	 2.32597587796665E-02 
1607	 2.32536989323592E-02 
1608	 0.023176624322942 
1609	 2.33858143285656E-02 
1610	 2.34498817112974E-02 
1611	 2.31948088192207E-02 
1612	 2.33426602331239E-02 
1613	 0.023564743183688 
1614	 2.34777609076426E-02 
1615	 2.35846821618519E-02 
1616	 2.38417848945289E-02 
1617	 2.37200234863245E-02 
1618	 2.34084849566446E-02 
1619	 2.35996170434326E-02 
1620	 2.38165554419416E-02 
1621	 2.36572891911199E-02 
1622	 2.37457056489041E-02 
1623	 2.39093553414081E-02 
1624	 2.37782108402095E-02 
1625	 2.37207267824875E-02 
1626	 2.38874443289413E-02 
1627	 2.39074323846433E-02 
1628	 2.37964873880588E-02 
1629	 2.39807582015627E-02 
1630	 2.41351854562892E-02 
1631	 2.39397507695866E-02 
1632	 2.38460750140546E-02 
1633	 2.38199201235525E-02 
1634	 2.38109819940885E-02 
1635	 2.40307499055687E-02 
1636	 2.40884291531072E-02 
1637	 0.024014561316335 
1638	 2.40174004064514E-02 
1639	 2.38916569369355E-02 
1640	 2.38746302032425E-02 
1641	 2.38909855115291E-02 
1642	 2.39005782578934E-02 
1643	 2.42077422416465E-02 
1644	 2.42794648583417E-02 
1645	 0.023981309219205 
1646	 2.39209056416649E-02 
1647	 2.41605714073048E-02 
1648	 2.41893775214713E-02 
1649	 2.39460135108071E-02 
1650	 2.39137953002143E-02 
1651	 2.38751501919811E-02 
1652	 2.38609643368543E-02 
1653	 2.43146350783782E-02 
1654	 2.43170388300011E-02 
1655	 2.37743937974233E-02 
1656	 2.37753734385936E-02 
1657	 2.40238862626851E-02 
1658	 0.024089668813647 
1659	 2.42401969439919E-02 
1660	 2.42934305902982E-02 
1661	 0.024289028752092 
1662	 2.43102998295993E-02 
1663	 2.43224056920863E-02 
1664	 2.42551827885795E-02 
1665	 2.40310395500421E-02 
1666	 2.38848681432461E-02 
1667	 0.023827838804515 
1668	 2.39802393461815E-02 
1669	 2.39927208848631E-02 
1670	 2.38721241818627E-02 
1671	 2.39178379482492E-02 
1672	 2.40896907301046E-02 
1673	 2.39782231462024E-02 
1674	 2.39737755523827E-02 
1675	 2.41392157756445E-02 
1676	 2.39582393937584E-02 
1677	 2.39950358199201E-02 
1678	 0.024302022124967 
1679	 2.40634722608553E-02 
1680	 0.023745021572054 
1681	 2.38730358745675E-02 
1682	 2.39279516904371E-02 
1683	 2.38069776283421E-02 
1684	 2.39537761483188E-02 
1685	 0.024123677076571 
1686	 2.40555608160185E-02 
1687	 2.40226386194515E-02 
1688	 2.40069204971605E-02 
1689	 2.38444794042855E-02 
1690	 2.36907389306704E-02 
1691	 2.38053335527433E-02 
1692	 2.39358900259272E-02 
1693	 2.38362068757411E-02 
1694	 2.37859843810941E-02 
1695	 0.0238590535511 
1696	 2.38380297792778E-02 
1697	 0.023743969898089 
1698	 2.35740166750287E-02 
1699	 2.35569830667396E-02 
1700	 2.37588122678894E-02 
1701	 2.37126022764773E-02 
1702	 2.35605798016878E-02 
1703	 2.35157533318269E-02 
1704	 2.35245366191113E-02 
1705	 2.36328179884318E-02 
1706	 2.39102316475055E-02 
1707	 2.40833337472242E-02 
1708	 2.38369966883048E-02 
1709	 0.023577855281486 
1710	 2.33790758051791E-02 
1711	 2.30860697366383E-02 
1712	 2.29722703407964E-02 
1713	 2.32865421177049E-02 
1714	 2.34709578832918E-02 
1715	 2.38140105346765E-02 
1716	 2.38058818115026E-02 
1717	 2.34733964027343E-02 
1718	 2.30894853530661E-02 
1719	 0.022958260461123 
1720	 2.29094638554349E-02 
1721	 2.29019663804141E-02 
1722	 2.30464457593867E-02 
1723	 2.32005138930799E-02 
1724	 2.31604408564072E-02 
1725	 2.31670732078066E-02 
1726	 2.32986942120266E-02 
1727	 0.022781053042397 
1728	 2.24691323930094E-02 
1729	 2.28694814891372E-02 
1730	 2.26781268659305E-02 
1731	 2.27985937963476E-02 
1732	 2.31533133527122E-02 
1733	 2.26530595840397E-02 
1734	 2.23645683348951E-02 
1735	 2.22054805529989E-02 
1736	 2.20892386946561E-02 
1737	 0.022456844972585 
1738	 2.24108300449116E-02 
1739	 0.022128270379302 
1740	 2.21277274478966E-02 
1741	 2.20596841251224E-02 
1742	 0.02230677358016 
1743	 2.26269637430188E-02 
1744	 2.21262636992078E-02 
1745	 2.13463693691251E-02 
1746	 2.14553719822866E-02 
1747	 2.13938861072486E-02 
1748	 2.19193499830494E-02 
1749	 2.19763835831527E-02 
1750	 2.12714037716925E-02 
1751	 2.09972305233392E-02 
1752	 2.09053627733226E-02 
1753	 2.09001148995515E-02 
1754	 2.10333313630671E-02 
1755	 2.11246142406319E-02 
1756	 2.13701096039834E-02 
1757	 2.07123787658579E-02 
1758	 2.07117016159169E-02 
1759	 2.06066806133689E-02 
1760	 2.04343483602726E-02 
1761	 2.09961527133003E-02 
1762	 2.09745005815501E-02 
1763	 2.03610679581083E-02 
1764	 1.99602882158471E-02 
1765	 0.019665454990388 
1766	 1.96701972934203E-02 
1767	 1.99413272439669E-02 
1768	 2.04578165570505E-02 
1769	 1.99706154415021E-02 
1770	 1.87942978890919E-02 
1771	 1.91113255215041E-02 
1772	 1.92975483382482E-02 
1773	 1.90863508397646E-02 
1774	 0.019966744579679 
1775	 1.86007786753188E-02 
1776	 1.82962805495535E-02 
1777	 1.94879508585894E-02 
1778	 1.99700826113515E-02 
1779	 2.11269680332117E-02 
1780	 2.11399090098573E-02 
1781	 0.019185761191706 
1782	 1.87228080704413E-02 
1783	 1.82744969524487E-02 
1784	 1.79395115390229E-02 
1785	 1.94468139150609E-02 
1786	 1.93229822844104E-02 
1787	 1.71574789632835E-02 
1788	 1.70589898652102E-02 
1789	 1.74742345780277E-02 
1790	 1.74218900584777E-02 
1791	 2.01538374657744E-02 
1792	 2.07731400735455E-02 
1793	 2.03539254999469E-02 
1794	 0.019701618051918 
1795	 1.79730806431106E-02 
1796	 1.70205782274991E-02 
1797	 1.66379363875512E-02 
1798	 1.76781667487673E-02 
1799	 1.80167780029095E-02 
1800	 1.95491758961831E-02 
1801	 1.99027534213815E-02 
1802	 2.11034757293744E-02 
1803	 2.08964071659665E-02 
1804	 1.16691521482859E-02 
1805	 1.03729336084407E-02 
1806	 2.02011518688595E-02 
1807	 2.25023418801493E-02 
1808	 3.20134322524836E-02 
1809	 3.45680786725789E-02 
1810	 1.24088456393865E-02 
1811	-5.69599140328752E-03 
1812	-3.92132005211272E-02 
1813	-4.51042854646471E-02 
1814	-3.85678263936243E-02 
1815	 6.42155618327978E-03 
1816	 0.179590702213662 
1817	 0.45463011584179 
1818	 0.621078179908116 
1819	 0.550083967133247 
1820	 0.237177639487886 
1821	-0.225353765565465 
1822	-0.474707471984827 
1823	-0.404734263628249 
1824	-0.41209589908157 
1825	-0.5595555393827 
1826	-0.52231243877295 
1827	-8.01000517248327E-02 
1828	 7.68028758491845E-02 
1829	-0.135475249494845 
1830	-0.109093578986446 
1831	 0.205112529174501 
1832	 0.312766160037192 
1833	 0.610927233490089 
1834	 0.585522488083488 
1835	 0.250090711027096 
1836	 0.491245392157205 
1837	 1.01350059697302 
1838	 0.906339628425211 
1839	 0.913657706986865 
1840	 0.643229845146772 
1841	 0.240690633925147 
1842	 7.34997745874982E-02 
1843	-9.99086639845594E-02 
1844	 8.92407371002295E-02 
1845	 0.168571627690676 
1846	 0.367072845436141 
1847	 0.645944456411686 
1848	-1.99658860682385 
1849	-0.677198130753119 
1850	-0.413462095457806 
1851	-1.31551991845841E-02 
1852	-0.257370768611485 
1853	-0.137464964646461 
1854	 0.260487060757817 
1855	 1.76732017419457 
1856	 1.41080426801385 
1857	 0.622293690573536 
1858	 0.417401530602993 
1859	 0.260000634220458 
1860	 8.75012197405386E-02 
1861	 2.2225250846441 
1862	-3.47079647893066 
1863	 5.71983561933694 
1864	-14.4955320144807 
1865	-2.71716135996017 
1866	-0.91209576344958 
1867	-1.23130368897833 
1868	 0.978382090595375 
1869	 0.433276279675427 
1870	-0.270413034471915 
1871	-1.14160193537127 
1872	-3.33521687447602 
1873	 4.22205108624353 
1874	 2.72504772289889 
1875	-12.8118362296162 
1876	-4.08437192240955 
1877	 0.612242126192628 
1878	 0.322131050448523 
1879	-0.565489735388899 
1880	-0.679278881107436 
1881	-0.524166186708898 
1882	-0.564566029489301 
1883	-0.60156545002671 
1884	-0.659455988425452 
1885	-0.565508471898126 
1886	 2.79930761744347 
1887	-8.94247580381692 
1888	-3.38149818366806 
1889	-3.03884977288116 
1890	-1.52292514186128 
1891	-1.48504899690628 
1892	-0.248740327636424 
1893	 0.177968638724544 
1894	 0.317356784836958 
1895	 0.638468063829973 
1896	 0.585270030229662 
1897	 0.575310905298307 
1898	 0.999186962024757 
1899	 0.59502787130053 
1900	 0.589527755884083 
1901	-0.915946918636015 
1902	-0.435965967827265 
1903	-0.918644798619145 
1904	-0.449547111702882 
1905	 0.626770962036411 
1906	-1.47720175847779 
1907	-2.73036303340524 
1908	 1.41290015738841 
1909	 10.0181851504629 
1910	-1.19433273274546 
1911	-0.822086506139561 
1912	-0.589440722351716 
1913	-0.554803657361099 
1914	-1.05860657718166 
1915	-1.60910646734176 
1916	 1.43712158254987 
1917	 0.14587289126062 
1918	-0.604340943052443 
1919	 2.67386219767471 
1920	 0.959879737576794 
1921	 0.299752841518351 
1922	-7.44157752622398E-02 
1923	-0.11303812329781 
1924	-4.70393487666483E-02 
1925	-0.329703424453523 
1926	-0.279674843893139 
1927	-0.103296213525192 
1928	 0.277103663648556 
1929	 0.69533154188451 
1930	 1.15457045741601 
1931	 1.07740846357552 
1932	 0.279180625567648 
1933	 0.172624573319957 
1934	 0.168393520333449 
1935	 0.176216509882701 
1936	 0.135106540802294 
1937	-0.107034499649636 
1938	-0.150304744104657 
1939	-8.32033628968292E-02 
1940	 4.23821523751048E-02 
1941	 1.38067677142079E-02 
1942	 0.047233254981945 
1943	 6.45501909318008E-02 
1944	-7.75451586099927E-03 
1945	-1.53744617058546E-02 
1946	 9.03235010435493E-03 
1947	 5.9338932524072E-03 
1948	-8.51541791073385E-04 
1949	-2.77698835311856E-02 
1950	-5.82714932987744E-02 
1951	-5.60514315403425E-02 
1952	-4.71575728215993E-02 
1953	-0.024558634298137 
1954	-1.33382798446876E-02 
1955	-4.88248715186054E-03 
1956	 4.96827838448577E-03 
1957	-2.03180788208468E-03 
1958	-8.89159748207729E-03 
1959	-1.08252040781638E-03 
1960	 2.41942684384148E-03 
1961	 2.36181778888259E-03 
1962	 5.91870914655442E-03 
1963	 7.02606187457311E-03 
1964	 5.05331759310095E-03 
1965	 3.91111768510539E-03 
1966	 3.38511798557627E-03 
1967	 3.68256215300276E-03 
1968	 3.50838215060271E-03 
1969	 3.21258928289266E-03 
1970	 3.15833137238264E-03 
1971	 3.43491371862425E-03 
1972	 4.28245287597707E-03 
1973	 4.81151633562645E-03 
1974	 5.49988351049146E-03 
1975	 6.81241495121011E-03 
1976	 7.33415795527064E-03 
1977	 7.48465504898099E-03 
1978	 7.95573920637188E-03 
1979	 8.09536151227835E-03 
1980	 7.73778567125414E-03 
1981	 7.68843182843252E-03 
1982	 7.70090332899404E-03 
1983	 7.25458007607512E-03 
1984	 7.1970155545577E-03 
1985	 6.92563409467394E-03 
1986	 6.61116882877824E-03 
1987	 5.91222233679496E-03 
1988	 4.25327676207548E-03 
1989	 3.55730994952062E-03 
1990	 4.04258624168354E-03 
1991	 4.78920693429062E-03 
1992	 5.50783598737415E-03 
1993	 5.80015650447411E-03 
1994	 6.24066290260843E-03 
1995	 5.97281017970354E-03 
1996	 6.04889053241564E-03 
1997	 6.80437509632418E-03 
1998	 6.77928421209928E-03 
1999	 6.77411578644097E-03 
2000	 8.22944423987423E-03 
2001	 8.17463417095093E-03 
2002	 7.91873784566047E-03 
2003	 9.4385022341877E-03 
2004	 8.21993176966121E-03 
2005	 6.59585342388464E-03 
2006	 7.60326478043309E-03 
2007	 7.84268637645784E-03 
2008	 7.19386751986477E-03 
2009	 6.62750869222107E-03 
2010	 7.7938551888801E-03 
2011	 7.51455881058389E-03 
2012	 5.61757925103865E-03 
2013	 0.003663935967212 
2014	 5.59256699906793E-03 
2015	 8.86752053396462E-03 
2016	 0.010414379684662 
2017	 1.13302058842033E-02 
2018	 1.09762271371687E-02 
2019	 8.72159336274633E-03 
2020	 7.73451260111327E-03 
2021	 7.41495694375886E-03 
2022	 7.42343563270595E-03 
2023	 0.00771039368732 
2024	 7.57158208664766E-03 
2025	 7.40816347977902E-03 
2026	 7.60677917850904E-03 
2027	 7.89069016996835E-03 
2028	 7.59015322980472E-03 
2029	 7.47370166849339E-03 
2030	 7.74294639479968E-03 
2031	 7.4232578367065E-03 
2032	 7.36643198882541E-03 
2033	 7.9110763825644E-03 
2034	 7.90339868058057E-03 
2035	 7.48647114983509E-03 
2036	 7.12701482484947E-03 
2037	 7.30698164983552E-03 
2038	 7.9760927803429E-03 
2039	 8.49052990447056E-03 
2040	 9.88915175489236E-03 
2041	 1.02025099299785E-02 
2042	 9.54509961173657E-03 
2043	 9.53113538350253E-03 
2044	 9.37276571430587E-03 
2045	 9.56161866120089E-03 
2046	 1.00550323213862E-02 
2047	 9.58872350106962E-03 
2048	 8.86127427462077E-03 
2049	 8.73297515043533E-03 
2050	 8.27347670711679E-03 
2051	 8.05907150652251E-03 
2052	 8.29813004505327E-03 
2053	 7.85229717263308E-03 
2054	 8.14586677630147E-03 
2055	 9.12430794762305E-03 
2056	 9.47451329394325E-03 
2057	 9.53945703645106E-03 
2058	 1.01007171670032E-02 
2059	 1.07716920084765E-02 
2060	 1.10306937683066E-02 
2061	 1.16864489016945E-02 
2062	 1.16667962434094E-02 
2063	 1.08087119976093E-02 
2064	 1.03677746648931E-02 
2065	 1.05900263524026E-02 
2066	 1.17874740990643E-02 
2067	 0.012941412336685 
2068	 0.012697034443822 
2069	 1.17874910976206E-02 
2070	 1.12257379524372E-02 
2071	 1.13705715108261E-02 
2072	 0.012141592556038 
2073	 1.24914845152865E-02 
2074	 1.33378638629197E-02 
2075	 1.31848243463572E-02 
2076	 1.24199582789264E-02 
2077	 1.20212809733384E-02 
2078	 1.12157554472893E-02 
2079	 0.011098053635775 
2080	 1.16413107738317E-02 
2081	 1.11050633926526E-02 
2082	 1.10014605427806E-02 
2083	 0.011455781514009 
2084	 1.12614647328196E-02 
2085	 1.09164686642902E-02 
2086	 1.12553949175523E-02 
2087	 1.14507233165522E-02 
2088	 1.11779931946806E-02 
2089	 1.18519588928213E-02 
2090	 1.20490973813566E-02 
2091	 1.14303245900122E-02 
2092	 1.11363217211087E-02 
2093	 1.05680605438307E-02 
2094	 1.04566818994941E-02 
2095	 0.010591511250023 
2096	 1.10153852038924E-02 
2097	 0.012409878906054 
2098	 1.27199351081373E-02 
2099	 1.23285953761995E-02 
2100	 1.24632443362991E-02 
2101	 1.27116664498774E-02 
2102	 1.26896847865561E-02 
2103	 1.36787306445438E-02 
2104	 1.39506612375678E-02 
2105	 1.35357293304156E-02 
2106	 1.35691999956907E-02 
2107	 1.33491468086962E-02 
2108	 1.28997473328714E-02 
2109	 1.28814528611257E-02 
2110	 1.25546893358457E-02 
2111	 1.19958669219758E-02 
2112	 1.21108173838007E-02 
2113	 1.18887513167959E-02 
2114	 1.08370133766258E-02 
2115	 1.08338070606356E-02 
2116	 1.17976033826594E-02 
2117	 1.20838940202616E-02 
2118	 1.26227412984807E-02 
2119	 1.30340621748911E-02 
2120	 1.33748630133029E-02 
2121	 1.27589560303069E-02 
2122	 1.28797776020145E-02 
2123	 1.34135027273713E-02 
2124	 1.33997841402414E-02 
2125	 1.28760953729297E-02 
2126	 1.29639551271187E-02 
2127	 0.013141092752894 
2128	 1.27782378408021E-02 
2129	 1.31678305039473E-02 
2130	 1.28253697540812E-02 
2131	 0.011598080893525 
2132	 1.18101291319356E-02 
2133	 1.22608629677888E-02 
2134	 0.012230409193454 
2135	 1.23375485232344E-02 
2136	 1.25383812386812E-02 
2137	 0.012420122902689 
2138	 1.23045665252369E-02 
2139	 1.24767377878478E-02 
2140	 1.24989771467587E-02 
2141	 1.17770698817625E-02 
2142	 1.17467272709659E-02 
2143	 1.22350843491253E-02 
2144	 1.30144822045047E-02 
2145	 1.26159105448129E-02 
2146	 1.29894467778847E-02 
2147	 1.37421220373576E-02 
2148	 0.012969900238644 
2149	 1.28802892531903E-02 
2150	 1.35978487383062E-02 
2151	 1.29776451557505E-02 
2152	 1.26647285129822E-02 
2153	 1.34946540331026E-02 
2154	 1.32727514240569E-02 
2155	 1.28878504315506E-02 
2156	 0.013692600574323 
2157	 1.40863710213619E-02 
2158	 1.45277390617389E-02 
2159	 1.45727444841354E-02 
2160	 0.014409068729809 
2161	 1.41287221876275E-02 
2162	 1.30716779105802E-02 
2163	 1.31964977053737E-02 
2164	 0.014426688001029 
2165	 1.46540318612486E-02 
2166	 1.51265617436275E-02 
2167	 1.48841371550783E-02 
2168	 1.29581211185145E-02 
2169	 1.27309893634233E-02 
2170	 1.33955635741771E-02 
2171	 1.37568889182609E-02 
2172	 1.43837532301623E-02 
2173	 1.39846981691888E-02 
2174	 1.28745101620334E-02 
2175	 1.27579379394947E-02 
2176	 1.30639011349162E-02 
2177	 1.37638002842665E-02 
2178	 1.45959898118486E-02 
2179	 1.43747649383426E-02 
2180	 1.35867594814608E-02 
2181	 1.31191751151105E-02 
2182	 1.30014577326258E-02 
2183	 1.31119202024551E-02 
2184	 1.28480076096848E-02 
2185	 1.23267872935697E-02 
2186	 1.21050535915585E-02 
2187	 1.10586578953071E-02 
2188	 1.11850404439234E-02 
2189	 1.27271971976698E-02 
2190	 1.32877261949261E-02 
2191	 1.40799562767708E-02 
2192	 1.43159622155271E-02 
2193	 1.36494512984081E-02 
2194	 0.013340984313707 
2195	 1.30073712546418E-02 
2196	 1.23842684736882E-02 
2197	 1.17838888326459E-02 
2198	 0.011401375782101 
2199	 1.09269857338599E-02 
2200	 9.72470206659154E-03 
2201	 1.08484481783326E-02 
2202	 0.012056880921913 
2203	 1.25160750199899E-02 
2204	 1.44607937832839E-02 
2205	 1.53859835306341E-02 
2206	 1.41623179404125E-02 
2207	 0.014873968577181 
2208	 1.54190412501921E-02 
2209	 1.47641750171079E-02 
2210	 1.54251781249924E-02 
2211	 1.51582488950515E-02 
2212	 0.015339220727855 
2213	 1.65207104518412E-02 
2214	 1.68191668393068E-02 
2215	 1.63945005329329E-02 
2216	 1.60815372636511E-02 
2217	 1.61767680873552E-02 
2218	 0.016534809880737 
2219	 1.57011968737288E-02 
2220	 1.43442406486698E-02 
2221	 0.013697820976539 
2222	 1.21802688128898E-02 
2223	 1.20784441295952E-02 
2224	 0.014009282829111 
2225	 1.49854021261695E-02 
2226	 1.55288226713947E-02 
2227	 1.56431302947448E-02 
2228	 1.58345925018467E-02 
2229	 1.53097778933751E-02 
2230	 1.37864011919296E-02 
2231	 1.30893731919644E-02 
2232	 0.012974402748517 
2233	 1.19247965747566E-02 
2234	 0.010036208860619 
2235	 9.04620476483899E-03 
2236	 9.3945568635488E-03 
2237	 9.76405491611897E-03 
2238	 1.17841276023481E-02 
2239	 1.41297736865531E-02 
2240	 1.42234290329242E-02 
2241	 1.32331286690852E-02 
2242	 1.31283594057497E-02 
2243	 0.012520083665317 
2244	 1.14747094869395E-02 
2245	 1.22471266609682E-02 
2246	 1.35834864922035E-02 
2247	 1.33524292509435E-02 
2248	 1.15793481314473E-02 
2249	 0.010835995987814 
2250	 1.06533899238209E-02 
2251	 1.09781076730758E-02 
2252	 1.28390749690124E-02 
2253	 1.30107971755306E-02 
2254	 1.15856623838254E-02 
2255	 1.01660546963494E-02 
2256	 9.67563813162444E-03 
2257	 1.09741739410197E-02 
2258	 1.21462383276215E-02 
2259	 1.30889306832365E-02 
2260	 1.37750313013962E-02 
2261	 1.46859900172673E-02 
2262	 1.45222664039392E-02 
2263	 0.013523669868449 
2264	 1.27813410558924E-02 
2265	 1.07069049513768E-02 
2266	 1.03825519304315E-02 
2267	 1.12383409637268E-02 
2268	 1.09713777007242E-02 
2269	 1.23522424998277E-02 
2270	 1.23158648567752E-02 
2271	 8.86747233614805E-03 
2272	 9.15951321200903E-03 
2273	 1.13649148270199E-02 
2274	 1.11472636107306E-02 
2275	 1.23799964613476E-02 
2276	 1.40744551122893E-02 
2277	 1.36205048919062E-02 
2278	 0.014389609892509 
2279	 1.76688509937505E-02 
2280	 1.82699153643158E-02 
2281	 1.66376143135952E-02 
2282	 1.73600728938674E-02 
2283	 1.68462339442122E-02 
2284	 0.014845026475872 
2285	 1.34401998934834E-02 
2286	 1.24989588055744E-02 
2287	 1.18315011920785E-02 
2288	 1.06314052160701E-02 
2289	 1.04192147362281E-02 
2290	 1.05107115755857E-02 
2291	 8.19241688773607E-03 
2292	 8.23953975060372E-03 
2293	 1.06203945736992E-02 
2294	 1.08290144413699E-02 
2295	 1.31918280385661E-02 
2296	 1.50559519011555E-02 
2297	 1.07323445134932E-02 
2298	 7.18479889468263E-03 
2299	 6.35125835655618E-03 
2300	 8.17161867182685E-03 
2301	 1.30122657037467E-02 
2302	 1.59494373396219E-02 
2303	 1.56384527712848E-02 
2304	 1.17954699812461E-02 
2305	 9.32869168732872E-03 
2306	 1.02062741787709E-02 
2307	 9.84833031924197E-03 
2308	 1.05969553426703E-02 
2309	 1.12511947529024E-02 
2310	 1.12115307066383E-02 
2311	 1.12068044149606E-02 
2312	 1.14164140817892E-02 
2313	 1.38078113288457E-02 
2314	 1.24615435712237E-02 
2315	 1.13722477011827E-02 
2316	 1.11105995023063E-02 
2317	 8.71916850829821E-03 
2318	 7.98581902295959E-03 
2319	 7.84793491537299E-03 
2320	 1.04464725322335E-02 
2321	 0.013763820662464 
2322	 1.65736859284547E-02 
2323	 1.50803051782459E-02 
2324	 1.18109340737849E-02 
2325	 1.14172853955926E-02 
2326	 0.010645847389278 
2327	 1.06658316638859E-02 
2328	 8.62396482890253E-03 
2329	 8.82735275697578E-03 
2330	 9.86008492532273E-03 
2331	 6.24079701374662E-03 
2332	 6.37721847835656E-03 
2333	 0.004916069357989 
2334	-1.94430625804893E-03 
2335	-1.63752607980435E-03 
2336	 3.02931711278006E-03 
2337	 5.05977001136619E-03 
2338	 6.92480237994339E-03 
2339	 9.31925205198675E-03 
2340	 1.07805013850949E-02 
2341	 7.76545586313638E-03 
2342	 4.18953105395657E-03 
2343	 5.06278832162617E-03 
2344	 8.25733685594206E-03 
2345	 8.36589629892398E-03 
2346	 7.04070133182365E-03 
2347	 1.22352162674703E-02 
2348	 0.015350517149125 
2349	 1.65490856732961E-02 
2350	 2.29476789262831E-02 
2351	 2.22989093635578E-02 
2352	 1.67479325708747E-02 
2353	 1.07706736918339E-02 
2354	 8.60780150289476E-04 
2355	-2.90057712209437E-03 
2356	 1.05434541006911E-03 
2357	 3.43827986478635E-03 
2358	 4.5342949565917E-03 
2359	 8.60114278210443E-03 
2360	 1.58762750605133E-03 
2361	-8.59537271537123E-03 
2362	-4.32159654130926E-03 
2363	-3.82742999325514E-03 
2364	-7.16914752818518E-03 
2365	-1.95210927924647E-05 
2366	 6.28357927456485E-03 
2367	-8.44697208252638E-04 
2368	-2.76714628409301E-03 
2369	 4.75521002648972E-03 
2370	-5.51351701542734E-03 
2371	-1.62899558179419E-02 
2372	-6.45993592970798E-03 
2373	-6.54055597777031E-03 
2374	-1.20090686290601E-02 
2375	 1.16848621723743E-02 
2376	 2.61832176221117E-02 
2377	 8.38586915716735E-03 
2378	-6.06534621592277E-03 
2379	-2.74006287677348E-02 
2380	-4.72406523519482E-02 
2381	-4.73553815166344E-02 
2382	-3.93754499567927E-02 
2383	-0.038006245710433 
2384	-5.23351520474063E-02 
2385	-4.74168300842791E-02 
2386	-3.04935631203376E-02 
2387	-1.14580462497275E-02 
2388	-5.36076305719146E-03 
2389	-9.89946340616626E-03 
2390	-1.78397095015627E-02 
2391	-4.09745366736507E-02 
2392	-2.10109115338699E-02 
2393	-6.43447329874284E-03 
2394	-1.09867319601116E-02 
2395	 2.32253009846547E-02 
2396	 0.016412647526577 
2397	-4.36062815589745E-03 
2398	 0.011696082316528 
2399	-1.51735485599406E-02 
2400	-3.72594205192445E-02 
2401	-2.46145457395093E-02 
2402	-3.30666722310253E-02 
2403	-0.014400851316915 
2404	 2.04003668626016E-02 
2405	 3.12386796710554E-02 
2406	 3.19180613329152E-02 
2407	 7.08153773719435E-03 
2408	-3.88726723318349E-02 
2409	-0.087999878993253 
2410	-9.96914265975034E-02 
2411	-9.11876350280153E-02 
2412	-9.69525521839896E-02 
2413	-6.66188435597028E-02 
2414	-6.37826764239617E-02 
2415	-0.115927327157817 
2416	-7.95033436810007E-02 
2417	-2.65231146973187E-02 
2418	-1.85745187095481E-02 
2419	 7.20471388274572E-02 
2420	 0.143221641776759 
2421	 0.167716942437193 
2422	 0.164201994707401 
2423	 0.100701631562984 
2424	 5.08183862224637E-02 
2425	-1.28705244086608E-02 
2426	-1.63298444601628E-02 
2427	 3.38678989716572E-02 
2428	-1.52531740236355E-02 
2429	-7.81340598678079E-02 
2430	-7.48460641821662E-02 
2431	-8.59237983855889E-02 
2432	-4.44911260707345E-02 
2433	 0.107615729272492 
2434	 7.10445578131338E-02 
2435	-2.80345212541459E-02 
2436	 3.84060809699939E-02 
2437	-3.56279255344369E-02 
2438	-5.66307268964231E-02 
2439	 0.133206534919174 
2440	 0.130972628044959 
2441	 0.129848362898965 
2442	 0.196134045032991 
2443	 0.145083180545155 
2444	 8.35780781827916E-02 
2445	-4.82695442079021E-02 
2446	-3.66684816998569E-02 
2447	 6.29342341856148E-02 
2448	 7.87373424952312E-02 
2449	 0.241233520284101 
2450	 0.324192265011268 
2451	 0.106104032427775 
2452	-0.141986047017504 
2453	-0.173510401620215 
2454	 0.127561600833134 
2455	 0.176238746770112 
2456	 0.189735981012558 
2457	 0.213844337443074 
2458	 0.212607273364522 
2459	 0.320752555399514 
2460	 0.414989169922622 
2461	 0.347823458011754 
2462	 0.110875547224557 
2463	-8.66541872719397E-02 
2464	-0.185969340424355 
2465	-0.145658199479887 
2466	 1.95207296947126E-02 
2467	 0.117154441313553 
2468	 2.13375261479106E-02 
2469	-0.231083812671276 
2470	-0.523117765421953 
2471	-1.01934685352369 
2472	-1.39236212853664 
2473	 0.377159415654594 
2474	 8.85783027911532E-02 
2475	 0.120065504897679 
2476	-8.17203882715836E-02 
2477	-0.471120106509042 
2478	-1.19483071376145 
2479	-0.645080234586197 
2480	-0.435326765520234 
2481	-0.720058507590158 
2482	-0.424955760027534 
2483	-0.369246911632074 
2484	-0.607777151873143 
2485	 2.50695165117909E-02 
2486	 1.04673056058266 
2487	 1.20026471793938 
2488	 0.884070678293311 
2489	 0.569622788185917 
2490	 1.39933717250854E-02 
2491	-0.172844625583395 
2492	-6.98077590769073E-02 
2493	 5.47779504269045E-02 
2494	 0.475463510064207 
2495	 0.893942443950663 
2496	 2.95173642792342 
2497	 1.99583872853358 
2498	 0.776669951022231 
2499	 1.77453330074285 
2500	 0.937689021677604 
