Wavelength	rt0721algea_nearby_water00000.asd
350	 3.89720948476322E-02 
351	 3.92090249445428E-02 
352	 3.92226907860056E-02 
353	 3.90066280625825E-02 
354	 3.87422614019898E-02 
355	 0.038680111350567 
356	 3.85183144021117E-02 
357	 3.85699579527666E-02 
358	 3.90915756009469E-02 
359	 3.94783098812479E-02 
360	 3.88030143677402E-02 
361	 3.77514857001304E-02 
362	 3.78937954245938E-02 
363	 3.81427754724723E-02 
364	 3.83859487221652E-02 
365	 3.85506776757398E-02 
366	 3.84549052544063E-02 
367	 0.037926071654862 
368	 3.77025254875144E-02 
369	 3.82565350555477E-02 
370	 0.038332731257013 
371	 3.84110640335165E-02 
372	 0.038495171863104 
373	 3.83443531170837E-02 
374	 3.81389435406115E-02 
375	 3.79984874872643E-02 
376	 0.038085912695003 
377	 3.86115394635696E-02 
378	 3.86740879177483E-02 
379	 0.038799871609263 
380	 3.93450839087347E-02 
381	 3.89999846213082E-02 
382	 3.91189264550767E-02 
383	 3.95775256003426E-02 
384	 0.039626900578917 
385	 3.96664189586542E-02 
386	 0.039791569938908 
387	 4.00241105925649E-02 
388	 4.03116548484817E-02 
389	 4.00789655874987E-02 
390	 3.99029778364147E-02 
391	 4.02661730959036E-02 
392	 4.10118536308033E-02 
393	 4.08312532324927E-02 
394	 4.04333968589305E-02 
395	 4.09365066985218E-02 
396	 4.13166354361219E-02 
397	 4.14095144614558E-02 
398	 4.13017664757917E-02 
399	 4.12425266077997E-02 
400	 4.15330766761718E-02 
401	 4.17933771574293E-02 
402	 4.17718098345211E-02 
403	 4.16764194334778E-02 
404	 4.18442093040682E-02 
405	 4.21306506283605E-02 
406	 4.22466637176089E-02 
407	 4.22664034286369E-02 
408	 4.23632981823834E-02 
409	 4.25226726500182E-02 
410	 4.25596426076546E-02 
411	 4.28469258094199E-02 
412	 0.043017269965054 
413	 4.28984581861648E-02 
414	 4.30826687417114E-02 
415	 4.32883726114868E-02 
416	 4.34317481042501E-02 
417	 4.35330110622399E-02 
418	 4.37558341679491E-02 
419	 4.39894518301321E-02 
420	 4.42139580296319E-02 
421	 4.45207873739531E-02 
422	 4.46278933441049E-02 
423	 4.47966806556015E-02 
424	 4.51644670478076E-02 
425	 0.045172740151744 
426	 4.54979289914213E-02 
427	 0.045952600343017 
428	 0.046043154393488 
429	 0.046351750756743 
430	 4.66767992755939E-02 
431	 4.69682700036506E-02 
432	 4.74335211555059E-02 
433	 4.75737651851853E-02 
434	 4.76947119027441E-02 
435	 4.80876684422564E-02 
436	 4.84732802378131E-02 
437	 4.88328356406319E-02 
438	 4.91235931025831E-02 
439	 0.049322980356969 
440	 4.96534154834817E-02 
441	 5.00030576816813E-02 
442	 5.02953577651631E-02 
443	 5.05626595870433E-02 
444	 5.07470444428299E-02 
445	 5.09640054026482E-02 
446	 5.13088979716105E-02 
447	 5.16380629121714E-02 
448	 5.18420355127668E-02 
449	 5.19919137410977E-02 
450	 5.22651183470637E-02 
451	 5.23757111622831E-02 
452	 5.24896151849269E-02 
453	 5.27118285896769E-02 
454	 0.052897065708491 
455	 5.30261927200297E-02 
456	 5.31120742882938E-02 
457	 5.31927017017696E-02 
458	 5.33421395976024E-02 
459	 5.33653514530081E-02 
460	 5.33482758962144E-02 
461	 5.36383597827985E-02 
462	 5.36516040396497E-02 
463	 0.053662904411369 
464	 5.38982329878186E-02 
465	 5.39717479947728E-02 
466	 5.40154144094139E-02 
467	 5.41075315501822E-02 
468	 5.42773080902034E-02 
469	 5.43379654220154E-02 
470	 0.054476929912912 
471	 0.054699056846739 
472	 5.47260694303118E-02 
473	 5.47462145074328E-02 
474	 5.48602435812317E-02 
475	 5.50850493862641E-02 
476	 5.52334078757342E-02 
477	 0.055389485662839 
478	 5.55491354549052E-02 
479	 5.56681001212798E-02 
480	 0.05598130178491 
481	 5.62285605038809E-02 
482	 5.63071822501946E-02 
483	 5.65658391608711E-02 
484	 5.67599116181247E-02 
485	 5.69623205078948E-02 
486	 0.057301551091196 
487	 5.75744422416963E-02 
488	 5.78274865179696E-02 
489	 5.81184847911842E-02 
490	 5.84960334272721E-02 
491	 5.88216386006246E-02 
492	 5.91368611870982E-02 
493	 5.94895773689877E-02 
494	 5.98373798245215E-02 
495	 6.02813695765713E-02 
496	 6.07944802469915E-02 
497	 6.12772848683404E-02 
498	 6.16266847811891E-02 
499	 6.20368583270598E-02 
500	 6.25875174618356E-02 
501	 6.31395207201029E-02 
502	 6.36444214828126E-02 
503	 6.41246012779017E-02 
504	 6.46303937334009E-02 
505	 6.51870788179217E-02 
506	 0.065879541916452 
507	 6.66187922180581E-02 
508	 6.71953866699302E-02 
509	 6.77529683785973E-02 
510	 6.83806612586998E-02 
511	 6.91014566544661E-02 
512	 6.98285624567525E-02 
513	 7.04962394419047E-02 
514	 7.11734296373522E-02 
515	 7.19665151103313E-02 
516	 7.27819173101225E-02 
517	 7.35811498930881E-02 
518	 0.074353733121468 
519	 7.51215572310076E-02 
520	 7.58770699360008E-02 
521	 7.65973506635823E-02 
522	 7.72988189163499E-02 
523	 7.81333281159606E-02 
524	 7.89238656482852E-02 
525	 7.96484291120635E-02 
526	 8.04001508120875E-02 
527	 8.11734478460386E-02 
528	 8.19266911922316E-02 
529	 8.26295134321204E-02 
530	 8.32682556791842E-02 
531	 8.40492587672189E-02 
532	 8.48544877741197E-02 
533	 8.54938650218343E-02 
534	 8.61793756941682E-02 
535	 0.086866429078167 
536	 8.75454231555971E-02 
537	 8.82589179544643E-02 
538	 8.89970991650336E-02 
539	 8.97193840468453E-02 
540	 9.03973932658829E-02 
541	 9.10566886398799E-02 
542	 9.17886455431106E-02 
543	 9.25450807957312E-02 
544	 9.32042692541289E-02 
545	 9.38137385225949E-02 
546	 0.094504397073297 
547	 9.52794949498837E-02 
548	 9.58754573563693E-02 
549	 9.65475544903552E-02 
550	 9.72456092540374E-02 
551	 9.78492090692839E-02 
552	 9.84784063604796E-02 
553	 9.91215578815239E-02 
554	 9.97394118608775E-02 
555	 0.100270856180839 
556	 0.100914517595391 
557	 0.101528092623506 
558	 0.101994143648478 
559	 0.102589590244058 
560	 0.103070351490948 
561	 0.103447947244913 
562	 0.103887687734571 
563	 0.104341301154483 
564	 0.104712684452519 
565	 0.104984195371947 
566	 0.10530249303736 
567	 0.105614992466531 
568	 0.105876810553932 
569	 0.106066205872666 
570	 0.106299820774616 
571	 0.106502240156026 
572	 0.106673594057749 
573	 0.106901777780503 
574	 0.107008523307617 
575	 0.107086201142005 
576	 0.107240501410954 
577	 0.107421917941318 
578	 0.107530100264936 
579	 0.107572020774849 
580	 0.10761970991626 
581	 0.10763314649722 
582	 0.107643990310779 
583	 0.10765670349785 
584	 0.107615131499772 
585	 0.107502879897393 
586	 0.10731894299027 
587	 0.107089224825826 
588	 0.106945740886418 
589	 0.106795388175417 
590	 0.106619262580476 
591	 0.106480804168692 
592	 0.106364091301509 
593	 0.106210440166547 
594	 0.105987457595068 
595	 0.105762548404755 
596	 0.105463949175324 
597	 0.105121927213674 
598	 0.104817948617595 
599	 0.10449723394503 
600	 0.104216325119091 
601	 0.103993314415931 
602	 0.103750364305428 
603	 0.103670850815049 
604	 0.10366570323921 
605	 0.10359321387674 
606	 0.103537526085139 
607	 0.103494185558776 
608	 0.103470103853367 
609	 0.103484324348508 
610	 0.103478022782806 
611	 0.103457973581273 
612	 0.103429771535424 
613	 0.103339348466235 
614	 0.103325043210442 
615	 0.10331273935394 
616	 0.103151050396677 
617	 0.103171634226544 
618	 0.103126844832287 
619	 0.102951503931877 
620	 0.102975463938485 
621	 0.10297417125646 
622	 0.102909525515589 
623	 0.102815088372331 
624	 0.102780412953127 
625	 0.1026978970168 
626	 0.102563821800735 
627	 0.102480865273656 
628	 0.10250854565662 
629	 0.102520593408093 
630	 0.102424361842232 
631	 0.102310083115529 
632	 0.102186202338947 
633	 0.102054850389662 
634	 0.101900199851543 
635	 0.101622564744145 
636	 0.101381426583578 
637	 0.101203091361036 
638	 0.100888524610207 
639	 0.100549134557582 
640	 0.10024922088463 
641	 9.99964367508953E-02 
642	 9.96010989107572E-02 
643	 9.92970391799082E-02 
644	 9.90415230620692E-02 
645	 9.85788641188309E-02 
646	 9.81030309171375E-02 
647	 9.77874703179017E-02 
648	 9.76543475357228E-02 
649	 9.73717223597914E-02 
650	 9.71928816409439E-02 
651	 9.70648418596005E-02 
652	 0.096856372760351 
653	 9.66884615399882E-02 
654	 9.64688609537703E-02 
655	 9.61775849153104E-02 
656	 9.59485759747325E-02 
657	 9.57173339019701E-02 
658	 0.095446966488646 
659	 9.51285335177229E-02 
660	 9.48384009939565E-02 
661	 9.45992325268133E-02 
662	 0.094394411992609 
663	 9.41801571950387E-02 
664	 9.38703338968353E-02 
665	 9.36629851102211E-02 
666	 9.36011538955638E-02 
667	 9.33926665954981E-02 
668	 9.32747306370961E-02 
669	 9.31635536119249E-02 
670	 9.29512473513258E-02 
671	 9.29413430154586E-02 
672	 9.29441075285778E-02 
673	 0.092903738443823 
674	 9.29114934386695E-02 
675	 9.30070917608395E-02 
676	 9.30670793388328E-02 
677	 9.30589411024298E-02 
678	 9.32602611210247E-02 
679	 9.34889312987881E-02 
680	 9.37126093941708E-02 
681	 9.39790149707899E-02 
682	 9.43886389648298E-02 
683	 9.48966035068809E-02 
684	 9.54414099351744E-02 
685	 9.60073287238547E-02 
686	 9.67777564693046E-02 
687	 9.76193547810048E-02 
688	 9.83416064502583E-02 
689	 9.91576105696727E-02 
690	 9.99832999508009E-02 
691	 0.100777121909786 
692	 0.101527943165493 
693	 0.102235625803171 
694	 0.102920278720642 
695	 0.103583247814603 
696	 0.104275538053166 
697	 0.104699149606704 
698	 0.105001527380333 
699	 0.105364199094495 
700	 0.105543563963119 
701	 0.105712714163736 
702	 0.105867760325843 
703	 0.105863784391907 
704	 0.105773856784128 
705	 0.105620287627156 
706	 0.105390201906219 
707	 0.105003241514767 
708	 0.104504437372142 
709	 0.103905238411318 
710	 0.103201645452847 
711	 0.102375828849223 
712	 0.101387876746944 
713	 0.100247809972574 
714	 0.098987174364875 
715	 0.0976462897407 
716	 9.61216279610846E-02 
717	 9.44383983744715E-02 
718	 9.27392967804162E-02 
719	 9.12447526112858E-02 
720	 8.99978770939824E-02 
721	 8.86721958724945E-02 
722	 0.087243469922019 
723	 0.085515917706012 
724	 8.36885986219198E-02 
725	 8.19827278635535E-02 
726	 0.080126300199691 
727	 7.80389028517425E-02 
728	 7.57438370726481E-02 
729	 7.33167663783631E-02 
730	 7.08329726775366E-02 
731	 6.85481128367797E-02 
732	 6.65797424560007E-02 
733	 6.47910302854856E-02 
734	 6.32507962316188E-02 
735	 6.19656621145654E-02 
736	 6.08101477658028E-02 
737	 5.99911970549328E-02 
738	 5.94182147143636E-02 
739	 5.89890186946165E-02 
740	 5.87741684096763E-02 
741	 5.85439115921371E-02 
742	 5.83301040120259E-02 
743	 5.82777101335681E-02 
744	 5.82377783997212E-02 
745	 0.058195344960999 
746	 5.81542871866761E-02 
747	 5.81245820088176E-02 
748	 5.81116057934405E-02 
749	 5.80882204678539E-02 
750	 5.80371648083136E-02 
751	 5.79918180651692E-02 
752	 0.058016296616984 
753	 5.80407094027567E-02 
754	 5.79662565339716E-02 
755	 5.81231212072649E-02 
756	 5.81613771064342E-02 
757	 5.80312708368805E-02 
758	 5.82516459799203E-02 
759	 5.83137910732902E-02 
760	 0.058177711345518 
761	 5.81757373633442E-02 
762	 5.80895997286752E-02 
763	 5.82178049793238E-02 
764	 5.84274156346283E-02 
765	 5.85314547437283E-02 
766	 5.87348141637948E-02 
767	 5.89424935614641E-02 
768	 5.91035441289819E-02 
769	 5.92041622783841E-02 
770	 5.94375693227559E-02 
771	 5.97326363493066E-02 
772	 5.99830791066187E-02 
773	 6.01466361876935E-02 
774	 6.02946946031253E-02 
775	 6.05601791409299E-02 
776	 6.10166155143075E-02 
777	 6.12341696355372E-02 
778	 6.14781096921113E-02 
779	 6.18571468413472E-02 
780	 6.22641513981632E-02 
781	 6.25264754463118E-02 
782	 6.28264039869104E-02 
783	 6.32836705025994E-02 
784	 6.37402796845336E-02 
785	 6.40554256114596E-02 
786	 6.43402521915109E-02 
787	 6.47687938929584E-02 
788	 6.52668895827036E-02 
789	 6.57957012355972E-02 
790	 6.62494340133134E-02 
791	 6.65278273649674E-02 
792	 6.70313271447538E-02 
793	 6.76016903256058E-02 
794	 6.80472172852813E-02 
795	 6.82263595127784E-02 
796	 6.87964873166238E-02 
797	 6.93563010838379E-02 
798	 0.069508408217559 
799	 6.98732438761984E-02 
800	 7.01856150486882E-02 
801	 7.03864831081696E-02 
802	 7.05620770572685E-02 
803	 7.08633794224034E-02 
804	 7.12190880682978E-02 
805	 7.14638244500749E-02 
806	 7.13790662755626E-02 
807	 7.12039160040892E-02 
808	 7.10516451820092E-02 
809	 7.09498255822331E-02 
810	 7.07890999894815E-02 
811	 7.04043783113985E-02 
812	 6.98986851987097E-02 
813	 6.94870692653186E-02 
814	 6.91371692945335E-02 
815	 0.068650482980656 
816	 0.068090728677367 
817	 0.067668719883254 
818	 6.68552225112942E-02 
819	 6.61267763071143E-02 
820	 6.55061563694781E-02 
821	 6.44007765086928E-02 
822	 6.31790062474495E-02 
823	 6.18899320148561E-02 
824	 6.05316187851175E-02 
825	 5.90518291196024E-02 
826	 5.71348093930476E-02 
827	 5.49474264287869E-02 
828	 5.29920926894519E-02 
829	 0.051388936520939 
830	 4.97947604542586E-02 
831	 4.81583674339766E-02 
832	 4.67476158523957E-02 
833	 4.60361408548994E-02 
834	 4.53586068304162E-02 
835	 4.44324111384689E-02 
836	 4.36553469626216E-02 
837	 4.34498254871649E-02 
838	 4.32787989200614E-02 
839	 4.27337223687258E-02 
840	 4.22856253424146E-02 
841	 4.19027333097473E-02 
842	 4.16237643001182E-02 
843	 4.14620449050969E-02 
844	 4.13017105441551E-02 
845	 4.09412396734128E-02 
846	 4.04386008770387E-02 
847	 4.00436744639178E-02 
848	 3.99748192205604E-02 
849	 3.97609722891186E-02 
850	 3.93348039896377E-02 
851	 3.92110048665228E-02 
852	 3.89177242936415E-02 
853	 0.03853416309933 
854	 3.82145389067953E-02 
855	 3.79905287873551E-02 
856	 3.79447980977013E-02 
857	 3.78000138042586E-02 
858	 3.73701114074146E-02 
859	 3.71386416808532E-02 
860	 3.68403687167155E-02 
861	 3.65673351557637E-02 
862	 3.65023660414909E-02 
863	 3.62313342215955E-02 
864	 3.59843994423043E-02 
865	 3.58005467761602E-02 
866	 3.55310115813108E-02 
867	 0.035420559164975 
868	 3.51416286174729E-02 
869	 3.47004886224029E-02 
870	 3.46032780220564E-02 
871	 3.44668848248873E-02 
872	 3.40685680579203E-02 
873	 0.033452144817762 
874	 3.31502009751352E-02 
875	 3.29806119186236E-02 
876	 3.27146575776494E-02 
877	 3.22451484442253E-02 
878	 0.031961337307528 
879	 3.16975973062491E-02 
880	 3.13880421167576E-02 
881	 3.10358922604092E-02 
882	 3.07362569217828E-02 
883	 3.02898948068365E-02 
884	 2.98862919444357E-02 
885	 2.98903432241679E-02 
886	 2.94973883288175E-02 
887	 2.90969012044823E-02 
888	 2.88468211353393E-02 
889	 2.85001597749929E-02 
890	 0.02814364941153 
891	 2.78967235255533E-02 
892	 2.77118072676212E-02 
893	 2.72176833770456E-02 
894	 2.71521539177653E-02 
895	 2.72314209324953E-02 
896	 2.70045243070649E-02 
897	 0.026599021725339 
898	 2.62427543831874E-02 
899	 2.59746224039438E-02 
900	 0.02571015340894 
901	 2.52719182689984E-02 
902	 2.51269351580152E-02 
903	 2.50693122386965E-02 
904	 2.47763859043944E-02 
905	 2.47456421588726E-02 
906	 2.43777973156406E-02 
907	 0.023798642837195 
908	 2.35703168398357E-02 
909	 2.28311192109215E-02 
910	 0.022486995305829 
911	 2.27091565081035E-02 
912	 2.27903028825647E-02 
913	 2.18387923321426E-02 
914	 0.021232136582174 
915	 2.12935375754853E-02 
916	 2.08662209273343E-02 
917	 2.02658014402454E-02 
918	 1.97248583267621E-02 
919	 1.93371696653889E-02 
920	 1.90347478198159E-02 
921	 1.89983918310769E-02 
922	 1.88892919044858E-02 
923	 1.84312129846703E-02 
924	 1.76868905229707E-02 
925	 1.67934530596496E-02 
926	 1.66597086583211E-02 
927	 1.75932615495254E-02 
928	 1.66549403354365E-02 
929	 1.57983691538711E-02 
930	 1.62543749679759E-02 
931	 0.017928398694524 
932	 1.43323584044758E-02 
933	 1.15101404317131E-02 
934	 1.32089323247015E-02 
935	 1.72432236428019E-02 
936	 1.41531683033484E-02 
937	 1.20861594808505E-02 
938	 1.33189375106318E-02 
939	 1.65561091575614E-02 
940	 1.65570080163696E-02 
941	 1.49068875464426E-02 
942	 1.38943336556452E-02 
943	 1.52223469237593E-02 
944	 1.44977651175329E-02 
945	 1.60565095143689E-02 
946	 1.71538208290964E-02 
947	 0.013055466772776 
948	 0.013774125815675 
949	 1.44605645547824E-02 
950	 1.38788844681239E-02 
951	 1.35766308813668E-02 
952	 1.33482598061067E-02 
953	 1.49666536546571E-02 
954	 1.59982958419116E-02 
955	 1.28287754858256E-02 
956	 1.24938353857279E-02 
957	 1.38699542126926E-02 
958	 1.46439245510659E-02 
959	 1.31038988929664E-02 
960	 1.26724138051277E-02 
961	 1.43551098446466E-02 
962	 1.52559146282921E-02 
963	 1.17769447752696E-02 
964	 1.09360383553645E-02 
965	 1.20323700698159E-02 
966	 1.27396700677149E-02 
967	 1.10111775140168E-02 
968	 1.07761452060408E-02 
969	 1.20403371223585E-02 
970	 1.31528989087696E-02 
971	 1.20924521134357E-02 
972	 1.29316600268321E-02 
973	 1.30567415481931E-02 
974	 1.22037229939558E-02 
975	 1.27185402634619E-02 
976	 1.22754911712222E-02 
977	 1.27378075969661E-02 
978	 1.37123438202725E-02 
979	 1.28222287103911E-02 
980	 0.010446751828843 
981	 1.03679627664643E-02 
982	 1.23152612093615E-02 
983	 1.28695592520033E-02 
984	 1.29973186039983E-02 
985	 1.31608918360927E-02 
986	 1.34026580501335E-02 
987	 1.34460842274439E-02 
988	 1.32338356380992E-02 
989	 1.30326301666522E-02 
990	 1.27796929035658E-02 
991	 1.22870967267447E-02 
992	 1.23931426133009E-02 
993	 1.25262334269299E-02 
994	 1.27695442328422E-02 
995	 1.33871458686354E-02 
996	 0.01228275097951 
997	 1.25984489788415E-02 
998	 1.36519781977429E-02 
999	 1.27922820325165E-02 
1000	 1.18962622770466E-02 
1001	 0.012413929282498 
1002	 1.24206460947015E-02 
1003	 1.25404902116437E-02 
1004	 1.27180597293367E-02 
1005	 1.27445374805365E-02 
1006	 1.29523064922839E-02 
1007	 1.30412986004777E-02 
1008	 0.01263927492658 
1009	 1.24742611793383E-02 
1010	 1.24587495601094E-02 
1011	 1.24204301793748E-02 
1012	 1.26443635247401E-02 
1013	 1.29191400093628E-02 
1014	 1.30682531857358E-02 
1015	 1.33212997349595E-02 
1016	 1.33550169111518E-02 
1017	 1.31517302958846E-02 
1018	 1.30121090424123E-02 
1019	 1.27351632466491E-02 
1020	 1.25671234068947E-02 
1021	 1.23900202106783E-02 
1022	 1.23309837495504E-02 
1023	 1.24367145984096E-02 
1024	 1.26753093546563E-02 
1025	 1.29485831196915E-02 
1026	 1.32969040898767E-02 
1027	 1.34535469074076E-02 
1028	 1.34611660695689E-02 
1029	 1.35247677599899E-02 
1030	 1.36057108485241E-02 
1031	 1.35514556166708E-02 
1032	 0.01332480792263 
1033	 1.33308757461027E-02 
1034	 1.32619871119342E-02 
1035	 1.33634202239046E-02 
1036	 1.40872579606984E-02 
1037	 1.41239185640932E-02 
1038	 1.36632145954391E-02 
1039	 1.34306003298684E-02 
1040	 1.33033620718322E-02 
1041	 1.29824835678697E-02 
1042	 1.29894812028721E-02 
1043	 1.34761032189847E-02 
1044	 1.37129229235467E-02 
1045	 1.39030864960461E-02 
1046	 1.40162973243875E-02 
1047	 1.42594387248126E-02 
1048	 0.014270733171748 
1049	 0.013921019710702 
1050	 1.38370409788692E-02 
1051	 1.38477066852566E-02 
1052	 1.38033452733382E-02 
1053	 1.37776094704892E-02 
1054	 1.37972202028289E-02 
1055	 1.37394029194466E-02 
1056	 1.37892087371014E-02 
1057	 1.39152218120403E-02 
1058	 1.42410871387676E-02 
1059	 1.42892468560946E-02 
1060	 0.01425768820709 
1061	 0.014288229473914 
1062	 1.41702629899358E-02 
1063	 1.41941877479504E-02 
1064	 1.44824954287811E-02 
1065	 1.44581394998581E-02 
1066	 1.41538493643223E-02 
1067	 1.41154473840627E-02 
1068	 1.40949755726253E-02 
1069	 1.40501957362912E-02 
1070	 1.41682462411404E-02 
1071	 1.42466406819857E-02 
1072	 1.42146516506061E-02 
1073	 1.42053607338031E-02 
1074	 0.014248247305863 
1075	 1.44959112068373E-02 
1076	 1.44002755201772E-02 
1077	 0.01405123599057 
1078	 1.39479984216044E-02 
1079	 0.013679646092162 
1080	 1.37209547076474E-02 
1081	 1.42684366720677E-02 
1082	 1.43467305986236E-02 
1083	 1.42872356024209E-02 
1084	 1.42093677413323E-02 
1085	 1.38741614259473E-02 
1086	 1.36640920239941E-02 
1087	 1.33796087510065E-02 
1088	 1.33171927283258E-02 
1089	 1.34885914698847E-02 
1090	 1.34500129363067E-02 
1091	 1.35426429173913E-02 
1092	 1.40365437888295E-02 
1093	 1.39616788456885E-02 
1094	 1.34328760014459E-02 
1095	 1.32795626836718E-02 
1096	 1.29563263839503E-02 
1097	 1.28660972087101E-02 
1098	 1.33490031827851E-02 
1099	 1.33080735759884E-02 
1100	 1.27766750843589E-02 
1101	 1.26741079977355E-02 
1102	 1.25396635646307E-02 
1103	 1.24408182411757E-02 
1104	 1.25289239896115E-02 
1105	 1.31188165785139E-02 
1106	 1.28783866394612E-02 
1107	 0.012634050087895 
1108	 1.25892090491039E-02 
1109	 1.22433894239139E-02 
1110	 0.012258116504638 
1111	 1.29592147607849E-02 
1112	 0.012791715929477 
1113	 1.15799068187744E-02 
1114	 1.15471148978518E-02 
1115	 1.20542753417439E-02 
1116	 1.22228654971092E-02 
1117	 1.45404439229884E-02 
1118	 1.51011554956612E-02 
1119	 1.09650295574764E-02 
1120	 9.32969694663944E-03 
1121	 7.88759264222233E-03 
1122	 9.18435868833869E-03 
1123	 1.09938085198797E-02 
1124	 1.52499549898931E-02 
1125	 1.45605430535446E-02 
1126	 9.33337544175111E-03 
1127	 8.95954164753975E-03 
1128	 0.011404872182096 
1129	 1.16268830195808E-02 
1130	 1.33839184614215E-02 
1131	 1.33475347745286E-02 
1132	 1.01348691947209E-02 
1133	 1.03729430646365E-02 
1134	 1.36753036009934E-02 
1135	 0.014036969183083 
1136	 0.013476305233894 
1137	 1.27355438262885E-02 
1138	 1.02829090921436E-02 
1139	 9.41398948857912E-03 
1140	 9.13927315580198E-03 
1141	 1.15402331773388E-02 
1142	 1.37624190025869E-02 
1143	 1.18537914492295E-02 
1144	 1.04269946698676E-02 
1145	 1.09154842924809E-02 
1146	 1.07628042438909E-02 
1147	 0.011731594850526 
1148	 0.01302836212434 
1149	 1.23264765239838E-02 
1150	 1.17036048572829E-02 
1151	 1.02794055237074E-02 
1152	 1.03034826492075E-02 
1153	 1.06426398189834E-02 
1154	 1.06137001750626E-02 
1155	 1.08074793071454E-02 
1156	 1.13867281165061E-02 
1157	 1.09511531245005E-02 
1158	 1.09820693881202E-02 
1159	 1.18218899843582E-02 
1160	 1.15751770378365E-02 
1161	 1.09586843964631E-02 
1162	 1.06646143795083E-02 
1163	 0.01025075127394 
1164	 1.05188361420147E-02 
1165	 1.09412069541807E-02 
1166	 1.08385709841103E-02 
1167	 1.07911421032734E-02 
1168	 1.06877830211114E-02 
1169	 1.06583726443841E-02 
1170	 1.07629639985496E-02 
1171	 1.06633559656444E-02 
1172	 1.01344974304871E-02 
1173	 1.01776527114283E-02 
1174	 1.04005659182917E-02 
1175	 1.06534445125456E-02 
1176	 1.07879934509675E-02 
1177	 1.09072696407592E-02 
1178	 1.08180874583694E-02 
1179	 1.07379641207071E-02 
1180	 1.10295171982953E-02 
1181	 1.12917681031927E-02 
1182	 1.09165725022121E-02 
1183	 1.04604744146722E-02 
1184	 1.05409945881859E-02 
1185	 1.07369773198757E-02 
1186	 1.07622558461215E-02 
1187	 1.07760458428546E-02 
1188	 1.07671619648398E-02 
1189	 0.01068723907614 
1190	 1.06565183856689E-02 
1191	 1.07040043149209E-02 
1192	 1.07608611250057E-02 
1193	 1.07495637887483E-02 
1194	 1.06289914332943E-02 
1195	 1.06489922287419E-02 
1196	 1.07384699608306E-02 
1197	 1.07490668448465E-02 
1198	 1.07330678471387E-02 
1199	 0.010619585079692 
1200	 1.06447155390812E-02 
1201	 1.07747818375039E-02 
1202	 1.07535523227078E-02 
1203	 1.08619910763661E-02 
1204	 1.09726858599488E-02 
1205	 1.08791147405368E-02 
1206	 1.07930220679296E-02 
1207	 1.07153439816622E-02 
1208	 1.06776210857078E-02 
1209	 1.08527395307872E-02 
1210	 0.010891278428117 
1211	 1.06121491099763E-02 
1212	 1.05999724790551E-02 
1213	 0.010684525460216 
1214	 1.06265935480232E-02 
1215	 1.04891442649153E-02 
1216	 1.07549130721117E-02 
1217	 1.09127740160466E-02 
1218	 1.05356214694135E-02 
1219	 1.04348133199495E-02 
1220	 1.06013131750915E-02 
1221	 1.05465815066265E-02 
1222	 1.06735661543576E-02 
1223	 1.08237493023401E-02 
1224	 0.010659165999034 
1225	 1.05369187028831E-02 
1226	 1.06138613353406E-02 
1227	 1.06382141659318E-02 
1228	 1.06880472248956E-02 
1229	 1.07794866833617E-02 
1230	 1.05923324800364E-02 
1231	 1.04660108623903E-02 
1232	 1.05368108795006E-02 
1233	 1.05950550337138E-02 
1234	 1.07648471011449E-02 
1235	 1.07747571609464E-02 
1236	 1.06097767378865E-02 
1237	 1.06557901046435E-02 
1238	 1.07726194162494E-02 
1239	 1.07324827397889E-02 
1240	 1.05939548223974E-02 
1241	 1.07187420402592E-02 
1242	 1.06918039100515E-02 
1243	 1.05699533915814E-02 
1244	 0.010748442556352 
1245	 1.09634118822831E-02 
1246	 1.08435254296631E-02 
1247	 1.06881716829525E-02 
1248	 1.08440960746109E-02 
1249	 1.09304934743749E-02 
1250	 0.01084631427031 
1251	 1.08532952959342E-02 
1252	 1.08888296165864E-02 
1253	 1.08195778764795E-02 
1254	 1.06722937565106E-02 
1255	 1.06857561357298E-02 
1256	 1.07338231336602E-02 
1257	 1.06911201411672E-02 
1258	 1.06730149136298E-02 
1259	 1.08634466642835E-02 
1260	 1.08917333353512E-02 
1261	 1.07670162651361E-02 
1262	 1.07653851520414E-02 
1263	 1.08344439921009E-02 
1264	 1.07675070723375E-02 
1265	 0.010862786183658 
1266	 1.10283046744968E-02 
1267	 1.09483554020354E-02 
1268	 1.06881082451554E-02 
1269	 1.06263874749153E-02 
1270	 1.06045797694288E-02 
1271	 0.010587270683598 
1272	 1.08104304021645E-02 
1273	 1.08590380540267E-02 
1274	 1.06061722639568E-02 
1275	 0.010639819436027 
1276	 1.08523339877057E-02 
1277	 1.07921679870961E-02 
1278	 1.08036403583568E-02 
1279	 1.08710303903087E-02 
1280	 1.07010216098614E-02 
1281	 1.06403980916873E-02 
1282	 1.07556237468443E-02 
1283	 1.08235221402708E-02 
1284	 1.08175328030988E-02 
1285	 1.07350907252499E-02 
1286	 1.06547594843877E-02 
1287	 0.010688858363912 
1288	 1.06725258821371E-02 
1289	 1.06441262840104E-02 
1290	 0.01082108385171 
1291	 1.07970637244896E-02 
1292	 1.05850096646594E-02 
1293	 0.010509933205805 
1294	 1.06854477336407E-02 
1295	 1.07397953181613E-02 
1296	 1.04448624375579E-02 
1297	 1.02945913774306E-02 
1298	 1.05266511328464E-02 
1299	 1.06182447893514E-02 
1300	 1.03886163174577E-02 
1301	 0.010389289303542 
1302	 1.05375687900737E-02 
1303	 1.03625048646882E-02 
1304	 1.02316801576944E-02 
1305	 1.04462952426514E-02 
1306	 1.05580961201849E-02 
1307	 1.02649862331256E-02 
1308	 1.01308746162614E-02 
1309	 0.010438996433391 
1310	 1.05205015311459E-02 
1311	 1.02281512360453E-02 
1312	 1.01771049036121E-02 
1313	 1.03416204833675E-02 
1314	 1.03201662405798E-02 
1315	 1.01919255753318E-02 
1316	 1.01779815485481E-02 
1317	 1.01971530057936E-02 
1318	 0.010195591531571 
1319	 0.01028916998492 
1320	 1.02381970292014E-02 
1321	 1.00078537739362E-02 
1322	 9.96705205967392E-03 
1323	 0.010346151354443 
1324	 1.01627279987431E-02 
1325	 9.83333359767158E-03 
1326	 1.02156782103544E-02 
1327	 1.02833293013442E-02 
1328	 9.91930496799064E-03 
1329	 1.00312357969049E-02 
1330	 1.01080404534282E-02 
1331	 9.99469169052276E-03 
1332	 1.02791537961447E-02 
1333	 1.03923840580613E-02 
1334	 9.93071671444658E-03 
1335	 9.74598131401528E-03 
1336	 8.9836489073086E-03 
1337	 8.94365923651189E-03 
1338	 1.00340898107121E-02 
1339	 0.010042140783413 
1340	 8.97545776930136E-03 
1341	 9.23036767546635E-03 
1342	 1.01933806093343E-02 
1343	 1.02300167372455E-02 
1344	 1.11035173657263E-02 
1345	 1.19386048913775E-02 
1346	 1.10968145566803E-02 
1347	 1.02746746361121E-02 
1348	 9.82935927014423E-03 
1349	 1.06681376345871E-02 
1350	 1.14069517911491E-02 
1351	 1.16724823262398E-02 
1352	 1.82686416172577E-02 
1353	 2.61817809120603E-02 
1354	 2.46533666706562E-02 
1355	 3.77295273988898E-02 
1356	 7.31054947515658E-02 
1357	 7.03992264923671E-02 
1358	 3.41958968693078E-02 
1359	 3.68507436308732E-03 
1360	 2.01276624981679E-02 
1361	 4.18160955631974E-02 
1362	 8.78009831566541E-03 
1363	 4.32177492176278E-02 
1364	 0.132955992305923 
1365	 0.153157526456043 
1366	 0.177858280496898 
1367	 0.164502923806168 
1368	 0.167829412158951 
1369	 3.81874504883203E-02 
1370	 5.95810842906846E-02 
1371	 0.251483532848707 
1372	 0.254894681492824 
1373	 9.93574537296377E-02 
1374	 0.127803050201069 
1375	 0.275511510589888 
1376	 0.264761441653564 
1377	 0.128401133184588 
1378	 0.216390335711886 
1379	 0.552633223660581 
1380	 0.403236059918163 
1381	-0.138776557891952 
1382	-7.25582739956174E-02 
1383	 0.24710991490352 
1384	-7.51333165121974E-02 
1385	-0.17560955358146 
1386	 1.92725890392932E-02 
1387	-0.15456708448055 
1388	-0.361559881583336 
1389	 7.50348028721341E-02 
1390	 0.500304093384046 
1391	 0.478315900109706 
1392	-6.30060357634423E-02 
1393	-0.26268955294157 
1394	-0.167657033115775 
1395	 0.101666627688207 
1396	 3.86112462003004E-02 
1397	 1.92014128591279E-02 
1398	 0.362891139003428 
1399	 0.31715722934995 
1400	-2.48175503384796E-02 
1401	-0.163748551344615 
1402	 5.33235463216248E-02 
1403	 0.273687594939303 
1404	 0.216616923796248 
1405	 0.192001466095287 
1406	 0.278319315629788 
1407	 0.260638976739238 
1408	 8.02471000778453E-02 
1409	 8.02513133391753E-02 
1410	 0.195914260609185 
1411	 0.177541712027468 
1412	 0.117802174288907 
1413	 0.103779195811763 
1414	 6.16475636039839E-02 
1415	 6.36167603688788E-02 
1416	 0.128466988897192 
1417	 0.108592612330261 
1418	 4.77426853409448E-02 
1419	 5.26375924928514E-02 
1420	 8.22569785825542E-02 
1421	 5.57295897232517E-02 
1422	 1.59081682913222E-02 
1423	 0.021290264099286 
1424	 2.65705029188508E-02 
1425	 1.66445279026063E-02 
1426	 2.20771929349659E-02 
1427	 2.57824816211896E-02 
1428	 1.05828384591127E-02 
1429	 4.95344728657824E-03 
1430	 1.52984450341117E-02 
1431	 2.07400840516969E-02 
1432	 1.97687035495851E-02 
1433	 1.66077528406309E-02 
1434	 1.46523190702597E-02 
1435	 1.65237798136883E-02 
1436	 1.87991358792165E-02 
1437	 1.34946478827226E-02 
1438	 1.59721420075986E-02 
1439	 0.020449577452129 
1440	 1.28319066633854E-02 
1441	 0.010907739028151 
1442	 1.97647939451117E-02 
1443	 1.99997200192159E-02 
1444	 0.013758178638635 
1445	 1.12133581155679E-02 
1446	 1.21983000017855E-02 
1447	 0.013337411925358 
1448	 1.11048560240081E-02 
1449	 1.00645490451657E-02 
1450	 1.06596890675713E-02 
1451	 8.12865517610959E-03 
1452	 6.90100027178075E-03 
1453	 8.99213080384577E-03 
1454	 9.02977323115119E-03 
1455	 6.9326365288574E-03 
1456	 6.11014382538627E-03 
1457	 6.13878940264585E-03 
1458	 6.36893002157791E-03 
1459	 6.63725246248972E-03 
1460	 6.41899409023851E-03 
1461	 6.44416144677515E-03 
1462	 6.59513189068948E-03 
1463	 5.91697093841311E-03 
1464	 6.00576953823261E-03 
1465	 7.92293357604505E-03 
1466	 7.57082499544284E-03 
1467	 4.69379016201271E-03 
1468	 5.07858633279956E-03 
1469	 6.92967960853199E-03 
1470	 6.66543487221423E-03 
1471	 7.68205605225554E-03 
1472	 7.73990492976063E-03 
1473	 4.68449930098534E-03 
1474	 4.18024642919713E-03 
1475	 5.5993751826689E-03 
1476	 6.36747350547315E-03 
1477	 7.2699851312648E-03 
1478	 7.38779050881044E-03 
1479	 7.21703697967974E-03 
1480	 7.54729747697875E-03 
1481	 7.97274097863448E-03 
1482	 7.62713682573616E-03 
1483	 7.22228097394855E-03 
1484	 7.24419211832753E-03 
1485	 6.40710562810121E-03 
1486	 6.40456226634529E-03 
1487	 7.68973880288948E-03 
1488	 7.81166363370307E-03 
1489	 7.34788902781763E-03 
1490	 7.22075829042416E-03 
1491	 7.12772022686288E-03 
1492	 6.8996531599975E-03 
1493	 6.43366899848518E-03 
1494	 6.42841405863916E-03 
1495	 6.71494198564391E-03 
1496	 6.63757891345557E-03 
1497	 6.68437478611161E-03 
1498	 6.66407470757516E-03 
1499	 6.19051842673083E-03 
1500	 6.01523347638559E-03 
1501	 6.00089641232888E-03 
1502	 6.14387642201576E-03 
1503	 6.58812132281377E-03 
1504	 6.73602058745673E-03 
1505	 6.84915446321385E-03 
1506	 6.9220247796073E-03 
1507	 6.88031442415421E-03 
1508	 6.83960365200404E-03 
1509	 7.01834718968378E-03 
1510	 7.07120139643904E-03 
1511	 6.8062348988215E-03 
1512	 6.7025332150518E-03 
1513	 6.74486137816238E-03 
1514	 6.77729858676384E-03 
1515	 6.99608172256355E-03 
1516	 7.12947096348754E-03 
1517	 7.00134122138241E-03 
1518	 7.02621095374686E-03 
1519	 7.11700214019776E-03 
1520	 7.10092143598817E-03 
1521	 7.19498812352462E-03 
1522	 7.07829953456325E-03 
1523	 6.81847595530131E-03 
1524	 6.92255969420522E-03 
1525	 7.16254832956692E-03 
1526	 7.21436837546208E-03 
1527	 7.20603066661362E-03 
1528	 7.27738820559194E-03 
1529	 7.27057224623866E-03 
1530	 7.18121458616889E-03 
1531	 7.25222344370186E-03 
1532	 7.34711632027553E-03 
1533	 7.36274949370863E-03 
1534	 7.42057132072722E-03 
1535	 7.51237837410802E-03 
1536	 7.54707212390008E-03 
1537	 7.41264741472222E-03 
1538	 7.40009590938822E-03 
1539	 7.61858582059355E-03 
1540	 7.63290928193921E-03 
1541	 7.41401431490345E-03 
1542	 7.39154568941156E-03 
1543	 7.46431076807458E-03 
1544	 7.35207424918033E-03 
1545	 7.30507402543432E-03 
1546	 7.42899890315081E-03 
1547	 7.46759417612705E-03 
1548	 7.35554179187581E-03 
1549	 7.46227303807382E-03 
1550	 7.59263144357778E-03 
1551	 7.40365257581076E-03 
1552	 7.41258144458989E-03 
1553	 7.64626535100042E-03 
1554	 7.66577949378223E-03 
1555	 7.62912333879187E-03 
1556	 7.70778568645927E-03 
1557	 7.70434503445488E-03 
1558	 7.60334917733695E-03 
1559	 7.66071339447352E-03 
1560	 7.78381311564983E-03 
1561	 7.7654806786279E-03 
1562	 7.84202465355372E-03 
1563	 8.02309650939282E-03 
1564	 7.98564969708743E-03 
1565	 7.79115246051337E-03 
1566	 7.68846511245096E-03 
1567	 7.64454830412432E-03 
1568	 7.60611950077146E-03 
1569	 7.76069680125508E-03 
1570	 8.00486393513824E-03 
1571	 7.98601645890493E-03 
1572	 7.71366063151147E-03 
1573	 7.56852658861748E-03 
1574	 7.61779606539777E-03 
1575	 7.68479479718817E-03 
1576	 7.81441785288367E-03 
1577	 7.81558226502165E-03 
1578	 7.69948362236063E-03 
1579	 7.65889581989872E-03 
1580	 7.6642727310481E-03 
1581	 7.83558452057045E-03 
1582	 7.99385718502961E-03 
1583	 7.93051473124584E-03 
1584	 7.94025265959202E-03 
1585	 7.93918249674041E-03 
1586	 7.82164695012107E-03 
1587	 7.82952661006693E-03 
1588	 8.02233817981259E-03 
1589	 8.20959007604895E-03 
1590	 8.06196125695436E-03 
1591	 7.89726335800869E-03 
1592	 7.94204744127348E-03 
1593	 7.83919115811417E-03 
1594	 7.91759675451916E-03 
1595	 8.3221602739012E-03 
1596	 8.23071157844341E-03 
1597	 7.90371388876418E-03 
1598	 8.00899939041815E-03 
1599	 7.87135526717477E-03 
1600	 7.70073111318241E-03 
1601	 7.9194972070188E-03 
1602	 7.89979618392576E-03 
1603	 7.97780034662828E-03 
1604	 8.13839191344423E-03 
1605	 7.9585195083332E-03 
1606	 8.0052127153445E-03 
1607	 8.24754517039786E-03 
1608	 8.36613047774928E-03 
1609	 8.38023338080449E-03 
1610	 8.1799011731144E-03 
1611	 7.91916541661565E-03 
1612	 7.83692153714471E-03 
1613	 8.10830655315666E-03 
1614	 8.48206638107458E-03 
1615	 8.3927962522911E-03 
1616	 8.21314028989875E-03 
1617	 8.29514837979792E-03 
1618	 8.14417836507149E-03 
1619	 7.98807284175173E-03 
1620	 8.15070712301229E-03 
1621	 8.14011767723916E-03 
1622	 7.98903002424152E-03 
1623	 8.16988764432251E-03 
1624	 8.24072952129824E-03 
1625	 7.75961082455989E-03 
1626	 7.76933781025773E-03 
1627	 8.19253389536911E-03 
1628	 8.00605622510247E-03 
1629	 7.92981239402129E-03 
1630	 8.17854671582096E-03 
1631	 8.1651346090152E-03 
1632	 8.02830954989661E-03 
1633	 8.03209533352652E-03 
1634	 8.08889208042669E-03 
1635	 8.00125330259261E-03 
1636	 8.04353159369685E-03 
1637	 8.27795868302502E-03 
1638	 8.32370979334362E-03 
1639	 8.26569366478611E-03 
1640	 8.3279587001282E-03 
1641	 8.42479034930948E-03 
1642	 8.42839000606414E-03 
1643	 8.36672610288899E-03 
1644	 8.26209581561016E-03 
1645	 8.07738460926451E-03 
1646	 8.06913111486096E-03 
1647	 8.06767701132853E-03 
1648	 7.82142895729404E-03 
1649	 7.70601510922506E-03 
1650	 7.7277923247039E-03 
1651	 7.82664511564612E-03 
1652	 8.04603494157088E-03 
1653	 8.13043400697016E-03 
1654	 8.12259855951264E-03 
1655	 7.75830452862127E-03 
1656	 7.63444414793374E-03 
1657	 7.7215671509051E-03 
1658	 7.82356412770086E-03 
1659	 7.98930956894674E-03 
1660	 8.07182607057141E-03 
1661	 8.22464754319264E-03 
1662	 8.17229280681148E-03 
1663	 7.93566660094193E-03 
1664	 7.90829514455884E-03 
1665	 7.7638876166715E-03 
1666	 7.76874212252552E-03 
1667	 8.16639060372351E-03 
1668	 7.90564833247737E-03 
1669	 7.71627944407808E-03 
1670	 8.03923706679636E-03 
1671	 7.88331058287093E-03 
1672	 7.58244954411873E-03 
1673	 7.84845490910186E-03 
1674	 7.83580610063577E-03 
1675	 7.70263536898294E-03 
1676	 7.97893132982455E-03 
1677	 7.9534781234051E-03 
1678	 7.5872159865698E-03 
1679	 7.51679182451016E-03 
1680	 7.73483364741871E-03 
1681	 7.86260672958656E-03 
1682	 8.05205135065209E-03 
1683	 8.04206072288709E-03 
1684	 7.55065320952293E-03 
1685	 7.4444774943788E-03 
1686	 7.66650635214223E-03 
1687	 7.75085388040719E-03 
1688	 7.89892120531077E-03 
1689	 7.85099582933248E-03 
1690	 7.62755815770405E-03 
1691	 7.58275124037793E-03 
1692	 7.56430058654435E-03 
1693	 7.58441181803804E-03 
1694	 7.63234136480879E-03 
1695	 7.55272535445981E-03 
1696	 7.75332721246144E-03 
1697	 8.02568019537671E-03 
1698	 0.008034059521983 
1699	 8.09429819184248E-03 
1700	 8.18754906418752E-03 
1701	 8.08998238740632E-03 
1702	 7.8671948586708E-03 
1703	 8.13041897868769E-03 
1704	 8.17461320663408E-03 
1705	 7.58242906798774E-03 
1706	 7.72432052413704E-03 
1707	 7.84318572714473E-03 
1708	 7.33473820202552E-03 
1709	 7.58965359907828E-03 
1710	 8.09043162383465E-03 
1711	 7.81326020790929E-03 
1712	 7.71336500920294E-03 
1713	 7.53339767496749E-03 
1714	 7.45616500388481E-03 
1715	 7.68750416479739E-03 
1716	 7.78714887896028E-03 
1717	 7.74204174929783E-03 
1718	 7.78017215041763E-03 
1719	 7.75522628956926E-03 
1720	 7.56878184761865E-03 
1721	 7.55235673119555E-03 
1722	 7.62556544609278E-03 
1723	 7.25903639248056E-03 
1724	 7.39095616701704E-03 
1725	 8.0712483685656E-03 
1726	 7.75754157279199E-03 
1727	 7.52690485363539E-03 
1728	 8.14258902953459E-03 
1729	 7.87841379647236E-03 
1730	 7.4377653063939E-03 
1731	 8.0151327289071E-03 
1732	 8.1612323619338E-03 
1733	 7.58209142802711E-03 
1734	 7.61458646141347E-03 
1735	 7.78187596866761E-03 
1736	 7.65145413247044E-03 
1737	 7.93035018018412E-03 
1738	 7.98772185298144E-03 
1739	 7.51565793724059E-03 
1740	 6.94953519715166E-03 
1741	 6.52677593545903E-03 
1742	 6.93804321911446E-03 
1743	 7.46024541439641E-03 
1744	 6.96731654013273E-03 
1745	 6.77670350252693E-03 
1746	 7.15169949269848E-03 
1747	 6.97543189359755E-03 
1748	 6.80920615486971E-03 
1749	 7.17622462724269E-03 
1750	 7.70932557172811E-03 
1751	 7.69942567180342E-03 
1752	 7.89438944007066E-03 
1753	 7.80029926518708E-03 
1754	 6.55811290565144E-03 
1755	 6.40152497471778E-03 
1756	 7.41395677797485E-03 
1757	 7.43881597350973E-03 
1758	 7.08288815553359E-03 
1759	 7.37450877088367E-03 
1760	 7.79078929367733E-03 
1761	 7.81538121125776E-03 
1762	 7.9912974436204E-03 
1763	 7.78419475044809E-03 
1764	 6.67511752911081E-03 
1765	 0.006448184185 
1766	 7.65407532996753E-03 
1767	 8.18853288300231E-03 
1768	 7.90752625350077E-03 
1769	 7.4480096111962E-03 
1770	 6.79502014665895E-03 
1771	 6.89768048294695E-03 
1772	 7.53321660934135E-03 
1773	 8.09880466347356E-03 
1774	 7.74414955488164E-03 
1775	 6.61239590468362E-03 
1776	 6.20289140865209E-03 
1777	 5.94301453457879E-03 
1778	 5.90520569369015E-03 
1779	 5.9366125840474E-03 
1780	 6.51044432767495E-03 
1781	 8.92873233159004E-03 
1782	 9.34358140476856E-03 
1783	 9.04631899983374E-03 
1784	 8.7414878097212E-03 
1785	 5.83595665583406E-03 
1786	 4.9524016144225E-03 
1787	 5.60437899023921E-03 
1788	 5.12844506752876E-03 
1789	 4.85535332908469E-03 
1790	 7.2198333474595E-03 
1791	 9.01687790842306E-03 
1792	 1.05634305606572E-02 
1793	 9.91871491256626E-03 
1794	 8.31402807044435E-03 
1795	 5.23417370772833E-03 
1796	 4.44898079659459E-03 
1797	 7.39723310853506E-03 
1798	 7.95462634194654E-03 
1799	 9.06653680753144E-03 
1800	 8.95725230559092E-03 
1801	 6.73034272963706E-03 
1802	-6.61207411170762E-03 
1803	-7.22413865948718E-03 
1804	 1.50889886896001E-02 
1805	 2.07023886726096E-02 
1806	 2.87388149241769E-02 
1807	 3.25681960924736E-02 
1808	-2.32969038958347E-02 
1809	-3.42296394828312E-02 
1810	 4.05236510132809E-02 
1811	 5.21373418681723E-02 
1812	 4.22015504039056E-02 
1813	 0.026477347165011 
1814	-0.122257478683431 
1815	-0.163307890147684 
1816	-0.096950370546246 
1817	 2.35136722997385E-02 
1818	 0.426618597687488 
1819	 0.464622156754575 
1820	 0.501744842967651 
1821	-0.041592235760343 
1822	-0.225616116281059 
1823	 7.89831346577433E-02 
1824	 0.158262324842113 
1825	 0.297446057934117 
1826	 0.285344753539387 
1827	 7.71384332281907E-02 
1828	-8.96917955847798E-02 
1829	-0.41551342687398 
1830	-0.270388015809862 
1831	 0.370046414970616 
1832	 0.330806649454763 
1833	 0.218148477373954 
1834	 0.144664675031875 
1835	-0.133687621146651 
1836	-0.464236117524413 
1837	-0.402622015826165 
1838	-0.288130350197263 
1839	 0.051681621553089 
1840	-0.127114408198033 
1841	-8.44897159063415E-03 
1842	-4.87893759971271E-02 
1843	 0.06437597873566 
1844	 1.13104633927955 
1845	 2.48403289474524 
1846	-0.32962230061765 
1847	-0.243681630393973 
1848	 0.148499768076581 
1849	-0.722690895404091 
1850	-0.327714121348565 
1851	-0.461024668362064 
1852	-1.8233503368282 
1853	-4.44210624642758 
1854	 1.26278042435127 
1855	 0.988785750077968 
1856	 0.688075405099473 
1857	 0.58562837306113 
1858	 0.574365966330572 
1859	 0.667835767094391 
1860	 0.327697586696648 
1861	-6.92844525882303 
1862	-7.13889056431146E-02 
1863	 3.49463487834854 
1864	-1.24581635668637 
1865	 3.23021467524866E-02 
1866	 0.123385060395337 
1867	 0.026243214477625 
1868	-0.112837848078997 
1869	-2.12057185727008E-02 
1870	-3.5202072781425E-03 
1871	 0.396375676510642 
1872	-0.159890187101782 
1873	-0.197548510624317 
1874	-1.90601705712623 
1875	 15.0698424868502 
1876	 8.93667104907924 
1877	 4.48804331272443 
1878	 2.3725901731075 
1879	 1.18882743528748 
1880	 0.795722702730014 
1881	 0.439818521207872 
1882	 0.207742306689639 
1883	 8.46854962936414E-02 
1884	 0.1108510745848 
1885	 0.632851380079083 
1886	 2.71624884592055 
1887	-3.41727933569533 
1888	-0.212232197131119 
1889	 0.204742778926519 
1890	 1.87684230716561 
1891	 3.48159619382179 
1892	-1.37611479138628 
1893	 0.503412881896864 
1894	 1.1300532830177 
1895	 1.85166533441189 
1896	 1.16808931884739 
1897	 0.687215281372951 
1898	 1.0157684516147 
1899	 0.999219590994404 
1900	 1.06597790525609 
1901	-2.66991208995746 
1902	-1.30059108977391 
1903	-1.20968266127888 
1904	 0.439201661562603 
1905	 2.83623616259922 
1906	-1.70222499484903 
1907	-1.118774162569 
1908	 2.07679122123554 
1909	 20.7126715455367 
1910	-2.15170820168654 
1911	-1.53031000351124 
1912	-1.08798707811391 
1913	-0.512623450203756 
1914	-0.207116394802419 
1915	 4.56645582763341E-02 
1916	-1.48865081039599 
1917	-1.85075445798157 
1918	-9.315990829698 
1919	-6.27345019829568 
1920	-1.29069406487056 
1921	-0.161643370967435 
1922	 0.271328820593159 
1923	-8.24086061171835E-02 
1924	-0.349597372964183 
1925	-0.477240416395135 
1926	-0.529283845253504 
1927	-0.502130250554772 
1928	-0.304215903264396 
1929	-0.22023601835218 
1930	-0.509356822770536 
1931	-0.687869064848583 
1932	-0.963660342381823 
1933	-0.745607517301504 
1934	-0.504192911624579 
1935	-0.26047256508459 
1936	-0.063494734576442 
1937	 0.017189433307982 
1938	 1.41005592298211E-02 
1939	 2.77906102473663E-02 
1940	-5.28717950881815E-03 
1941	-4.27329578341794E-02 
1942	-3.10928459979838E-02 
1943	-1.26571302607828E-02 
1944	-4.72008599258124E-02 
1945	-6.91834024899233E-02 
1946	-4.56173194566568E-02 
1947	-6.48332752055695E-03 
1948	 0.010546900820183 
1949	 1.16581885363789E-02 
1950	 3.58788593838482E-02 
1951	 4.04702305519501E-02 
1952	 3.16709457138161E-02 
1953	 2.18451560987571E-02 
1954	 3.28253705836555E-02 
1955	 1.22515430290173E-02 
1956	-1.48688564397396E-02 
1957	-1.32710297061369E-02 
1958	-1.14955514110083E-02 
1959	-6.76657009621505E-03 
1960	-1.54363611748084E-03 
1961	-5.68916924143497E-03 
1962	-6.59676824220467E-03 
1963	-6.49259323537073E-03 
1964	-6.98618941744845E-03 
1965	-1.65657382974096E-03 
1966	 7.9293567940887E-04 
1967	 3.42712993072983E-03 
1968	 2.72673139375442E-03 
1969	 3.58860091451079E-03 
1970	 3.16693230718329E-03 
1971	 2.27842587709324E-03 
1972	 3.72127842688523E-03 
1973	 3.90780485058983E-03 
1974	 3.63949024023191E-03 
1975	 3.91501071102661E-03 
1976	 3.34838381292764E-03 
1977	 4.33900577128839E-03 
1978	 5.40559820204553E-03 
1979	 4.79719824821134E-03 
1980	 3.14491914463102E-03 
1981	 2.80841989808905E-03 
1982	 2.55211462714313E-03 
1983	 1.89350809575617E-03 
1984	 2.94857056552656E-03 
1985	 3.29224914409564E-03 
1986	 3.30004063339824E-03 
1987	 3.64293693908153E-03 
1988	 3.22818599820959E-03 
1989	 2.84860329866419E-03 
1990	 2.78763297007538E-03 
1991	 2.27518222484438E-03 
1992	 1.77973806217479E-03 
1993	 2.87649144160595E-03 
1994	 3.22934868965737E-03 
1995	 3.09428690935699E-03 
1996	 2.02174165428615E-03 
1997	 2.1838585705416E-03 
1998	 8.20789675557316E-04 
1999	-1.09379314333071E-03 
2000	-1.03962751191122E-03 
2001	-2.13684164669189E-03 
2002	-1.92624126316447E-03 
2003	 2.24370170995934E-03 
2004	 5.11599648946159E-03 
2005	 8.29336046788209E-03 
2006	 1.07169292141301E-02 
2007	 9.65197588174702E-03 
2008	 7.45781436398953E-03 
2009	 6.0541960584501E-03 
2010	 4.48000385723049E-03 
2011	 4.28495686420394E-03 
2012	 4.52748279376871E-03 
2013	 5.52980406763824E-03 
2014	 7.07069642452586E-03 
2015	 7.65189450804754E-03 
2016	 7.64907633818637E-03 
2017	 6.26267347779437E-03 
2018	 3.87424879717174E-03 
2019	 2.49434463114091E-03 
2020	 2.96718187811353E-03 
2021	 4.43162702127168E-03 
2022	 4.49901547136101E-03 
2023	 2.8899423511223E-03 
2024	 2.55778336585593E-03 
2025	 1.01097633951311E-03 
2026	 1.17671448243754E-03 
2027	 2.37591118131189E-03 
2028	 4.46630937919558E-03 
2029	 5.22834171538258E-03 
2030	 4.82741216763684E-03 
2031	 3.58566227986466E-03 
2032	 2.87698578463066E-03 
2033	 2.62647681174343E-03 
2034	 2.25369737205285E-03 
2035	 2.57966170000383E-03 
2036	 2.85936774764014E-03 
2037	 0.003106475133832 
2038	 3.5978616583614E-03 
2039	 3.61313903590384E-03 
2040	 3.22334493937709E-03 
2041	 3.06587005650658E-03 
2042	 2.62125417200377E-03 
2043	 2.49213677611581E-03 
2044	 2.57095464963563E-03 
2045	 2.91354015091456E-03 
2046	 3.37829138547764E-03 
2047	 3.28394212992879E-03 
2048	 3.86185297924657E-03 
2049	 4.58802724199704E-03 
2050	 3.42572503962878E-03 
2051	 3.08184301638771E-03 
2052	 3.41284324109559E-03 
2053	 2.54868685349348E-03 
2054	 2.71293713319123E-03 
2055	 3.24289003585439E-03 
2056	 3.57496134544724E-03 
2057	 3.43068757187604E-03 
2058	 3.29715308342158E-03 
2059	 3.5226707674934E-03 
2060	 3.75636937396249E-03 
2061	 3.53358313156275E-03 
2062	 3.20889744535082E-03 
2063	 4.14194436671804E-03 
2064	 4.75947619483012E-03 
2065	 4.77237291647578E-03 
2066	 4.58392634951384E-03 
2067	 4.43793876485732E-03 
2068	 3.7200559519587E-03 
2069	 2.21187762465441E-03 
2070	 2.26183209965514E-03 
2071	 2.78967570566026E-03 
2072	 2.48222175023328E-03 
2073	 2.52638318132229E-03 
2074	 3.12119634765168E-03 
2075	 3.19438316330516E-03 
2076	 2.75875711655548E-03 
2077	 2.80493916541368E-03 
2078	 3.3223459021221E-03 
2079	 3.39202368582558E-03 
2080	 3.04018022076377E-03 
2081	 3.43104705151137E-03 
2082	 3.6503891857393E-03 
2083	 3.42301027366271E-03 
2084	 4.0647738384694E-03 
2085	 4.71672785746703E-03 
2086	 5.04625413495111E-03 
2087	 5.30389199075857E-03 
2088	 5.51566019676301E-03 
2089	 5.40782629122452E-03 
2090	 5.28119561678362E-03 
2091	 5.40226946815383E-03 
2092	 5.25305153192283E-03 
2093	 4.94066129177809E-03 
2094	 4.59858038935912E-03 
2095	 3.93520912125292E-03 
2096	 3.57846216753366E-03 
2097	 3.20836574591186E-03 
2098	 3.04784486263555E-03 
2099	 0.003116117229953 
2100	 3.37005839898291E-03 
2101	 3.3778457115074E-03 
2102	 3.13918959941192E-03 
2103	 2.93871875748856E-03 
2104	 3.16557128869502E-03 
2105	 3.56398394470243E-03 
2106	 4.14501071129571E-03 
2107	 4.6282594506344E-03 
2108	 4.53348763389372E-03 
2109	 4.1448416727042E-03 
2110	 3.80536313164805E-03 
2111	 3.20042086061554E-03 
2112	 2.83374584118523E-03 
2113	 2.84344106340747E-03 
2114	 3.26280221683938E-03 
2115	 3.5371878619627E-03 
2116	 4.11040932943258E-03 
2117	 4.54675402782953E-03 
2118	 5.10388601810425E-03 
2119	 5.29260044103423E-03 
2120	 5.27608341006818E-03 
2121	 5.1724778143078E-03 
2122	 5.80351891657966E-03 
2123	 6.07992407871712E-03 
2124	 5.50914392591242E-03 
2125	 5.64309191002771E-03 
2126	 4.78746980404574E-03 
2127	 3.60434155468264E-03 
2128	 3.64227895878056E-03 
2129	 3.2899411970506E-03 
2130	 3.36193067062754E-03 
2131	 3.81028896516314E-03 
2132	 4.18350700528008E-03 
2133	 4.76473202584206E-03 
2134	 4.80538328769496E-03 
2135	 4.18092344017176E-03 
2136	 4.05040734536032E-03 
2137	 3.95460333447446E-03 
2138	 3.69757921718404E-03 
2139	 3.41246815922667E-03 
2140	 3.56450097674724E-03 
2141	 3.68809686054379E-03 
2142	 3.84041228268235E-03 
2143	 4.60416464223565E-03 
2144	 5.01165289300769E-03 
2145	 4.55084062157613E-03 
2146	 4.10275688900194E-03 
2147	 3.70904352704909E-03 
2148	 3.39208074096758E-03 
2149	 3.44533786290393E-03 
2150	 3.60431003478119E-03 
2151	 3.90306964212755E-03 
2152	 3.82326744358711E-03 
2153	 3.15500127388639E-03 
2154	 3.11532547366557E-03 
2155	 3.28549466860326E-03 
2156	 3.55281113184154E-03 
2157	 4.09161554789818E-03 
2158	 5.2120072765038E-03 
2159	 5.83803999125679E-03 
2160	 6.57301978353762E-03 
2161	 6.56391066198744E-03 
2162	 6.01969676617697E-03 
2163	 5.76868827082697E-03 
2164	 5.12126362847155E-03 
2165	 4.90886752509479E-03 
2166	 5.13943221361638E-03 
2167	 4.89777918191783E-03 
2168	 4.34631147873517E-03 
2169	 4.07960655454905E-03 
2170	 3.89436044160466E-03 
2171	 3.59329312568654E-03 
2172	 3.17612378242573E-03 
2173	 2.44071271414069E-03 
2174	 2.03229576240713E-03 
2175	 2.46830921818027E-03 
2176	 2.92514128923935E-03 
2177	 3.69148016418039E-03 
2178	 3.89556822414055E-03 
2179	 3.39210400803092E-03 
2180	 3.70405391791522E-03 
2181	 4.15271907470336E-03 
2182	 4.05999303518268E-03 
2183	 4.20621636983252E-03 
2184	 5.04177402683662E-03 
2185	 4.80452987111143E-03 
2186	 4.67270936366843E-03 
2187	 4.79645991549034E-03 
2188	 4.77387180569116E-03 
2189	 4.48339702627893E-03 
2190	 4.26060981862633E-03 
2191	 4.14741975474232E-03 
2192	 4.07121145889162E-03 
2193	 3.44721577690693E-03 
2194	 3.00334119259578E-03 
2195	 2.88231192797372E-03 
2196	 3.15062452084429E-03 
2197	 3.51161140086629E-03 
2198	 3.7170309129943E-03 
2199	 4.58481994185827E-03 
2200	 4.97002936560868E-03 
2201	 3.96927095391979E-03 
2202	 3.81719124738304E-03 
2203	 3.12331748337019E-03 
2204	 2.65108549012487E-03 
2205	 3.08049468611624E-03 
2206	 3.31157228327616E-03 
2207	 4.19593282106097E-03 
2208	 4.39471073925762E-03 
2209	 3.46098790126644E-03 
2210	 2.69918870131801E-03 
2211	 2.95893711669726E-03 
2212	 3.34017161096559E-03 
2213	 3.96799735111558E-03 
2214	 5.58430486602346E-03 
2215	 5.85625010595064E-03 
2216	 5.10775068648427E-03 
2217	 5.23896065427021E-03 
2218	 5.8432680739749E-03 
2219	 5.44518117290588E-03 
2220	 4.94522675311975E-03 
2221	 4.76737108446871E-03 
2222	 3.40734397589541E-03 
2223	 3.52487652804674E-03 
2224	 5.32660187141176E-03 
2225	 5.46160695009026E-03 
2226	 5.32455484408026E-03 
2227	 5.37659536220675E-03 
2228	 4.73337967160346E-03 
2229	 4.00335894350977E-03 
2230	 3.43748933523009E-03 
2231	 3.16297603194233E-03 
2232	 2.03517687738462E-03 
2233	 2.36597123293423E-03 
2234	 4.98901975167535E-03 
2235	 4.84200925808621E-03 
2236	 4.56053036816596E-03 
2237	 5.11064602947987E-03 
2238	 2.77403812518667E-03 
2239	 2.12537846895187E-03 
2240	 5.16800651308444E-03 
2241	 6.75121263959814E-03 
2242	 6.74250662735518E-03 
2243	 8.3554055450147E-03 
2244	 7.36847517673208E-03 
2245	 4.66035925324154E-03 
2246	 5.33254813908938E-03 
2247	 4.17533750927007E-03 
2248	 2.85640856699979E-03 
2249	 3.18162049751157E-03 
2250	 2.72067781034212E-03 
2251	 3.88199984711046E-03 
2252	 5.51302296065915E-03 
2253	 5.10528327893936E-03 
2254	 4.04513456889479E-03 
2255	 4.27554351346983E-03 
2256	 3.79622004646956E-03 
2257	 4.13759605581865E-03 
2258	 4.41526940255065E-03 
2259	 3.50937808969133E-03 
2260	 3.92912043735224E-03 
2261	 4.29164578875262E-03 
2262	 4.65078506169512E-03 
2263	 6.96378512925911E-03 
2264	 7.15840605746011E-03 
2265	 4.93511334131166E-03 
2266	 5.15424137534203E-03 
2267	 6.75260101500544E-03 
2268	 6.87024954626189E-03 
2269	 7.52099276449635E-03 
2270	 7.06368715577281E-03 
2271	 3.80270653284491E-03 
2272	 2.76521961126406E-03 
2273	 3.41293437557579E-03 
2274	 3.40862463271571E-03 
2275	 3.8267504573479E-03 
2276	 3.67937604526086E-03 
2277	 2.73249178882166E-03 
2278	 2.77460922069064E-03 
2279	 3.50989760075425E-03 
2280	 3.34101021925565E-03 
2281	 2.79436615849135E-03 
2282	 2.71647099563268E-03 
2283	 3.76197597013181E-03 
2284	 4.82494117022322E-03 
2285	 7.19268419586005E-03 
2286	 8.89687543721022E-03 
2287	 6.09917413795153E-03 
2288	 3.68420344855053E-03 
2289	 3.04148301924342E-03 
2290	 2.09976029037726E-03 
2291	 3.65788994576202E-03 
2292	 6.5496946322806E-03 
2293	 7.12592770267391E-03 
2294	 6.53623429377096E-03 
2295	 4.64513821116843E-03 
2296	 1.4223416296631E-03 
2297	 2.49116991179578E-03 
2298	 3.11010235046194E-03 
2299	 1.1919961820372E-03 
2300	 4.52252608486744E-03 
2301	 5.56990488255928E-03 
2302	 1.19198855268555E-03 
2303	-5.06599039944244E-04 
2304	-2.02809833124516E-03 
2305	-4.00378411084619E-03 
2306	 1.91839003880193E-04 
2307	 5.53694991819652E-03 
2308	 5.54697113130095E-03 
2309	 5.82956093149506E-03 
2310	 8.40440797148211E-03 
2311	 7.63645358940232E-03 
2312	 4.96653437445644E-03 
2313	 4.73000703292534E-03 
2314	 9.21818239694483E-04 
2315	-4.9097548310347E-03 
2316	-3.55920258230973E-03 
2317	 2.2940074998441E-05 
2318	-1.69125499422835E-03 
2319	-4.75658623525193E-05 
2320	 6.87414788175724E-03 
2321	 7.39890492169687E-03 
2322	 5.93486567197071E-03 
2323	 7.28311535625302E-03 
2324	 5.4585526502489E-03 
2325	 6.19967828563764E-04 
2326	-1.9313259207938E-04 
2327	 1.23095103693696E-03 
2328	-5.08132424066931E-04 
2329	-5.67709142198659E-04 
2330	-5.42062017351022E-04 
2331	-3.66653143002809E-04 
2332	-7.00206769904058E-04 
2333	-4.91907961909023E-03 
2334	-7.69556381005003E-03 
2335	-1.05695906371863E-02 
2336	-1.45225995957581E-02 
2337	-0.013851732530716 
2338	-6.79331948982084E-03 
2339	-3.76576475796369E-03 
2340	-2.5359164671675E-03 
2341	-7.17250538919566E-04 
2342	-6.84824820719189E-03 
2343	-4.02225763500247E-03 
2344	-1.48282322204432E-03 
2345	-7.29750500942485E-03 
2346	-6.89161369683443E-03 
2347	-1.21349552035352E-02 
2348	-1.88744347203994E-02 
2349	-1.83092734067283E-02 
2350	-0.013791198312225 
2351	-1.10335000836412E-02 
2352	-1.08091708305937E-02 
2353	-7.83968315152318E-03 
2354	-1.09647736714228E-02 
2355	-1.02423872273101E-02 
2356	-3.06890984115001E-03 
2357	 7.5710605384387E-04 
2358	 1.09479562156889E-02 
2359	 0.014699958880314 
2360	 7.90283798195566E-03 
2361	 7.90588840992668E-03 
2362	 6.55896617243336E-03 
2363	 5.11342130006582E-03 
2364	 6.1941932938193E-03 
2365	-7.40032882526635E-04 
2366	-4.93804461205804E-03 
2367	-7.54478405902036E-03 
2368	-7.68297106208546E-03 
2369	 3.55819241705233E-03 
2370	 1.09201913601544E-02 
2371	 8.77302050424041E-03 
2372	 4.54808595130622E-03 
2373	-4.73838612364135E-03 
2374	-2.10529549186848E-02 
2375	-2.21344267698703E-02 
2376	-1.05460221328007E-02 
2377	-7.2899254851415E-03 
2378	-6.85897244561225E-04 
2379	-3.69715447764713E-03 
2380	-2.00929502419915E-02 
2381	-1.82630572363967E-02 
2382	-1.20993538525882E-02 
2383	-5.84877605779425E-03 
2384	 1.4555522464128E-03 
2385	-7.45819174015491E-03 
2386	-6.11170524035003E-03 
2387	 5.97141484468538E-03 
2388	 7.86535740974667E-03 
2389	 2.22377727785669E-02 
2390	 5.16704357214554E-02 
2391	 5.16250911667481E-02 
2392	 3.90592555712908E-02 
2393	 3.51309520670193E-02 
2394	 1.65747613130505E-02 
2395	 2.8732647064931E-03 
2396	 1.17348636713744E-02 
2397	 5.14638001208371E-03 
2398	-1.89509763909731E-02 
2399	-2.54232861347172E-02 
2400	-2.07951728447222E-02 
2401	-9.84251230746966E-03 
2402	-4.52459258113854E-03 
2403	-0.015639398911459 
2404	-2.16425213969448E-02 
2405	-3.67312068184829E-02 
2406	-3.87425906437347E-02 
2407	-1.24819808834691E-02 
2408	-1.65586504639401E-02 
2409	-1.36936585366096E-02 
2410	 8.81245719527155E-03 
2411	-0.018620846738602 
2412	-4.11761705948516E-02 
2413	 8.27970082712235E-03 
2414	 3.41927564855151E-02 
2415	 8.42507690002603E-02 
2416	 0.124193669034563 
2417	 2.68374089524255E-02 
2418	-2.34945650233406E-02 
2419	-0.120769964413641 
2420	-0.23331223056186 
2421	-0.166509316244063 
2422	-0.118183052623791 
2423	-9.72769174018755E-02 
2424	-3.91258811759122E-02 
2425	-1.75946824123379E-02 
2426	-7.56109567988919E-02 
2427	-0.126491926302067 
2428	-0.140981723462352 
2429	-0.16551882872095 
2430	-0.157989822785483 
2431	-0.134020641057739 
2432	-0.122586848066145 
2433	-0.117893042025119 
2434	-0.101745331069318 
2435	-8.49711513210663E-02 
2436	-6.03359809769207E-02 
2437	-1.11149550071989E-02 
2438	-7.67580077321685E-02 
2439	-0.119566366292793 
2440	-8.09876306588062E-02 
2441	-0.095574917939613 
2442	-0.132842704326931 
2443	-0.178908311622593 
2444	-0.101484231347097 
2445	-3.83365919953705E-02 
2446	-6.87049299639906E-02 
2447	-2.71781338168495E-02 
2448	-7.37407700088837E-02 
2449	-0.281749957321353 
2450	-0.375605578550383 
2451	-0.357169850675368 
2452	-0.313170937666492 
2453	-0.551376445164404 
2454	-0.399793527676432 
2455	-4.60531134191159E-02 
2456	-4.62764761852849E-02 
2457	 1.46670272709592E-02 
2458	 4.67244993380485E-02 
2459	-0.164133599604625 
2460	-0.206960999997377 
2461	 0.060066082812284 
2462	 1.94372443126286E-02 
2463	-8.25338101078409E-02 
2464	-6.82176628040235E-02 
2465	-5.26461863908727E-02 
2466	-9.91810849947079E-02 
2467	-0.029621668436101 
2468	-1.77037034260642E-02 
2469	-0.152931574745306 
2470	-9.66436625834958E-02 
2471	 1.0045738965535E-03 
2472	-0.325035439573779 
2473	-0.38446102157686 
2474	-0.336030433421229 
2475	-0.18256430671646 
2476	-4.73696224441088E-02 
2477	-0.431098117663135 
2478	-2.15617114448788 
2479	-2.4565834070002 
2480	-2.28305243693882 
2481	-2.16020240021165 
2482	-0.641931687653266 
2483	-0.286370623128064 
2484	 0.337564421283483 
2485	 0.545672567967212 
2486	 0.679336229175982 
2487	 0.264594250669522 
2488	-0.282501564456784 
2489	-0.398313082131459 
2490	-0.633365922804247 
2491	-0.292478888583546 
2492	-5.50191706725148E-02 
2493	 4.66822666240158E-02 
2494	-2.0339806494305E-03 
2495	-0.771476402605229 
2496	-3.07561434788464 
2497	-3.73904165755894 
2498	-0.593689671447966 
2499	-0.787364214360145 
2500	-2.93878536298759 
