Wavelength	rt0721far00009.asd
350	 2.74580279054707E-02 
351	 2.74218716940988E-02 
352	 2.74143435012464E-02 
353	 2.75997694129118E-02 
354	 2.78013350560218E-02 
355	 2.71080220173634E-02 
356	 2.73952185985204E-02 
357	 2.79655921390391E-02 
358	 2.77593127582148E-02 
359	 2.78993561891709E-02 
360	 2.74510539677306E-02 
361	 2.68160225454757E-02 
362	 2.71481905143887E-02 
363	 2.72655889163379E-02 
364	 2.73036651913279E-02 
365	 2.74194659542972E-02 
366	 2.75627625324428E-02 
367	 0.027360584076424 
368	 2.72215893114512E-02 
369	 2.75044932828579E-02 
370	 2.76604167146889E-02 
371	 2.77140072387672E-02 
372	 2.77640840750897E-02 
373	 2.79126104675305E-02 
374	 2.78419073307709E-02 
375	 2.78835037826614E-02 
376	 2.80272867136476E-02 
377	 2.77348715107138E-02 
378	 2.79205855679142E-02 
379	 2.84568435551192E-02 
380	 2.88898000493021E-02 
381	 2.85902503238561E-02 
382	 2.85373215520599E-02 
383	 2.87481207341589E-02 
384	 2.88385795438807E-02 
385	 2.93135046486681E-02 
386	 2.95207141118925E-02 
387	 2.94403662588263E-02 
388	 2.97929318790616E-02 
389	 2.94251322968015E-02 
390	 2.93635298272235E-02 
391	 3.01921825447983E-02 
392	 3.05276062380907E-02 
393	 3.04574906931999E-02 
394	 3.03756191986001E-02 
395	 0.030630535150521 
396	 3.05659924553485E-02 
397	 3.08011685371293E-02 
398	 0.031236543222054 
399	 3.11686261721946E-02 
400	 3.12592119563966E-02 
401	 3.14212418763438E-02 
402	 3.15327519188615E-02 
403	 3.16644019127701E-02 
404	 3.17875758784367E-02 
405	 3.19034652582851E-02 
406	 3.20255347384926E-02 
407	 3.21837383773912E-02 
408	 3.22637417712477E-02 
409	 3.22873832820992E-02 
410	 3.24110199551379E-02 
411	 3.27079692685787E-02 
412	 0.032901292629534 
413	 3.28967727736703E-02 
414	 3.31855441191025E-02 
415	 3.33808015353543E-02 
416	 3.34933917716548E-02 
417	 3.36839048014153E-02 
418	 3.39798855725823E-02 
419	 3.42190231078712E-02 
420	 3.43823186717444E-02 
421	 3.46139863270426E-02 
422	 3.48521503637182E-02 
423	 3.51612239917949E-02 
424	 3.55188894268188E-02 
425	 3.55731737653784E-02 
426	 3.58277558612455E-02 
427	 3.62114908996844E-02 
428	 3.64279172311861E-02 
429	 3.67853285850084E-02 
430	 3.70818465606484E-02 
431	 0.037298271779249 
432	 3.76756444850439E-02 
433	 3.79589750779395E-02 
434	 3.82392147532147E-02 
435	 3.86143680468219E-02 
436	 3.89882440331547E-02 
437	 3.92673922132496E-02 
438	 3.95192091061061E-02 
439	 0.039882251397253 
440	 0.040288328332251 
441	 4.05996956994632E-02 
442	 4.08059458391004E-02 
443	 4.10858730339975E-02 
444	 4.14182472020874E-02 
445	 4.17576182900318E-02 
446	 4.20534334111157E-02 
447	 4.22825886079361E-02 
448	 4.25020295629327E-02 
449	 4.27307372133235E-02 
450	 4.29582716076771E-02 
451	 4.31952376268044E-02 
452	 4.33745366739667E-02 
453	 4.35007774953825E-02 
454	 4.37479526652257E-02 
455	 4.39435272038029E-02 
456	 4.40849141913167E-02 
457	 4.42284212898774E-02 
458	 4.43983483795062E-02 
459	 4.44821979851591E-02 
460	 4.45735577587233E-02 
461	 4.49461245436848E-02 
462	 4.49987987617775E-02 
463	 4.50133163809869E-02 
464	 4.52540793825453E-02 
465	 4.54445057365988E-02 
466	 4.55933627243714E-02 
467	 0.045722386721719 
468	 4.58649108375605E-02 
469	 4.60048885762111E-02 
470	 4.61905313504306E-02 
471	 4.63785509189155E-02 
472	 4.63999675324944E-02 
473	 4.65154414213867E-02 
474	 0.046739535363935 
475	 4.69934873852822E-02 
476	 4.71220588419491E-02 
477	 4.72922376329627E-02 
478	 4.75224742908655E-02 
479	 4.77338502535766E-02 
480	 4.80061244083042E-02 
481	 4.82489278090114E-02 
482	 4.84268463347628E-02 
483	 0.048654007671278 
484	 4.88856426551437E-02 
485	 4.91648817247758E-02 
486	 0.049527230356723 
487	 4.98184214290853E-02 
488	 5.01092270734983E-02 
489	 5.04292051095278E-02 
490	 5.07564705964922E-02 
491	 5.10681286989489E-02 
492	 5.13505250351014E-02 
493	 5.16289569825774E-02 
494	 5.20371628113449E-02 
495	 5.24161242961536E-02 
496	 5.27733173027619E-02 
497	 5.31787500677231E-02 
498	 5.34400113539129E-02 
499	 5.37591159536031E-02 
500	 5.42348819461165E-02 
501	 5.47549825991471E-02 
502	 5.50927343253752E-02 
503	 5.54205028848932E-02 
504	 0.055908378724604 
505	 5.61762688834204E-02 
506	 5.65959376135698E-02 
507	 5.71656329291388E-02 
508	 5.75888237057901E-02 
509	 5.80161424432979E-02 
510	 5.84325672492071E-02 
511	 5.88489598043696E-02 
512	 5.94179417489396E-02 
513	 5.98539558079255E-02 
514	 6.02811257874715E-02 
515	 6.09367463307623E-02 
516	 6.14795416020003E-02 
517	 6.20471522457266E-02 
518	 0.062686047443923 
519	 0.063283772829358 
520	 6.38032709177002E-02 
521	 0.064349001643196 
522	 6.49948631661265E-02 
523	 6.55798856873043E-02 
524	 6.61623537469021E-02 
525	 0.066773660452197 
526	 6.74234443724203E-02 
527	 6.80904717140784E-02 
528	 6.87089444406721E-02 
529	 6.92626178198445E-02 
530	 6.98255398626822E-02 
531	 7.05378498414755E-02 
532	 7.12489635843774E-02 
533	 7.17716475822375E-02 
534	 7.24573922947747E-02 
535	 7.31018243417373E-02 
536	 7.36655217705854E-02 
537	 7.43270293343414E-02 
538	 7.50310326180885E-02 
539	 7.56971909157887E-02 
540	 7.62965037556706E-02 
541	 7.69925074430342E-02 
542	 7.76818549304189E-02 
543	 7.83351877708113E-02 
544	 7.89751000087461E-02 
545	 7.96008239134036E-02 
546	 8.02511078106813E-02 
547	 8.09232343917794E-02 
548	 8.15298406320292E-02 
549	 8.21165627906416E-02 
550	 8.27294554233883E-02 
551	 8.33934083595674E-02 
552	 0.084002883672073 
553	 0.084581226254021 
554	 8.51734736704178E-02 
555	 8.58349854143442E-02 
556	 8.65411413964587E-02 
557	 8.71567725233064E-02 
558	 0.087623405228875 
559	 8.82428414481494E-02 
560	 8.87502879963435E-02 
561	 8.91829257511088E-02 
562	 8.97427164016933E-02 
563	 9.02102819816624E-02 
564	 9.06187564649448E-02 
565	 9.10083697352051E-02 
566	 0.091371335653597 
567	 9.16915577011854E-02 
568	 9.19837551497524E-02 
569	 9.22734167421068E-02 
570	 9.25817090510034E-02 
571	 9.28252635056158E-02 
572	 9.30222565988243E-02 
573	 9.32988586508592E-02 
574	 9.34693099794669E-02 
575	 9.35338068050879E-02 
576	 9.35551629143883E-02 
577	 9.36455532548809E-02 
578	 9.37372301673271E-02 
579	 9.37339869088699E-02 
580	 9.35603847556482E-02 
581	 9.35155383329677E-02 
582	 9.33778006006828E-02 
583	 9.30734161328952E-02 
584	 9.29323369541056E-02 
585	 9.25751560728404E-02 
586	 9.20470619756399E-02 
587	 0.091530283807286 
588	 9.10531991980722E-02 
589	 9.06346835941158E-02 
590	 9.02370173341342E-02 
591	 8.97458722436436E-02 
592	 0.089303112328036 
593	 8.87593815926157E-02 
594	 8.80135565139294E-02 
595	 8.72457506675295E-02 
596	 8.64210407773733E-02 
597	 8.55019707662821E-02 
598	 8.44711076379553E-02 
599	 8.34632020482811E-02 
600	 8.26079061716064E-02 
601	 8.19521535941119E-02 
602	 8.14048828406619E-02 
603	 8.10371574419841E-02 
604	 8.08160618706898E-02 
605	 8.06804860216592E-02 
606	 8.06015538412215E-02 
607	 8.05533009802741E-02 
608	 8.05206148493193E-02 
609	 8.05002085197638E-02 
610	 8.05160783996788E-02 
611	 8.05420241042594E-02 
612	 8.05368552947255E-02 
613	 8.04340133040328E-02 
614	 8.04110309181396E-02 
615	 8.04193157171105E-02 
616	 8.03137163930623E-02 
617	 8.03550502234502E-02 
618	 8.03146931457425E-02 
619	 8.01334971721989E-02 
620	 8.01055381074364E-02 
621	 8.00739369525011E-02 
622	 0.080020269615848 
623	 7.99582132585268E-02 
624	 7.98555838124165E-02 
625	 7.97537718425209E-02 
626	 7.96624377292451E-02 
627	 7.95609317960956E-02 
628	 7.94958366469297E-02 
629	 7.94455036911041E-02 
630	 7.94011529063147E-02 
631	 7.94490260600095E-02 
632	 7.93325965834775E-02 
633	 7.91530077723354E-02 
634	 7.91391055595743E-02 
635	 7.90235981564402E-02 
636	 7.89489204549669E-02 
637	 7.89316355637416E-02 
638	 7.87542155518307E-02 
639	 7.86217251602523E-02 
640	 7.85171457547986E-02 
641	 7.83727494243214E-02 
642	 7.81818858451937E-02 
643	 7.80373956737536E-02 
644	 7.78620494337567E-02 
645	 7.74624768440241E-02 
646	 7.71494915103591E-02 
647	 7.69618930919699E-02 
648	 0.076852100461618 
649	 7.67135175957123E-02 
650	 7.64470657489007E-02 
651	 7.61029290763238E-02 
652	 0.075779858306997 
653	 7.53741169893191E-02 
654	 7.47805173142028E-02 
655	 0.07405969024447 
656	 7.35847560279143E-02 
657	 7.30045068096971E-02 
658	 7.24714369147908E-02 
659	 7.21144937912629E-02 
660	 7.17353748738811E-02 
661	 7.14486516865715E-02 
662	 7.12316622872687E-02 
663	 7.09889082245454E-02 
664	 7.07599253832743E-02 
665	 7.06232182029931E-02 
666	 7.05577574317317E-02 
667	 7.03542000439715E-02 
668	 7.02926955341324E-02 
669	 7.02201011638772E-02 
670	 6.99600159349178E-02 
671	 6.99704890217546E-02 
672	 6.99541196447719E-02 
673	 6.98308175442934E-02 
674	 0.069751961185279 
675	 6.96846756271473E-02 
676	 6.95667007690525E-02 
677	 6.94115415560119E-02 
678	 6.94570399527135E-02 
679	 6.94147173525293E-02 
680	 6.93194055915507E-02 
681	 6.93163557570237E-02 
682	 6.91909287267949E-02 
683	 6.91248927028184E-02 
684	 0.06911308202233 
685	 6.88447225693556E-02 
686	 6.85938383259924E-02 
687	 6.83462427953052E-02 
688	 6.80669594026544E-02 
689	 6.79246822888789E-02 
690	 6.76731738602576E-02 
691	 6.72589778116544E-02 
692	 6.67412661018492E-02 
693	 6.61447558209606E-02 
694	 6.56240937296074E-02 
695	 6.52063921434157E-02 
696	 6.46591972230848E-02 
697	 6.39299439804374E-02 
698	 6.30929853697611E-02 
699	 6.22815155488065E-02 
700	 0.061332201265688 
701	 6.04309641947239E-02 
702	 5.95977218961172E-02 
703	 5.86799353233583E-02 
704	 0.057658897926657 
705	 5.65408075946892E-02 
706	 0.055382546544265 
707	 0.054265056852514 
708	 5.29806061628111E-02 
709	 5.15723739239304E-02 
710	 5.01554214305082E-02 
711	 4.86700175235585E-02 
712	 4.70724256600491E-02 
713	 4.53877749043434E-02 
714	 4.36698824143658E-02 
715	 4.20134967701058E-02 
716	 4.01497064453921E-02 
717	 3.80358506427657E-02 
718	 3.62978087250735E-02 
719	 3.46293063289149E-02 
720	 3.31717493787324E-02 
721	 3.18611749731818E-02 
722	 3.06865725493532E-02 
723	 2.91820913091622E-02 
724	 2.74679189131172E-02 
725	 2.60732838038007E-02 
726	 2.47097367997832E-02 
727	 2.32096570716582E-02 
728	 2.15653894946754E-02 
729	 2.00472796835613E-02 
730	 1.86427264490953E-02 
731	 1.74243586454018E-02 
732	 1.63950811955461E-02 
733	 1.55287855349036E-02 
734	 1.48183920637084E-02 
735	 1.42237716193265E-02 
736	 0.013637643431064 
737	 1.32983397386799E-02 
738	 1.31134165964133E-02 
739	 1.29574148245417E-02 
740	 1.28491927653271E-02 
741	 1.27627728688113E-02 
742	 1.26841513594656E-02 
743	 1.26161224198632E-02 
744	 1.26491076732987E-02 
745	 1.26280006124805E-02 
746	 1.25415562388622E-02 
747	 1.26002790002975E-02 
748	 1.25692003774164E-02 
749	 1.24845864289601E-02 
750	 1.24315659290631E-02 
751	 1.24086035638318E-02 
752	 1.24203388139264E-02 
753	 1.24287171237955E-02 
754	 1.23906036858443E-02 
755	 1.24246391430607E-02 
756	 1.24204309653899E-02 
757	 1.23784624247924E-02 
758	 1.25235964766944E-02 
759	 1.25651208537405E-02 
760	 1.23318212667499E-02 
761	 1.20504645188855E-02 
762	 1.19141888269936E-02 
763	 1.21179591495128E-02 
764	 1.23664539762815E-02 
765	 1.23767910260008E-02 
766	 1.25250211648787E-02 
767	 1.25905167523664E-02 
768	 1.25886573799895E-02 
769	 1.27588441187834E-02 
770	 1.28298333056485E-02 
771	 1.28558477091263E-02 
772	 1.29234347444133E-02 
773	 1.30294589258802E-02 
774	 1.30524499291739E-02 
775	 1.31158542667153E-02 
776	 1.33696210452276E-02 
777	 1.34196970806278E-02 
778	 1.34962603974012E-02 
779	 1.36449188635151E-02 
780	 1.36980428763311E-02 
781	 1.39212901608856E-02 
782	 1.41387281090317E-02 
783	 1.42288773381389E-02 
784	 1.43768817981002E-02 
785	 1.44853980939675E-02 
786	 1.45971400861317E-02 
787	 1.47949339404151E-02 
788	 1.51155639770984E-02 
789	 0.015329713590284 
790	 1.54221925063213E-02 
791	 1.55656275218678E-02 
792	 1.57495668041756E-02 
793	 1.60183789776838E-02 
794	 1.63176063027669E-02 
795	 1.64152364517159E-02 
796	 1.67140745747727E-02 
797	 1.69968997736903E-02 
798	 1.70508497760799E-02 
799	 1.72544861748748E-02 
800	 1.74604787837052E-02 
801	 1.75656005079253E-02 
802	 1.75486946496891E-02 
803	 1.77109839899379E-02 
804	 1.79696598086826E-02 
805	 1.81164106156428E-02 
806	 1.78876441294264E-02 
807	 1.79187770467544E-02 
808	 0.017997744605203 
809	 1.78981912044934E-02 
810	 0.01782492992008 
811	 1.76305225099387E-02 
812	 0.017325632814093 
813	 1.70174635914067E-02 
814	 0.016904659454532 
815	 1.67960438253919E-02 
816	 1.65278413610433E-02 
817	 0.01606500749917 
818	 1.57640642801077E-02 
819	 1.55864579610309E-02 
820	 0.015368431114311 
821	 1.48610732893088E-02 
822	 1.41244668471867E-02 
823	 1.34979413693318E-02 
824	 1.31424435497219E-02 
825	 1.26774800821565E-02 
826	 0.011949456115935 
827	 1.11418453920468E-02 
828	 0.010578168707824 
829	 1.00396666917052E-02 
830	 9.62099834535528E-03 
831	 9.24328137347283E-03 
832	 8.76159207956543E-03 
833	 8.6074767694205E-03 
834	 8.55116860871271E-03 
835	 8.40464762065449E-03 
836	 8.15323940422511E-03 
837	 8.18063288830513E-03 
838	 8.19893996689436E-03 
839	 7.98807076756867E-03 
840	 7.8771251891697E-03 
841	 7.83757076335135E-03 
842	 7.85920356151125E-03 
843	 7.89465819276906E-03 
844	 7.75838839992123E-03 
845	 7.64512599044671E-03 
846	 7.60078003837125E-03 
847	 7.55052603778611E-03 
848	 7.43176861238276E-03 
849	 7.30851614620867E-03 
850	 7.2747182414207E-03 
851	 7.41700541574173E-03 
852	 7.34725484761483E-03 
853	 7.19275800241425E-03 
854	 7.14096100714334E-03 
855	 7.24342823668761E-03 
856	 7.29607149043012E-03 
857	 7.14834620252281E-03 
858	 6.84733424937847E-03 
859	 7.04903246788098E-03 
860	 7.11398007718829E-03 
861	 6.9478704059717E-03 
862	 6.77646208871396E-03 
863	 6.82425711170209E-03 
864	 6.80797774920298E-03 
865	 6.73287251594141E-03 
866	 6.84743180369541E-03 
867	 6.69614179682264E-03 
868	 6.60321357495756E-03 
869	 6.70549151294538E-03 
870	 6.76532221254211E-03 
871	 6.83152469330015E-03 
872	 6.67845931295287E-03 
873	 0.006341417363672 
874	 6.54632656113426E-03 
875	 6.58006242557467E-03 
876	 6.37829282187393E-03 
877	 6.1562047243184E-03 
878	 6.3219227533164E-03 
879	 6.41075195949579E-03 
880	 6.24764065829875E-03 
881	 5.92699255410592E-03 
882	 6.04140818362806E-03 
883	 6.02284873533308E-03 
884	 5.88483027476058E-03 
885	 6.04485927579545E-03 
886	 6.00058588729503E-03 
887	 5.86049237193139E-03 
888	 5.76980076966643E-03 
889	 5.81465157585572E-03 
890	 5.7548076052564E-03 
891	 5.76138671409674E-03 
892	 5.8832971689575E-03 
893	 5.80052988919758E-03 
894	 5.5083577208822E-03 
895	 5.4073323516298E-03 
896	 5.7109850826627E-03 
897	 5.62651332739001E-03 
898	 5.43051812403236E-03 
899	 5.23188657634557E-03 
900	 5.14129168889963E-03 
901	 5.46515339948977E-03 
902	 5.43060144604981E-03 
903	 5.22830552510361E-03 
904	 5.30522037703396E-03 
905	 5.35758674684723E-03 
906	 5.51737949517947E-03 
907	 5.55118802932213E-03 
908	 5.09586349842877E-03 
909	 4.94139295839649E-03 
910	 5.0294315062732E-03 
911	 5.1753874452645E-03 
912	 5.17392192006548E-03 
913	 4.88334758600776E-03 
914	 5.02674016628846E-03 
915	 5.31606515478297E-03 
916	 4.47567218337336E-03 
917	 4.40189233520632E-03 
918	 4.55857297397921E-03 
919	 4.52273085828468E-03 
920	 4.50834902801344E-03 
921	 4.71306772478472E-03 
922	 4.76701898729657E-03 
923	 4.50178773525902E-03 
924	 4.40819539105306E-03 
925	 3.95422355053321E-03 
926	 3.63527096440384E-03 
927	 3.9773104531334E-03 
928	 4.35604286165737E-03 
929	 3.69915257176316E-03 
930	 2.57490473900568E-03 
931	 2.70871366844382E-03 
932	 4.28961950590501E-03 
933	 1.63821154396484E-03 
934	-4.14444851565093E-04 
935	 4.65944910417183E-03 
936	 4.64696818508974E-03 
937	 4.06056101046828E-03 
938	 3.59563429823782E-03 
939	 3.12634381461337E-03 
940	 5.20832994058361E-03 
941	 4.61683401254283E-03 
942	 2.5487122458484E-03 
943	 3.12142973254314E-03 
944	 6.12666344241512E-03 
945	 6.78950636023841E-03 
946	 5.09613335784402E-03 
947	 4.19478931626776E-03 
948	 5.21842109074663E-03 
949	 4.49460147228343E-03 
950	 2.53135584104228E-03 
951	 2.30988229310097E-03 
952	 3.55267029334447E-03 
953	 4.83231165084788E-03 
954	 5.16620851901113E-03 
955	 4.23194818754133E-03 
956	 2.30787721811304E-03 
957	 2.51709274346518E-03 
958	 3.56114372597207E-03 
959	 2.00393228444941E-03 
960	 2.17694585833056E-03 
961	 3.64262379522332E-03 
962	 4.19982040411961E-03 
963	 2.06605107932365E-03 
964	 0.003073841932989 
965	 3.76949776185448E-03 
966	 3.13377052225227E-03 
967	 2.46334607127616E-03 
968	 1.9232201297886E-03 
969	 2.4399564337073E-03 
970	 3.44096115950853E-03 
971	 3.38234276623262E-03 
972	 3.94102731194132E-03 
973	 3.86879270578109E-03 
974	 3.33739318789642E-03 
975	 3.85104053379051E-03 
976	 3.30833308148833E-03 
977	 3.43793443951724E-03 
978	 4.2274093041706E-03 
979	 3.97132236805613E-03 
980	 2.79607265013497E-03 
981	 2.50372395499379E-03 
982	 3.2388266330912E-03 
983	 3.65259192128518E-03 
984	 2.83086992520933E-03 
985	 4.39434961754652E-03 
986	 6.42472272072007E-03 
987	 3.89302653111134E-03 
988	 4.16665049360334E-03 
989	 3.74372009233025E-03 
990	 2.64145903902904E-03 
991	 3.55475164478046E-03 
992	 3.25899840062893E-03 
993	 3.63252817086187E-03 
994	 4.26023734889513E-03 
995	 3.43287818265987E-03 
996	 3.44572754188664E-03 
997	 3.72352876816383E-03 
998	 3.28636501419622E-03 
999	 1.80785348532417E-03 
1000	 2.7274625281263E-03 
1001	 2.91218891484713E-03 
1002	 3.09836178001105E-03 
1003	 3.18176834047294E-03 
1004	 3.24353956301838E-03 
1005	 3.2603152054728E-03 
1006	 3.23834105860941E-03 
1007	 3.01970614250139E-03 
1008	 3.16094714786172E-03 
1009	 3.24796240546852E-03 
1010	 3.2327221102641E-03 
1011	 3.43137905164614E-03 
1012	 3.44833246007502E-03 
1013	 3.42248094375721E-03 
1014	 3.43400035179137E-03 
1015	 3.52589970441038E-03 
1016	 3.54366844495519E-03 
1017	 3.47135605823023E-03 
1018	 3.52926134270064E-03 
1019	 3.7639534970474E-03 
1020	 3.83730821713939E-03 
1021	 3.95346501487839E-03 
1022	 3.81627153730958E-03 
1023	 3.70285411952821E-03 
1024	 3.6142067555981E-03 
1025	 3.49942876731279E-03 
1026	 3.27682145471543E-03 
1027	 3.21894658244618E-03 
1028	 3.10438116312381E-03 
1029	 3.16320692749394E-03 
1030	 3.44445488584967E-03 
1031	 3.62038348292587E-03 
1032	 3.87586942600041E-03 
1033	 3.99110819225828E-03 
1034	 4.06387800628648E-03 
1035	 4.12912048793505E-03 
1036	 4.09993312218086E-03 
1037	 4.07253505361067E-03 
1038	 4.21145047209944E-03 
1039	 3.91297235744196E-03 
1040	 3.82165090064225E-03 
1041	 3.98232520226876E-03 
1042	 3.86916434940857E-03 
1043	 0.003713068169428 
1044	 3.6399597290184E-03 
1045	 3.34753765844384E-03 
1046	 3.36714481772484E-03 
1047	 3.66973443488836E-03 
1048	 3.81299696752271E-03 
1049	 0.004129568847808 
1050	 4.17211322830781E-03 
1051	 3.87629744598183E-03 
1052	 3.91549343264072E-03 
1053	 4.0400917551743E-03 
1054	 4.08349573671001E-03 
1055	 4.49348339449414E-03 
1056	 4.54445790451221E-03 
1057	 4.39828148075477E-03 
1058	 3.9141246890028E-03 
1059	 3.6454672306022E-03 
1060	 3.11424478181083E-03 
1061	 3.05259869118888E-03 
1062	 3.31057993273541E-03 
1063	 3.39731701226361E-03 
1064	 3.71252463929524E-03 
1065	 3.8188753016518E-03 
1066	 3.67711640332785E-03 
1067	 3.71189641600516E-03 
1068	 3.79999267666641E-03 
1069	 3.88172988536322E-03 
1070	 4.15966812329021E-03 
1071	 4.21128533464066E-03 
1072	 4.09718413034683E-03 
1073	 3.98430019981386E-03 
1074	 3.92170736535273E-03 
1075	 3.67886758419197E-03 
1076	 0.003722656522225 
1077	 4.04756211124768E-03 
1078	 4.11803199161931E-03 
1079	 4.2341763050131E-03 
1080	 4.19457708596352E-03 
1081	 3.91479409887301E-03 
1082	 3.79231196526121E-03 
1083	 3.58385477589261E-03 
1084	 3.57444602836381E-03 
1085	 3.85608308779764E-03 
1086	 3.89538977652323E-03 
1087	 3.88245509155763E-03 
1088	 3.88884610931602E-03 
1089	 3.76060270529481E-03 
1090	 3.61395124795963E-03 
1091	 3.60053505734349E-03 
1092	 3.83641006967413E-03 
1093	 3.80289314241701E-03 
1094	 3.5138362562533E-03 
1095	 3.55975374730518E-03 
1096	 3.79616392270427E-03 
1097	 3.75060132447994E-03 
1098	 3.86303089187465E-03 
1099	 3.82096080477325E-03 
1100	 3.16863360849806E-03 
1101	 3.02647500188726E-03 
1102	 3.23406432157603E-03 
1103	 3.31296217543208E-03 
1104	 3.49912841978652E-03 
1105	 3.97671398554199E-03 
1106	 3.66813932479449E-03 
1107	 3.5917617965696E-03 
1108	 4.05051590444208E-03 
1109	 3.4900617302939E-03 
1110	 3.3685916004038E-03 
1111	 3.78702751375459E-03 
1112	 3.75006232833779E-03 
1113	 2.97478017685779E-03 
1114	 2.97695396436427E-03 
1115	 3.31686674964646E-03 
1116	 3.5186086491225E-03 
1117	 4.59990419554897E-03 
1118	 5.40538680602607E-03 
1119	 5.82919693017334E-03 
1120	 6.1281544519163E-03 
1121	 5.8505866010584E-03 
1122	 6.58105863557532E-03 
1123	 5.66395039337298E-03 
1124	 5.04480515393665E-03 
1125	 3.70221117158521E-03 
1126	 1.71170048549229E-03 
1127	-2.2914360063053E-04 
1128	-1.41212930947299E-04 
1129	 1.32750469927249E-03 
1130	 4.83179330240877E-03 
1131	 4.93552293741105E-03 
1132	 5.3619292279044E-03 
1133	 4.87594783298908E-03 
1134	 1.69531870462125E-03 
1135	 2.00021735434995E-03 
1136	 5.03261842078045E-03 
1137	 5.45425247320313E-03 
1138	 6.55210294412126E-03 
1139	 4.48831245207306E-03 
1140	 3.25208450768599E-03 
1141	 2.42532321516359E-03 
1142	 3.52214200535139E-04 
1143	 2.26888669094845E-03 
1144	 5.33289003266987E-03 
1145	 3.25702627012567E-03 
1146	 2.25520376008102E-03 
1147	 3.50041068801697E-03 
1148	 1.50117768696869E-03 
1149	 1.04562964668603E-03 
1150	 1.15899633699424E-03 
1151	 1.23620571269998E-03 
1152	 1.6632854311034E-03 
1153	 3.2924996628956E-03 
1154	 3.42530539230577E-03 
1155	 2.93705420793765E-03 
1156	 3.39961620827409E-03 
1157	 3.22096487289679E-03 
1158	 2.74162400968107E-03 
1159	 3.13036482465158E-03 
1160	 3.16670953632551E-03 
1161	 3.12019166491317E-03 
1162	 3.5356039106359E-03 
1163	 3.39294119102041E-03 
1164	 3.1944788186053E-03 
1165	 3.1781869461563E-03 
1166	 2.85018559969986E-03 
1167	 2.89481388993762E-03 
1168	 3.00223601659355E-03 
1169	 2.94225661992941E-03 
1170	 3.08745943807381E-03 
1171	 3.04379885869337E-03 
1172	 2.77206516750527E-03 
1173	 2.82312849400558E-03 
1174	 3.01167823752415E-03 
1175	 2.97201032608781E-03 
1176	 3.11223462027041E-03 
1177	 3.24832764053597E-03 
1178	 2.9806741463979E-03 
1179	 2.61019789292415E-03 
1180	 2.56153437281896E-03 
1181	 2.79845185377761E-03 
1182	 3.01403133444737E-03 
1183	 3.16134846552558E-03 
1184	 3.04848119961626E-03 
1185	 2.7385434049526E-03 
1186	 2.78235772854722E-03 
1187	 3.18167675519378E-03 
1188	 3.5017583482256E-03 
1189	 3.44453089404596E-03 
1190	 3.12466894371583E-03 
1191	 2.89301631207592E-03 
1192	 2.76755805081691E-03 
1193	 2.71831764836573E-03 
1194	 2.8484495088236E-03 
1195	 2.96487214559706E-03 
1196	 2.87045318414292E-03 
1197	 2.76875162168241E-03 
1198	 2.77126785338978E-03 
1199	 2.8807010261976E-03 
1200	 2.99539893725504E-03 
1201	 2.88818958620657E-03 
1202	 2.69619405663029E-03 
1203	 2.54571477743583E-03 
1204	 2.59855399626699E-03 
1205	 2.83148906796028E-03 
1206	 2.92421580417752E-03 
1207	 3.02094788692611E-03 
1208	 3.04347013659276E-03 
1209	 2.8560332922405E-03 
1210	 2.88148106059639E-03 
1211	 3.09975276832924E-03 
1212	 3.02150086987177E-03 
1213	 2.85709564654147E-03 
1214	 2.85912337289823E-03 
1215	 2.98891188358925E-03 
1216	 2.92374792459162E-03 
1217	 2.81414591616337E-03 
1218	 2.85871304857601E-03 
1219	 2.78014329686774E-03 
1220	 2.7157240407816E-03 
1221	 2.94613515540896E-03 
1222	 3.11348750378701E-03 
1223	 3.03524771850569E-03 
1224	 3.04611132174322E-03 
1225	 2.87098837898557E-03 
1226	 2.58752724296295E-03 
1227	 2.71889715116713E-03 
1228	 2.82035106656479E-03 
1229	 2.90955053810253E-03 
1230	 3.16162366087756E-03 
1231	 3.06660399127079E-03 
1232	 2.84279676136116E-03 
1233	 2.84492724505481E-03 
1234	 2.88125743861014E-03 
1235	 2.85158704911722E-03 
1236	 2.96445191667609E-03 
1237	 2.94573152553363E-03 
1238	 2.75927371116147E-03 
1239	 2.61601272124319E-03 
1240	 2.71632950076179E-03 
1241	 2.78086392799268E-03 
1242	 2.75743021509191E-03 
1243	 2.74927859480987E-03 
1244	 2.81471310852641E-03 
1245	 2.84916045861563E-03 
1246	 2.83290137354035E-03 
1247	 2.9246409695468E-03 
1248	 2.89196087915357E-03 
1249	 2.76338437380135E-03 
1250	 2.91343391597338E-03 
1251	 3.08398639226491E-03 
1252	 3.08339274034297E-03 
1253	 3.1884490761876E-03 
1254	 3.22579629358952E-03 
1255	 3.0333447150675E-03 
1256	 2.97981836772448E-03 
1257	 2.97574163524792E-03 
1258	 2.91351273971625E-03 
1259	 2.86228381881073E-03 
1260	 2.86488800842932E-03 
1261	 2.78288846325509E-03 
1262	 2.71867715247836E-03 
1263	 2.69221624981059E-03 
1264	 2.81806351244778E-03 
1265	 2.76635389484288E-03 
1266	 2.65635180521553E-03 
1267	 2.74928261378333E-03 
1268	 2.89729501357427E-03 
1269	 2.72938024519463E-03 
1270	 2.5585000649932E-03 
1271	 2.66135261547021E-03 
1272	 2.69767551037021E-03 
1273	 2.71875654424215E-03 
1274	 2.86765084077989E-03 
1275	 2.82907803743118E-03 
1276	 2.56073925834609E-03 
1277	 2.55350717321999E-03 
1278	 2.84411100985824E-03 
1279	 2.91008241708463E-03 
1280	 2.79304158719743E-03 
1281	 2.78345519402553E-03 
1282	 2.72064865460586E-03 
1283	 2.69775323136074E-03 
1284	 2.74935549296732E-03 
1285	 2.76735730590037E-03 
1286	 2.72064642626189E-03 
1287	 2.74481741271457E-03 
1288	 2.90386336749936E-03 
1289	 2.93099149013329E-03 
1290	 2.91407407217424E-03 
1291	 2.85295219917951E-03 
1292	 2.89412947046832E-03 
1293	 2.86903476206324E-03 
1294	 2.68259103708276E-03 
1295	 2.54883770664145E-03 
1296	 2.61817089933347E-03 
1297	 2.66506184089149E-03 
1298	 2.80929996080844E-03 
1299	 3.24299696928473E-03 
1300	 3.23855684621929E-03 
1301	 2.65548588636298E-03 
1302	 2.34644777812488E-03 
1303	 2.38174733660744E-03 
1304	 2.68153733851111E-03 
1305	 3.05211768174513E-03 
1306	 3.06153657886964E-03 
1307	 2.99775554349882E-03 
1308	 2.98653216800573E-03 
1309	 2.43691429464239E-03 
1310	 2.37590441408677E-03 
1311	 3.00904031413867E-03 
1312	 3.01569913151792E-03 
1313	 2.6605807292357E-03 
1314	 2.61086959885168E-03 
1315	 2.4070280069279E-03 
1316	 2.27548243733838E-03 
1317	 2.36457702030266E-03 
1318	 2.46394206474935E-03 
1319	 2.60662535512164E-03 
1320	 2.71267308974626E-03 
1321	 2.88697376478217E-03 
1322	 3.03842436106421E-03 
1323	 2.92242588777006E-03 
1324	 2.88187690212196E-03 
1325	 3.05075293270756E-03 
1326	 2.88215247883072E-03 
1327	 2.75820195006393E-03 
1328	 3.03720239787016E-03 
1329	 2.97750361375584E-03 
1330	 2.89376379926149E-03 
1331	 3.45644694931425E-03 
1332	 3.28501989756963E-03 
1333	 2.65784366584444E-03 
1334	 3.00465164508284E-03 
1335	 3.33635832008187E-03 
1336	 3.83752232702062E-03 
1337	 3.76352591571989E-03 
1338	 3.76456531833792E-03 
1339	 3.86414565063521E-03 
1340	 3.25703142902432E-03 
1341	 2.93985359411161E-03 
1342	 3.52550829983842E-03 
1343	 3.62186719904751E-03 
1344	 2.54191655290692E-03 
1345	 2.11461517336744E-03 
1346	 3.0185256897006E-03 
1347	 2.65549140407666E-03 
1348	-1.58202223218569E-04 
1349	-1.02474539553259E-03 
1350	 5.6477531444352E-04 
1351	 2.02241204091746E-05 
1352	-1.67909086756232E-04 
1353	 2.06300794838499E-03 
1354	 9.12116121820379E-03 
1355	 1.02348887381347E-03 
1356	-1.27520725213254E-02 
1357	-7.5236659846981E-03 
1358	 1.71539155155745E-02 
1359	 0.061971009800387 
1360	 2.69012814645791E-02 
1361	-4.49132458103344E-02 
1362	 2.16397996515661E-02 
1363	 1.65899397433777E-02 
1364	-1.92367504678936E-02 
1365	 0.100367096448325 
1366	 9.42103683177918E-02 
1367	-1.43131392040681E-02 
1368	-5.40109918104981E-02 
1369	 4.91825027222563E-02 
1370	 0.128285681437183 
1371	 0.162577806152469 
1372	 0.1528518227953 
1373	 0.267957610479072 
1374	 0.229009807466169 
1375	-0.072304101259452 
1376	-0.11800832057753 
1377	 1.03356200976317E-02 
1378	 5.00522049568881E-02 
1379	 0.144152646599248 
1380	 0.196435515048008 
1381	 0.145945119704539 
1382	 0.100633716844293 
1383	 8.6462563972147E-03 
1384	 6.92938687284894E-02 
1385	 0.148958108214611 
1386	 0.204001764154847 
1387	 0.437911779113854 
1388	 0.474770295922385 
1389	 0.522115249946971 
1390	 0.386694545635878 
1391	-0.212041574385552 
1392	-0.147585075202032 
1393	-2.69155673067926E-02 
1394	-5.01548230271347E-02 
1395	-0.154625058381714 
1396	-0.193472069622136 
1397	 9.58428722698092E-03 
1398	 0.199287981308446 
1399	 0.166005268953227 
1400	 2.18651959158056E-02 
1401	-0.119844794395412 
1402	-0.176162875250878 
1403	-5.69663839818859E-02 
1404	 9.50066757334874E-02 
1405	 0.15772585096017 
1406	 0.107327435446748 
1407	 1.72073649586137E-02 
1408	-0.099636774588308 
1409	-4.61968168266229E-02 
1410	 4.56799818721141E-02 
1411	 1.76536384308114E-02 
1412	 6.9377929192778E-03 
1413	 4.82872875160301E-02 
1414	 5.43708422746674E-02 
1415	 3.71760629912414E-02 
1416	 6.88527121874502E-02 
1417	 7.96902866698838E-02 
1418	 4.56100618448691E-02 
1419	 0.024723426302924 
1420	 3.13844425050711E-02 
1421	 2.84880190235725E-02 
1422	 1.34720857643099E-03 
1423	-3.95103467701926E-03 
1424	 9.83789640715281E-03 
1425	 1.18807908366437E-02 
1426	 7.25690138254276E-03 
1427	 8.72374731844952E-03 
1428	 0.012428067767826 
1429	 1.35187411629469E-02 
1430	 2.11051975413382E-02 
1431	 1.88688917579991E-02 
1432	 0.00332869556896 
1433	-6.77075141178719E-04 
1434	-2.66460313917944E-03 
1435	-4.58691365929953E-03 
1436	-2.47714795775184E-03 
1437	 5.02061437869289E-03 
1438	 7.71752478577742E-03 
1439	 4.45160393806953E-03 
1440	 3.97344905500187E-03 
1441	 4.33123475310146E-03 
1442	 2.47573865954854E-03 
1443	 5.91737401179692E-03 
1444	 8.78304673722694E-03 
1445	 6.35789181330967E-03 
1446	 6.4346523453148E-03 
1447	 7.21201003802016E-03 
1448	 5.68256924348468E-03 
1449	 4.73847993008217E-03 
1450	 3.77183374894743E-03 
1451	 1.29499897954593E-03 
1452	 1.19365395904681E-03 
1453	 3.6550680689861E-03 
1454	 4.10853411926524E-03 
1455	 4.65994401312981E-03 
1456	 3.69475696339803E-03 
1457	 1.19262029604961E-03 
1458	 1.55857087610819E-03 
1459	 2.53761922345416E-03 
1460	 2.62739753623937E-03 
1461	 4.22306238823825E-03 
1462	 4.52131389239813E-03 
1463	 3.17200459928376E-03 
1464	 2.0988728358789E-03 
1465	 6.75773578651036E-04 
1466	 6.62868977324633E-04 
1467	 5.87103013214763E-04 
1468	 5.27429903344744E-04 
1469	 3.09187312450708E-03 
1470	 3.4136025482677E-03 
1471	 4.94260249679983E-04 
1472	 8.38252687038982E-04 
1473	 3.31142916741815E-03 
1474	 3.58656333527096E-03 
1475	 3.85610398547848E-03 
1476	 3.79151597270786E-03 
1477	 2.95005517882907E-03 
1478	 2.01263039531582E-03 
1479	 3.02371011346429E-04 
1480	 4.6688928431832E-04 
1481	 1.58361195695059E-03 
1482	 1.58805869664178E-03 
1483	 1.67970140098137E-03 
1484	 2.25771087846606E-03 
1485	 3.04182770660871E-03 
1486	 2.5890135786262E-03 
1487	 1.62681086406586E-03 
1488	 1.81712085620911E-03 
1489	 1.85625444933517E-03 
1490	 1.62445071078105E-03 
1491	 1.82134392997867E-03 
1492	 2.25276107860987E-03 
1493	 2.65212759085596E-03 
1494	 2.50009825670985E-03 
1495	 2.48901039963631E-03 
1496	 2.52541042161848E-03 
1497	 1.9794050349951E-03 
1498	 1.73192176143964E-03 
1499	 1.81012837588636E-03 
1500	 1.88862918016483E-03 
1501	 2.03192205543196E-03 
1502	 1.99680340761724E-03 
1503	 1.9583319561781E-03 
1504	 2.00524390993467E-03 
1505	 2.00867964873734E-03 
1506	 1.84157546642686E-03 
1507	 1.88871396070084E-03 
1508	 2.01337754260759E-03 
1509	 2.06381790791742E-03 
1510	 1.96576825344945E-03 
1511	 1.83681788019587E-03 
1512	 1.97185696502241E-03 
1513	 2.25421721914026E-03 
1514	 2.27542744071859E-03 
1515	 2.13001213878762E-03 
1516	 2.14332171697001E-03 
1517	 2.12412692420683E-03 
1518	 2.01704574376771E-03 
1519	 1.95879507222935E-03 
1520	 1.90332323017606E-03 
1521	 1.91220440958122E-03 
1522	 2.02911224041176E-03 
1523	 2.25961621924362E-03 
1524	 2.37768608890384E-03 
1525	 2.20504501642727E-03 
1526	 2.06432589652729E-03 
1527	 2.07821638874656E-03 
1528	 2.05929053291201E-03 
1529	 2.01817565994134E-03 
1530	 2.09498178273893E-03 
1531	 2.19129868224533E-03 
1532	 2.07460507387329E-03 
1533	 1.96142198771329E-03 
1534	 2.08965657748131E-03 
1535	 2.11645906332288E-03 
1536	 2.12930637240993E-03 
1537	 2.4100635320469E-03 
1538	 2.39054084097406E-03 
1539	 2.07005526467054E-03 
1540	 1.95989474416101E-03 
1541	 1.97553206964169E-03 
1542	 1.98887723642345E-03 
1543	 1.96628147170742E-03 
1544	 2.10417570924906E-03 
1545	 2.3380760799924E-03 
1546	 2.2713379920293E-03 
1547	 2.18140060712243E-03 
1548	 2.35150446978911E-03 
1549	 2.40973226023172E-03 
1550	 2.1951653518081E-03 
1551	 2.08680624171411E-03 
1552	 2.22480934241017E-03 
1553	 2.14726281079455E-03 
1554	 2.02350180568976E-03 
1555	 2.17417245546245E-03 
1556	 2.13048672463522E-03 
1557	 2.06801676653803E-03 
1558	 2.21159815226814E-03 
1559	 2.33587469457156E-03 
1560	 2.42265962214495E-03 
1561	 2.29832320355138E-03 
1562	 2.22437996679361E-03 
1563	 2.43147721508725E-03 
1564	 2.36236155597096E-03 
1565	 2.05489224627456E-03 
1566	 1.98136670400931E-03 
1567	 1.96171221180916E-03 
1568	 1.89147432452177E-03 
1569	 2.02039407561272E-03 
1570	 2.26699469589508E-03 
1571	 2.29440895212474E-03 
1572	 2.18768350324754E-03 
1573	 2.19376082925605E-03 
1574	 2.24045870497523E-03 
1575	 2.15760511064317E-03 
1576	 2.06604868629242E-03 
1577	 2.21230226221086E-03 
1578	 2.25308708925796E-03 
1579	 2.08853896744258E-03 
1580	 2.10450260996768E-03 
1581	 2.17932499429714E-03 
1582	 2.15922022641949E-03 
1583	 2.09400312017191E-03 
1584	 2.15276907077457E-03 
1585	 2.32238176960571E-03 
1586	 2.35988200539197E-03 
1587	 2.43442904216971E-03 
1588	 2.55403943347025E-03 
1589	 2.34730994404022E-03 
1590	 2.09255429584873E-03 
1591	 2.10150055398116E-03 
1592	 1.98818563336568E-03 
1593	 1.81658732610238E-03 
1594	 1.88692102555543E-03 
1595	 1.97591154959345E-03 
1596	 2.10644817294184E-03 
1597	 2.30044070431664E-03 
1598	 2.21595665551091E-03 
1599	 2.13683973321003E-03 
1600	 2.16657351216311E-03 
1601	 2.08874246624082E-03 
1602	 2.03631801162057E-03 
1603	 1.91270791031002E-03 
1604	 1.93810605761766E-03 
1605	 2.14562942787679E-03 
1606	 2.17912431992362E-03 
1607	 2.15946469153083E-03 
1608	 2.14869687975642E-03 
1609	 2.11486532083199E-03 
1610	 2.12455153595956E-03 
1611	 2.10847361676141E-03 
1612	 2.10718169657207E-03 
1613	 2.19709081615467E-03 
1614	 2.29292700949295E-03 
1615	 2.31737482806098E-03 
1616	 2.28825101702638E-03 
1617	 2.18945492121326E-03 
1618	 2.12968042487591E-03 
1619	 2.32673250177752E-03 
1620	 2.40517383237862E-03 
1621	 2.08180118430706E-03 
1622	 1.92521551137144E-03 
1623	 2.04111357200711E-03 
1624	 1.99210731869082E-03 
1625	 2.05484549990218E-03 
1626	 2.25680428164608E-03 
1627	 2.20830137963485E-03 
1628	 2.26854319520443E-03 
1629	 2.40519964455417E-03 
1630	 2.24251305365178E-03 
1631	 2.1280235193616E-03 
1632	 2.25908968945446E-03 
1633	 2.26969036305881E-03 
1634	 2.10115520574615E-03 
1635	 2.08829381503393E-03 
1636	 2.13927687662941E-03 
1637	 2.06810092858162E-03 
1638	 2.14155845415948E-03 
1639	 2.31423535456693E-03 
1640	 2.19759202084598E-03 
1641	 2.07584301319034E-03 
1642	 2.15615809213821E-03 
1643	 2.06221412771199E-03 
1644	 1.97658079199415E-03 
1645	 1.94202745124702E-03 
1646	 1.88933539809527E-03 
1647	 2.11328474657006E-03 
1648	 2.23340736304844E-03 
1649	 2.1798001141091E-03 
1650	 2.26373240232443E-03 
1651	 2.28697633806823E-03 
1652	 2.20325219544666E-03 
1653	 2.49639001181376E-03 
1654	 2.51607555588988E-03 
1655	 2.25194836387635E-03 
1656	 2.17493305299765E-03 
1657	 2.13851545583746E-03 
1658	 2.04601711372028E-03 
1659	 1.97183332479503E-03 
1660	 2.01734201559983E-03 
1661	 2.09538807157355E-03 
1662	 2.05327869824572E-03 
1663	 1.94822732941927E-03 
1664	 1.98281772515003E-03 
1665	 2.1245646429515E-03 
1666	 2.08347067323157E-03 
1667	 2.05245323316768E-03 
1668	 2.21443134314035E-03 
1669	 2.1034909819345E-03 
1670	 1.82020496613374E-03 
1671	 1.95963529875173E-03 
1672	 2.24934520084741E-03 
1673	 2.0826932366325E-03 
1674	 2.09534801194726E-03 
1675	 2.34228900923277E-03 
1676	 2.31345370681503E-03 
1677	 2.22141355822213E-03 
1678	 2.31377974364711E-03 
1679	 2.50512885389132E-03 
1680	 2.31325530993406E-03 
1681	 2.01813676978172E-03 
1682	 2.05999712982352E-03 
1683	 2.1046716046061E-03 
1684	 2.12805351144125E-03 
1685	 2.41486514226864E-03 
1686	 2.60545012247106E-03 
1687	 2.45892899206908E-03 
1688	 2.32608276188367E-03 
1689	 2.0772465842519E-03 
1690	 1.87491698127091E-03 
1691	 1.99072348379819E-03 
1692	 2.00707678602226E-03 
1693	 1.93432820365187E-03 
1694	 1.97610524854321E-03 
1695	 1.84012865471768E-03 
1696	 1.6045945674065E-03 
1697	 1.82259793291856E-03 
1698	 1.93392486994205E-03 
1699	 1.62466593158124E-03 
1700	 1.79207404578586E-03 
1701	 2.0032920908544E-03 
1702	 1.86800607959314E-03 
1703	 1.90329453287646E-03 
1704	 1.77087391528081E-03 
1705	 1.73563475242839E-03 
1706	 2.26847530545978E-03 
1707	 2.59502608894235E-03 
1708	 2.48816656145787E-03 
1709	 2.24417042611574E-03 
1710	 1.88550083931436E-03 
1711	 1.85262633210416E-03 
1712	 2.13504884421139E-03 
1713	 2.05501186058154E-03 
1714	 2.08037895673423E-03 
1715	 1.85785113409379E-03 
1716	 1.76415861058218E-03 
1717	 1.95706850369037E-03 
1718	 2.05178869488655E-03 
1719	 1.89438008038684E-03 
1720	 1.82076542483617E-03 
1721	 1.81823054746912E-03 
1722	 1.50596750866334E-03 
1723	 1.46541242719574E-03 
1724	 1.96169818570517E-03 
1725	 2.48836971309921E-03 
1726	 2.62102488100757E-03 
1727	 2.20244841050055E-03 
1728	 1.70744611620322E-03 
1729	 1.15483418504877E-03 
1730	 1.25395369784974E-03 
1731	 1.99001517438978E-03 
1732	 2.21544098880928E-03 
1733	 2.44435172953737E-03 
1734	 2.43533812140068E-03 
1735	 2.20255628246344E-03 
1736	 2.35814743082401E-03 
1737	 2.24503450020515E-03 
1738	 1.9843926971541E-03 
1739	 1.78753569511537E-03 
1740	 1.67924494706436E-03 
1741	 1.8884298956788E-03 
1742	 2.20976391323511E-03 
1743	 2.42428867483653E-03 
1744	 2.48385063723211E-03 
1745	 2.46823803458351E-03 
1746	 2.15887013985815E-03 
1747	 2.02890233059052E-03 
1748	 1.87302467503266E-03 
1749	 1.72175190919297E-03 
1750	 1.57599968425272E-03 
1751	 1.51290996498874E-03 
1752	 1.59597726768478E-03 
1753	 1.80380223113534E-03 
1754	 2.19858261086135E-03 
1755	 2.30008639795542E-03 
1756	 2.34162006847733E-03 
1757	 2.01478667623691E-03 
1758	 1.81719557094838E-03 
1759	 2.07943798677499E-03 
1760	 2.25481180938377E-03 
1761	 2.53336061243078E-03 
1762	 3.07551661547348E-03 
1763	 2.89702324404138E-03 
1764	 2.25491042773301E-03 
1765	 2.00970036302917E-03 
1766	 1.64607088864071E-03 
1767	 1.79028485127953E-03 
1768	 2.4193588717533E-03 
1769	 2.22633017395578E-03 
1770	 1.86549484262712E-03 
1771	 1.92901168571272E-03 
1772	 1.94541018498373E-03 
1773	 1.7125927101249E-03 
1774	 1.84459243824976E-03 
1775	 2.8625914543861E-03 
1776	 2.47499780842488E-03 
1777	 1.4443875304713E-03 
1778	 1.4642085863543E-03 
1779	 5.80787061160668E-05 
1780	 4.73396788066101E-06 
1781	 3.31450235588841E-03 
1782	 3.63035369272128E-03 
1783	 2.01587771463533E-03 
1784	 1.63828082363677E-03 
1785	-2.58900063535162E-04 
1786	-5.54298729149262E-05 
1787	 2.68233295265193E-03 
1788	 3.52984379156048E-03 
1789	 5.15638480911063E-03 
1790	 4.78307855062741E-03 
1791	 2.57865052446632E-03 
1792	 1.15075235426584E-03 
1793	-1.36436714881098E-03 
1794	-3.22426326909832E-04 
1795	 2.20483449875533E-03 
1796	 4.8592676420139E-03 
1797	 1.19640920122571E-02 
1798	 9.52664280097067E-03 
1799	 6.97612700824352E-03 
1800	 2.58958341800565E-03 
1801	 1.85960988550124E-04 
1802	 1.04552685005934E-02 
1803	 1.23122496452305E-02 
1804	 8.06702557658269E-03 
1805	 6.51042244984107E-03 
1806	-1.40834977614328E-02 
1807	-2.28566774243781E-02 
1808	-7.85199214206692E-04 
1809	 2.0571825582921E-03 
1810	-3.9489091669718E-03 
1811	-1.36448256705875E-03 
1812	-6.53814460192441E-03 
1813	-2.62078542908595E-02 
1814	-6.96330653527097E-02 
1815	 4.02655073421196E-03 
1816	 0.185970351369492 
1817	 0.282656883670981 
1818	 0.623109194984598 
1819	 0.799686741259718 
1820	 0.121813443815756 
1821	 0.410261427934216 
1822	 0.406624674427184 
1823	 0.32669387535641 
1824	 0.313170149362162 
1825	 9.97423843432442E-02 
1826	 5.06595104352947E-03 
1827	 1.23251958302564E-02 
1828	 9.06562079434553E-02 
1829	 0.472743286792842 
1830	 0.508165204546783 
1831	-1.10181056097831 
1832	-0.845049122935257 
1833	-0.165119347949318 
1834	-2.45258127673206E-02 
1835	 0.783027170969578 
1836	 1.14717320421319 
1837	-0.168874688565845 
1838	-0.407294229816944 
1839	-0.326774213223075 
1840	-0.203997357906998 
1841	-0.524673886406818 
1842	-0.453065961935276 
1843	-0.498672546707451 
1844	-1.34720935005544 
1845	-2.99524936590375 
1846	-7.43526648908576E-02 
1847	-0.462184937304094 
1848	 3.10387253546569 
1849	 0.334791543419605 
1850	-6.49984480941697E-02 
1851	-0.341061182455671 
1852	-0.478544990981225 
1853	-1.07978797712215 
1854	 0.22781599371094 
1855	-0.815730368650632 
1856	-0.655404368889928 
1857	 1.57455567714797E-02 
1858	 0.214303313340838 
1859	 0.151479789662496 
1860	 0.252243873367022 
1861	 10.4128052444839 
1862	-6.88781757800978 
1863	 12.9368041388435 
1864	-24.5327030523946 
1865	-5.83691655356227 
1866	 0.921374097316395 
1867	 0.637041956731371 
1868	-1.14482910149827 
1869	-0.795656449061773 
1870	-0.58241162980893 
1871	-1.29904671020914 
1872	-3.14415089503257 
1873	 2.21994110038657 
1874	 1.34008554285657 
1875	-4.57581718932497 
1876	 0.405049413206814 
1877	 1.41839289898599 
1878	 0.855877650413428 
1879	 0.461442153633214 
1880	 0.401181757153216 
1881	 0.275102600280907 
1882	 0.204501605007887 
1883	 0.253931439677404 
1884	 0.138146250372112 
1885	-0.146277237675964 
1886	-1.26591992470107 
1887	 1.96625603876864 
1888	 3.14516996996801E-02 
1889	-0.121376059068003 
1890	-0.738099788134164 
1891	-1.40102379061637 
1892	 0.21606821437557 
1893	-0.278763352422382 
1894	-0.11597982295481 
1895	-0.505673526034168 
1896	-0.829631305666147 
1897	-0.526597860111707 
1898	 0.284982269584185 
1899	 3.59699365256682E-02 
1900	 0.267964284008245 
1901	-3.96747925857392 
1902	-2.19754029457298 
1903	-0.858674793526297 
1904	-0.697002689434652 
1905	-6.93172561283209 
1906	 3.07096324926754 
1907	 5.6305579896468 
1908	 18.752796554905 
1909	 42.9500709807011 
1910	-0.867541337445135 
1911	-0.357064349429399 
1912	-0.785592908696958 
1913	-0.932361415461323 
1914	-0.955793581724223 
1915	-1.86209305891943 
1916	 3.74440233182359 
1917	 1.92528835720112 
1918	 7.84595034568862 
1919	 9.85480323081731 
1920	 4.5188000533292 
1921	 3.12492119673694 
1922	 2.01000241747344 
1923	 0.71487421775033 
1924	 0.201942912747175 
1925	 5.15035253597556E-02 
1926	-8.45289708873686E-02 
1927	-0.418233142119261 
1928	-0.422528804117823 
1929	 7.20698980144497E-02 
1930	 0.426292008096356 
1931	 0.599411700233261 
1932	 0.562142859815319 
1933	 0.236362078773653 
1934	 0.114034274883004 
1935	 9.32861677386509E-02 
1936	 1.25617596859739E-02 
1937	-2.49869624135056E-02 
1938	 4.25851801601092E-02 
1939	 3.69582485127705E-02 
1940	-1.99749020040451E-03 
1941	 0.019325415261151 
1942	 5.47246619260366E-02 
1943	 4.24421010198389E-02 
1944	 2.56244116495789E-02 
1945	-5.54205688053943E-04 
1946	-2.50247949460964E-02 
1947	-3.90533929208397E-02 
1948	-1.06117488013048E-02 
1949	 2.61627932595874E-02 
1950	 3.58249875116958E-02 
1951	 0.029533181814317 
1952	 3.12195378233017E-02 
1953	 2.46960390847604E-02 
1954	 0.028351575863879 
1955	 2.43807055618078E-02 
1956	 1.15304907161187E-02 
1957	-6.15789963882452E-03 
1958	-1.38884435833606E-02 
1959	-8.91225615178753E-03 
1960	-2.54758052251765E-03 
1961	 4.31439547615463E-03 
1962	 4.18657758774022E-03 
1963	-6.90073440877215E-04 
1964	-1.66715559601995E-03 
1965	 1.10300905004534E-03 
1966	 2.00197377851666E-03 
1967	 2.86289052038517E-03 
1968	 3.24536762970771E-03 
1969	 3.18193381300208E-03 
1970	 2.49087485305294E-03 
1971	 1.49258132167629E-03 
1972	 1.50449137214426E-03 
1973	 3.06398544402677E-03 
1974	 3.35905122254434E-03 
1975	 2.3633677539594E-03 
1976	 1.56726848221521E-03 
1977	 1.80930021733078E-03 
1978	 2.35577751761786E-03 
1979	 2.35863638444861E-03 
1980	 2.85881035943262E-03 
1981	 3.5471265765466E-03 
1982	 2.6521506875637E-03 
1983	 1.47999780720295E-03 
1984	 1.8031284901443E-03 
1985	 2.22079823295067E-03 
1986	 2.32501905117011E-03 
1987	 2.2024807638235E-03 
1988	 2.01068622562966E-03 
1989	 2.21159183051275E-03 
1990	 2.58111547867243E-03 
1991	 2.81782831575489E-03 
1992	 1.94060800095319E-03 
1993	 1.51004486678603E-03 
1994	 1.37141365850574E-03 
1995	 1.28279145732689E-03 
1996	 9.05080052749783E-04 
1997	 2.66994684422666E-03 
1998	 3.81315800214346E-03 
1999	 3.64361134969784E-03 
2000	 5.79583886712562E-03 
2001	 6.79027222309336E-03 
2002	 5.26057458180495E-03 
2003	 3.85705434810001E-03 
2004	 1.81449927600105E-03 
2005	 3.66712034611016E-03 
2006	 5.67013534027245E-03 
2007	 4.68324484045992E-03 
2008	 7.03209385169154E-03 
2009	 7.20714516262639E-03 
2010	 3.37625838785187E-03 
2011	 1.79591350715934E-03 
2012	 1.75844744215469E-03 
2013	 7.42138186837149E-05 
2014	 8.64741429383838E-04 
2015	 1.5234475828242E-03 
2016	 2.62452244262968E-03 
2017	 5.97136839058443E-03 
2018	 5.24419289621214E-03 
2019	 4.16779444140093E-03 
2020	 5.73361145823521E-03 
2021	 5.35726838608676E-03 
2022	 3.60442232714934E-03 
2023	 3.51879317842787E-03 
2024	 3.32019254204136E-03 
2025	 1.96457773562605E-03 
2026	 1.81126817680747E-03 
2027	 2.82256048482368E-03 
2028	 3.26892802673158E-03 
2029	 2.98540267642202E-03 
2030	 3.04378533667182E-03 
2031	 2.7858272794014E-03 
2032	 2.55573154092511E-03 
2033	 2.21483485539204E-03 
2034	 1.70405586178935E-03 
2035	 1.46693357806687E-03 
2036	 1.67176265923343E-03 
2037	 1.71296660743394E-03 
2038	 1.28627848536201E-03 
2039	 1.15452810890045E-03 
2040	 8.74370432961639E-04 
2041	 5.01597030477801E-04 
2042	 5.04995833322323E-04 
2043	 5.1050518342408E-04 
2044	 5.00609706678109E-04 
2045	-4.99689624814486E-04 
2046	-2.35893655751475E-04 
2047	 1.90180179150815E-04 
2048	 7.04307901910724E-04 
2049	 1.80800785415934E-03 
2050	 2.22916540669779E-03 
2051	 2.29924710230122E-03 
2052	 1.33141194395119E-03 
2053	 4.97792635104706E-04 
2054	 1.11726557554343E-03 
2055	 9.73099214909255E-04 
2056	 8.87266412781262E-04 
2057	 1.29759240446878E-03 
2058	 1.59641847714092E-03 
2059	 1.50531068875092E-03 
2060	 1.53903869325556E-03 
2061	 1.78296574639657E-03 
2062	 2.38099592422501E-03 
2063	 1.81117825020789E-03 
2064	 1.38363940883735E-03 
2065	 1.58567273887118E-03 
2066	 1.34508902941631E-03 
2067	 1.32460287447912E-03 
2068	 9.31194492199375E-04 
2069	 5.52054664703438E-04 
2070	 1.39457434611853E-03 
2071	 1.96101391068646E-03 
2072	 1.63679218904936E-03 
2073	 1.71082270041013E-03 
2074	 1.31285344877392E-03 
2075	 1.21923755929049E-03 
2076	 1.8604018137454E-03 
2077	 2.20548561520018E-03 
2078	 2.31487107066099E-03 
2079	 2.30873588185845E-03 
2080	 2.46351263731024E-03 
2081	 1.81870626357539E-03 
2082	 6.72298531246908E-04 
2083	 9.41416701637341E-04 
2084	 9.65095676128923E-04 
2085	 3.03393345780379E-05 
2086	-5.91672289372004E-05 
2087	-6.89864009423569E-04 
2088	-6.68035533840609E-04 
2089	 8.56310085205526E-04 
2090	 1.6247980338168E-03 
2091	 2.37044099088873E-03 
2092	 2.76899474903457E-03 
2093	 2.26239323172974E-03 
2094	 1.9084495410662E-03 
2095	 1.67410459967027E-03 
2096	 1.43936781646987E-03 
2097	 5.65420861178457E-04 
2098	 5.13718828015292E-04 
2099	 1.0497001711008E-03 
2100	 1.58525524289611E-03 
2101	 1.97861728277714E-03 
2102	 1.87271373826123E-03 
2103	 1.39808214292994E-03 
2104	 1.20730900082407E-03 
2105	 9.23253593596335E-04 
2106	 9.89233123112587E-04 
2107	 1.5469890311509E-03 
2108	 1.25917095736551E-03 
2109	 8.32990494927955E-04 
2110	 8.26126354558603E-04 
2111	 8.90498696968141E-04 
2112	 1.73329879746591E-03 
2113	 1.91375240573774E-03 
2114	 2.10829056652645E-03 
2115	 2.12310082936623E-03 
2116	 1.37309897007976E-03 
2117	 1.15920948095623E-03 
2118	 1.40635690161513E-03 
2119	 1.73472081524717E-03 
2120	 2.47885583605979E-03 
2121	 2.54159019602616E-03 
2122	 2.65100456155133E-03 
2123	 2.40030507899262E-03 
2124	 1.51492328627359E-03 
2125	 1.14096579293791E-03 
2126	 9.09480289647328E-04 
2127	 7.06915543162218E-04 
2128	 1.08973145692869E-03 
2129	 1.22572694376458E-03 
2130	 1.74635392092328E-03 
2131	 2.80604554142482E-03 
2132	 2.63563837816725E-03 
2133	 2.5321348344127E-03 
2134	 2.75274955581665E-03 
2135	 2.64411007143627E-03 
2136	 2.67237794872925E-03 
2137	 3.36968589596793E-03 
2138	 3.60445334975131E-03 
2139	 3.17242530708133E-03 
2140	 3.10772827018479E-03 
2141	 3.74651535918038E-03 
2142	 3.62987484221531E-03 
2143	 3.02536743921261E-03 
2144	 2.53112652738252E-03 
2145	 2.36172801115628E-03 
2146	 1.47156912334281E-03 
2147	 8.76990018990326E-04 
2148	 1.26028660954491E-03 
2149	 1.47263887157914E-03 
2150	 1.2035513305037E-03 
2151	 1.22265797855006E-03 
2152	 1.68048805486243E-03 
2153	 1.92588647965754E-03 
2154	 1.97117313212406E-03 
2155	 2.21827487199472E-03 
2156	 2.68444688358564E-03 
2157	 2.6558216793593E-03 
2158	 2.05934379445845E-03 
2159	 1.84435278158172E-03 
2160	 1.41326846288117E-03 
2161	 1.1885248153701E-03 
2162	 1.26502727869398E-03 
2163	 1.40951197851515E-03 
2164	 2.0081109267741E-03 
2165	 1.92432503631927E-03 
2166	 1.32686278788241E-03 
2167	 1.32446474146653E-03 
2168	 1.31127079436827E-03 
2169	 8.37998439532758E-04 
2170	 4.11377813404898E-04 
2171	-3.10121993913151E-05 
2172	 5.39540989570071E-05 
2173	 7.34813536714689E-04 
2174	 1.33432819184522E-03 
2175	 3.10415488294378E-03 
2176	 3.38329988360698E-03 
2177	 2.69212100185981E-03 
2178	 3.58436528072032E-03 
2179	 3.13787197050701E-03 
2180	 2.05415704519093E-03 
2181	 2.13996462316015E-03 
2182	 2.18145890472645E-03 
2183	 2.32724514635048E-03 
2184	 2.59264771254474E-03 
2185	 2.71655842931545E-03 
2186	 2.62330089550416E-03 
2187	 1.59031898682226E-03 
2188	 1.85103219076237E-03 
2189	 3.15706574105971E-03 
2190	 3.61617882395853E-03 
2191	 4.73283721714253E-03 
2192	 4.58800220635145E-03 
2193	 2.73493738822609E-03 
2194	 1.89099105842318E-03 
2195	 6.06128873804986E-04 
2196	 7.36451819301972E-04 
2197	 2.20153891710071E-03 
2198	 3.02877713134074E-03 
2199	 0.00479877903766 
2200	 5.65493404938718E-03 
2201	 4.56887806310531E-03 
2202	 3.62261064361826E-03 
2203	 3.67487420677996E-03 
2204	 3.1670262647588E-03 
2205	 3.53766165122338E-03 
2206	 4.21985338470433E-03 
2207	 2.29859938312698E-03 
2208	 1.4843971199947E-03 
2209	 2.0268507617863E-03 
2210	 2.06101074376589E-03 
2211	 4.12689657368686E-03 
2212	 5.72679313460919E-03 
2213	 5.65074323580864E-03 
2214	 5.96217955698175E-03 
2215	 5.19128638524045E-03 
2216	 4.34718424509832E-03 
2217	 3.37907075421853E-03 
2218	 1.89527204642038E-03 
2219	 1.3316297557577E-03 
2220	 6.90537494190429E-04 
2221	 5.89920755025832E-04 
2222	 1.51949935580296E-03 
2223	 1.8218305340566E-03 
2224	 2.61603530823147E-03 
2225	 2.25276611466485E-03 
2226	 5.04870566889982E-04 
2227	 1.08303090352693E-03 
2228	 2.17397111621574E-03 
2229	 2.77638266687368E-03 
2230	 5.24871084304535E-03 
2231	 5.93825710570772E-03 
2232	 4.30228077519865E-03 
2233	 4.18489771568197E-03 
2234	 4.83114923751881E-03 
2235	 5.10263495738153E-03 
2236	 4.64085492236038E-03 
2237	 5.18929271194996E-03 
2238	 5.09247692029005E-03 
2239	 4.03434485262459E-03 
2240	 3.79167702641728E-03 
2241	 3.74087826296919E-03 
2242	 3.18769205171922E-03 
2243	 2.88039054640162E-03 
2244	 3.66705731991493E-03 
2245	 3.57287720782834E-03 
2246	 2.73838689579507E-03 
2247	 2.95262130097736E-03 
2248	 1.5347298210535E-03 
2249	-2.32858320872269E-04 
2250	 2.73209027993058E-04 
2251	 1.11685401007549E-03 
2252	 1.81153620778684E-03 
2253	 2.80025859323732E-03 
2254	 2.07479772009722E-03 
2255	-5.44819416480261E-04 
2256	-4.0451125031864E-04 
2257	 1.17126285610557E-03 
2258	 1.79931578263075E-03 
2259	 3.75823757961763E-03 
2260	 3.86399495412759E-03 
2261	 5.3169461364128E-04 
2262	-2.49856667074993E-06 
2263	 1.80237036927553E-04 
2264	 1.2248016732703E-03 
2265	 4.98698542094469E-03 
2266	 5.31391982008585E-03 
2267	 3.79255738434744E-03 
2268	 3.92143352173316E-03 
2269	 2.68439591054925E-03 
2270	 2.51022281942607E-03 
2271	 5.09019446524359E-03 
2272	 5.43124378794412E-03 
2273	 4.27768755608688E-03 
2274	 4.02858497550096E-03 
2275	 3.68112125659975E-03 
2276	 2.42849576073548E-03 
2277	-4.60432698299221E-04 
2278	-1.12979515811199E-03 
2279	-6.38329259954753E-04 
2280	 2.43540781673526E-04 
2281	 3.27993555494304E-03 
2282	 4.84972367958432E-03 
2283	 6.17460946346446E-03 
2284	 5.54843369678095E-03 
2285	 4.10199679910461E-03 
2286	 4.08757811692987E-03 
2287	 2.51487200516988E-03 
2288	 1.45936217280295E-03 
2289	 8.0477674952112E-04 
2290	-8.15520524810813E-04 
2291	-1.83073064113546E-03 
2292	-1.81581908880004E-04 
2293	 2.21460378582849E-03 
2294	 3.48239171740755E-03 
2295	 6.53898856158317E-03 
2296	 5.93956726918187E-03 
2297	 5.37862263566301E-03 
2298	 9.48296159595345E-03 
2299	 1.01644891709023E-02 
2300	 1.12867273107822E-02 
2301	 1.20348382974921E-02 
2302	 7.41470780337992E-03 
2303	 6.75874098582442E-03 
2304	 6.65647724973201E-03 
2305	 2.57832662626075E-03 
2306	 2.46811399910176E-03 
2307	-1.11022136101409E-04 
2308	-5.40893602447922E-03 
2309	-3.3547352864154E-03 
2310	-2.42651955149721E-03 
2311	-4.01055868407531E-03 
2312	-3.3948271323736E-04 
2313	 2.57331104632328E-03 
2314	 3.38797594065013E-03 
2315	 4.31512231331579E-03 
2316	 5.59131669055937E-03 
2317	 2.61706560797024E-03 
2318	-3.44758397383935E-03 
2319	 1.49643956556213E-03 
2320	 5.57854254792397E-03 
2321	 1.80752505424075E-03 
2322	 6.82024394146828E-03 
2323	 9.38476459645327E-03 
2324	 3.61994579611454E-03 
2325	 5.65022380386104E-03 
2326	 6.6547009310076E-03 
2327	 9.70459901225394E-04 
2328	-8.74196661709103E-04 
2329	 3.47191715543663E-03 
2330	 6.74966062038978E-03 
2331	 4.60103433849451E-03 
2332	 3.5276481591692E-03 
2333	 3.18641919401395E-03 
2334	 1.7436902988387E-04 
2335	 1.36854994243965E-03 
2336	 9.43085461629636E-03 
2337	 1.09826302027429E-02 
2338	 1.03483397660549E-02 
2339	 1.45646707793052E-02 
2340	 1.12617833045924E-02 
2341	 9.70761750156785E-03 
2342	 1.21122684989361E-02 
2343	 1.03384284154724E-02 
2344	 1.08433393154983E-02 
2345	 1.45239326780798E-02 
2346	 1.57457742100728E-02 
2347	 1.33621554352392E-02 
2348	 1.47246222671269E-02 
2349	 0.012358934918172 
2350	 3.80615108124356E-03 
2351	 3.30401082019821E-03 
2352	 5.19710390029413E-03 
2353	 6.40834905311334E-03 
2354	 1.04738911715631E-02 
2355	 8.1729437229247E-03 
2356	 1.08838766023362E-02 
2357	 1.37493676814824E-02 
2358	 1.14981030311963E-03 
2359	 1.48155569549473E-03 
2360	 1.06871092928641E-02 
2361	 4.21102397728809E-03 
2362	 6.56988227804704E-03 
2363	 1.68569207770625E-02 
2364	 1.25145492432303E-02 
2365	 1.23701345530814E-02 
2366	 8.32450529182735E-03 
2367	-9.61382531684828E-03 
2368	-1.47790990619015E-02 
2369	-1.84846496016705E-02 
2370	-1.69220588229444E-02 
2371	 9.56481866939462E-03 
2372	 2.09459555542024E-02 
2373	 1.26541397722305E-02 
2374	 3.04057971092077E-02 
2375	 3.55009412468464E-02 
2376	 1.52047855298436E-02 
2377	 1.06405539905808E-02 
2378	-2.70823485218134E-03 
2379	-2.09539594195772E-02 
2380	-2.64578984486537E-02 
2381	-2.46306544504434E-02 
2382	-2.11810229771613E-02 
2383	-3.47378765696617E-02 
2384	-4.14815521722881E-02 
2385	-2.59903713322244E-02 
2386	-1.01166175646943E-02 
2387	 9.30306160682803E-03 
2388	 1.82683260932778E-02 
2389	-1.27880666956816E-03 
2390	-3.30922462917947E-02 
2391	-4.92787426629131E-02 
2392	-5.05173839774798E-02 
2393	-4.91043807217643E-02 
2394	-3.24391071027865E-02 
2395	-1.17660239968578E-02 
2396	-2.43208569537766E-03 
2397	 4.30722843257661E-03 
2398	-4.24178460402645E-03 
2399	-4.87648159747734E-02 
2400	-6.83221833450556E-02 
2401	-4.58525326394771E-02 
2402	-0.033145813156696 
2403	 9.29574996205204E-03 
2404	 0.039383303159158 
2405	 8.31944838711469E-03 
2406	 4.9138143282742E-03 
2407	 4.27213698993859E-02 
2408	 0.065402315192573 
2409	 0.075073904589109 
2410	 7.60331297537288E-02 
2411	 3.26903541905853E-02 
2412	-1.97280506793427E-02 
2413	-3.38365329369675E-02 
2414	-0.012637741563717 
2415	 4.41121002495522E-02 
2416	 9.97160264758259E-02 
2417	 0.144388434345232 
2418	 0.103420885965654 
2419	-9.46149299785691E-03 
2420	-8.72237290353427E-03 
2421	 2.00259194582939E-02 
2422	 6.16479085858882E-02 
2423	 0.129536355603086 
2424	 0.105125634278349 
2425	 3.79372862686625E-02 
2426	 1.59983809989564E-02 
2427	 3.53064571865664E-02 
2428	 5.03599043367189E-02 
2429	 7.58963687076813E-02 
2430	 0.106787616009931 
2431	 5.36483970012549E-02 
2432	 5.45741714126178E-02 
2433	 0.10720586025522 
2434	 9.60437172474431E-02 
2435	 0.171973100446328 
2436	 0.185960147653009 
2437	 1.35392467246569E-03 
2438	-1.95201761090187E-03 
2439	 8.81636782258802E-02 
2440	 0.187493847945638 
2441	 0.376514174380683 
2442	 0.368939971802532 
2443	 9.85418203833776E-02 
2444	-0.122434356188692 
2445	-7.82880583379906E-02 
2446	 5.04328126666065E-02 
2447	 0.21271285538605 
2448	 0.30205514016308 
2449	 0.108291908163024 
2450	 0.123948404522923 
2451	 0.3142473321493 
2452	 0.229245937695333 
2453	 0.572181237681157 
2454	 0.541019066992383 
2455	 0.170917530027482 
2456	 0.051136879745377 
2457	-1.48468426942051E-02 
2458	-6.95568394877474E-02 
2459	-2.03915142067092E-02 
2460	 0.136964230397832 
2461	 5.04656575853814E-02 
2462	-7.39508470563057E-02 
2463	-4.03488797650967E-02 
2464	-1.35839044719628E-03 
2465	 2.98273939818139E-02 
2466	 0.132748211997632 
2467	 0.074460138615894 
2468	 5.61334533441254E-02 
2469	 0.366433898036644 
2470	 0.62699068968859 
2471	 1.03212539250853 
2472	 3.36540577359713 
2473	 0.395007297808044 
2474	-0.153732673377415 
2475	-0.310752910060484 
2476	-0.137866843375042 
2477	 5.52196754991362E-02 
2478	 0.812364111927224 
2479	 1.10011128471168 
2480	 0.811809063669673 
2481	 1.14564755293403 
2482	 0.434395229286763 
2483	 0.236730735202978 
2484	 0.410024594431476 
2485	-0.271603724053125 
2486	-0.867235490392101 
2487	-0.414619528414677 
2488	-0.376630918124462 
2489	-0.10327815200812 
2490	 0.726076756164063 
2491	 0.323952211139727 
2492	-0.176855722850847 
2493	-0.296863762887667 
2494	-1.36046399230624 
2495	-0.219486457258381 
2496	 1.30370953819005 
2497	 1.41897849092035 
2498	 1.24424279124293 
2499	 1.55056973408577 
2500	 2.10019750809664 
