Wavelength	rt0726close00005.asd
350	 9.83097892846778E-02 
351	 9.91084668213807E-02 
352	 9.85895785567821E-02 
353	 9.79056348442376E-02 
354	 9.80463266383453E-02 
355	 9.83423580784171E-02 
356	 0.098278293803466 
357	 9.81476016418723E-02 
358	 9.82491004127645E-02 
359	 9.75659975900156E-02 
360	 9.75684461982397E-02 
361	 9.80788032474515E-02 
362	 9.78677989594369E-02 
363	 9.75264761712128E-02 
364	 0.097471608333738 
365	 9.76873603414184E-02 
366	 9.75648718557259E-02 
367	 9.72088424056383E-02 
368	 9.68614737095973E-02 
369	 9.67561891858682E-02 
370	 9.69828847380559E-02 
371	 9.67662714953684E-02 
372	 9.64134377794792E-02 
373	 9.67015827665256E-02 
374	 9.64205312409005E-02 
375	 9.64753847237703E-02 
376	 0.096853588030494 
377	 0.096068940077295 
378	 9.56460792400048E-02 
379	 9.57276833196941E-02 
380	 9.60704193044593E-02 
381	 9.64370687450453E-02 
382	 9.63235271448861E-02 
383	 9.59242938250511E-02 
384	 9.57599899458154E-02 
385	 9.58737776373093E-02 
386	 9.58731043081504E-02 
387	 9.56877098315376E-02 
388	 9.56353454274869E-02 
389	 0.095568016073 
390	 9.58368120203671E-02 
391	 9.63292083426382E-02 
392	 9.55432684006744E-02 
393	 9.55369097924984E-02 
394	 9.58641469958381E-02 
395	 9.54790587199328E-02 
396	 9.54704359607006E-02 
397	 9.58447794751935E-02 
398	 9.61845445161532E-02 
399	 9.58648448722485E-02 
400	 9.60309976845013E-02 
401	 0.096052383143319 
402	 9.56646995376243E-02 
403	 9.60730953682966E-02 
404	 9.61713437518378E-02 
405	 9.59509590393036E-02 
406	 9.58200112708125E-02 
407	 9.60600659734425E-02 
408	 9.60321252968486E-02 
409	 9.57871929880941E-02 
410	 9.60479839998621E-02 
411	 9.60635900999578E-02 
412	 9.60756390404838E-02 
413	 9.62659833817945E-02 
414	 9.62462360963563E-02 
415	 9.61506096549406E-02 
416	 9.61743307855363E-02 
417	 9.64514243688816E-02 
418	 9.66090987416363E-02 
419	 9.65643213998892E-02 
420	 9.64582146057676E-02 
421	 9.66292018700838E-02 
422	 9.69679163198647E-02 
423	 9.72344777458142E-02 
424	 9.72898084322441E-02 
425	 9.73364953324161E-02 
426	 9.73815556416843E-02 
427	 9.75221243426529E-02 
428	 9.78345468663709E-02 
429	 9.80016071332808E-02 
430	 9.81372338636721E-02 
431	 9.83293995355777E-02 
432	 9.85838726122026E-02 
433	 9.86894030197805E-02 
434	 9.88408132777151E-02 
435	 9.91590534415848E-02 
436	 9.92724658033671E-02 
437	 9.94209262946614E-02 
438	 9.96179081712895E-02 
439	 9.97732983677118E-02 
440	 0.100081422508238 
441	 0.100265728725835 
442	 0.100315747762492 
443	 0.100684293747241 
444	 0.10086288989073 
445	 0.100970353202124 
446	 0.101201448603671 
447	 0.10134154455786 
448	 0.101499112065453 
449	 0.101663408918882 
450	 0.10173803261457 
451	 0.101734067267937 
452	 0.101810803687747 
453	 0.102009555129146 
454	 0.102102503879347 
455	 0.102072264993416 
456	 0.102113725032935 
457	 0.102392831349635 
458	 0.102473512553477 
459	 0.102470475454278 
460	 0.102481726087402 
461	 0.102552780407971 
462	 0.102573438662773 
463	 0.10256638403898 
464	 0.102608512327676 
465	 0.102883586229945 
466	 0.102902121203697 
467	 0.102827479838163 
468	 0.103073694031954 
469	 0.103264965824609 
470	 0.103275347219015 
471	 0.103203575408456 
472	 0.103406829711369 
473	 0.103615141529187 
474	 0.103689689405707 
475	 0.103618189014442 
476	 0.10368687226382 
477	 0.10381791370068 
478	 0.103936804709767 
479	 0.103988046680743 
480	 0.10407378450928 
481	 0.104230096486994 
482	 0.104456460183438 
483	 0.104703336581793 
484	 0.104946545541768 
485	 0.105178453183641 
486	 0.105400496884002 
487	 0.105588059564437 
488	 0.105917266515001 
489	 0.106244033672563 
490	 0.106153655403197 
491	 0.106383202378194 
492	 0.10667567721953 
493	 0.106782792672571 
494	 0.107023587866939 
495	 0.107375124264542 
496	 0.107739158487173 
497	 0.108002654044155 
498	 0.108342822167418 
499	 0.108645009879234 
500	 0.108866336808966 
501	 0.109114900791561 
502	 0.109470896607005 
503	 0.109789694620657 
504	 0.109953575534628 
505	 0.110213521887973 
506	 0.110570042519242 
507	 0.110976706295178 
508	 0.111364634370797 
509	 0.111873637454402 
510	 0.112325503776657 
511	 0.112633487872064 
512	 0.113025061463302 
513	 0.113517004854751 
514	 0.114042676239398 
515	 0.114517117606563 
516	 0.11513741779935 
517	 0.115651111629209 
518	 0.115996674209203 
519	 0.116392980120214 
520	 0.11675122752679 
521	 0.117100317702602 
522	 0.11748966697233 
523	 0.117955277930239 
524	 0.118386381873216 
525	 0.118855221401966 
526	 0.119527055757781 
527	 0.120033594820008 
528	 0.12043004002595 
529	 0.120830221804442 
530	 0.12133596402986 
531	 0.121863940057872 
532	 0.122396346536209 
533	 0.12293475900141 
534	 0.123463801694758 
535	 0.12403348068692 
536	 0.124634813416828 
537	 0.125187074983156 
538	 0.125789409618579 
539	 0.126455434655847 
540	 0.127187236958497 
541	 0.128038656949095 
542	 0.128848660540856 
543	 0.129540708654086 
544	 0.130126318365082 
545	 0.130867839454059 
546	 0.13162581870192 
547	 0.132300161677991 
548	 0.132978472364587 
549	 0.133611262620667 
550	 0.134108401529931 
551	 0.134405985369592 
552	 0.134670510787971 
553	 0.134778217345943 
554	 0.134756234749853 
555	 0.134812718512254 
556	 0.134765997104811 
557	 0.134721109746452 
558	 0.134874571588204 
559	 0.13547636416883 
560	 0.136339110173519 
561	 0.137317031947075 
562	 0.13830445809356 
563	 0.1392593674906 
564	 0.140105816981765 
565	 0.140819676543282 
566	 0.141468082871822 
567	 0.142125521910577 
568	 0.142719468096575 
569	 0.143148635580873 
570	 0.143531435210091 
571	 0.143792440738617 
572	 0.143959745966257 
573	 0.144179510173249 
574	 0.144470032842714 
575	 0.144993368249873 
576	 0.145781869780046 
577	 0.146416793354488 
578	 0.146968110263044 
579	 0.147436506106712 
580	 0.147773963247944 
581	 0.147813476156201 
582	 0.147738659707788 
583	 0.147645200930351 
584	 0.147390345248204 
585	 0.146991396439923 
586	 0.146614721630087 
587	 0.146488348948576 
588	 0.146777419095782 
589	 0.147236706503097 
590	 0.147609702348102 
591	 0.14774120478558 
592	 0.147917720160963 
593	 0.148177620304616 
594	 0.148449711061316 
595	 0.148512838995571 
596	 0.148653577546595 
597	 0.148778407222662 
598	 0.148621183487073 
599	 0.148504223664386 
600	 0.148433660437345 
601	 0.148428428808095 
602	 0.148599267884646 
603	 0.148881747940576 
604	 0.149131345270967 
605	 0.149249613018125 
606	 0.149532141393217 
607	 0.149666473196907 
608	 0.149656736337775 
609	 0.149846412303839 
610	 0.149943883033114 
611	 0.149929146314945 
612	 0.149865822810053 
613	 0.149873311217509 
614	 0.14998576573021 
615	 0.150119213419217 
616	 0.150129398135356 
617	 0.150044833986145 
618	 0.149998247557233 
619	 0.150045582162334 
620	 0.150109932351475 
621	 0.150144806099938 
622	 0.150147544795288 
623	 0.150139548225596 
624	 0.150172724026163 
625	 0.150077532608994 
626	 0.149911939108052 
627	 0.149945479617508 
628	 0.150032604062373 
629	 0.150122207949139 
630	 0.15019441895324 
631	 0.150257483822957 
632	 0.150377374555913 
633	 0.150497533397779 
634	 0.150521907224979 
635	 0.150536194856397 
636	 0.150646062786552 
637	 0.150845886460234 
638	 0.150978664267465 
639	 0.151030819164583 
640	 0.151082524525397 
641	 0.151190108662375 
642	 0.151176324581628 
643	 0.151161096523879 
644	 0.151103245933551 
645	 0.150849929509533 
646	 0.150745257688718 
647	 0.150808372705897 
648	 0.150958059747217 
649	 0.151067347977211 
650	 0.151016720518179 
651	 0.150989481884527 
652	 0.151173580074397 
653	 0.150908117096469 
654	 0.150753443456888 
655	 0.150903594865139 
656	 0.15090791104394 
657	 0.150686851977269 
658	 0.150401327171583 
659	 0.150206146628896 
660	 0.150142578853897 
661	 0.149981091157833 
662	 0.14970225547332 
663	 0.149435603928472 
664	 0.149293098704333 
665	 0.149180905854873 
666	 0.14900743442341 
667	 0.148724016011706 
668	 0.14866722805714 
669	 0.148682757748442 
670	 0.148560833846301 
671	 0.148722787572122 
672	 0.148856234979767 
673	 0.148889651671384 
674	 0.149005704266029 
675	 0.149225833254879 
676	 0.149453776885515 
677	 0.149625931919012 
678	 0.14980534834709 
679	 0.150137850587698 
680	 0.150499031977693 
681	 0.150703319591965 
682	 0.151116606959895 
683	 0.151549737632971 
684	 0.151790043848126 
685	 0.151651210331819 
686	 0.151974345439812 
687	 0.152542906405389 
688	 0.15290041965666 
689	 0.153439517888674 
690	 0.153919093146241 
691	 0.154203326527423 
692	 0.154269704877696 
693	 0.154654704373753 
694	 0.155184818427396 
695	 0.155617317947698 
696	 0.155865592199781 
697	 0.155831998715498 
698	 0.155719739265751 
699	 0.155757359671963 
700	 0.155698635678131 
701	 0.155846394253834 
702	 0.156095449336337 
703	 0.15604301413449 
704	 0.155900419946895 
705	 0.155813500519316 
706	 0.155840454613094 
707	 0.155892715639014 
708	 0.155773005021769 
709	 0.155547913501103 
710	 0.155342546340263 
711	 0.154956070232502 
712	 0.154527401447372 
713	 0.154009155831422 
714	 0.15312757745832 
715	 0.152036609439761 
716	 0.150915667620939 
717	 0.150082299502375 
718	 0.14960193787631 
719	 0.149304329460568 
720	 0.149071244212296 
721	 0.148759482325917 
722	 0.14790629120507 
723	 0.146918279570279 
724	 0.14613758737737 
725	 0.14539028359539 
726	 0.144649715645896 
727	 0.143812018438787 
728	 0.142814472163115 
729	 0.141682217003557 
730	 0.140635340994952 
731	 0.139710558086001 
732	 0.138808811654245 
733	 0.138048545025605 
734	 0.137257777235427 
735	 0.136469306102972 
736	 0.135994417815798 
737	 0.13572928962973 
738	 0.135539517511203 
739	 0.135373123043283 
740	 0.135459477543142 
741	 0.135483274720363 
742	 0.135434559740182 
743	 0.135473210713055 
744	 0.135683315455184 
745	 0.135787608504779 
746	 0.135747401293367 
747	 0.13588932402929 
748	 0.13588967341387 
749	 0.135913436087052 
750	 0.136109117532357 
751	 0.136165515716013 
752	 0.136205039494632 
753	 0.136250400657239 
754	 0.13627788172904 
755	 0.136370385726115 
756	 0.136345571705948 
757	 0.136064474992613 
758	 0.135295025645854 
759	 0.134535413225091 
760	 0.133945266553177 
761	 0.133671444130631 
762	 0.133631909664847 
763	 0.134103172260815 
764	 0.134906311167413 
765	 0.135743425479075 
766	 0.136464061838076 
767	 0.136885240841218 
768	 0.13714777310018 
769	 0.137651753285123 
770	 0.137862797040682 
771	 0.137962732030336 
772	 0.138164751110978 
773	 0.138366039239107 
774	 0.138522363444772 
775	 0.138657083103953 
776	 0.138821194280011 
777	 0.138985651894571 
778	 0.139241812038677 
779	 0.139552387850595 
780	 0.139753367579387 
781	 0.139883555306143 
782	 0.140075346177289 
783	 0.140336204325291 
784	 0.140342614743292 
785	 0.140448959334257 
786	 0.140550150642596 
787	 0.140489750631459 
788	 0.140748467725327 
789	 0.141008094963627 
790	 0.141290402150885 
791	 0.141851100504865 
792	 0.141991203541185 
793	 0.142143157942703 
794	 0.142466541545393 
795	 0.142406925962765 
796	 0.142540414065097 
797	 0.142807714447385 
798	 0.143000673477966 
799	 0.143030410756027 
800	 0.143063414759674 
801	 0.143149504167253 
802	 0.143259418591099 
803	 0.143324896253766 
804	 0.143645490940187 
805	 0.144043859529609 
806	 0.143846491992957 
807	 0.143596273681664 
808	 0.143375895872347 
809	 0.143106222660243 
810	 0.142492681430304 
811	 0.142048063971915 
812	 0.141651854653481 
813	 0.140982693492547 
814	 0.140293231802583 
815	 0.139897609350376 
816	 0.139686468414689 
817	 0.139264045729235 
818	 0.139138335220008 
819	 0.139118418117187 
820	 0.138871729754997 
821	 0.137948657359492 
822	 0.13679769168084 
823	 0.135967320780132 
824	 0.135484624709648 
825	 0.134180880605388 
826	 0.132913917622825 
827	 0.131676083062459 
828	 0.130267889137896 
829	 0.128825789372475 
830	 0.127528605806251 
831	 0.12643301956845 
832	 0.12552763523951 
833	 0.124745922906625 
834	 0.124236318241031 
835	 0.123849502781215 
836	 0.123064478255682 
837	 0.122837558990858 
838	 0.122745673518937 
839	 0.122342442047519 
840	 0.121886798740195 
841	 0.121695725094875 
842	 0.12159896517908 
843	 0.121327332207932 
844	 0.121160767164504 
845	 0.120842529903362 
846	 0.12051090766908 
847	 0.12048979379867 
848	 0.120119876689959 
849	 0.119583536727933 
850	 0.119143458826692 
851	 0.118989791786518 
852	 0.11854508687668 
853	 0.118236468194757 
854	 0.118279066138226 
855	 0.117984364568747 
856	 0.117716710096532 
857	 0.117615700260099 
858	 0.117608364230297 
859	 0.117080082339363 
860	 0.116846225704137 
861	 0.116794002981482 
862	 0.11642600571574 
863	 0.116164992582165 
864	 0.115793192149024 
865	 0.115426572178138 
866	 0.115419338108781 
867	 0.115008172929588 
868	 0.114545959101634 
869	 0.114270847727155 
870	 0.114061902674434 
871	 0.113772554880171 
872	 0.113381147000482 
873	 0.112956353035985 
874	 0.112703031209701 
875	 0.112088605755919 
876	 0.1114982625847 
877	 0.111320164097111 
878	 0.110878814111897 
879	 0.110322495618425 
880	 0.109769189806536 
881	 0.109330089325202 
882	 0.109153681112193 
883	 0.108682324923136 
884	 0.108023962785611 
885	 0.107729536226752 
886	 0.107324767615055 
887	 0.106774596883875 
888	 0.106287857673549 
889	 0.106220332464247 
890	 0.10563182626746 
891	 0.105068546580602 
892	 0.104828273233136 
893	 0.104224315201657 
894	 0.103684226024591 
895	 0.102938090273782 
896	 0.101912655398482 
897	 0.101770940779543 
898	 0.100975135293788 
899	 9.98569375888013E-02 
900	 0.099291779756468 
901	 9.93858019919236E-02 
902	 9.90531300947534E-02 
903	 9.86383179961052E-02 
904	 9.87347216390013E-02 
905	 9.81696968938684E-02 
906	 9.77377463290428E-02 
907	 9.72469181055273E-02 
908	 0.096005358586805 
909	 9.54806982406338E-02 
910	 9.53005754692079E-02 
911	 9.48242463213685E-02 
912	 9.35812618409908E-02 
913	 9.31395514611843E-02 
914	 0.092320698548412 
915	 9.08497392658876E-02 
916	 8.98019748549429E-02 
917	 8.88031603674513E-02 
918	 8.77311538980247E-02 
919	 8.68283411033954E-02 
920	 8.67068573786549E-02 
921	 8.65744426901755E-02 
922	 8.54283375624054E-02 
923	 8.34684960163465E-02 
924	 8.34826400814995E-02 
925	 8.16858913485592E-02 
926	 7.99101727652934E-02 
927	 8.02523427060845E-02 
928	 7.86332870935096E-02 
929	 7.81672173843125E-02 
930	 7.86862045460373E-02 
931	 7.76532275471932E-02 
932	 0.071626824658214 
933	 7.23852120883086E-02 
934	 7.33954336723507E-02 
935	 6.40570062221733E-02 
936	 6.21114769750137E-02 
937	 6.22970742845827E-02 
938	 6.32188109164314E-02 
939	 6.41886235141067E-02 
940	 6.09190276870396E-02 
941	 5.97002745887552E-02 
942	 6.04787495775942E-02 
943	 5.96929115982183E-02 
944	 5.46656644030838E-02 
945	 5.34013138207917E-02 
946	 0.05630108268054 
947	 5.77003050850252E-02 
948	 5.07423641404799E-02 
949	 4.90251872159039E-02 
950	 5.14665363472933E-02 
951	 4.90762108785047E-02 
952	 4.96282285560386E-02 
953	 5.00606028910759E-02 
954	 4.94915237519565E-02 
955	 4.91466610836398E-02 
956	 5.01039033129029E-02 
957	 4.78086111895206E-02 
958	 4.45480547214951E-02 
959	 4.61621870260859E-02 
960	 4.76919826637592E-02 
961	 4.72563297513466E-02 
962	 4.64655832200267E-02 
963	 4.80644186330602E-02 
964	 4.73602918064517E-02 
965	 0.046540331781486 
966	 0.04650378730421 
967	 4.66710444862989E-02 
968	 4.61546100444544E-02 
969	 4.65244176249584E-02 
970	 0.047356889232311 
971	 4.68068738876758E-02 
972	 4.74344257624707E-02 
973	 4.94312407547742E-02 
974	 4.99620531073893E-02 
975	 4.52809600587466E-02 
976	 4.57216138475667E-02 
977	 4.67698313213045E-02 
978	 4.67283192372837E-02 
979	 4.76178669255687E-02 
980	 4.69665818445294E-02 
981	 4.73085664711256E-02 
982	 4.81392609864122E-02 
983	 4.67891884246045E-02 
984	 4.62630216111015E-02 
985	 4.62914569682342E-02 
986	 4.67718086302475E-02 
987	 4.77103607398739E-02 
988	 4.70529257104436E-02 
989	 4.84243839447729E-02 
990	 0.050093133101365 
991	 4.75329846323938E-02 
992	 4.80008120427593E-02 
993	 4.81459161096249E-02 
994	 4.74764496444473E-02 
995	 4.77236327463187E-02 
996	 4.69973783962059E-02 
997	 4.86028596445153E-02 
998	 5.08686622130776E-02 
999	 4.99334420533956E-02 
1000	 4.90842549284416E-02 
1001	 4.05886789432475E-02 
1002	 4.00746487871698E-02 
1003	 3.99929328089849E-02 
1004	 4.00434135690015E-02 
1005	 4.01924046070882E-02 
1006	 4.06545726727686E-02 
1007	 4.10685079781999E-02 
1008	 4.12936409912164E-02 
1009	 4.15045861481582E-02 
1010	 4.15361332546824E-02 
1011	 4.15241075219817E-02 
1012	 4.15643863183961E-02 
1013	 4.23738926452615E-02 
1014	 4.27208650013771E-02 
1015	 4.29326267346493E-02 
1016	 4.33176528933077E-02 
1017	 4.36423550682601E-02 
1018	 4.39965427439208E-02 
1019	 4.48011298995151E-02 
1020	 4.51145256072164E-02 
1021	 4.51087954933527E-02 
1022	 4.50657050309265E-02 
1023	 4.50006544218239E-02 
1024	 4.51697422341935E-02 
1025	 4.58167384043388E-02 
1026	 4.62196338575568E-02 
1027	 4.65587723800813E-02 
1028	 4.68020181005169E-02 
1029	 4.72084555508544E-02 
1030	 4.76443929339948E-02 
1031	 4.80897562251905E-02 
1032	 4.87764646084647E-02 
1033	 4.91365634715066E-02 
1034	 4.90464831110666E-02 
1035	 4.93823624196241E-02 
1036	 4.99556351775474E-02 
1037	 5.02695152414156E-02 
1038	 5.06554827591697E-02 
1039	 5.10557157073646E-02 
1040	 5.11194789183486E-02 
1041	 5.15635531313281E-02 
1042	 5.20291647444432E-02 
1043	 5.26619348421768E-02 
1044	 5.34411196058902E-02 
1045	 5.43633191311311E-02 
1046	 5.52416434498011E-02 
1047	 5.65239780448425E-02 
1048	 5.72911936093256E-02 
1049	 5.79775449918513E-02 
1050	 5.82491458730804E-02 
1051	 5.78118311431362E-02 
1052	 5.78821001685883E-02 
1053	 5.77172055295669E-02 
1054	 5.78790712658794E-02 
1055	 5.86443138605656E-02 
1056	 5.92052411788777E-02 
1057	 5.97514665580206E-02 
1058	 6.02865616326755E-02 
1059	 0.060861690595387 
1060	 6.15971298125819E-02 
1061	 6.18510817565035E-02 
1062	 6.19612301199735E-02 
1063	 6.19860011490546E-02 
1064	 6.13578963431074E-02 
1065	 6.13786354202544E-02 
1066	 6.18205256205327E-02 
1067	 6.20382771716505E-02 
1068	 6.25956337056123E-02 
1069	 6.27584922450465E-02 
1070	 6.24123186500017E-02 
1071	 6.23520957033624E-02 
1072	 6.23919031219643E-02 
1073	 6.22472163134647E-02 
1074	 6.21938405399814E-02 
1075	 6.23565645479807E-02 
1076	 6.23021205539142E-02 
1077	 6.20060357765513E-02 
1078	 6.19358598199967E-02 
1079	 6.21093017503591E-02 
1080	 6.18546633151317E-02 
1081	 6.14762197175189E-02 
1082	 6.10932162367071E-02 
1083	 6.00996471293635E-02 
1084	 5.97157868629425E-02 
1085	 6.01035776126292E-02 
1086	 5.98391650680096E-02 
1087	 5.93859466252453E-02 
1088	 5.90487872658787E-02 
1089	 5.87747412696685E-02 
1090	 5.73658629284406E-02 
1091	 5.70440183528773E-02 
1092	 5.75521429001592E-02 
1093	 5.71335446494396E-02 
1094	 5.63001088866919E-02 
1095	 5.60896405109252E-02 
1096	 5.60205423592563E-02 
1097	 5.53123270780119E-02 
1098	 5.46918660210334E-02 
1099	 0.054146300148518 
1100	 5.24598145748846E-02 
1101	 0.051752640553064 
1102	 0.052469357958078 
1103	 5.24221466911928E-02 
1104	 5.24025162792969E-02 
1105	 5.18156011985773E-02 
1106	 5.14020887764406E-02 
1107	 5.02906506079344E-02 
1108	 0.049421729178045 
1109	 4.91277381616475E-02 
1110	 0.048354822250803 
1111	 0.04721872055166 
1112	 4.69995587340684E-02 
1113	 4.70676456692832E-02 
1114	 4.65014624735875E-02 
1115	 4.74664281870334E-02 
1116	 0.046468716185088 
1117	 4.02675138185768E-02 
1118	 3.95036768903366E-02 
1119	 4.38228260719131E-02 
1120	 4.42428450966882E-02 
1121	 4.63752555937408E-02 
1122	 5.28911713933918E-02 
1123	 4.78026713402295E-02 
1124	 4.34409292904028E-02 
1125	 0.050223929900514 
1126	 0.054346747921871 
1127	 5.33829933099071E-02 
1128	 5.21934710756846E-02 
1129	 5.07585049981292E-02 
1130	 4.42151074934166E-02 
1131	 4.40325151808213E-02 
1132	 4.86911689694938E-02 
1133	 4.81732532785216E-02 
1134	 4.68450217127037E-02 
1135	 4.53449073589244E-02 
1136	 4.16552040732349E-02 
1137	 4.00631193534619E-02 
1138	 3.99147038520459E-02 
1139	 3.86754901128331E-02 
1140	 3.56960158937611E-02 
1141	 3.59669567341523E-02 
1142	 3.82407292479603E-02 
1143	 3.92896392764964E-02 
1144	 3.94190934441539E-02 
1145	 3.85781285440837E-02 
1146	 3.77823741143678E-02 
1147	 3.71487272552937E-02 
1148	 3.77792550395797E-02 
1149	 3.80869473179523E-02 
1150	 3.75516652489262E-02 
1151	 3.46115746518645E-02 
1152	 0.034884149943064 
1153	 3.69943056654938E-02 
1154	 3.73205114649635E-02 
1155	 3.81639853248654E-02 
1156	 3.79219295904385E-02 
1157	 3.61861616802743E-02 
1158	 3.48673520294828E-02 
1159	 3.49753419978184E-02 
1160	 0.035548186883083 
1161	 3.55777833422601E-02 
1162	 3.51136170261203E-02 
1163	 3.43728563570848E-02 
1164	 3.35145706596921E-02 
1165	 3.29724216852129E-02 
1166	 3.26684175345331E-02 
1167	 3.25001490367588E-02 
1168	 3.25917481666185E-02 
1169	 3.24815493650553E-02 
1170	 3.22044363130384E-02 
1171	 3.21989503616283E-02 
1172	 3.23654085771548E-02 
1173	 3.22326131790324E-02 
1174	 3.19957626076325E-02 
1175	 3.20292272604106E-02 
1176	 3.19140543816027E-02 
1177	 3.15935423551643E-02 
1178	 3.11291956575606E-02 
1179	 3.08599073758875E-02 
1180	 3.09712618300671E-02 
1181	 3.07846741403499E-02 
1182	 3.07810101777347E-02 
1183	 0.031072574313644 
1184	 0.030636979035933 
1185	 3.01761169635574E-02 
1186	 3.03666321573117E-02 
1187	 3.05291207056605E-02 
1188	 3.05399473683519E-02 
1189	 3.07318075547798E-02 
1190	 3.07753889874021E-02 
1191	 3.05024909172477E-02 
1192	 0.030423995772887 
1193	 3.06260208940333E-02 
1194	 3.07694504291738E-02 
1195	 3.03519012924036E-02 
1196	 3.02499602628182E-02 
1197	 3.04765906232684E-02 
1198	 3.03565065919956E-02 
1199	 3.03599839409527E-02 
1200	 3.02917499560109E-02 
1201	 0.029818483926558 
1202	 2.99805673930836E-02 
1203	 0.030579235450885 
1204	 0.030699114038906 
1205	 3.08191972217793E-02 
1206	 3.08676062861543E-02 
1207	 3.04184042390535E-02 
1208	 3.00878830694969E-02 
1209	 3.00585543102358E-02 
1210	 3.00994778994807E-02 
1211	 3.01925166900839E-02 
1212	 3.05234484571516E-02 
1213	 3.07780541741028E-02 
1214	 3.07955170006091E-02 
1215	 0.030431456711111 
1216	 3.03629335174037E-02 
1217	 3.04606309309985E-02 
1218	 3.04494493389793E-02 
1219	 3.05316838453836E-02 
1220	 3.05008407014786E-02 
1221	 3.05755633393412E-02 
1222	 3.06430481409667E-02 
1223	 3.05337719573919E-02 
1224	 3.02836895287437E-02 
1225	 3.00365062769984E-02 
1226	 3.00202587991018E-02 
1227	 3.00937303416086E-02 
1228	 3.02851374000911E-02 
1229	 3.05301591499367E-02 
1230	 3.07203881220689E-02 
1231	 3.07908424130769E-02 
1232	 3.06716122557085E-02 
1233	 3.06990928239678E-02 
1234	 3.07844315642237E-02 
1235	 3.07154523801917E-02 
1236	 3.08173680961538E-02 
1237	 3.08947278818108E-02 
1238	 3.08861722896502E-02 
1239	 0.0305223301343 
1240	 3.04944555043482E-02 
1241	 3.05729127729864E-02 
1242	 3.04005602857994E-02 
1243	 3.03177275405054E-02 
1244	 3.03980787948024E-02 
1245	 0.030437295169845 
1246	 0.030478460207503 
1247	 3.06094597024362E-02 
1248	 3.05320221417227E-02 
1249	 3.04132094038423E-02 
1250	 3.04015938958451E-02 
1251	 0.030228846687955 
1252	 0.030104942093579 
1253	 3.03081135136149E-02 
1254	 3.05477015109344E-02 
1255	 3.03787158522718E-02 
1256	 3.03624429576078E-02 
1257	 3.04562582040443E-02 
1258	 3.02878030822331E-02 
1259	 2.99013047149171E-02 
1260	 2.99455828749303E-02 
1261	 2.99882427200429E-02 
1262	 2.98096526506758E-02 
1263	 2.96987526115419E-02 
1264	 2.98599075818133E-02 
1265	 2.96872098729312E-02 
1266	 0.029914760064921 
1267	 3.04278453497875E-02 
1268	 3.06478137611103E-02 
1269	 3.07273422788017E-02 
1270	 3.06309829081572E-02 
1271	 3.05061638486809E-02 
1272	 3.04357389070457E-02 
1273	 3.05960954440209E-02 
1274	 3.09012065994609E-02 
1275	 0.030714321772826 
1276	 3.05030543073782E-02 
1277	 3.05792063668406E-02 
1278	 3.03566874678814E-02 
1279	 3.03292823936328E-02 
1280	 3.05415084392892E-02 
1281	 3.05156915824518E-02 
1282	 3.01383352042753E-02 
1283	 2.98286584740873E-02 
1284	 2.94811232129044E-02 
1285	 2.93870121757513E-02 
1286	 2.91866176619025E-02 
1287	 2.90951071304369E-02 
1288	 2.94638334440776E-02 
1289	 2.95568570712224E-02 
1290	 2.94345016500048E-02 
1291	 2.94871836845646E-02 
1292	 0.029342551930362 
1293	 2.88494988471184E-02 
1294	 2.88497123856347E-02 
1295	 2.86681707495168E-02 
1296	 2.82067746632432E-02 
1297	 2.83172651473904E-02 
1298	 0.028287157716544 
1299	 2.78826426994621E-02 
1300	 2.79281558381943E-02 
1301	 2.82062686449101E-02 
1302	 2.81973879580636E-02 
1303	 2.80072291188633E-02 
1304	 2.77848577104196E-02 
1305	 2.76689364165606E-02 
1306	 2.76169544135524E-02 
1307	 0.027445692603004 
1308	 2.73298744666779E-02 
1309	 0.027387459615063 
1310	 2.74040104761554E-02 
1311	 2.74585815463047E-02 
1312	 0.027232626740278 
1313	 0.02676144793794 
1314	 2.67167599437134E-02 
1315	 2.66655210490648E-02 
1316	 2.65856225372657E-02 
1317	 2.68723795639691E-02 
1318	 2.71106007627786E-02 
1319	 2.75550578421121E-02 
1320	 2.71669525849189E-02 
1321	 2.60662353547669E-02 
1322	 2.56512060616092E-02 
1323	 0.025863240654784 
1324	 2.55865235843559E-02 
1325	 2.52861352064446E-02 
1326	 2.52931458108695E-02 
1327	 2.48349823190906E-02 
1328	 2.43118404337966E-02 
1329	 2.38658308174251E-02 
1330	 2.37469834026561E-02 
1331	 2.36483884033265E-02 
1332	 2.30423806626235E-02 
1333	 2.39896659766858E-02 
1334	 2.54971705987023E-02 
1335	 2.56631680034376E-02 
1336	 2.44553489729423E-02 
1337	 0.024065830226577 
1338	 2.32565456115309E-02 
1339	 2.31125501762004E-02 
1340	 2.34695848801512E-02 
1341	 2.33524683777987E-02 
1342	 2.34776475363873E-02 
1343	 2.33775309184731E-02 
1344	 0.022979739942388 
1345	 2.25254579799869E-02 
1346	 2.17479338154767E-02 
1347	 2.11802285380098E-02 
1348	 1.86428109528235E-02 
1349	 1.83309015575979E-02 
1350	 0.024149525769428 
1351	 2.66327736688236E-02 
1352	 3.84921743199476E-02 
1353	 4.17950982306718E-02 
1354	 8.6341990894481E-03 
1355	-4.43646728570675E-02 
1356	-2.56704809615147E-02 
1357	-5.05792590739045E-02 
1358	-5.40677700872065E-02 
1359	 1.60894004664279E-02 
1360	 7.56326727400185E-03 
1361	-9.88142557522781E-03 
1362	 2.00782032347987E-02 
1363	-8.54260594843701E-02 
1364	-0.21440811661081 
1365	-0.076833629792995 
1366	 0.309513607160176 
1367	 0.595995863797628 
1368	 0.791071853127473 
1369	 0.112723552389149 
1370	 6.32706767791987E-02 
1371	 0.398590343745367 
1372	 0.24738589239158 
1373	-0.330502229626704 
1374	-0.253505649312021 
1375	 0.285085873141556 
1376	 0.205591918376373 
1377	 0.330636081001833 
1378	 0.417007974240343 
1379	-0.811361327091613 
1380	-0.784332469612453 
1381	 0.502338675242156 
1382	 0.766992307749099 
1383	 0.524964809752497 
1384	 0.539784454000196 
1385	 0.609205402575615 
1386	 0.394347704577888 
1387	-0.354861464976383 
1388	-0.314755340192508 
1389	-5.68972999507703E-02 
1390	 4.87127173994569E-02 
1391	 0.553988049013365 
1392	 1.05314636767557 
1393	 1.09173225990107 
1394	 1.20089538013119 
1395	 0.331228587630023 
1396	-6.38745172004499E-03 
1397	 0.542107188954732 
1398	 0.361621594040643 
1399	 0.366398278680483 
1400	 0.476092372751729 
1401	 0.291597257637699 
1402	 0.232563573323271 
1403	 0.2578763333587 
1404	 0.343772718353013 
1405	 0.338265772818732 
1406	 0.608768705729985 
1407	 0.390254902947646 
1408	 9.03562806023983E-02 
1409	 7.71496551007767E-02 
1410	 9.39570027004957E-02 
1411	 0.055153207341131 
1412	 0.023306668439352 
1413	 4.73589571650674E-02 
1414	 0.114119643606281 
1415	 4.41474621011166E-02 
1416	-0.110062883320983 
1417	-5.83742238434036E-02 
1418	 5.83875974743585E-02 
1419	 0.046674031854621 
1420	 6.42254283691699E-02 
1421	 7.85691932105387E-02 
1422	 3.49624746954762E-02 
1423	 1.63312716281124E-02 
1424	 2.77890882026693E-02 
1425	 4.04549274469658E-02 
1426	 4.35956501413248E-02 
1427	 3.48582746010257E-02 
1428	 3.80766180532565E-02 
1429	 3.83024830713983E-02 
1430	 1.81067657717237E-02 
1431	 5.93525870924439E-03 
1432	-4.53240698654023E-05 
1433	 1.18859963893676E-03 
1434	 7.77627674044958E-03 
1435	 7.30679930762636E-03 
1436	 8.62234090276674E-03 
1437	 1.55153643770195E-02 
1438	 6.31241671921306E-03 
1439	-2.90789559297921E-03 
1440	 1.31090954078111E-02 
1441	 2.39282510267575E-02 
1442	 2.31818879429164E-02 
1443	 1.69230789565433E-02 
1444	 4.7317255191164E-03 
1445	-7.83498185380358E-04 
1446	 3.05453439512501E-03 
1447	 5.15896930701159E-03 
1448	 1.66867731741912E-03 
1449	-1.52252334901701E-03 
1450	 1.57988378302339E-03 
1451	 1.64827760572183E-03 
1452	-3.86477806345019E-03 
1453	-2.47259649739491E-03 
1454	-9.09426370028403E-04 
1455	-9.31613231318615E-04 
1456	-9.41738202265846E-04 
1457	 2.7316423754099E-03 
1458	 3.04438011027461E-03 
1459	-2.80788620985094E-04 
1460	-5.84110270771322E-04 
1461	 6.21192954223442E-04 
1462	 8.41842074560697E-04 
1463	 1.02065354532805E-03 
1464	 1.24468761794291E-03 
1465	 1.59511811020007E-03 
1466	 2.18463187436394E-03 
1467	 2.98962282159901E-03 
1468	 2.12705590685731E-03 
1469	-8.76352881372148E-05 
1470	 8.01750689959076E-04 
1471	 1.16102764138854E-03 
1472	 2.92510593960553E-03 
1473	 9.17261724907263E-03 
1474	 1.07122517227599E-02 
1475	 1.10051195617339E-02 
1476	 1.01819827510958E-02 
1477	 5.72279832693835E-03 
1478	 4.32316909427997E-03 
1479	 3.5215583569467E-03 
1480	 3.46981148758396E-03 
1481	 6.04929239302801E-03 
1482	 5.91611374280176E-03 
1483	 4.08829773952397E-03 
1484	 3.22352828532921E-03 
1485	 2.07864688471732E-03 
1486	 1.49461368558315E-03 
1487	 1.59364598144539E-03 
1488	 1.37055956877282E-03 
1489	 2.36422949466985E-04 
1490	 5.545246002292E-04 
1491	 2.66707816711449E-03 
1492	 2.6149603362732E-03 
1493	 0.001450375748693 
1494	 1.53157383515563E-03 
1495	 1.30685626377402E-03 
1496	 1.16271375124079E-03 
1497	 1.99279498271222E-03 
1498	 2.26691622504052E-03 
1499	 2.12879840481188E-03 
1500	 1.76603572503301E-03 
1501	 1.01609763145371E-03 
1502	 9.15111911065554E-04 
1503	 6.99614940803732E-04 
1504	 7.18650679834722E-04 
1505	 1.51737208797551E-03 
1506	 1.8902466812019E-03 
1507	 1.76453215069333E-03 
1508	 2.02316359572634E-03 
1509	 2.27658997128432E-03 
1510	 2.22463197980509E-03 
1511	 1.97333984288814E-03 
1512	 1.7740321620251E-03 
1513	 1.41898683273875E-03 
1514	 1.32628259113918E-03 
1515	 2.28012809843018E-03 
1516	 2.49367421869318E-03 
1517	 1.92781565249646E-03 
1518	 2.31903980834222E-03 
1519	 2.7183189033556E-03 
1520	 2.61461561661041E-03 
1521	 2.41934243981315E-03 
1522	 2.11679946007523E-03 
1523	 2.11011043590041E-03 
1524	 2.16832376736104E-03 
1525	 2.32510184887422E-03 
1526	 3.00055067130224E-03 
1527	 2.90661636513046E-03 
1528	 2.27794231913632E-03 
1529	 2.62902506092359E-03 
1530	 2.71741538650135E-03 
1531	 2.30057185806021E-03 
1532	 2.45420321111188E-03 
1533	 2.57098673109899E-03 
1534	 2.61275859410299E-03 
1535	 2.7074781309497E-03 
1536	 2.68865636776525E-03 
1537	 2.96729775934719E-03 
1538	 3.13160783626309E-03 
1539	 2.91935019233656E-03 
1540	 2.92088180891114E-03 
1541	 3.0253679864023E-03 
1542	 2.78698159520148E-03 
1543	 2.61176371340716E-03 
1544	 2.95982540466463E-03 
1545	 3.39557345486889E-03 
1546	 3.53327538567582E-03 
1547	 3.6967249577155E-03 
1548	 4.01938134705035E-03 
1549	 3.93980075556156E-03 
1550	 3.7475114847372E-03 
1551	 4.23696429623462E-03 
1552	 4.5556372248732E-03 
1553	 3.99445795162698E-03 
1554	 3.82324851057329E-03 
1555	 4.29452189016421E-03 
1556	 4.1915818395333E-03 
1557	 4.1046308670162E-03 
1558	 4.60389377338644E-03 
1559	 4.7117767011943E-03 
1560	 4.72036598410931E-03 
1561	 5.04321623870787E-03 
1562	 4.77936985320063E-03 
1563	 4.27720464718761E-03 
1564	 4.12807770297661E-03 
1565	 3.95723760178363E-03 
1566	 4.15480095825785E-03 
1567	 4.61689586792032E-03 
1568	 4.73980817959352E-03 
1569	 5.18202749971729E-03 
1570	 5.85850309850575E-03 
1571	 5.87388775349523E-03 
1572	 5.56501565850209E-03 
1573	 5.27886360821488E-03 
1574	 5.17438044538481E-03 
1575	 5.27250363101478E-03 
1576	 5.42359792566283E-03 
1577	 5.33323970952444E-03 
1578	 4.86737692965395E-03 
1579	 4.74958740290389E-03 
1580	 5.04389843498966E-03 
1581	 5.46938231124782E-03 
1582	 5.72587948294181E-03 
1583	 5.60999129182893E-03 
1584	 5.6378693110175E-03 
1585	 5.66352980400643E-03 
1586	 5.4484375645142E-03 
1587	 5.58732542706065E-03 
1588	 5.83756659767021E-03 
1589	 5.86090875161608E-03 
1590	 6.16860438170922E-03 
1591	 6.57002991807676E-03 
1592	 6.46275345347567E-03 
1593	 5.91374316867571E-03 
1594	 5.75660043232838E-03 
1595	 6.19025243524108E-03 
1596	 6.20926023392522E-03 
1597	 6.11908261969753E-03 
1598	 6.93587311996882E-03 
1599	 7.49401236679574E-03 
1600	 7.0401510310502E-03 
1601	 6.7651463291111E-03 
1602	 6.8343689246124E-03 
1603	 6.7506904935976E-03 
1604	 6.80669436341931E-03 
1605	 7.24617137609908E-03 
1606	 7.51313286831747E-03 
1607	 7.08804701598036E-03 
1608	 6.97294726647686E-03 
1609	 7.71262991029349E-03 
1610	 8.00238038692984E-03 
1611	 7.88385287158341E-03 
1612	 7.70345398668704E-03 
1613	 7.20379462159664E-03 
1614	 6.97084618561977E-03 
1615	 6.91729287577433E-03 
1616	 6.99223033036724E-03 
1617	 7.09810336602605E-03 
1618	 7.28090708439188E-03 
1619	 7.71624146602654E-03 
1620	 7.75855182148452E-03 
1621	 7.75854166412418E-03 
1622	 7.87374119133347E-03 
1623	 7.39161150057438E-03 
1624	 6.92661547452494E-03 
1625	 7.15443702811528E-03 
1626	 7.58124000419078E-03 
1627	 7.77345407379031E-03 
1628	 7.7898428437644E-03 
1629	 7.96718780608789E-03 
1630	 7.94252000746729E-03 
1631	 7.44845114958359E-03 
1632	 0.007472905252469 
1633	 7.79750928223928E-03 
1634	 7.41318390940482E-03 
1635	 7.22392750824392E-03 
1636	 8.17356147989705E-03 
1637	 8.93414055868759E-03 
1638	 8.27520697126772E-03 
1639	 7.91939614670425E-03 
1640	 8.42681223379965E-03 
1641	 7.88207015201261E-03 
1642	 7.54174632378887E-03 
1643	 8.37633235033141E-03 
1644	 8.46655595406054E-03 
1645	 7.78164639021137E-03 
1646	 7.8381623252833E-03 
1647	 8.58256890390127E-03 
1648	 8.57068878428171E-03 
1649	 8.3748000727993E-03 
1650	 8.66170916362002E-03 
1651	 8.60926575530846E-03 
1652	 8.4272958471752E-03 
1653	 8.94263719237727E-03 
1654	 9.19512373093498E-03 
1655	 8.58696421754806E-03 
1656	 8.30345224764356E-03 
1657	 0.008476004479934 
1658	 8.72579306882214E-03 
1659	 8.87021894473837E-03 
1660	 8.72959531569318E-03 
1661	 8.93700201068271E-03 
1662	 8.93664600401244E-03 
1663	 8.16792319534316E-03 
1664	 8.18354343721187E-03 
1665	 8.67175141327948E-03 
1666	 8.62526350741683E-03 
1667	 8.85573877274082E-03 
1668	 8.66484541908012E-03 
1669	 8.60309103162526E-03 
1670	 8.7426293567748E-03 
1671	 8.33509607283372E-03 
1672	 8.19210210163211E-03 
1673	 8.64397367706424E-03 
1674	 9.3126514717437E-03 
1675	 9.57642344565206E-03 
1676	 9.30754744267768E-03 
1677	 9.00347771051034E-03 
1678	 8.79440195570315E-03 
1679	 8.89289657744028E-03 
1680	 9.15602150358061E-03 
1681	 9.12328812031524E-03 
1682	 8.79078078726341E-03 
1683	 8.68739294070574E-03 
1684	 9.29499914290788E-03 
1685	 9.61436534684992E-03 
1686	 9.19398449712904E-03 
1687	 0.009220841981349 
1688	 9.63150194520741E-03 
1689	 9.74429142676129E-03 
1690	 9.92360094120631E-03 
1691	 9.94721936990198E-03 
1692	 9.07930625763023E-03 
1693	 8.61421178606817E-03 
1694	 9.36311648995018E-03 
1695	 9.79861766439735E-03 
1696	 9.65698413466884E-03 
1697	 9.17895709953793E-03 
1698	 8.51015891384476E-03 
1699	 8.49392154584322E-03 
1700	 9.12036040508612E-03 
1701	 9.92885760793594E-03 
1702	 1.00458105303427E-02 
1703	 9.42255335311682E-03 
1704	 9.36277958302405E-03 
1705	 9.38493391031259E-03 
1706	 8.96484503651425E-03 
1707	 8.76675496259011E-03 
1708	 8.1809204884213E-03 
1709	 8.03986502384649E-03 
1710	 8.53668738812207E-03 
1711	 8.22553021400608E-03 
1712	 8.18244752888251E-03 
1713	 8.31336561152323E-03 
1714	 8.34424532329232E-03 
1715	 9.56214646393683E-03 
1716	 8.92883567069197E-03 
1717	 8.01041653143787E-03 
1718	 8.10349205142946E-03 
1719	 8.65172332516548E-03 
1720	 8.8446731223362E-03 
1721	 8.98543671083494E-03 
1722	 9.01452933374012E-03 
1723	 8.38941187234402E-03 
1724	 8.06715262475531E-03 
1725	 8.12644848999785E-03 
1726	 8.24214647868474E-03 
1727	 8.97465028586139E-03 
1728	 9.78358370039517E-03 
1729	 9.89524312881024E-03 
1730	 9.00286814042226E-03 
1731	 8.14732199197248E-03 
1732	 8.28670349423573E-03 
1733	 8.27678449749291E-03 
1734	 7.81046087747677E-03 
1735	 7.65180037365177E-03 
1736	 7.45056535603441E-03 
1737	 7.32876225632891E-03 
1738	 7.91742531732154E-03 
1739	 8.80912994742114E-03 
1740	 8.69117605796476E-03 
1741	 7.76102846935413E-03 
1742	 7.57754536477719E-03 
1743	 0.007513607579017 
1744	 7.07907678671421E-03 
1745	 7.16341939878674E-03 
1746	 7.92997828552509E-03 
1747	 7.9860504476459E-03 
1748	 7.64301567476477E-03 
1749	 7.84578858300532E-03 
1750	 7.96575126306697E-03 
1751	 7.74607152237678E-03 
1752	 7.83097786675361E-03 
1753	 7.77250757370433E-03 
1754	 7.06642105897132E-03 
1755	 7.1655439644085E-03 
1756	 8.08236680842807E-03 
1757	 7.52257676781504E-03 
1758	 7.20438224725458E-03 
1759	 7.84891545009461E-03 
1760	 8.02433840689469E-03 
1761	 7.46324177502481E-03 
1762	 7.80084873151143E-03 
1763	 7.78666163006345E-03 
1764	 5.41996497448913E-03 
1765	 4.86809857502009E-03 
1766	 6.07007617350255E-03 
1767	 5.71500459315616E-03 
1768	 7.82246772931282E-03 
1769	 8.69512973766251E-03 
1770	 6.90636939075903E-03 
1771	 7.44747700617425E-03 
1772	 5.27026453928451E-03 
1773	 4.17995414760049E-03 
1774	 7.49522622598367E-03 
1775	 6.32958325289743E-03 
1776	 6.98411254162217E-03 
1777	 8.70536602386692E-03 
1778	 8.28070284711071E-03 
1779	 8.07651193878687E-03 
1780	 9.1373965617853E-03 
1781	 9.32152823701404E-03 
1782	 9.58245006181628E-03 
1783	 1.12679245075236E-02 
1784	 1.14402302490017E-02 
1785	 9.73334374096273E-03 
1786	 9.57893574351395E-03 
1787	 1.11618311109462E-02 
1788	 0.010488972578363 
1789	 7.00902803089475E-03 
1790	 6.97135064301659E-03 
1791	 5.34635462531096E-03 
1792	 3.50443483945237E-03 
1793	 1.13266893297391E-02 
1794	 1.44785080577564E-02 
1795	 1.49970948241485E-02 
1796	 1.98693762835369E-02 
1797	 1.21329630057131E-02 
1798	 8.00763322134405E-04 
1799	 4.11399488732973E-03 
1800	 1.94841824348151E-02 
1801	 2.78706129593122E-02 
1802	 4.56773069509024E-02 
1803	 5.44807381152672E-02 
1804	 2.89317951133672E-02 
1805	 2.30366367133196E-02 
1806	 3.45702655517273E-02 
1807	 0.037520807623011 
1808	 4.29005348102163E-02 
1809	 6.66183597026826E-02 
1810	 0.115479957587241 
1811	 0.15285797753402 
1812	 0.227761270897802 
1813	 0.297200763790793 
1814	 0.214887971415741 
1815	 0.290976161922041 
1816	 0.441293740481784 
1817	 0.403275254812086 
1818	 0.593805666737853 
1819	 0.414694753986497 
1820	 0.333845318703166 
1821	 0.118180211760863 
1822	 7.69131983522004E-02 
1823	 0.318876440948566 
1824	 0.599798008802913 
1825	 2.23105736552217 
1826	 2.0281501836905 
1827	 0.419374361422025 
1828	 0.30771265685296 
1829	 0.113655537841472 
1830	-1.77807572635976E-02 
1831	 4.22494402693442 
1832	 5.05621115828193 
1833	-4.24459178127756 
1834	-1.05617113999326 
1835	-0.262249697221159 
1836	-6.48140086490031E-03 
1837	-0.527494438299038 
1838	-0.659837472074472 
1839	-0.818038820213891 
1840	-1.53333561968682 
1841	-30.7783474596613 
1842	 1.4472893775579 
1843	 1.17687141468899 
1844	 2.40312761141726 
1845	 3.32680497186307 
1846	-5.0958431240325 
1847	-4.38308137133583 
1848	 29.25282626766 
1849	 1.069966409748 
1850	-0.103739893636239 
1851	 3.97717357043806E-02 
1852	-0.552458475265061 
1853	-1.43961734802619 
1854	-1.349050437197 
1855	-0.585089199677052 
1856	-0.96024719411758 
1857	-1.54755896876872 
1858	-1.79890976554714 
1859	-18.2901145748467 
1860	 3.66587709752988 
1861	-8.75623377033459 
1862	-3.19845722413342 
1863	-0.468584558043191 
1864	-0.13641736211916 
1865	 0.126991958373138 
1866	 1.15510925508477 
1867	 1.39130386078089 
1868	 0.72981330453197 
1869	 1.12853195476522 
1870	 1.35482403654437 
1871	 1.29803718297522 
1872	 1.06772156438882 
1873	-1.33155581289716E-02 
1874	-0.910900801392828 
1875	-1.93635856123858E-02 
1876	-9.88264410112696E-02 
1877	-0.413062262249323 
1878	-0.420398302809432 
1879	-0.365557631243963 
1880	-0.190713396496064 
1881	 0.522895588799083 
1882	 0.232911426783813 
1883	-6.46253319443779E-02 
1884	 0.039082248259941 
1885	 8.15285112030307E-02 
1886	 0.352404369847296 
1887	 0.681187601158544 
1888	 0.658588464433386 
1889	 0.675071430777413 
1890	 6.88693901811384E-03 
1891	 1.04227280181601E-03 
1892	 1.02362419595628 
1893	 13.1834379158993 
1894	-1.55122441645651 
1895	-0.840767209751191 
1896	-1.04865364762096E-02 
1897	 0.259474207279304 
1898	 2.5087243584896 
1899	 17.6536194790484 
1900	 5.55063437546468 
1901	-1.1149337442546 
1902	-1.08074505423064 
1903	-0.266980276237992 
1904	-0.646977880646996 
1905	-0.323288875502785 
1906	-0.197251304283717 
1907	-4.21423917065999E-02 
1908	 2.47057976043721 
1909	-1.85357826148987 
1910	-0.726889587938287 
1911	-0.357153399907385 
1912	-0.824089448113397 
1913	-1.16141401343347 
1914	-0.139241538086717 
1915	 0.163737534072133 
1916	-2.86524119405009 
1917	-0.715870163497295 
1918	-0.493460822453858 
1919	-0.615442562383772 
1920	 30.7783329166524 
1921	 1.70894982582887 
1922	 0.3028874288847 
1923	-1.05221118691665E-02 
1924	-8.69500325534055E-02 
1925	 0.157161334592531 
1926	 0.232059055356303 
1927	 1.21810349099939 
1928	 2.65350946510563 
1929	-0.581279510603871 
1930	 0.352330509035328 
1931	-1.92937700819066 
1932	-0.282272898363865 
1933	 0.192490814495593 
1934	-4.02735980782014E-02 
1935	-4.37444148768427E-02 
1936	 0.158750130805722 
1937	-8.43600924323518E-03 
1938	-7.58303383226137E-03 
1939	-5.76525390544037E-03 
1940	 2.33701240571505E-02 
1941	-7.15263624753907E-02 
1942	-0.101916074990502 
1943	-5.28696702210068E-02 
1944	-1.03785755319421E-02 
1945	 1.54128441285546E-02 
1946	 7.29942475276974E-02 
1947	 5.08346046297031E-02 
1948	 3.68484970610556E-02 
1949	 0.079815704672949 
1950	 0.102921381845634 
1951	 9.38294025562957E-02 
1952	 7.72962646270852E-02 
1953	 4.19926091449514E-02 
1954	-2.77163077277058E-03 
1955	-6.36196921328342E-02 
1956	-8.66245855420336E-02 
1957	-8.08792547799557E-02 
1958	-8.11750271863798E-02 
1959	-5.77259627457083E-02 
1960	-0.02426737252096 
1961	-1.04126728339598E-02 
1962	-7.28016924205778E-03 
1963	-1.48515804902062E-04 
1964	 4.58548686007248E-03 
1965	 4.98644328042349E-03 
1966	 4.49449003199151E-03 
1967	 5.51466773556691E-03 
1968	 2.99969561228707E-03 
1969	-2.42893044185372E-03 
1970	-5.28723917195735E-03 
1971	-5.2357898882871E-03 
1972	-5.60698421245914E-03 
1973	-6.05858359153967E-03 
1974	-6.40503261043181E-03 
1975	-4.97914647278816E-03 
1976	-3.11345419537418E-03 
1977	-3.74047212643868E-03 
1978	-1.83152338596688E-03 
1979	-1.28092992012779E-03 
1980	-1.88312152633029E-03 
1981	-4.90821929492981E-03 
1982	-4.62867060882808E-03 
1983	-4.42076150718947E-03 
1984	-5.43551434511054E-03 
1985	-3.37889233835386E-03 
1986	 1.0673831214523E-03 
1987	 3.63609729693845E-03 
1988	 4.25896953380693E-03 
1989	 2.97203920489788E-03 
1990	-6.15414038935842E-04 
1991	-2.2398724800383E-03 
1992	-1.67836129915714E-03 
1993	-2.79306913036868E-03 
1994	-4.31400675169983E-03 
1995	-5.73159342409515E-03 
1996	-1.03968015883963E-02 
1997	-1.59601502150995E-02 
1998	-1.29405525280154E-02 
1999	-6.3845706390434E-03 
2000	-1.40158854731254E-03 
2001	 1.57831822623979E-03 
2002	-4.88721513982232E-03 
2003	-1.79457385821154E-02 
2004	-2.76046737412597E-02 
2005	-2.76162957175258E-02 
2006	-2.35055526039215E-02 
2007	-1.94113618323816E-02 
2008	-2.05347403182129E-02 
2009	-2.03255894392293E-02 
2010	-2.39974598447324E-02 
2011	-1.96377176806447E-02 
2012	-9.90675682602644E-03 
2013	-6.94394037155694E-03 
2014	-1.60095333613353E-03 
2015	-3.89865869687834E-03 
2016	-2.37862803276367E-03 
2017	 7.48609397038058E-03 
2018	 1.39554206510344E-02 
2019	 1.39595861902137E-02 
2020	 9.70998509811859E-03 
2021	 2.21693932907966E-03 
2022	-3.12058735544599E-03 
2023	-4.0766094522271E-03 
2024	-3.85239692119533E-03 
2025	-2.50985354822584E-04 
2026	-3.39918218700274E-04 
2027	-0.001295686411228 
2028	-1.09353581717972E-03 
2029	-1.50519233251521E-05 
2030	-1.97864021377478E-03 
2031	-3.17319759781481E-03 
2032	-3.55990047045659E-03 
2033	-4.03227101690197E-03 
2034	-4.01596207273746E-03 
2035	-2.00737554650408E-03 
2036	 4.60571149856006E-04 
2037	-1.45941863564904E-03 
2038	-3.34639534456293E-03 
2039	-3.13864026955546E-03 
2040	-1.76322737638878E-03 
2041	-1.2931082118429E-03 
2042	 1.81520942630925E-03 
2043	 1.76893870791198E-03 
2044	-6.32373752917768E-04 
2045	-3.99233031176126E-03 
2046	-4.61737350577229E-03 
2047	-3.76796144468655E-03 
2048	-3.21792398434613E-03 
2049	-1.14428631831306E-04 
2050	 3.18317026759641E-03 
2051	 1.2891170056587E-03 
2052	-5.50138275261173E-04 
2053	 1.77324384977291E-05 
2054	-1.49078619922952E-03 
2055	-3.30497905341222E-03 
2056	-3.73457806977575E-03 
2057	-1.0126342037855E-03 
2058	-1.11995728756095E-03 
2059	-2.91582992685394E-03 
2060	-3.47644596241718E-03 
2061	-3.90693679877444E-03 
2062	-4.91923760232114E-03 
2063	-4.84695010493728E-03 
2064	-4.42144714000914E-03 
2065	-2.77845386791321E-03 
2066	-2.39293077317133E-03 
2067	-4.29512796827242E-03 
2068	-3.92769022597085E-03 
2069	-4.02434391838476E-03 
2070	-5.22127659668665E-03 
2071	-3.27752921206234E-03 
2072	-1.37517436225582E-03 
2073	-1.1938809395185E-03 
2074	-1.81476945570541E-03 
2075	-1.85918300899703E-03 
2076	-3.14938307616927E-03 
2077	-3.4237539105492E-03 
2078	-3.02037138040966E-03 
2079	-2.23640435746756E-03 
2080	-9.29791408962043E-04 
2081	-1.52240861784027E-04 
2082	 5.99598043458608E-04 
2083	 1.37771520514538E-03 
2084	-1.34630826044801E-04 
2085	-1.82126820629065E-03 
2086	-1.97085271002648E-03 
2087	-3.49284939302544E-03 
2088	-3.09427616590186E-03 
2089	-8.04638146895044E-04 
2090	-1.7466172339278E-03 
2091	-2.29955684380656E-03 
2092	-1.72190693105768E-03 
2093	-1.0150874326076E-03 
2094	-1.28603072142584E-03 
2095	-3.77737118826005E-04 
2096	-5.08476198585277E-04 
2097	-3.07749940712056E-03 
2098	-3.21260019714239E-03 
2099	-1.91215244423412E-03 
2100	-1.05191093280532E-03 
2101	-9.77441937888077E-04 
2102	-1.07674164917775E-03 
2103	-1.51861916749874E-03 
2104	-2.53139175025344E-03 
2105	-1.7886889130347E-03 
2106	-2.34371769422981E-03 
2107	-3.62086410839928E-03 
2108	-3.65768792645804E-03 
2109	-2.66333282594344E-03 
2110	-5.46927167984853E-04 
2111	 1.72544610554776E-05 
2112	 7.2892733716548E-04 
2113	 1.06887483197284E-03 
2114	-5.20481743806321E-04 
2115	-2.96195177023977E-04 
2116	 1.46981430841881E-03 
2117	 2.13253261855842E-03 
2118	 3.35934124337658E-03 
2119	 3.66961836477705E-03 
2120	 3.54319910798711E-03 
2121	 1.85781690134647E-03 
2122	 5.85800105130472E-04 
2123	-7.77364833062854E-05 
2124	-3.62943771910493E-04 
2125	 6.30549134513627E-04 
2126	 1.31731544498298E-03 
2127	 1.33814011997698E-03 
2128	 2.22615775873037E-03 
2129	 2.13447945546088E-03 
2130	 1.78360322340094E-03 
2131	 1.72958035277355E-03 
2132	 2.07283120088255E-04 
2133	-1.10075529523812E-03 
2134	-1.28612310851612E-03 
2135	-1.00887507081226E-04 
2136	 6.69819606124307E-05 
2137	 3.41326269380776E-04 
2138	 6.5490478100257E-04 
2139	-1.05884342451943E-04 
2140	 3.29698635583694E-04 
2141	 3.24420712837437E-03 
2142	 3.72544302632082E-03 
2143	 3.33327060302877E-03 
2144	 2.3538321787471E-03 
2145	 2.39759197084312E-03 
2146	 2.75786182918939E-04 
2147	-4.5219624159745E-04 
2148	 7.28198162198815E-04 
2149	 1.23322112425024E-04 
2150	-3.33459965657932E-04 
2151	-1.8438672968453E-03 
2152	-2.90646181045962E-03 
2153	-3.05029782870053E-03 
2154	-3.75080772131257E-03 
2155	-1.97789804542067E-03 
2156	 9.80226725118522E-04 
2157	 2.34241171902994E-03 
2158	 2.74558759559734E-03 
2159	 4.25039432296218E-03 
2160	 6.64273829767156E-03 
2161	 6.55792800482678E-03 
2162	 5.55812561382219E-03 
2163	 4.84065501020062E-03 
2164	 1.6658186042659E-03 
2165	 5.22767333196853E-04 
2166	 2.03573958330173E-03 
2167	 2.12586776159378E-03 
2168	 1.27668700103766E-03 
2169	 5.60239818692472E-04 
2170	-4.76998051466049E-04 
2171	-1.87361634643511E-03 
2172	-1.3890118763404E-03 
2173	 5.19681620821865E-04 
2174	 4.58978518931022E-04 
2175	 1.15328036421598E-03 
2176	 4.13418160283225E-03 
2177	 5.52259083670171E-03 
2178	 5.58777215860684E-03 
2179	 6.4490877411111E-03 
2180	 4.5345107482168E-03 
2181	 1.31337230112772E-03 
2182	 7.52582744149713E-04 
2183	 1.60660064056061E-03 
2184	 1.54114309871358E-03 
2185	 3.51394321637156E-04 
2186	 1.06321061046922E-03 
2187	 3.48494274683523E-03 
2188	 4.60840776209521E-03 
2189	 7.44238192512313E-03 
2190	 6.86001154463938E-03 
2191	 2.15664337418169E-03 
2192	 1.14281164344039E-03 
2193	-1.33950479219529E-04 
2194	-8.27952109863118E-04 
2195	 1.88984344158721E-03 
2196	 2.54181232241033E-03 
2197	 1.88509883431164E-03 
2198	 1.42230781125761E-03 
2199	-3.80957339818638E-05 
2200	 5.00798680258676E-04 
2201	 1.4122784270484E-03 
2202	 1.10057963896418E-03 
2203	 4.3243261060713E-03 
2204	 3.59424631848461E-03 
2205	 1.46162629435721E-03 
2206	 1.43009936313366E-03 
2207	-1.07317435535766E-03 
2208	-1.79785596837433E-03 
2209	-1.80055618542548E-04 
2210	 4.3529767516254E-04 
2211	 1.30218588619526E-03 
2212	 2.90433294749075E-03 
2213	 3.87754000847221E-03 
2214	 4.18671951341479E-03 
2215	 4.68209907982241E-03 
2216	 4.52154042051972E-03 
2217	 4.18384977098221E-03 
2218	 2.14398099264236E-03 
2219	 1.05040146236931E-03 
2220	 7.61635761530565E-04 
2221	 5.54922403117037E-04 
2222	-5.39014935214212E-04 
2223	-6.7757739558662E-04 
2224	-6.54377761761516E-04 
2225	 9.39657269462777E-04 
2226	 4.7335530018296E-03 
2227	 7.05270268591946E-03 
2228	 1.22764206887921E-02 
2229	 1.28342338295462E-02 
2230	 6.70609363443563E-03 
2231	 5.26398214022515E-03 
2232	 5.3634146600031E-03 
2233	 4.3837307801921E-03 
2234	 4.83137619789574E-03 
2235	 5.98972529440423E-03 
2236	 4.78059022091028E-03 
2237	-1.47666972594313E-04 
2238	-1.72718088028136E-03 
2239	-1.78706309629224E-04 
2240	-1.52421079067251E-03 
2241	-1.31395205590191E-03 
2242	-2.14859397137833E-03 
2243	-4.14799950429494E-03 
2244	-2.13445635121977E-03 
2245	-1.14732031301242E-03 
2246	-7.87988467860335E-04 
2247	-3.86663601121299E-04 
2248	 4.76544484750394E-04 
2249	 3.27975520930274E-03 
2250	 4.18699063448429E-03 
2251	 5.4932840742655E-03 
2252	 7.43992297391359E-03 
2253	 5.73715237159433E-03 
2254	 4.9555417340375E-03 
2255	 4.57418731663338E-03 
2256	 9.02899902859053E-04 
2257	-7.72245430530129E-04 
2258	-1.02650218430063E-03 
2259	-8.51540473353944E-04 
2260	-1.46716402040104E-03 
2261	-2.72874896620928E-03 
2262	-2.53349019214938E-03 
2263	-1.98062182883675E-03 
2264	-1.58607818661033E-03 
2265	 4.46670817343039E-04 
2266	 1.18579182011654E-03 
2267	 6.55782913168812E-04 
2268	 9.39240162870073E-04 
2269	 1.95865988688015E-03 
2270	 2.68118626122256E-03 
2271	 2.89143094869313E-03 
2272	 2.31307792691223E-03 
2273	 9.12400216328374E-04 
2274	 1.07827788238401E-03 
2275	 3.75570642895176E-03 
2276	 3.33942803996827E-03 
2277	-2.28037474373382E-04 
2278	-9.09591368756612E-04 
2279	-3.14856397088844E-03 
2280	-4.28413656709796E-03 
2281	-2.36806991260272E-03 
2282	 1.82076461615267E-03 
2283	-5.29408795610773E-03 
2284	-1.02366511662271E-02 
2285	-7.12892452764724E-03 
2286	-6.39643822639785E-03 
2287	-2.32217888211346E-03 
2288	 1.46896526078885E-03 
2289	-4.3395116249188E-03 
2290	-7.3824902788802E-03 
2291	-3.10352519609228E-03 
2292	 1.49724426167235E-03 
2293	 6.09443399983979E-03 
2294	 9.80262680926412E-03 
2295	 8.04423903203255E-03 
2296	 3.18874982536784E-03 
2297	-1.03500429026139E-03 
2298	-5.40067194627065E-03 
2299	-5.52839245279137E-03 
2300	 7.51400486162952E-04 
2301	 4.60004158265512E-03 
2302	 4.06679596339221E-03 
2303	 4.57201971213602E-03 
2304	 6.19511247681005E-03 
2305	 3.80304809864909E-03 
2306	-9.03908602433053E-04 
2307	-7.00327506149852E-04 
2308	-3.59266115135907E-03 
2309	-4.66999710356707E-03 
2310	 1.17092667449024E-03 
2311	 3.87206761965175E-03 
2312	 5.68911128927459E-03 
2313	 7.76305544450926E-03 
2314	 1.04242388101462E-02 
2315	 1.15689723556276E-02 
2316	 7.40569837934083E-03 
2317	 4.28128922750427E-03 
2318	 3.09296259262557E-03 
2319	 6.15548681829795E-04 
2320	 1.76822897193577E-04 
2321	 1.05884754196344E-03 
2322	-1.08168917026642E-03 
2323	-7.29877940247322E-03 
2324	-9.84039045685656E-03 
2325	-4.49799080085815E-03 
2326	-3.68804366560876E-03 
2327	-6.17992648635377E-03 
2328	-9.60497584660877E-03 
2329	-2.16627951947886E-02 
2330	-0.025294768589302 
2331	-0.019967842904028 
2332	-1.66381847754978E-02 
2333	-1.29808041588326E-02 
2334	-2.09571643479341E-02 
2335	-3.19918344056458E-02 
2336	-3.06330728613174E-02 
2337	-2.25952341294729E-02 
2338	-1.39476550068639E-02 
2339	-1.19664781755221E-02 
2340	-1.69812041098393E-02 
2341	-1.94736114209903E-02 
2342	-1.03495897156529E-02 
2343	 1.16770958247941E-03 
2344	 5.93205574798248E-03 
2345	 6.58270652382461E-03 
2346	-7.7350740854976E-03 
2347	-1.83434158930296E-02 
2348	-1.18967952402459E-02 
2349	-1.50591386592844E-02 
2350	-5.47033789124347E-03 
2351	 1.54769729590641E-02 
2352	 9.24182013185096E-03 
2353	-2.06711528147257E-04 
2354	 3.45429120758505E-04 
2355	-5.60622563308418E-03 
2356	-6.16924964175096E-03 
2357	-3.19101594454766E-04 
2358	-6.78426753403583E-03 
2359	-0.026466092532939 
2360	-4.31081406366862E-02 
2361	-4.20148440147784E-02 
2362	-3.40635352771101E-02 
2363	-4.17644027530148E-02 
2364	-4.74416225399896E-02 
2365	-3.63829178549317E-02 
2366	-3.02426855299747E-02 
2367	-1.69030440651214E-02 
2368	-8.54488661640066E-03 
2369	-1.60990274143312E-02 
2370	 4.10577884200263E-03 
2371	 2.07883912983466E-02 
2372	 3.50973882018196E-02 
2373	 4.96818240944448E-02 
2374	 3.11367492050757E-02 
2375	 0.026168104478605 
2376	-1.74555214886226E-03 
2377	-4.16642508187862E-02 
2378	-2.21139854733617E-02 
2379	-1.33347445073851E-02 
2380	-1.37645137140639E-02 
2381	 5.14985348251821E-02 
2382	 0.071328621723072 
2383	 0.010672773603397 
2384	 2.92783179941612E-02 
2385	 4.05691102756838E-02 
2386	-8.92480141305525E-03 
2387	 0.021216316295192 
2388	 6.98445776932991E-02 
2389	 3.94939843256474E-02 
2390	 4.78125948435709E-02 
2391	 6.42480035926463E-02 
2392	 5.73435586504583E-02 
2393	 0.135738634513644 
2394	 0.190851490543909 
2395	 0.159031214557122 
2396	 0.117284520561221 
2397	 4.63487688966123E-02 
2398	-1.57951337954991E-02 
2399	-3.17986942549356E-02 
2400	-6.84206242389205E-02 
2401	-0.107698649941741 
2402	-9.07392298688888E-02 
2403	-8.76508876695331E-02 
2404	-0.128386568418278 
2405	-0.108599273896424 
2406	-0.115983168941463 
2407	-0.185159758174023 
2408	-0.157555630942399 
2409	-0.163970186525566 
2410	-0.244154971925241 
2411	-0.219102083130546 
2412	-0.121047080900071 
2413	-6.82011725286733E-02 
2414	-0.160027249808008 
2415	-0.243764383092908 
2416	-0.189812470822338 
2417	-0.13857253005647 
2418	 0.06496365286879 
2419	 0.305088860029142 
2420	 0.17785617738015 
2421	-2.40930739671096E-02 
2422	-0.154950386165134 
2423	-0.278461127927516 
2424	-0.338569661485994 
2425	-0.304578303523944 
2426	-0.102105111684756 
2427	-3.32855320839885E-02 
2428	-9.94455698947061E-02 
2429	-6.39818092655525E-02 
2430	-6.85721383823648E-02 
2431	-9.52094132936483E-02 
2432	 1.38307159887878E-02 
2433	-1.46529071738381E-02 
2434	-0.172896762912809 
2435	-0.162212904697428 
2436	-0.101368927922365 
2437	-5.59680323345356E-02 
2438	 0.105645134044031 
2439	 0.244982311221968 
2440	 0.398907768508364 
2441	 0.279233359009463 
2442	 0.102024488104487 
2443	 0.110922532685939 
2444	-1.51601998827311E-02 
2445	-5.67614355981506E-02 
2446	 5.57368147158229E-02 
2447	 8.35746708767494E-02 
2448	 0.159013484198061 
2449	 0.499047159167345 
2450	 0.790430325414671 
2451	 7.67361674794397 
2452	-0.368818131014791 
2453	-0.239958879320602 
2454	-0.14104305382178 
2455	-0.32853613408883 
2456	-0.451721253687271 
2457	-0.494760442420855 
2458	-0.421395190617159 
2459	-0.280266080687784 
2460	-0.22079397129511 
2461	-0.121118116670583 
2462	 0.01499511563316 
2463	-1.08941845794149E-02 
2464	-0.475892146823102 
2465	-1.89003143152712 
2466	-1.351331408206 
2467	-1.93253478227566 
2468	-1.13743279763931 
2469	-0.197569201937527 
2470	 0.472632133171548 
2471	-1.52184530525406 
2472	 1.76565033842098 
2473	 3.86073792964937 
2474	 2.52952955053314 
2475	 3.61623574237684 
2476	-20.2589242009422 
2477	-0.854961107781771 
2478	-0.381199758300507 
2479	-0.208070366781271 
2480	-0.538786063634055 
2481	-30.5337244615718 
2482	 1.37657064681404 
2483	-0.137381018056224 
2484	 0.307487827110591 
2485	 0.296431304071535 
2486	 9.44730515877249E-02 
2487	 9.30363961602257E-02 
2488	 0.557289759787859 
2489	-5.62510231714816 
2490	-1.01187807512293 
2491	-0.858820842021082 
2492	-0.57160021394915 
2493	-1.49231665803549 
2494	 0.265128169037392 
2495	 0.212961912099502 
2496	 0.315418917327317 
2497	 0.892924533280207 
2498	 1.29637359697245 
2499	-0.645011939046757 
2500	-0.949118089469369 
