Wavelength	rt0726close200004.asd
350	 4.66004592345737E-02 
351	 0.046113199852276 
352	 4.62008546310505E-02 
353	 4.65413708622631E-02 
354	 4.67889354254279E-02 
355	 4.68886262872909E-02 
356	 4.67901148133544E-02 
357	 4.65360195891162E-02 
358	 4.63320467634505E-02 
359	 4.69989153044587E-02 
360	 0.046804367554957 
361	 4.60654927919599E-02 
362	 4.63571790708637E-02 
363	 4.65317538174377E-02 
364	 4.64144865505564E-02 
365	 4.62055529861077E-02 
366	 4.64839194042328E-02 
367	 4.62707641780074E-02 
368	 4.64299678724164E-02 
369	 4.74184666619419E-02 
370	 4.64586741805885E-02 
371	 4.64117659496094E-02 
372	 4.70459833044064E-02 
373	 4.65716740355229E-02 
374	 4.70796321832524E-02 
375	 4.73154083335862E-02 
376	 4.69788273388795E-02 
377	 4.74866847253954E-02 
378	 4.72132722493173E-02 
379	 0.0467995079048 
380	 4.69975814012896E-02 
381	 4.71347326885324E-02 
382	 0.047824631010481 
383	 4.82219268149113E-02 
384	 4.73198202875932E-02 
385	 4.80095121146015E-02 
386	 4.85025514733994E-02 
387	 4.82016225688569E-02 
388	 4.82373005828255E-02 
389	 4.84111865360765E-02 
390	 0.048538771793156 
391	 4.85830638871738E-02 
392	 4.89228008749429E-02 
393	 4.89389121394962E-02 
394	 0.048895756814238 
395	 4.91822404692971E-02 
396	 4.89421008336212E-02 
397	 4.90172284061768E-02 
398	 4.93856522307477E-02 
399	 4.92767273011288E-02 
400	 4.95502463262445E-02 
401	 4.97942903106594E-02 
402	 4.96815445593037E-02 
403	 4.94335039397049E-02 
404	 4.95073252779726E-02 
405	 4.98044542161221E-02 
406	 5.00335774901515E-02 
407	 0.050250244083541 
408	 5.02665669861856E-02 
409	 5.01639688375762E-02 
410	 5.02763398528401E-02 
411	 5.05106272956712E-02 
412	 5.06661472740602E-02 
413	 0.05069624263713 
414	 5.09866233367504E-02 
415	 5.10777549865543E-02 
416	 5.11097825568679E-02 
417	 5.13807792489208E-02 
418	 5.15470067572308E-02 
419	 0.051646014543171 
420	 5.17789592243681E-02 
421	 5.20734522755542E-02 
422	 5.22102708739579E-02 
423	 5.23938212622675E-02 
424	 5.27497246002736E-02 
425	 5.28685517526816E-02 
426	 5.30285288306149E-02 
427	 5.33318936454027E-02 
428	 0.053735479372652 
429	 5.38380095794866E-02 
430	 5.40457183198052E-02 
431	 5.44832906658164E-02 
432	 5.48609527922325E-02 
433	 5.49190866756234E-02 
434	 0.055049473447567 
435	 5.55332953747347E-02 
436	 5.59048240574437E-02 
437	 5.61837282262966E-02 
438	 5.64144988616564E-02 
439	 5.66591769765376E-02 
440	 5.69213960395156E-02 
441	 5.73379011706188E-02 
442	 5.78140850402321E-02 
443	 5.79020367565961E-02 
444	 5.80451960568445E-02 
445	 5.83239383769606E-02 
446	 5.86882173719021E-02 
447	 5.90294826148064E-02 
448	 5.92821876495556E-02 
449	 5.94444711327314E-02 
450	 5.95703518918281E-02 
451	 5.97520394419537E-02 
452	 5.98723008105274E-02 
453	 5.99402602010792E-02 
454	 6.03087545604085E-02 
455	 6.04573374557269E-02 
456	 6.05632912754528E-02 
457	 6.09131927224835E-02 
458	 6.09304701240626E-02 
459	 6.09343017908749E-02 
460	 6.10554070419868E-02 
461	 6.11867857883319E-02 
462	 6.12609994968208E-02 
463	 6.14118938878475E-02 
464	 6.16895657234949E-02 
465	 6.18115120128289E-02 
466	 6.18138851467862E-02 
467	 6.19127648773432E-02 
468	 6.23149894105309E-02 
469	 0.062426721375703 
470	 6.24663630999032E-02 
471	 6.25819271794057E-02 
472	 6.27204139438256E-02 
473	 6.29525755384482E-02 
474	 6.31213047220087E-02 
475	 6.31311187359597E-02 
476	 6.32979951090913E-02 
477	 0.063575978929579 
478	 6.38069553737604E-02 
479	 6.38171626077648E-02 
480	 0.064144799780949 
481	 6.44490224865847E-02 
482	 6.45452407861228E-02 
483	 6.47966061902448E-02 
484	 6.51436425976828E-02 
485	 6.55032313548379E-02 
486	 6.57692978099658E-02 
487	 0.065819220117467 
488	 6.60609965712058E-02 
489	 6.64955036400171E-02 
490	 6.67290562934376E-02 
491	 6.70635948807171E-02 
492	 6.74563804615694E-02 
493	 6.78234923256815E-02 
494	 0.068154737172953 
495	 0.06848727599072 
496	 6.88385389356469E-02 
497	 6.92207735778384E-02 
498	 6.96875946935316E-02 
499	 7.01844702564066E-02 
500	 7.06296828009671E-02 
501	 7.09137694431097E-02 
502	 7.13411471218649E-02 
503	 7.18830768807657E-02 
504	 7.24127716074309E-02 
505	 7.28428130211598E-02 
506	 7.33697291101655E-02 
507	 7.39336392659182E-02 
508	 7.42905339420141E-02 
509	 7.47180841083201E-02 
510	 7.52835734087258E-02 
511	 7.59235599683295E-02 
512	 7.63584500782047E-02 
513	 7.68275352771596E-02 
514	 7.74488003926769E-02 
515	 7.82213358187637E-02 
516	 0.07872933682985 
517	 7.92927774322367E-02 
518	 7.99856973276931E-02 
519	 8.05042276966505E-02 
520	 8.10131733209981E-02 
521	 8.16118843857836E-02 
522	 8.23301344544458E-02 
523	 8.30261275004205E-02 
524	 8.35961109164986E-02 
525	 8.41675095629116E-02 
526	 8.49962718815261E-02 
527	 0.085768286273989 
528	 8.63861780113172E-02 
529	 8.69010601891255E-02 
530	 8.75788462788362E-02 
531	 8.83155863485913E-02 
532	 8.90573440491387E-02 
533	 8.97667016521391E-02 
534	 9.04494165057198E-02 
535	 9.11918069804485E-02 
536	 0.091992478220827 
537	 9.27426025032146E-02 
538	 9.34963060499451E-02 
539	 9.42711826068012E-02 
540	 9.50660025710502E-02 
541	 0.095839998962529 
542	 9.66757098488285E-02 
543	 9.75127539848995E-02 
544	 9.82279173714741E-02 
545	 0.099000329169472 
546	 9.98420270521091E-02 
547	 0.100714468651673 
548	 0.101533467133625 
549	 0.1022988844408 
550	 0.103050347112841 
551	 0.103841901947554 
552	 0.104693151048213 
553	 0.105522014368215 
554	 0.106316628070644 
555	 0.107144376908937 
556	 0.107882245358296 
557	 0.108623138964588 
558	 0.109430494010386 
559	 0.110114143183043 
560	 0.110892474370606 
561	 0.111725504178843 
562	 0.112422319585458 
563	 0.112989062830783 
564	 0.113576757627116 
565	 0.114236074203799 
566	 0.114790380344928 
567	 0.115294873990139 
568	 0.115848052113554 
569	 0.116503851436581 
570	 0.116959343749491 
571	 0.117410428398173 
572	 0.117960311499551 
573	 0.118572688433472 
574	 0.118999980501824 
575	 0.119355068858882 
576	 0.119785224100422 
577	 0.120261481697685 
578	 0.120705067290164 
579	 0.121074263288968 
580	 0.121375418748065 
581	 0.121776023726585 
582	 0.122257815404654 
583	 0.122702837304198 
584	 0.122830280621591 
585	 0.123161035690859 
586	 0.123528852784357 
587	 0.12362295524364 
588	 0.123884164453848 
589	 0.124099566059691 
590	 0.124246572348236 
591	 0.124549535919246 
592	 0.12478720789658 
593	 0.124955507299782 
594	 0.125122569010462 
595	 0.125481885951793 
596	 0.125596946759483 
597	 0.125551761296185 
598	 0.125707456455836 
599	 0.125947077452483 
600	 0.126153791068217 
601	 0.126240174838065 
602	 0.12615202652459 
603	 0.126337715369212 
604	 0.126633264294337 
605	 0.126750664969188 
606	 0.126936253962029 
607	 0.127026817822688 
608	 0.127031913552357 
609	 0.127150785218278 
610	 0.127315604685282 
611	 0.127375063139583 
612	 0.12731164931218 
613	 0.127566976292548 
614	 0.127718175727904 
615	 0.127699088866174 
616	 0.127668317731923 
617	 0.127817404638115 
618	 0.127929281614684 
619	 0.127920900011696 
620	 0.127992170055286 
621	 0.128109740835158 
622	 0.1282645469704 
623	 0.12841334915572 
624	 0.128352531337353 
625	 0.128322769165134 
626	 0.128384788102637 
627	 0.128417243986968 
628	 0.128573519662788 
629	 0.128708375388988 
630	 0.128727784163399 
631	 0.128800458542108 
632	 0.128977881348125 
633	 0.129138585847822 
634	 0.129126073934435 
635	 0.12925553579394 
636	 0.129321151595108 
637	 0.129273544165265 
638	 0.129351428432711 
639	 0.129536953870483 
640	 0.129709045555912 
641	 0.129774725646789 
642	 0.129927127432392 
643	 0.129983565462205 
644	 0.129961650598374 
645	 0.130041168072372 
646	 0.130156509205928 
647	 0.13025906254175 
648	 0.130317844827705 
649	 0.130335066886644 
650	 0.130445566629249 
651	 0.130542006331323 
652	 0.130464453273131 
653	 0.130409598183677 
654	 0.130348381962652 
655	 0.130268559123912 
656	 0.130210309354221 
657	 0.129939746921039 
658	 0.129652138146332 
659	 0.129497277830135 
660	 0.129272632335767 
661	 0.128996872002395 
662	 0.128751063599503 
663	 0.128627021647914 
664	 0.128304201679643 
665	 0.128039492563717 
666	 0.127932920421911 
667	 0.127673584514989 
668	 0.127511953786442 
669	 0.12749569878099 
670	 0.127574958294093 
671	 0.12755644654786 
672	 0.127678621047318 
673	 0.127953723514293 
674	 0.12817162215555 
675	 0.128381214438692 
676	 0.128589792740855 
677	 0.12883802592253 
678	 0.129264974752217 
679	 0.129716955443625 
680	 0.130193516787622 
681	 0.130734579679977 
682	 0.131116087088092 
683	 0.131675591997969 
684	 0.132451656809399 
685	 0.133093236933194 
686	 0.133620658002894 
687	 0.134228427021952 
688	 0.135012266391318 
689	 0.135643964652465 
690	 0.136314152214057 
691	 0.136969842665731 
692	 0.137448801182789 
693	 0.138041630343966 
694	 0.13861160454771 
695	 0.139084412133498 
696	 0.139650709841372 
697	 0.139912031835594 
698	 0.140034130379971 
699	 0.14026924761511 
700	 0.140430959919824 
701	 0.140591124082168 
702	 0.140797725980355 
703	 0.141054243733411 
704	 0.141068470283677 
705	 0.141053901233688 
706	 0.141116056727672 
707	 0.140927315813959 
708	 0.140962818247798 
709	 0.141021785628922 
710	 0.140747506548996 
711	 0.1404154485354 
712	 0.14021503146795 
713	 0.140052567786767 
714	 0.139542254007871 
715	 0.138889335779378 
716	 0.138333117748125 
717	 0.138048243735777 
718	 0.137419679199815 
719	 0.136887657127441 
720	 0.136462349823834 
721	 0.13591271321597 
722	 0.135374998049737 
723	 0.134753074772168 
724	 0.134067862104073 
725	 0.133331385399024 
726	 0.132351543052283 
727	 0.13145557901009 
728	 0.130779454273547 
729	 0.129545364382885 
730	 0.128157984917753 
731	 0.126962479441669 
732	 0.12607524191049 
733	 0.125163352415935 
734	 0.124246972479662 
735	 0.123409120589669 
736	 0.122775129232411 
737	 0.122287249171904 
738	 0.122036712811924 
739	 0.12205916866508 
740	 0.12214733629484 
741	 0.122082957990757 
742	 0.121994123740851 
743	 0.122138254724662 
744	 0.122177311998706 
745	 0.122176617734962 
746	 0.122245217428392 
747	 0.122493527194953 
748	 0.122601534939911 
749	 0.122624268319402 
750	 0.12271443624354 
751	 0.123021021653513 
752	 0.123112563797706 
753	 0.123055497633183 
754	 0.123160622925357 
755	 0.123205812266893 
756	 0.123322972203628 
757	 0.123513249628429 
758	 0.123536035209134 
759	 0.12338114057172 
760	 0.123252197828499 
761	 0.123440095631659 
762	 0.123330831963486 
763	 0.123500242703824 
764	 0.123885443153192 
765	 0.12422892974008 
766	 0.124409156929058 
767	 0.124661907065454 
768	 0.124984126392508 
769	 0.125149134524225 
770	 0.125367808654638 
771	 0.12556348152542 
772	 0.125689777162756 
773	 0.125947104970735 
774	 0.126113809348933 
775	 0.126238096156577 
776	 0.126477951692028 
777	 0.126874775214168 
778	 0.127134005067334 
779	 0.127243273159212 
780	 0.127496258460515 
781	 0.127939630449335 
782	 0.128228591683446 
783	 0.128231628265681 
784	 0.128446013254326 
785	 0.128806101795007 
786	 0.129121204321763 
787	 0.129233804006114 
788	 0.129502450617281 
789	 0.129754962754109 
790	 0.130014752463768 
791	 0.130451430410006 
792	 0.130817728641831 
793	 0.131005806916926 
794	 0.131081073444066 
795	 0.131341815159113 
796	 0.131478915531276 
797	 0.131669341637826 
798	 0.132045492693643 
799	 0.132090073080506 
800	 0.132223661895265 
801	 0.132394538697937 
802	 0.13237652802751 
803	 0.132813179761281 
804	 0.132958554448984 
805	 0.132747546036569 
806	 0.132931810310278 
807	 0.13270056607291 
808	 0.132384699416198 
809	 0.132304809405157 
810	 0.132160486333894 
811	 0.131980369781349 
812	 0.131703491349516 
813	 0.131293918274984 
814	 0.131026154332484 
815	 0.130759728876955 
816	 0.130313859588417 
817	 0.129629790103655 
818	 0.129584449882278 
819	 0.129250678831803 
820	 0.128406388421 
821	 0.127892611231597 
822	 0.127033114404045 
823	 0.125906196831148 
824	 0.12476636927104 
825	 0.123611904854495 
826	 0.122505725926438 
827	 0.121242015354409 
828	 0.119642420852573 
829	 0.117861783993271 
830	 0.116416141880496 
831	 0.1152535619024 
832	 0.113987605423283 
833	 0.113098917415089 
834	 0.112416106859838 
835	 0.111856804473786 
836	 0.111564345412632 
837	 0.111108048716622 
838	 0.110516746487604 
839	 0.109953979640766 
840	 0.10963239559476 
841	 0.109356594213734 
842	 0.109065838248249 
843	 0.108734035494246 
844	 0.108226896090624 
845	 0.107922887694076 
846	 0.107717418876559 
847	 0.107216915017408 
848	 0.106707484109907 
849	 0.106700598897886 
850	 0.106887618799 
851	 0.106014373341182 
852	 0.105729034813399 
853	 0.105530212911255 
854	 0.105058487698292 
855	 0.105244872653079 
856	 0.104779001495819 
857	 0.104255978939426 
858	 0.104309327210498 
859	 0.103732338715037 
860	 0.103303513821662 
861	 0.103224477122159 
862	 0.103279320120776 
863	 0.102838472444261 
864	 0.102260184609217 
865	 0.101979633856292 
866	 0.102244158246436 
867	 0.10152320001783 
868	 0.101069787559389 
869	 0.101188093656588 
870	 0.100523324010437 
871	 0.100291913105596 
872	 0.100037479318508 
873	 9.93816414411131E-02 
874	 9.89023392995116E-02 
875	 9.85799368137127E-02 
876	 9.80925920662771E-02 
877	 9.73407202620414E-02 
878	 0.097467454083558 
879	 9.68601091929169E-02 
880	 9.59171012455083E-02 
881	 9.57186394476716E-02 
882	 9.50881010116883E-02 
883	 9.47497571327743E-02 
884	 9.45193227398327E-02 
885	 9.36585274215158E-02 
886	 9.34198730537085E-02 
887	 9.30452673894204E-02 
888	 9.23976138763148E-02 
889	 9.22270807962729E-02 
890	 9.17952596760594E-02 
891	 9.14932513605921E-02 
892	 9.13296685395384E-02 
893	 9.02377567579822E-02 
894	 8.99736099782855E-02 
895	 9.00311752081061E-02 
896	 8.96393790991277E-02 
897	 8.95839925985699E-02 
898	 8.88817431661788E-02 
899	 8.81304533348494E-02 
900	 8.79466400179758E-02 
901	 0.08698139263334 
902	 8.63381629663459E-02 
903	 8.61613601961748E-02 
904	 8.60272830456104E-02 
905	 8.46528038092194E-02 
906	 8.44253317590007E-02 
907	 8.51130903575849E-02 
908	 8.45814778473747E-02 
909	 8.32991264182603E-02 
910	 8.20671735072931E-02 
911	 8.13650951357622E-02 
912	 8.11516242865824E-02 
913	 8.07056664565472E-02 
914	 7.94375302111514E-02 
915	 7.78727775532727E-02 
916	 7.74282019940118E-02 
917	 7.58957629386723E-02 
918	 7.50201846405246E-02 
919	 7.49727874417188E-02 
920	 7.32967185134612E-02 
921	 7.13174178097262E-02 
922	 6.97256148022199E-02 
923	 6.87892677640599E-02 
924	 6.81304212861462E-02 
925	 6.75359377480231E-02 
926	 6.65282959999826E-02 
927	 6.49208763372776E-02 
928	 6.39231279545425E-02 
929	 0.063044738014069 
930	 6.15646461982072E-02 
931	 5.90428112810211E-02 
932	 0.058444824412952 
933	 5.87186787172998E-02 
934	 5.77866638226045E-02 
935	 5.45651473797512E-02 
936	 5.17800280730829E-02 
937	 4.78691515213853E-02 
938	 0.047076566057281 
939	 5.10670542928127E-02 
940	 4.55565495085652E-02 
941	 4.28514571120809E-02 
942	 4.25155804048892E-02 
943	 0.0390956816749 
944	 0.039861923874478 
945	 0.038581684397773 
946	 3.54508752499193E-02 
947	 3.44283371773017E-02 
948	 3.30291029280533E-02 
949	 3.15272364316149E-02 
950	 2.97618981554731E-02 
951	 2.76479840820819E-02 
952	 2.78759201344725E-02 
953	 2.60917913600754E-02 
954	 2.56649569523304E-02 
955	 3.18128136741182E-02 
956	 2.60294071139701E-02 
957	 2.05370385954938E-02 
958	 0.021999148722894 
959	 2.81818836432474E-02 
960	 2.27779474356536E-02 
961	 2.23558065094856E-02 
962	 2.54714245665169E-02 
963	 1.95837049408679E-02 
964	 2.20064746313537E-02 
965	 2.31947100533203E-02 
966	 2.19576828092522E-02 
967	 2.35648177213316E-02 
968	 2.15469992280407E-02 
969	 0.019438520547071 
970	 1.94770723369883E-02 
971	 2.12868920915171E-02 
972	 1.97790697977212E-02 
973	 1.95793791018272E-02 
974	 2.18701165435963E-02 
975	 2.32211915113133E-02 
976	 2.11447913796499E-02 
977	 2.03419691133355E-02 
978	 2.11180630301213E-02 
979	 2.00044663978919E-02 
980	 0.021785801026339 
981	 0.02208121532115 
982	 2.07789540169488E-02 
983	 2.12019375225957E-02 
984	 1.93412520409801E-02 
985	 1.96939674865537E-02 
986	 2.21771567577525E-02 
987	 2.28407755464604E-02 
988	 2.22666210487544E-02 
989	 2.09450340540745E-02 
990	 2.10470573275947E-02 
991	 2.42189346055421E-02 
992	 2.12470009771407E-02 
993	 2.03973556182432E-02 
994	 2.26161318028514E-02 
995	 2.31303086462118E-02 
996	 2.33254517253809E-02 
997	 2.24620614814386E-02 
998	 2.27151502348424E-02 
999	 2.58005649603071E-02 
1000	 2.09916534573189E-02 
1001	 2.15094664387836E-02 
1002	 2.12263938267011E-02 
1003	 2.10182106306268E-02 
1004	 2.10818832134407E-02 
1005	 2.12599789062044E-02 
1006	 2.14107569132708E-02 
1007	 2.13747216590046E-02 
1008	 2.20277363713673E-02 
1009	 2.23147319257761E-02 
1010	 2.29302730051416E-02 
1011	 2.39606130792575E-02 
1012	 2.45979174407754E-02 
1013	 2.56409386185205E-02 
1014	 2.62851058712556E-02 
1015	 2.64588565811234E-02 
1016	 2.70193020190179E-02 
1017	 0.027755890210425 
1018	 2.82125887210243E-02 
1019	 2.87086388681127E-02 
1020	 2.91263999184682E-02 
1021	 2.91110338914937E-02 
1022	 2.95847771897413E-02 
1023	 3.03987525110455E-02 
1024	 3.10794328475514E-02 
1025	 3.20992398698607E-02 
1026	 3.27601939103901E-02 
1027	 3.30568350751829E-02 
1028	 3.27432906668138E-02 
1029	 3.30514185159689E-02 
1030	 3.32578310304976E-02 
1031	 3.38075093651784E-02 
1032	 0.034861733361343 
1033	 3.56552697240453E-02 
1034	 3.62251514724781E-02 
1035	 3.71263484982114E-02 
1036	 0.038367457304002 
1037	 3.93900477328166E-02 
1038	 4.05867107003055E-02 
1039	 4.16997479072437E-02 
1040	 4.22926634471091E-02 
1041	 4.28106910800152E-02 
1042	 4.30375729532586E-02 
1043	 4.27419359839407E-02 
1044	 0.043136911939299 
1045	 4.35393385218116E-02 
1046	 4.41273910828433E-02 
1047	 4.52088659288967E-02 
1048	 4.59958848201371E-02 
1049	 4.65257782147122E-02 
1050	 4.73881114297242E-02 
1051	 4.87536777038901E-02 
1052	 4.96393118966381E-02 
1053	 5.06343604331179E-02 
1054	 5.11854252686981E-02 
1055	 5.06765913015139E-02 
1056	 5.09177067435458E-02 
1057	 5.13799331624629E-02 
1058	 5.20499556225383E-02 
1059	 5.24781474270614E-02 
1060	 5.33299226495186E-02 
1061	 5.37501046349233E-02 
1062	 5.35794113372141E-02 
1063	 5.38688391406639E-02 
1064	 5.46293268358311E-02 
1065	 5.48055957181782E-02 
1066	 5.47010593915867E-02 
1067	 5.47009854041155E-02 
1068	 5.40748009595424E-02 
1069	 5.41160747102929E-02 
1070	 5.50292829969509E-02 
1071	 5.53019154963236E-02 
1072	 5.54937463252327E-02 
1073	 5.56875674910505E-02 
1074	 5.57057792432039E-02 
1075	 5.51112148142325E-02 
1076	 5.50326192584145E-02 
1077	 5.55147945771542E-02 
1078	 5.52199078391953E-02 
1079	 0.054394691202268 
1080	 5.41453036125447E-02 
1081	 5.38783559670834E-02 
1082	 5.34398478969041E-02 
1083	 5.32649406447861E-02 
1084	 5.30409151358544E-02 
1085	 5.26100300893891E-02 
1086	 5.20821848840186E-02 
1087	 5.14420749574992E-02 
1088	 5.10399932393548E-02 
1089	 5.05131683366528E-02 
1090	 5.01460287060268E-02 
1091	 4.96791136356459E-02 
1092	 4.97863676457982E-02 
1093	 4.92176251832282E-02 
1094	 4.78328165017918E-02 
1095	 4.70687744423534E-02 
1096	 4.62565100693799E-02 
1097	 4.57293964278245E-02 
1098	 0.045805722159626 
1099	 4.54374701426992E-02 
1100	 4.53839524549147E-02 
1101	 4.45549889964313E-02 
1102	 4.23870104190932E-02 
1103	 4.14100365935373E-02 
1104	 4.04783967051475E-02 
1105	 3.98785963232929E-02 
1106	 4.03599375554148E-02 
1107	 4.02658134649172E-02 
1108	 4.01847414032254E-02 
1109	 0.039500330291451 
1110	 3.89976785057226E-02 
1111	 3.89607855115333E-02 
1112	 3.83364448715217E-02 
1113	 3.60764858177232E-02 
1114	 3.58522152653166E-02 
1115	 3.76996793974485E-02 
1116	 3.70195628273702E-02 
1117	 3.57101813174613E-02 
1118	 3.59259057850345E-02 
1119	 0.03477074271691 
1120	 3.27726905245058E-02 
1121	 3.27813412309757E-02 
1122	 3.39914958266908E-02 
1123	 3.05533665209893E-02 
1124	 2.67157842026539E-02 
1125	 2.63833024209338E-02 
1126	 0.025116740619603 
1127	 2.22304917153005E-02 
1128	 2.31781345578019E-02 
1129	 2.29953753219946E-02 
1130	 2.33160034054515E-02 
1131	 2.37451332280161E-02 
1132	 2.52477930530658E-02 
1133	 2.43876921067569E-02 
1134	 2.36736334478723E-02 
1135	 0.021569905773999 
1136	 1.57994625078632E-02 
1137	 1.44206245888924E-02 
1138	 1.30812060282772E-02 
1139	 1.55290745051249E-02 
1140	 1.87124432930614E-02 
1141	 1.81687430036474E-02 
1142	 0.017821739878774 
1143	 1.83704059173952E-02 
1144	 1.64211239724839E-02 
1145	 1.45372671364323E-02 
1146	 1.45670996236344E-02 
1147	 1.23888032931268E-02 
1148	 1.14904853616246E-02 
1149	 1.58664633235754E-02 
1150	 1.62745467895158E-02 
1151	 1.34929622528138E-02 
1152	 1.32288286428931E-02 
1153	 1.38319910295715E-02 
1154	 0.01394190880209 
1155	 1.42852089891822E-02 
1156	 1.50827088955194E-02 
1157	 1.49588960233121E-02 
1158	 1.36394397805298E-02 
1159	 1.28038893062649E-02 
1160	 1.39461126028213E-02 
1161	 1.51142129685419E-02 
1162	 0.015100988294511 
1163	 1.53306179605909E-02 
1164	 1.52303746361559E-02 
1165	 1.46992108987231E-02 
1166	 1.47042213981575E-02 
1167	 1.48038831697043E-02 
1168	 0.014813012598781 
1169	 1.49900669669324E-02 
1170	 1.51165434651504E-02 
1171	 1.51412491532421E-02 
1172	 1.49361104300138E-02 
1173	 0.014833571206613 
1174	 1.47308431351385E-02 
1175	 1.47913182086663E-02 
1176	 1.45238804283802E-02 
1177	 1.41897899775204E-02 
1178	 0.014187576786925 
1179	 1.41084402246994E-02 
1180	 1.38281099639558E-02 
1181	 1.38266766016383E-02 
1182	 1.38626489378615E-02 
1183	 1.39091124300242E-02 
1184	 1.43633139419087E-02 
1185	 1.44458114525077E-02 
1186	 1.43045100797249E-02 
1187	 1.43834592843596E-02 
1188	 0.014229574810586 
1189	 1.44388998627597E-02 
1190	 1.50941859632753E-02 
1191	 1.48748212252036E-02 
1192	 1.46932017704608E-02 
1193	 1.42723910448746E-02 
1194	 1.45509294111728E-02 
1195	 1.45508218465794E-02 
1196	 1.46441624269513E-02 
1197	 1.49825675334931E-02 
1198	 1.48803203956553E-02 
1199	 0.014895256085481 
1200	 1.49420088873562E-02 
1201	 1.46198752648476E-02 
1202	 1.43772730967521E-02 
1203	 1.40804822172082E-02 
1204	 1.37219003949134E-02 
1205	 1.38402383412297E-02 
1206	 1.40320364569292E-02 
1207	 1.39267301017791E-02 
1208	 0.013992289827349 
1209	 1.43733325336718E-02 
1210	 1.44822419823871E-02 
1211	 1.41213487274064E-02 
1212	 1.40010274071704E-02 
1213	 1.40656060182137E-02 
1214	 1.40416324712661E-02 
1215	 1.40377636742534E-02 
1216	 0.014419383444523 
1217	 1.47038382953812E-02 
1218	 0.014635063740551 
1219	 1.44919826276733E-02 
1220	 1.43403097923371E-02 
1221	 0.014237258412539 
1222	 0.014133992117205 
1223	 1.42644791398484E-02 
1224	 1.44389582045396E-02 
1225	 1.44198787194616E-02 
1226	 1.43209788432841E-02 
1227	 1.41302666032895E-02 
1228	 1.41950922591325E-02 
1229	 1.43507011506561E-02 
1230	 1.42074059337314E-02 
1231	 1.40545951020584E-02 
1232	 1.43040198748368E-02 
1233	 1.44607377531631E-02 
1234	 1.41594142677654E-02 
1235	 1.41843639967361E-02 
1236	 1.45619257443767E-02 
1237	 1.46160954679616E-02 
1238	 1.44792130441683E-02 
1239	 1.45820952515698E-02 
1240	 1.46886600605337E-02 
1241	 1.43857305214612E-02 
1242	 1.41038878215313E-02 
1243	 1.43388754304816E-02 
1244	 1.46080273539508E-02 
1245	 1.42899885979166E-02 
1246	 1.41175633004204E-02 
1247	 1.44503654296797E-02 
1248	 1.43781853294394E-02 
1249	 1.41874797071366E-02 
1250	 1.43926425641405E-02 
1251	 1.44801952871214E-02 
1252	 1.43245223010025E-02 
1253	 1.42888143713181E-02 
1254	 1.45072486081139E-02 
1255	 1.42761714157646E-02 
1256	 1.40878725474137E-02 
1257	 1.40145318078836E-02 
1258	 1.42070628197996E-02 
1259	 1.43795061759544E-02 
1260	 1.44231487730553E-02 
1261	 1.47282572221411E-02 
1262	 1.48356163485734E-02 
1263	 1.47620435477601E-02 
1264	 1.43699880333399E-02 
1265	 1.40127474779539E-02 
1266	 1.41191378895443E-02 
1267	 0.014134090642296 
1268	 1.42132364390937E-02 
1269	 1.43532674972329E-02 
1270	 1.41299233313445E-02 
1271	 1.40055701239041E-02 
1272	 1.38742874978391E-02 
1273	 1.38333236737269E-02 
1274	 1.42573184068728E-02 
1275	 1.40079318149387E-02 
1276	 1.35235970085025E-02 
1277	 1.42499707793289E-02 
1278	 1.46775839839442E-02 
1279	 1.43746505849306E-02 
1280	 1.46293057650623E-02 
1281	 1.47388711031412E-02 
1282	 1.43030782676795E-02 
1283	 1.40782765292757E-02 
1284	 1.41343544042757E-02 
1285	 1.42046647529855E-02 
1286	 1.43450537327947E-02 
1287	 1.41688574171713E-02 
1288	 1.36599977710856E-02 
1289	 1.37723441494442E-02 
1290	 1.39541661320282E-02 
1291	 1.42124760042702E-02 
1292	 1.42502156639718E-02 
1293	 0.014324989664561 
1294	 1.44199275351496E-02 
1295	 1.41000931333455E-02 
1296	 0.014144908692257 
1297	 1.48438189291292E-02 
1298	 1.46031977081074E-02 
1299	 1.36967701086239E-02 
1300	 1.37709142412445E-02 
1301	 0.014065285175102 
1302	 1.37886125783599E-02 
1303	 1.37933108937453E-02 
1304	 1.37913741563143E-02 
1305	 1.36876963324959E-02 
1306	 0.013778386496661 
1307	 1.46247505285566E-02 
1308	 1.46150084794848E-02 
1309	 1.38319065209473E-02 
1310	 1.37475091015046E-02 
1311	 1.37274480197424E-02 
1312	 1.36234830189875E-02 
1313	 1.40846177335829E-02 
1314	 0.014060170437565 
1315	 1.31490665906725E-02 
1316	 1.31623541149864E-02 
1317	 1.38647821563376E-02 
1318	 1.40160331051971E-02 
1319	 1.45894131520782E-02 
1320	 1.48116718811454E-02 
1321	 1.48315072956187E-02 
1322	 1.36623264400947E-02 
1323	 1.26483154395353E-02 
1324	 1.27441447740172E-02 
1325	 0.013092369407667 
1326	 1.27781901313031E-02 
1327	 1.32121904880339E-02 
1328	 1.40552260836885E-02 
1329	 1.37718016493821E-02 
1330	 1.39989643601279E-02 
1331	 1.40376432872228E-02 
1332	 1.30947955344564E-02 
1333	 1.33894102757906E-02 
1334	 1.42009177281573E-02 
1335	 1.42773833680636E-02 
1336	 1.46645332284235E-02 
1337	 1.49809157782465E-02 
1338	 1.46623584679871E-02 
1339	 0.013962522205497 
1340	 1.31457704295292E-02 
1341	 0.013242106806292 
1342	 1.28129524409294E-02 
1343	 1.21491818113457E-02 
1344	 0.013583452381145 
1345	 1.38318010128315E-02 
1346	 9.79449597695394E-03 
1347	 9.24742576858904E-03 
1348	 1.60007224535779E-02 
1349	 1.64008017950667E-02 
1350	 8.08100144863071E-03 
1351	 7.65666599490822E-03 
1352	 5.7765268353164E-03 
1353	 3.93408177477253E-03 
1354	 3.07037205028831E-02 
1355	 8.15550613075671E-02 
1356	 5.78118502030517E-02 
1357	 2.28973753837618E-03 
1358	-0.017503581082712 
1359	-6.51815122767574E-02 
1360	 2.77238572003145E-02 
1361	 0.134249191771064 
1362	 0.176561152918524 
1363	 0.187218325059227 
1364	 5.73241089815321E-02 
1365	-9.23900426590381E-02 
1366	 7.87917192551711E-02 
1367	 0.236105170225185 
1368	 0.241978634585371 
1369	 0.451189667938159 
1370	 0.526887370339045 
1371	 0.103740602198987 
1372	-9.14969059282588E-02 
1373	-0.19937814097438 
1374	-0.236496312884318 
1375	-0.107027924887259 
1376	-4.80173813712181E-02 
1377	 0.15139195584068 
1378	 0.446702397604746 
1379	 0.382971261102534 
1380	 0.278203317333134 
1381	 0.212731266546293 
1382	 0.442170763820612 
1383	 0.37024239364424 
1384	 0.281417444970896 
1385	 0.39817840980376 
1386	 0.399777320429929 
1387	 3.55178935598795E-02 
1388	-0.104646717731424 
1389	 7.07503218377585E-02 
1390	 0.15185918917976 
1391	 9.71992477523884E-02 
1392	-4.94993104186932E-02 
1393	 0.747186140979822 
1394	 1.19403524792512 
1395	 0.718982628171849 
1396	 0.249645522035143 
1397	 0.168428377608452 
1398	-0.296270572944135 
1399	-0.645144558679936 
1400	-0.177881765358509 
1401	-4.86329936565265E-02 
1402	-0.21908960034556 
1403	 3.98188012880891E-02 
1404	 0.522798201896238 
1405	 0.51725664775417 
1406	 0.134662966623326 
1407	 6.50262707857302E-02 
1408	 6.29017865153115E-03 
1409	-3.58822451497165E-02 
1410	 2.30123461896917E-02 
1411	 7.50627847102114E-02 
1412	 0.111708674703305 
1413	 4.28698964952229E-02 
1414	-3.54615597389223E-02 
1415	-4.27904254827539E-02 
1416	-0.139415595824654 
1417	-0.113027149689126 
1418	 3.04430524632146E-02 
1419	 2.70061821416889E-02 
1420	-0.041404094685166 
1421	-3.99228552266824E-02 
1422	-3.28352072137415E-02 
1423	-3.31551548033944E-02 
1424	-3.56225405954762E-02 
1425	-9.2679294370168E-03 
1426	 4.95993956115268E-02 
1427	 4.59221760511845E-02 
1428	 1.95218063588728E-02 
1429	 2.10707988120787E-02 
1430	 1.07847291484451E-03 
1431	-1.39247680142082E-02 
1432	 3.11853805463965E-03 
1433	 9.60360741029746E-03 
1434	-0.012283093483087 
1435	-1.60793514128068E-02 
1436	-3.27228038898522E-03 
1437	 1.70608564885278E-02 
1438	 8.60835428946974E-03 
1439	-3.5741984389429E-03 
1440	 6.5572420421544E-03 
1441	 5.1538508052965E-03 
1442	 4.36525918359385E-03 
1443	 2.18663930192249E-02 
1444	 2.48240575104451E-02 
1445	 2.01712497974838E-02 
1446	 1.37921756960173E-02 
1447	 5.66166416644028E-03 
1448	 1.02372055908567E-02 
1449	 9.83903024348134E-03 
1450	 4.71521926355283E-03 
1451	 1.12084771356951E-02 
1452	 1.59255823193401E-02 
1453	 0.013095096858392 
1454	 1.10160295789079E-02 
1455	 1.08381081567836E-02 
1456	 1.19724793330981E-02 
1457	 1.07218202577738E-02 
1458	 9.6581478807082E-03 
1459	 1.13556864016908E-02 
1460	 1.30884892230312E-02 
1461	 1.37344818601236E-02 
1462	 1.09921103691781E-02 
1463	 7.86615383096883E-03 
1464	 8.42078764866468E-03 
1465	 4.75455000992887E-03 
1466	 4.02936221300308E-03 
1467	 1.36497564640395E-02 
1468	 1.61883898777405E-02 
1469	 1.11206177838279E-02 
1470	 9.00693946165617E-03 
1471	 7.79031675026127E-03 
1472	 7.88643188107838E-03 
1473	 7.20123962129644E-03 
1474	 8.60344108545338E-03 
1475	 1.44144543153258E-02 
1476	 1.51834469403921E-02 
1477	 1.30320120847543E-02 
1478	 1.26497936542553E-02 
1479	 1.22903495818806E-02 
1480	 1.11776761247886E-02 
1481	 8.82564980218662E-03 
1482	 9.58574776262771E-03 
1483	 1.23028047762732E-02 
1484	 1.19566150200075E-02 
1485	 1.16774538631142E-02 
1486	 1.19421830962765E-02 
1487	 1.07673452728694E-02 
1488	 1.00610529783404E-02 
1489	 0.010082981828064 
1490	 1.03623000144308E-02 
1491	 1.08623593399474E-02 
1492	 1.03607913496423E-02 
1493	 9.94894185696577E-03 
1494	 9.71762608004576E-03 
1495	 8.23719455713938E-03 
1496	 7.93117168334089E-03 
1497	 9.03822035368601E-03 
1498	 9.13217153585334E-03 
1499	 8.73197160198211E-03 
1500	 8.79740346014282E-03 
1501	 8.78190874196997E-03 
1502	 8.67967799456245E-03 
1503	 8.96905114433303E-03 
1504	 9.08673379857793E-03 
1505	 8.96147334298483E-03 
1506	 8.66857776323725E-03 
1507	 9.07031595102878E-03 
1508	 9.20166652073265E-03 
1509	 8.38847600589434E-03 
1510	 8.30136024267053E-03 
1511	 9.07997449234718E-03 
1512	 8.87436021387059E-03 
1513	 8.58116303650689E-03 
1514	 0.009145185971231 
1515	 9.18629569154346E-03 
1516	 8.87756196814004E-03 
1517	 9.01486115470753E-03 
1518	 9.20912302186014E-03 
1519	 9.04568679438932E-03 
1520	 8.19857882118228E-03 
1521	 7.96610101838849E-03 
1522	 8.58510621708007E-03 
1523	 8.73550525398248E-03 
1524	 8.76539818072041E-03 
1525	 8.83810998282618E-03 
1526	 8.82000126082651E-03 
1527	 8.63281130106821E-03 
1528	 8.59161420971352E-03 
1529	 9.33151042857038E-03 
1530	 9.73365915268304E-03 
1531	 9.18347802750032E-03 
1532	 9.10498540785112E-03 
1533	 9.56204925241111E-03 
1534	 9.52354357384465E-03 
1535	 9.45640864652674E-03 
1536	 9.80501919676936E-03 
1537	 1.00562982993706E-02 
1538	 9.9476871973768E-03 
1539	 9.62958161396543E-03 
1540	 9.54440603576491E-03 
1541	 9.57594401104678E-03 
1542	 9.17384709041051E-03 
1543	 8.92388035937168E-03 
1544	 9.36362670056399E-03 
1545	 9.51638805221989E-03 
1546	 8.97538936732888E-03 
1547	 8.79355880881193E-03 
1548	 8.86391550572089E-03 
1549	 8.72033894719191E-03 
1550	 8.65228309973076E-03 
1551	 8.58851307296418E-03 
1552	 8.94565767526374E-03 
1553	 9.29706197568186E-03 
1554	 9.07595767761162E-03 
1555	 9.22025222616027E-03 
1556	 9.18570650847185E-03 
1557	 8.67442693947868E-03 
1558	 9.45809821210475E-03 
1559	 1.01761020752586E-02 
1560	 9.46705541060433E-03 
1561	 9.44481616147036E-03 
1562	 9.73591415460024E-03 
1563	 9.8400919277785E-03 
1564	 1.05614369281352E-02 
1565	 1.05935363452938E-02 
1566	 9.79402399424498E-03 
1567	 9.32745794084398E-03 
1568	 9.39622839428791E-03 
1569	 9.62648864899392E-03 
1570	 9.74191216816748E-03 
1571	 9.75618959636729E-03 
1572	 9.54142073128163E-03 
1573	 9.67294135142276E-03 
1574	 1.01143527076022E-02 
1575	 1.03643465761214E-02 
1576	 0.010382426627175 
1577	 9.86999703320302E-03 
1578	 9.92256932603754E-03 
1579	 1.07298702230838E-02 
1580	 1.06643710672127E-02 
1581	 1.02064603390124E-02 
1582	 1.01964129420709E-02 
1583	 9.98929679602609E-03 
1584	 1.01238352756639E-02 
1585	 1.05485024300389E-02 
1586	 1.02787068748306E-02 
1587	 9.86795412248464E-03 
1588	 9.87947073637162E-03 
1589	 1.00723120373894E-02 
1590	 1.02706844637161E-02 
1591	 1.02488720289185E-02 
1592	 9.66931552869798E-03 
1593	 9.26344185517636E-03 
1594	 9.70869734997159E-03 
1595	 1.00305864208678E-02 
1596	 1.00072904482107E-02 
1597	 1.05363192041261E-02 
1598	 1.05442893289461E-02 
1599	 9.87386503140872E-03 
1600	 1.01536002053618E-02 
1601	 1.05362624931379E-02 
1602	 1.04141325829558E-02 
1603	 1.08778544472157E-02 
1604	 1.13295585923268E-02 
1605	 1.11112062026875E-02 
1606	 1.14300690848445E-02 
1607	 0.012168742300565 
1608	 0.011941855128478 
1609	 1.11882941805842E-02 
1610	 1.12836751603284E-02 
1611	 0.011486645865096 
1612	 1.10223410128022E-02 
1613	 1.08393074389588E-02 
1614	 1.06304011845139E-02 
1615	 1.00356794388349E-02 
1616	 1.01597687958935E-02 
1617	 1.10257867046621E-02 
1618	 1.12666235900549E-02 
1619	 0.010837435030063 
1620	 1.05872412218576E-02 
1621	 1.06627529199575E-02 
1622	 1.08037067241488E-02 
1623	 1.06842393639023E-02 
1624	 1.08543801365878E-02 
1625	 1.12583968425035E-02 
1626	 1.09389784656922E-02 
1627	 1.08293859906974E-02 
1628	 0.011352982520288 
1629	 0.010954308339153 
1630	 1.08243927327758E-02 
1631	 1.16433614536395E-02 
1632	 0.011339489914721 
1633	 1.06872813786491E-02 
1634	 1.05273919171629E-02 
1635	 1.05716828999073E-02 
1636	 1.09851918555392E-02 
1637	 1.14258930124846E-02 
1638	 1.14866139773105E-02 
1639	 0.010536465895151 
1640	 0.010155851216072 
1641	 1.10862411035636E-02 
1642	 1.11729052874034E-02 
1643	 1.07956535440078E-02 
1644	 1.11466831836593E-02 
1645	 1.10850841824481E-02 
1646	 1.07200022768052E-02 
1647	 1.14220884123873E-02 
1648	 1.14376804304488E-02 
1649	 0.01041116470532 
1650	 1.06611788205777E-02 
1651	 1.07838546929273E-02 
1652	 1.06161332520581E-02 
1653	 1.11571862230904E-02 
1654	 0.01093966259886 
1655	 1.07101816767829E-02 
1656	 1.09120523154461E-02 
1657	 0.010742666413573 
1658	 1.08630553720051E-02 
1659	 1.17723233857568E-02 
1660	 1.18883152825575E-02 
1661	 1.11869421910039E-02 
1662	 1.10008781991545E-02 
1663	 1.11981420770839E-02 
1664	 1.14459332070663E-02 
1665	 1.17578504382687E-02 
1666	 1.16352747852467E-02 
1667	 1.13615110437073E-02 
1668	 1.05380662274977E-02 
1669	 1.04049101783718E-02 
1670	 1.13769903045955E-02 
1671	 1.16035513817519E-02 
1672	 0.011029815388659 
1673	 1.10101827947647E-02 
1674	 1.09167398580873E-02 
1675	 1.00852681551416E-02 
1676	 0.010780970725623 
1677	 1.21901461694452E-02 
1678	 1.19703796931932E-02 
1679	 1.15493532963448E-02 
1680	 1.13890781170081E-02 
1681	 1.13167387830776E-02 
1682	 1.16834464174816E-02 
1683	 1.21783135423037E-02 
1684	 1.24324903977325E-02 
1685	 1.14596438391357E-02 
1686	 1.02838296795356E-02 
1687	 0.010677084953874 
1688	 1.09876522299263E-02 
1689	 1.08205618400552E-02 
1690	 1.16559584467538E-02 
1691	 0.011809815490407 
1692	 1.08980866705998E-02 
1693	 1.12443847187582E-02 
1694	 0.011459355760465 
1695	 0.010582552355879 
1696	 1.10874291447429E-02 
1697	 1.14024270737217E-02 
1698	 0.010266850321016 
1699	 1.12165519836495E-02 
1700	 1.26150407059243E-02 
1701	 1.19384732078558E-02 
1702	 1.21450432824034E-02 
1703	 1.20800649410795E-02 
1704	 1.07850562087455E-02 
1705	 1.13771386848572E-02 
1706	 1.25714702029232E-02 
1707	 1.25302938557336E-02 
1708	 1.20579158442351E-02 
1709	 1.11962921390815E-02 
1710	 1.06805371032542E-02 
1711	 1.10662066835862E-02 
1712	 1.09671950262293E-02 
1713	 1.08954013504371E-02 
1714	 1.13308679811834E-02 
1715	 1.12146749408815E-02 
1716	 1.15118559636853E-02 
1717	 1.23338666606618E-02 
1718	 1.22931883632143E-02 
1719	 1.15376362083737E-02 
1720	 1.18168290999382E-02 
1721	 1.23037206916976E-02 
1722	 0.011654177258696 
1723	 1.19172695641564E-02 
1724	 1.27365175765429E-02 
1725	 1.17845159630823E-02 
1726	 1.10330066393174E-02 
1727	 1.19954156935264E-02 
1728	 1.22083215410191E-02 
1729	 1.11899122491114E-02 
1730	 1.08823127407734E-02 
1731	 1.13490234072737E-02 
1732	 1.22060475990017E-02 
1733	 1.36726339202456E-02 
1734	 1.37515328998876E-02 
1735	 1.21017775449093E-02 
1736	 1.15715257732901E-02 
1737	 1.15445275372683E-02 
1738	 1.09793120659135E-02 
1739	 1.18428660104922E-02 
1740	 1.24236782934965E-02 
1741	 1.15272713874931E-02 
1742	 1.22966247189651E-02 
1743	 1.27181537359628E-02 
1744	 1.07437184569085E-02 
1745	 0.010155255622105 
1746	 1.09620467762857E-02 
1747	 1.11867616766349E-02 
1748	 1.18300679797012E-02 
1749	 1.16371446736133E-02 
1750	 1.06021418535309E-02 
1751	 1.07542761714125E-02 
1752	 1.11144289181234E-02 
1753	 1.15930334800318E-02 
1754	 1.30644410789731E-02 
1755	 1.32318394995393E-02 
1756	 1.24154572907357E-02 
1757	 1.16248562414013E-02 
1758	 0.011984316291127 
1759	 1.26435999393443E-02 
1760	 1.32589031170066E-02 
1761	 1.30930130645918E-02 
1762	 0.012140012708069 
1763	 1.20011518473417E-02 
1764	 1.13855402693581E-02 
1765	 1.07172320174098E-02 
1766	 1.21415376024465E-02 
1767	 0.013329898396649 
1768	 1.21195228040708E-02 
1769	 1.29468625996753E-02 
1770	 0.014470621448509 
1771	 1.28530469810474E-02 
1772	 1.34068424539573E-02 
1773	 1.42067811208501E-02 
1774	 1.12392793453836E-02 
1775	 1.22811026951283E-02 
1776	 1.22692457615561E-02 
1777	 1.17555002138795E-02 
1778	 1.18525861679829E-02 
1779	 1.02192295461629E-02 
1780	 1.00499579961071E-02 
1781	 1.42864183569449E-02 
1782	 1.39410774270631E-02 
1783	 9.13862470901947E-03 
1784	 9.41461097378614E-03 
1785	 9.61646216418975E-03 
1786	 9.12424543670128E-03 
1787	 1.46153740839898E-02 
1788	 1.56361199766241E-02 
1789	 9.7577632670415E-03 
1790	 1.17676048527144E-02 
1791	 1.01634722158864E-02 
1792	 3.20406181748704E-03 
1793	 5.61474325801063E-03 
1794	 1.26066047041412E-02 
1795	 1.79005368113754E-02 
1796	 0.020651786032714 
1797	 1.94618787257057E-02 
1798	 1.07855730237786E-02 
1799	-3.42041099177401E-03 
1800	 3.35811744710157E-03 
1801	 1.12941344764438E-02 
1802	 3.13530753548971E-02 
1803	 0.042384293636655 
1804	 5.62989561800248E-02 
1805	 5.77705199691046E-02 
1806	 2.41040813253899E-02 
1807	-2.1069977530357E-03 
1808	-7.62057185658379E-02 
1809	-0.111682031949075 
1810	-9.78580105957904E-02 
1811	-9.71648438785485E-02 
1812	-3.23201237189885E-04 
1813	 5.13717454412046E-02 
1814	 7.71607859668469E-02 
1815	 0.154726369117648 
1816	 0.299619228694792 
1817	 0.51272806147354 
1818	 0.5184793886999 
1819	-0.98922516676618 
1820	-1.76343950969233 
1821	-1.16114576888447 
1822	-0.956836623564434 
1823	-0.203046756653208 
1824	 0.110323697718329 
1825	 0.291714085623436 
1826	 0.466180413420067 
1827	 0.580201345087436 
1828	 0.897241064781316 
1829	 3.26296909397081 
1830	 2.20645120942078 
1831	-1.07347680937353 
1832	-0.222567968669063 
1833	-0.391538389231113 
1834	-0.208859280852826 
1835	 9.62412211028347 
1836	 13.9015675569868 
1837	 2.12196101058359 
1838	 2.0971429056411 
1839	 2.50077560287842 
1840	 1.07581899596859 
1841	 0.51415006923848 
1842	 0.94016044778874 
1843	 1.12560514431258 
1844	 1.07939635412885 
1845	 0.792575379531894 
1846	 0.370059815533739 
1847	 0.315667867989056 
1848	 0.305860788868659 
1849	 0.214613895537064 
1850	 0.344043944126802 
1851	 1.54703415401204 
1852	 0.413883566797171 
1853	 4.99493765847149E-02 
1854	 0.272131809343017 
1855	 0.888470880445085 
1856	 0.856079769896458 
1857	 0.79399312015922 
1858	-1.97910031356364 
1859	-1.49666965980662 
1860	-2.12114719409042 
1861	-5.54198083747287 
1862	-46.0787004334751 
1863	 2.30361524099128 
1864	 0.445031582438635 
1865	 0.240327500900099 
1866	 7.83778940313285 
1867	 8.64133746279539 
1868	 1.30066436742118 
1869	 1.08076744035094 
1870	 0.675397004904864 
1871	 0.247084016147403 
1872	 0.314384189696851 
1873	 0.383339347720252 
1874	 0.814539290215771 
1875	 0.508562064495421 
1876	 0.270896324762011 
1877	 0.7364692023207 
1878	 0.555277542340139 
1879	-6.14555667188905 
1880	-4.64433477965872 
1881	-0.389831100097353 
1882	-0.681409207227774 
1883	-1.41956710086939 
1884	-3.98006592822149 
1885	-12.2860191744775 
1886	 5.37179271186948 
1887	 2.47667471085135 
1888	 3.88266731059007 
1889	 7.07684283119147 
1890	 15.1142004772785 
1891	 32.6084884772813 
1892	-1.42813051421335 
1893	-1.51359307348198 
1894	 4.27413800461982 
1895	 4.92792394050562 
1896	 2.77004044114015 
1897	 1.27251594985675 
1898	 1.29403312346595 
1899	 2.88427401320873 
1900	 3.38944431986011 
1901	 4.36285895754073 
1902	 3.48064577645247 
1903	 1.53544675939045 
1904	 0.283010257106765 
1905	 6.39775996682802E-02 
1906	-0.140653154010106 
1907	 6.24019409385251 
1908	 1.52902966245226 
1909	-8.54826251556383E-02 
1910	-0.293347652344005 
1911	-1.55073477721002 
1912	 44.1230348404382 
1913	-24.5217303205707 
1914	-3.97911646419905 
1915	-4.18815616104581 
1916	-3.95181508676445 
1917	-1.45236772236407 
1918	-3.35050581366673 
1919	-3.22202441012803 
1920	-4.11891066656455 
1921	 13.1081460720764 
1922	 3.99476063365872 
1923	 1.89016369571874 
1924	 1.28629036956299 
1925	 1.45106494177295 
1926	 1.73237246606492 
1927	 2.68225341052905 
1928	 7.01720358625669 
1929	-2.79419813695491 
1930	-1.85710213074855 
1931	-2.58299648931094 
1932	-5.52333003951799 
1933	 1.5618556707182 
1934	 0.975087873084662 
1935	 0.719038224002699 
1936	 0.948062179782317 
1937	 1.20148506481967 
1938	 1.15603479342427 
1939	 0.889370533305318 
1940	 0.561563571763066 
1941	 0.379833064695794 
1942	 0.230264129403317 
1943	 0.135338311568946 
1944	 0.102185503055368 
1945	 0.117974288977744 
1946	 0.114642760781898 
1947	 0.107237146880935 
1948	 9.63144075879692E-02 
1949	 5.21451579881088E-02 
1950	 4.88769035587891E-02 
1951	 3.97125671258501E-02 
1952	 2.99275049413111E-02 
1953	 4.19284692628433E-02 
1954	 3.52196371521895E-02 
1955	-9.45905944032588E-03 
1956	 8.29454933390564E-03 
1957	 3.56644050150445E-02 
1958	 3.50418068536052E-02 
1959	 4.50810991328537E-02 
1960	 2.33623771195002E-02 
1961	-1.31019270255297E-02 
1962	-9.06832482790699E-03 
1963	-2.33734096391221E-03 
1964	 5.59118990662993E-03 
1965	 2.21024644365274E-02 
1966	 0.02796640598967 
1967	 3.03753934977752E-02 
1968	 2.68727033117773E-02 
1969	 1.88608305121603E-02 
1970	 1.59323644239071E-02 
1971	 1.65606035038307E-02 
1972	 9.63530616316977E-03 
1973	 4.62433510191972E-03 
1974	 6.49749042970466E-03 
1975	 7.5049040037481E-03 
1976	 4.15236655089206E-03 
1977	 2.76016710835195E-03 
1978	 3.97034052139613E-03 
1979	 4.72166139103527E-03 
1980	 2.76260603681643E-03 
1981	 4.47631110281995E-03 
1982	 8.81259731129935E-03 
1983	 9.11113835283043E-03 
1984	 5.94482453867093E-03 
1985	 6.95610227217179E-03 
1986	 1.00038218976996E-02 
1987	 8.72423006439429E-03 
1988	 8.42672568963199E-03 
1989	 1.02165646602112E-02 
1990	 9.77660104381274E-03 
1991	 0.010120283661781 
1992	 1.17290981820887E-02 
1993	 1.05324578693475E-02 
1994	 9.84687281954825E-03 
1995	 9.01429391412778E-03 
1996	 8.01661514593666E-03 
1997	 5.95103070148169E-03 
1998	 9.59749432580615E-03 
1999	 1.19119826013773E-02 
2000	 1.68092734395838E-02 
2001	 2.80157850031723E-02 
2002	 3.00217740640395E-02 
2003	 2.40718469358236E-02 
2004	 1.86907522006887E-02 
2005	 1.27535581866773E-02 
2006	 0.00721798093163 
2007	 7.11288736696806E-03 
2008	 7.68567380146055E-03 
2009	 8.11538984221718E-03 
2010	 8.39818529289291E-03 
2011	 2.50328422973408E-03 
2012	-9.80533358741391E-03 
2013	-9.21081724758601E-03 
2014	-4.49318122896501E-03 
2015	 1.93733749622881E-04 
2016	 8.17343396252468E-03 
2017	 1.22968655234527E-02 
2018	 0.010832723823665 
2019	 7.67333677390619E-03 
2020	 7.83969551843562E-03 
2021	 1.23457457123183E-02 
2022	 1.39362308911174E-02 
2023	 6.94953973681071E-03 
2024	 4.9390957452897E-03 
2025	 4.68503494269105E-03 
2026	 4.43541196381896E-03 
2027	 3.31051381728579E-03 
2028	 4.86187194626849E-03 
2029	 9.23680949000731E-03 
2030	 8.73442573198014E-03 
2031	 6.85464312827562E-03 
2032	 1.03389876675791E-02 
2033	 1.17522953662783E-02 
2034	 8.15998009981936E-03 
2035	 5.94830235002067E-03 
2036	 5.74178886435248E-03 
2037	 5.97996520779986E-03 
2038	 6.89278631043642E-03 
2039	 7.42057053779751E-03 
2040	 9.7764897004995E-03 
2041	 9.86425534651223E-03 
2042	 7.59888124672458E-03 
2043	 6.64070393763637E-03 
2044	 5.62391769852252E-03 
2045	 4.24705819836479E-03 
2046	 5.48417226235218E-03 
2047	 8.62341370197745E-03 
2048	 1.25355848983085E-02 
2049	 0.013231626988057 
2050	 0.010827848352853 
2051	 1.20911214242855E-02 
2052	 1.31569730885503E-02 
2053	 1.26849223918439E-02 
2054	 1.34672567491628E-02 
2055	 9.97968183160335E-03 
2056	 9.22863534928155E-03 
2057	 9.31507942325849E-03 
2058	 1.00381121043229E-02 
2059	 1.43070299315752E-02 
2060	 0.014691976950024 
2061	 0.013540654669155 
2062	 8.80297859703651E-03 
2063	 7.47535232202194E-03 
2064	 1.10362656096871E-02 
2065	 1.40341197679028E-02 
2066	 1.63695387100355E-02 
2067	 1.89929436773683E-02 
2068	 1.44424192589477E-02 
2069	 5.15395398406224E-03 
2070	 5.37525055438919E-03 
2071	 6.49258252181761E-03 
2072	 4.19613512831292E-03 
2073	 3.95790942991838E-03 
2074	 6.75584662638699E-03 
2075	 6.5582484410042E-03 
2076	 5.07164466810039E-03 
2077	 4.08729693855156E-03 
2078	 2.93797745997507E-03 
2079	 2.51497888336524E-03 
2080	 1.7479039844639E-03 
2081	 8.8549331563265E-04 
2082	 2.47678138048814E-03 
2083	 4.93005821299157E-03 
2084	 6.90158423941471E-03 
2085	 7.78323409115834E-03 
2086	 8.21433532596861E-03 
2087	 7.96025956280611E-03 
2088	 7.13252186456573E-03 
2089	 8.41185800334406E-03 
2090	 9.33621758867566E-03 
2091	 9.23687845186843E-03 
2092	 8.90135756818228E-03 
2093	 7.67789927824889E-03 
2094	 6.35572676508675E-03 
2095	 3.83231850591206E-03 
2096	 4.62608482821127E-03 
2097	 7.46385043542245E-03 
2098	 8.32860982696688E-03 
2099	 1.10138966557824E-02 
2100	 1.13402854627538E-02 
2101	 9.03119170120205E-03 
2102	 9.16924591820265E-03 
2103	 9.65900617791061E-03 
2104	 1.10511379038285E-02 
2105	 9.97191382448656E-03 
2106	 8.84711273388233E-03 
2107	 1.06457009129985E-02 
2108	 8.34495271536846E-03 
2109	 7.30254000411199E-03 
2110	 9.90886404465121E-03 
2111	 9.29480377762653E-03 
2112	 1.00295460846987E-02 
2113	 1.06322089936111E-02 
2114	 1.06985362481544E-02 
2115	 1.08551134358088E-02 
2116	 1.18378788991585E-02 
2117	 1.17013350368062E-02 
2118	 1.08131450448113E-02 
2119	 1.13205372727076E-02 
2120	 1.19795711509083E-02 
2121	 1.24012161820865E-02 
2122	 0.015455188471572 
2123	 0.015025029548578 
2124	 1.07540841128351E-02 
2125	 8.66784396108768E-03 
2126	 6.90034691540606E-03 
2127	 6.14665643773744E-03 
2128	 7.10742864682336E-03 
2129	 7.66996408079234E-03 
2130	 7.71012784714253E-03 
2131	 7.10658196091904E-03 
2132	 7.79920022754827E-03 
2133	 9.49044033987039E-03 
2134	 0.010246487292509 
2135	 1.01364282829108E-02 
2136	 1.05235146990454E-02 
2137	 1.16639274604318E-02 
2138	 1.17497507611677E-02 
2139	 1.15562044848491E-02 
2140	 1.13259023710282E-02 
2141	 9.12235367468982E-03 
2142	 8.69759650974509E-03 
2143	 9.75823163221169E-03 
2144	 9.95822964687271E-03 
2145	 8.98518042908815E-03 
2146	 9.53973797451961E-03 
2147	 8.43780605521611E-03 
2148	 6.34495780390568E-03 
2149	 6.3313195389298E-03 
2150	 6.56025495174357E-03 
2151	 7.1994793115099E-03 
2152	 8.69283457780025E-03 
2153	 9.19878866317778E-03 
2154	 0.010063189022206 
2155	 1.09697728894373E-02 
2156	 1.23029132649079E-02 
2157	 1.32543180439232E-02 
2158	 1.47472905240615E-02 
2159	 1.59522376910176E-02 
2160	 0.016842286827429 
2161	 1.65855643585054E-02 
2162	 1.68134859245467E-02 
2163	 1.61472742039914E-02 
2164	 1.30762326524437E-02 
2165	 1.13139377643434E-02 
2166	 9.57778313256395E-03 
2167	 8.27276438770397E-03 
2168	 6.87370140134817E-03 
2169	 6.77577788781251E-03 
2170	 7.7232379960391E-03 
2171	 9.52551955927427E-03 
2172	 1.06629141031842E-02 
2173	 1.21571313652598E-02 
2174	 1.45695704889426E-02 
2175	 1.25664067672743E-02 
2176	 9.00541317804398E-03 
2177	 9.12398608506414E-03 
2178	 6.81176968660456E-03 
2179	 6.95261184838834E-03 
2180	 1.24850142819467E-02 
2181	 1.35238669898728E-02 
2182	 1.24521190332937E-02 
2183	 1.33701631121993E-02 
2184	 1.09404800025202E-02 
2185	 7.86222327799093E-03 
2186	 7.14557887903634E-03 
2187	 8.65074285105001E-03 
2188	 8.1054713627058E-03 
2189	 8.18713110460701E-03 
2190	 8.77400302686361E-03 
2191	 8.46728414495674E-03 
2192	 7.71548069385827E-03 
2193	 8.1641206945135E-03 
2194	 7.34985404784405E-03 
2195	 3.01183691705794E-03 
2196	 3.59269353690182E-03 
2197	 8.63360142498449E-03 
2198	 9.32550821873475E-03 
2199	 9.03759304946915E-03 
2200	 1.07484835430437E-02 
2201	 1.20788271975143E-02 
2202	 9.68078902682951E-03 
2203	 8.37625141607086E-03 
2204	 8.13544609359785E-03 
2205	 6.88347558494674E-03 
2206	 7.1685885642348E-03 
2207	 1.00913989056773E-02 
2208	 1.14762120111275E-02 
2209	 9.47797554586186E-03 
2210	 8.08686032010521E-03 
2211	 7.83397786104287E-03 
2212	 1.06869054381475E-02 
2213	 1.48695914727532E-02 
2214	 1.65813656357459E-02 
2215	 0.016353050644462 
2216	 1.66228415340291E-02 
2217	 1.69221674148569E-02 
2218	 1.59669925822062E-02 
2219	 1.59549642765626E-02 
2220	 1.85857564152554E-02 
2221	 1.73417534935022E-02 
2222	 1.19897991598933E-02 
2223	 0.010651476315517 
2224	 9.81840820652082E-03 
2225	 9.30221734759698E-03 
2226	 1.27055882006403E-02 
2227	 1.35734131069796E-02 
2228	 1.15494258175299E-02 
2229	 9.99037208003004E-03 
2230	 7.94978292571516E-03 
2231	 6.73363373175389E-03 
2232	 4.81400291392252E-03 
2233	 5.94813249566397E-03 
2234	 1.00927332943789E-02 
2235	 1.13749010569181E-02 
2236	 0.013711070894453 
2237	 1.81277490308889E-02 
2238	 1.89179588441914E-02 
2239	 1.85643015171224E-02 
2240	 1.67739019303536E-02 
2241	 1.40607089477305E-02 
2242	 0.012519918022497 
2243	 1.18160855997315E-02 
2244	 1.49199121549126E-02 
2245	 1.51817409569832E-02 
2246	 1.57365241765895E-02 
2247	 1.79266964100333E-02 
2248	 1.49324128723846E-02 
2249	 1.54206645608505E-02 
2250	 1.75376764926342E-02 
2251	 1.54361758242797E-02 
2252	 0.014023812984009 
2253	 1.24330979050522E-02 
2254	 1.14001507726456E-02 
2255	 1.41466606262036E-02 
2256	 1.83600585292445E-02 
2257	 0.020493527975686 
2258	 1.71389673052215E-02 
2259	 1.03262327081509E-02 
2260	 7.22784477751345E-03 
2261	 4.15488412682653E-03 
2262	 3.59302894725112E-03 
2263	 8.02641915211176E-03 
2264	 8.52169630893814E-03 
2265	 7.45711232347728E-03 
2266	 6.4207377173861E-03 
2267	 2.93200157717958E-03 
2268	 3.42976171350732E-03 
2269	 8.07956946248976E-03 
2270	 8.19487474887967E-03 
2271	 5.90674577006549E-03 
2272	 7.07789173521423E-03 
2273	 8.80774918655163E-03 
2274	 8.71368409050292E-03 
2275	 9.09997976142391E-03 
2276	 0.010253658105836 
2277	 1.01360231382714E-02 
2278	 8.33796139939606E-03 
2279	 9.3774074057986E-03 
2280	 1.13502375967128E-02 
2281	 1.17190589849333E-02 
2282	 7.57113283320643E-03 
2283	 8.94254107349212E-03 
2284	 1.25895806497373E-02 
2285	 0.015057607482718 
2286	 2.00226647305053E-02 
2287	 0.027856549969315 
2288	 2.78966246078671E-02 
2289	 2.08073173129271E-02 
2290	 0.015914518908645 
2291	 1.11037946798761E-02 
2292	 1.15678911772045E-02 
2293	 1.67068241380578E-02 
2294	 1.24049345449164E-02 
2295	 7.17335894114244E-03 
2296	 7.60878166408077E-03 
2297	 4.33100390632186E-03 
2298	 6.72014147795617E-03 
2299	 1.13661857240677E-02 
2300	 4.05148929634643E-03 
2301	-5.43202307396673E-03 
2302	-8.93037375496647E-03 
2303	-6.18009991831469E-03 
2304	 1.44578423938098E-03 
2305	 1.02058522481879E-02 
2306	 1.28600839219922E-02 
2307	 5.30808418211616E-03 
2308	-1.55253455023118E-03 
2309	-4.12426985967797E-03 
2310	-4.2045592229382E-03 
2311	-2.9608121024628E-04 
2312	-4.06611472174147E-04 
2313	-6.00291353933649E-03 
2314	-7.57244255793472E-03 
2315	-6.23066449290355E-03 
2316	-8.33863418571266E-03 
2317	-6.52257099949462E-03 
2318	 1.17439609182434E-03 
2319	 3.31879336855707E-04 
2320	-7.23874538498977E-03 
2321	-4.84195191981298E-03 
2322	-4.57665833315331E-03 
2323	-1.08702241966954E-02 
2324	-3.20497177754711E-03 
2325	-2.06181896180183E-03 
2326	-5.93190910627932E-03 
2327	 9.49142166706941E-03 
2328	 2.02247897460769E-02 
2329	 1.36625920027085E-02 
2330	 8.15178302267852E-03 
2331	 3.27340963407252E-03 
2332	-4.80375489762214E-03 
2333	-5.68590491722363E-03 
2334	-5.97315741907675E-04 
2335	 4.97270002507925E-03 
2336	 6.52807102112138E-03 
2337	 1.31942505700231E-02 
2338	 2.54286107721558E-02 
2339	 2.39420449687028E-02 
2340	 6.2368923911052E-03 
2341	 3.83264806764812E-03 
2342	 3.36717550826409E-03 
2343	-1.34420437444824E-02 
2344	 2.71035917675401E-03 
2345	 1.14584888245159E-02 
2346	 2.93028675038198E-03 
2347	 1.65956616792988E-02 
2348	 1.16354994791177E-02 
2349	 5.43177687841708E-03 
2350	-3.65818892220174E-03 
2351	-2.92523171964278E-02 
2352	-3.33589773129176E-02 
2353	-3.51907030628186E-02 
2354	-3.48659925862229E-02 
2355	-1.07817427510448E-02 
2356	 1.49136787021766E-03 
2357	 2.90333987171625E-03 
2358	 1.14888994837253E-02 
2359	 3.62517831343015E-03 
2360	-1.34709068727127E-02 
2361	-2.44901510632329E-02 
2362	-3.29391485858274E-02 
2363	-4.47977026323783E-02 
2364	-0.040632065612836 
2365	-9.9164796854836E-03 
2366	 1.06467045852736E-02 
2367	-5.35105652909879E-04 
2368	 8.13402176285623E-04 
2369	 1.10087311712861E-02 
2370	-1.58810809905097E-03 
2371	 3.97266463341203E-02 
2372	 9.40964219244462E-02 
2373	 4.66810032197276E-02 
2374	 1.44984192312003E-03 
2375	 1.79353917844487E-02 
2376	 3.36634193020511E-02 
2377	 4.58971415569749E-02 
2378	 7.22054441514176E-02 
2379	 8.61657404715054E-02 
2380	 7.58705949130043E-02 
2381	 6.74844701892401E-02 
2382	 8.16267022219768E-02 
2383	 5.63065988332403E-02 
2384	 2.44654688485818E-02 
2385	 7.32418001838033E-02 
2386	 9.65144984057793E-02 
2387	 4.72068993915471E-02 
2388	 2.23677790670776E-02 
2389	-5.46139428369221E-03 
2390	-3.25295562546442E-02 
2391	-7.62811796886481E-03 
2392	 1.03086630745296E-02 
2393	 1.42325019058779E-02 
2394	 3.87374943549304E-02 
2395	 8.50745434687442E-02 
2396	 0.137014176036614 
2397	 0.145792637256858 
2398	 0.14409356450929 
2399	 0.148301559227255 
2400	 0.102797683693253 
2401	 7.26382134202391E-02 
2402	 2.83337795793689E-02 
2403	-1.52529192092191E-02 
2404	 1.39295918862662E-02 
2405	-5.72717999939738E-02 
2406	-9.24642363995802E-02 
2407	 2.01650923624644E-02 
2408	 5.86131558123159E-02 
2409	 0.113887541933766 
2410	 0.158731671052676 
2411	 8.27798388576963E-02 
2412	-2.94848117828489E-02 
2413	-2.24100570655687E-02 
2414	 2.89795219359525E-02 
2415	 3.84048465471853E-02 
2416	 9.20695486849766E-02 
2417	 0.126878236177376 
2418	 0.092930991298776 
2419	 0.020732754296631 
2420	-6.46034966842781E-02 
2421	-0.138584864807502 
2422	-0.176291854017149 
2423	-8.42969622886961E-02 
2424	-2.75243102379141E-02 
2425	 2.98538497105107E-03 
2426	 0.102291270421642 
2427	 9.60938903469223E-02 
2428	 8.10791493946583E-02 
2429	 0.121202677330255 
2430	 0.152024999490093 
2431	 0.237205407286342 
2432	 0.293994406303128 
2433	 0.344708434578085 
2434	 0.493687907436967 
2435	 0.573673001817299 
2436	 0.341135538542296 
2437	 0.204105991832874 
2438	-0.019982285061008 
2439	-0.2297281590985 
2440	 9.43823292526793E-02 
2441	 0.298108752296552 
2442	 0.30973253445327 
2443	 0.54362269943396 
2444	 0.550703215012795 
2445	 0.63798640121197 
2446	 0.541036192801254 
2447	 1.86538522749034 
2448	 1.83853913700796 
2449	 0.529805198512514 
2450	 0.507570657797469 
2451	 0.225796385553321 
2452	 0.661464470689201 
2453	-0.150938823176592 
2454	 3.97557227804157 
2455	 1.08843081672724 
2456	 0.437485887494159 
2457	 0.101403293980622 
2458	-0.748471588378697 
2459	-1.91633176560623 
2460	-0.503182811510798 
2461	 0.557783140332747 
2462	 0.805670918222636 
2463	 0.616125799415667 
2464	 0.527692105307727 
2465	-0.638692562907681 
2466	-1.21273271448158 
2467	 0.48115895047129 
2468	 0.908057198090813 
2469	 0.711891800196934 
2470	 0.809169349011491 
2471	 5.47324488485783E-02 
2472	-0.228651101022898 
2473	 1.05668248841352 
2474	-5.70133610814628 
2475	-6.21034156075453 
2476	-2.66761901961772 
2477	 11.0399349789927 
2478	-0.156577043224382 
2479	-3.17026725945397 
2480	-1.62323568514727 
2481	-0.668415541933343 
2482	-0.441723110046718 
2483	-0.615355698450609 
2484	-0.385836843440678 
2485	-0.684515922537394 
2486	-1.32321317353015 
2487	 1.88446488158716 
2488	 0.419205086817014 
2489	-2.31043676451768 
2490	 6.43440096253798 
2491	 1.43448508596424 
2492	 1.67009668842603 
2493	 1.27360635083477 
2494	-0.171848428459643 
2495	 0.176657687329777 
2496	-1.62629298030038 
2497	-1.09531378280636 
2498	-0.785698868834009 
2499	-0.6583887754087 
2500	-0.167810174756226 
