Wavelength	rt0726close00009.asd
350	 0.094535755674047 
351	 9.43509034751156E-02 
352	 9.38547831016083E-02 
353	 9.36481639614451E-02 
354	 9.38826894589566E-02 
355	 9.36022313381299E-02 
356	 9.30206381571896E-02 
357	 9.29516853100713E-02 
358	 9.37274028545291E-02 
359	 9.28514179824203E-02 
360	 9.27043202884266E-02 
361	 0.093265242082367 
362	 9.29028833631283E-02 
363	 9.21484822257727E-02 
364	 9.20404002259766E-02 
365	 9.25415257945765E-02 
366	 9.19453970622301E-02 
367	 9.16978299631572E-02 
368	 9.15482816017838E-02 
369	 9.11311875294827E-02 
370	 0.091331267589459 
371	 9.09829671246358E-02 
372	 9.04119617307945E-02 
373	 0.090660905522365 
374	 9.06953619480064E-02 
375	 9.07461503200747E-02 
376	 9.07505895757945E-02 
377	 9.01068595723035E-02 
378	 8.99496539413854E-02 
379	 0.090047999319095 
380	 8.99732250994619E-02 
381	 8.97773339801691E-02 
382	 8.96499856838121E-02 
383	 8.96202942549892E-02 
384	 8.96359171363825E-02 
385	 8.97700239010176E-02 
386	 8.96073076004647E-02 
387	 8.92516450575499E-02 
388	 0.089367917474308 
389	 8.92972346515638E-02 
390	 8.91960504913434E-02 
391	 8.92126551649192E-02 
392	 8.90771622152414E-02 
393	 8.89983776021936E-02 
394	 8.90561812311245E-02 
395	 8.92099070457557E-02 
396	 0.089093890852193 
397	 8.91814123812481E-02 
398	 8.94027440786746E-02 
399	 8.92402945145478E-02 
400	 8.94084637686401E-02 
401	 8.93573670574341E-02 
402	 8.88957848755628E-02 
403	 8.90566001080549E-02 
404	 8.90983867830682E-02 
405	 0.088979859369672 
406	 8.89209752474247E-02 
407	 8.90882505600845E-02 
408	 8.90652833804654E-02 
409	 8.88689086246896E-02 
410	 8.89436538526943E-02 
411	 8.89802423231867E-02 
412	 8.89534503556769E-02 
413	 8.89196163394571E-02 
414	 8.90261472583536E-02 
415	 8.89354901293379E-02 
416	 8.88543317221148E-02 
417	 8.91068688957175E-02 
418	 8.93093168972841E-02 
419	 8.92613135959885E-02 
420	 8.90884267090965E-02 
421	 0.08922611043193 
422	 8.94296040108871E-02 
423	 8.95731914411369E-02 
424	 8.96225607764652E-02 
425	 8.97264476324629E-02 
426	 8.98058529377075E-02 
427	 8.99314811529253E-02 
428	 9.01993272341546E-02 
429	 9.03731647345485E-02 
430	 0.090496634800819 
431	 9.06615269963888E-02 
432	 9.09780467589985E-02 
433	 9.09300382282359E-02 
434	 9.09329227211877E-02 
435	 9.13045772406418E-02 
436	 9.14675137697101E-02 
437	 9.15635488018868E-02 
438	 9.16653199067566E-02 
439	 9.18104002507833E-02 
440	 9.20544424654486E-02 
441	 9.22232885129728E-02 
442	 0.092283956329936 
443	 9.24428233037641E-02 
444	 9.25589894542081E-02 
445	 9.27231582238106E-02 
446	 9.29947389600961E-02 
447	 9.30815811785806E-02 
448	 9.31525147326583E-02 
449	 9.32414574945014E-02 
450	 9.32811914477912E-02 
451	 9.33140556736561E-02 
452	 0.093403624110805 
453	 9.35561330362096E-02 
454	 9.36707301614212E-02 
455	 9.36185574537554E-02 
456	 0.093642141931738 
457	 9.39647245526771E-02 
458	 9.39408690514394E-02 
459	 9.38790083221197E-02 
460	 9.38951723702106E-02 
461	 9.38673407365664E-02 
462	 9.38731363689399E-02 
463	 9.39055142770071E-02 
464	 9.39503030088486E-02 
465	 9.40253325981866E-02 
466	 9.40729326881427E-02 
467	 9.41249911730628E-02 
468	 9.42374856567827E-02 
469	 0.094288853125945 
470	 9.43073843654208E-02 
471	 0.094344024837425 
472	 9.44590468813072E-02 
473	 9.45132271888417E-02 
474	 9.45593333326848E-02 
475	 0.094647972350893 
476	 9.46146436894637E-02 
477	 9.46951133220499E-02 
478	 9.48587210534016E-02 
479	 9.49047619037792E-02 
480	 9.49433408295675E-02 
481	 0.095024253189708 
482	 9.51821703817027E-02 
483	 9.54446646098164E-02 
484	 9.56911673728301E-02 
485	 9.59072182260785E-02 
486	 9.61166676214286E-02 
487	 9.62937976314716E-02 
488	 9.64946375320483E-02 
489	 9.66986052604805E-02 
490	 9.68169097967971E-02 
491	 9.69830539462607E-02 
492	 0.097181527230457 
493	 9.73829386467865E-02 
494	 9.76061679359365E-02 
495	 9.78644252466063E-02 
496	 9.81348523668248E-02 
497	 9.83810170152157E-02 
498	 0.098621461504871 
499	 9.88446521089172E-02 
500	 9.90826276630051E-02 
501	 9.94401516043244E-02 
502	 9.97218292889597E-02 
503	 9.99281020745421E-02 
504	 0.10012725936174 
505	 0.100380983065667 
506	 0.100727327014007 
507	 0.101094373967707 
508	 0.101354082791733 
509	 0.101918734194937 
510	 0.102428672022918 
511	 0.10268210092762 
512	 0.103145257308726 
513	 0.103491814234235 
514	 0.10382144327486 
515	 0.104367890734829 
516	 0.104969998892368 
517	 0.105454899440436 
518	 0.105794043587396 
519	 0.106136600202919 
520	 0.106446299986119 
521	 0.106795819222504 
522	 0.107241937414421 
523	 0.107727226483407 
524	 0.108125563358249 
525	 0.108504547039711 
526	 0.109047673228535 
527	 0.10954252991282 
528	 0.109996507234114 
529	 0.110435071389889 
530	 0.110845989868518 
531	 0.111314533364167 
532	 0.11184772731089 
533	 0.11240920784098 
534	 0.112941633708394 
535	 0.113426404820674 
536	 0.113895881341005 
537	 0.114430440584426 
538	 0.115068973622451 
539	 0.115670827761156 
540	 0.116163497009287 
541	 0.11683501176324 
542	 0.117584612754901 
543	 0.118268743546319 
544	 0.118766149244165 
545	 0.119441739150042 
546	 0.120153780342491 
547	 0.120785099071365 
548	 0.121399417064415 
549	 0.121992608549938 
550	 0.122547160312027 
551	 0.123045776023999 
552	 0.12351793046955 
553	 0.123830503370247 
554	 0.124036557125897 
555	 0.124397041923225 
556	 0.124648948435361 
557	 0.124858108546949 
558	 0.125163071149461 
559	 0.1256750114948 
560	 0.126276445882631 
561	 0.126958025954618 
562	 0.127762220987214 
563	 0.128469034077838 
564	 0.129151278548937 
565	 0.129826576203322 
566	 0.130314565074276 
567	 0.130866881477211 
568	 0.131423198085716 
569	 0.131838023191854 
570	 0.132215175383965 
571	 0.132516189223541 
572	 0.132731877136814 
573	 0.132891775349099 
574	 0.133061429249241 
575	 0.13336131610769 
576	 0.13384351472113 
577	 0.134337672212287 
578	 0.134844200704962 
579	 0.135336716065085 
580	 0.135761829688209 
581	 0.135941831983945 
582	 0.136014782023551 
583	 0.136054038156445 
584	 0.135941294448842 
585	 0.135682661044526 
586	 0.135356567081263 
587	 0.135096077920775 
588	 0.135101449237038 
589	 0.135423084457015 
590	 0.135849148079981 
591	 0.135979428525471 
592	 0.136199474295735 
593	 0.136509049125528 
594	 0.136825036859803 
595	 0.137085767232977 
596	 0.137320532103494 
597	 0.137492995770152 
598	 0.137542945594256 
599	 0.137554973238849 
600	 0.137590779622109 
601	 0.137684233645257 
602	 0.137828826608797 
603	 0.138041133840012 
604	 0.138228494719296 
605	 0.138325324409933 
606	 0.13860564741526 
607	 0.138772438334794 
608	 0.138796884235202 
609	 0.138943136351247 
610	 0.138987618691056 
611	 0.138984165379314 
612	 0.138998661238213 
613	 0.138941635094385 
614	 0.13901874163912 
615	 0.1391486198226 
616	 0.139117956593748 
617	 0.139145545270102 
618	 0.139238119693921 
619	 0.139318777534646 
620	 0.139204331727467 
621	 0.139199623035805 
622	 0.139289631508977 
623	 0.139351202471943 
624	 0.139324675648732 
625	 0.139144738370447 
626	 0.138920349418135 
627	 0.138911925309662 
628	 0.138985477406011 
629	 0.139106417441434 
630	 0.139238188022259 
631	 0.139286658008532 
632	 0.139391662167355 
633	 0.139532247336367 
634	 0.13962553655098 
635	 0.139755403770027 
636	 0.139921717468059 
637	 0.140054945427428 
638	 0.13999473686324 
639	 0.140098212887666 
640	 0.140264908336296 
641	 0.140310280067572 
642	 0.14031493846466 
643	 0.140338166931597 
644	 0.140285875214445 
645	 0.139964427574362 
646	 0.139711068628715 
647	 0.139781615410169 
648	 0.140138443892129 
649	 0.140142743439104 
650	 0.140145591113644 
651	 0.140222772528031 
652	 0.140310044156499 
653	 0.140098776564661 
654	 0.140000873915149 
655	 0.14013877655659 
656	 0.1401455200761 
657	 0.140078740132858 
658	 0.139926905377579 
659	 0.139720019088818 
660	 0.139683111844116 
661	 0.13952545338807 
662	 0.139251679526618 
663	 0.139056148858529 
664	 0.138968498676387 
665	 0.138888222264206 
666	 0.138733008954907 
667	 0.138468781225946 
668	 0.138485060075879 
669	 0.13854074008716 
670	 0.138333790276651 
671	 0.13839817190159 
672	 0.138571739071783 
673	 0.138732315311035 
674	 0.138836742675904 
675	 0.139055346415055 
676	 0.139245795897033 
677	 0.13933929204746 
678	 0.139597333906193 
679	 0.139930196744103 
680	 0.140221033137293 
681	 0.140397562286856 
682	 0.14081756729445 
683	 0.141273307977603 
684	 0.141505878874045 
685	 0.141240397559231 
686	 0.141324500811769 
687	 0.141804852361607 
688	 0.1423613390244 
689	 0.142878079126232 
690	 0.143364069722878 
691	 0.143666406954943 
692	 0.143625846295246 
693	 0.144163718168981 
694	 0.144876093547751 
695	 0.145342620232017 
696	 0.145537844244865 
697	 0.145582286218023 
698	 0.145547463365755 
699	 0.145495029156228 
700	 0.145461050460622 
701	 0.145769983071964 
702	 0.146200799491762 
703	 0.146173198022576 
704	 0.146164463945284 
705	 0.146216059619239 
706	 0.146293151285218 
707	 0.146368084997649 
708	 0.146253785030326 
709	 0.146086006700166 
710	 0.146057049751001 
711	 0.145944076269131 
712	 0.145596618843056 
713	 0.145011519931304 
714	 0.144309442378675 
715	 0.143198906950022 
716	 0.141915223605243 
717	 0.140970513492366 
718	 0.140542861869521 
719	 0.140660227212569 
720	 0.140888864511685 
721	 0.14080221197058 
722	 0.140026805273406 
723	 0.139101656964319 
724	 0.13841753915805 
725	 0.137755115874952 
726	 0.137259963942813 
727	 0.136706729224058 
728	 0.135910851955908 
729	 0.134959427515789 
730	 0.13421944697843 
731	 0.133751339127842 
732	 0.133368488519059 
733	 0.132784939004058 
734	 0.132144599439109 
735	 0.131576783292997 
736	 0.131158088955212 
737	 0.131051188603655 
738	 0.131063342494442 
739	 0.131028989210624 
740	 0.131144733246214 
741	 0.131220613425329 
742	 0.13129335816921 
743	 0.131491585882952 
744	 0.131637204400688 
745	 0.131727734065952 
746	 0.131780536769031 
747	 0.131815084309227 
748	 0.13185111464348 
749	 0.131948498984403 
750	 0.132122531952299 
751	 0.132231938489973 
752	 0.132301686463028 
753	 0.132342065382633 
754	 0.132365802000314 
755	 0.132469999436326 
756	 0.132468675872085 
757	 0.132171208858476 
758	 0.131165465548118 
759	 0.129597184476772 
760	 0.128224961961992 
761	 0.128406763173973 
762	 0.128305026479369 
763	 0.129004447192914 
764	 0.130170158648902 
765	 0.131192769000368 
766	 0.132224694463542 
767	 0.132857690232374 
768	 0.13318554225832 
769	 0.133713768454893 
770	 0.133933166420938 
771	 0.134044676675709 
772	 0.134252197478486 
773	 0.134370094329132 
774	 0.134493883789132 
775	 0.134682923923754 
776	 0.13493084675093 
777	 0.134927799699035 
778	 0.13501386934202 
779	 0.135303508220428 
780	 0.135620750586631 
781	 0.135653417240092 
782	 0.135708964252319 
783	 0.135944990908366 
784	 0.135901473474835 
785	 0.135927731017684 
786	 0.135984275013424 
787	 0.135940153651638 
788	 0.135919477394889 
789	 0.136123510809726 
790	 0.13651226382075 
791	 0.13685290009381 
792	 0.137156757826826 
793	 0.137352545831065 
794	 0.137408951195925 
795	 0.13735556979792 
796	 0.137327974516325 
797	 0.137497618535973 
798	 0.137848894095059 
799	 0.13774075108685 
800	 0.137646178093615 
801	 0.137745031458195 
802	 0.137989463330465 
803	 0.138098195622282 
804	 0.13837422577967 
805	 0.138679835566605 
806	 0.138394117430485 
807	 0.138189778724213 
808	 0.137954204639359 
809	 0.137538976455699 
810	 0.137114561054091 
811	 0.136503761346888 
812	 0.135777389898108 
813	 0.135093251697011 
814	 0.134304119855299 
815	 0.133880669439186 
816	 0.133816615214144 
817	 0.133699173433998 
818	 0.133834785657497 
819	 0.133781722635204 
820	 0.133307766598357 
821	 0.132462788674145 
822	 0.131429984134092 
823	 0.130756554491456 
824	 0.130509471769285 
825	 0.129596316999651 
826	 0.128493173090743 
827	 0.127259397327356 
828	 0.125958487225437 
829	 0.124914535574574 
830	 0.123839839079349 
831	 0.122870611780142 
832	 0.12239905235775 
833	 0.12159877873112 
834	 0.121043533550206 
835	 0.120865513051505 
836	 0.120443057545938 
837	 0.120170224947193 
838	 0.119932797837147 
839	 0.119635285987367 
840	 0.119505033330554 
841	 0.119406036851028 
842	 0.119182252128599 
843	 0.118792032060709 
844	 0.118731692267793 
845	 0.118612133616908 
846	 0.118326619325932 
847	 0.117999778747858 
848	 0.117750139031983 
849	 0.117373843045569 
850	 0.116953158218559 
851	 0.116927623550739 
852	 0.116520895532197 
853	 0.116100010103064 
854	 0.116009388894901 
855	 0.116010170086395 
856	 0.115702607411548 
857	 0.115518671639086 
858	 0.115740799204353 
859	 0.11524478019033 
860	 0.114864244223579 
861	 0.114752818410762 
862	 0.114649607017077 
863	 0.114195025487889 
864	 0.113951254548336 
865	 0.113941898946799 
866	 0.113678616093401 
867	 0.113454769840088 
868	 0.113082704671232 
869	 0.112659914736261 
870	 0.112686242763715 
871	 0.112235104655122 
872	 0.111738811753614 
873	 0.111497199659924 
874	 0.110814202440289 
875	 0.110527525381372 
876	 0.110328633165153 
877	 0.109768660875467 
878	 0.109244436348502 
879	 0.108949016526077 
880	 0.108634107334867 
881	 0.108004724363751 
882	 0.107802746104315 
883	 0.107437160240325 
884	 0.106805688867587 
885	 0.106257388989828 
886	 0.106147103189437 
887	 0.105755514424831 
888	 0.10504983869317 
889	 0.104833757006916 
890	 0.104202828359567 
891	 0.103607743008538 
892	 0.103310136734239 
893	 0.10276091703156 
894	 0.101851864944938 
895	 0.100971556987783 
896	 0.100390149703516 
897	 0.099408445762912 
898	 9.87530650002891E-02 
899	 9.83279201256857E-02 
900	 9.79314226548193E-02 
901	 9.81936511043037E-02 
902	 0.098006178270625 
903	 9.74910910591281E-02 
904	 9.71439713991833E-02 
905	 9.66905914214996E-02 
906	 9.63348302418744E-02 
907	 9.57492354460582E-02 
908	 9.44647064183593E-02 
909	 9.38786667478691E-02 
910	 9.38411596224583E-02 
911	 9.35786963541713E-02 
912	 9.21817042292745E-02 
913	 9.10441844971811E-02 
914	 9.02720455602689E-02 
915	 8.97257579442137E-02 
916	 8.91513578336726E-02 
917	 8.79338559904634E-02 
918	 8.67486174459908E-02 
919	 0.08617834834351 
920	 8.63670842193445E-02 
921	 8.59532259044153E-02 
922	 0.08453086717388 
923	 8.25235394887588E-02 
924	 8.16448921590174E-02 
925	 8.06046319756229E-02 
926	 7.91691766699664E-02 
927	 7.74474058781143E-02 
928	 7.55703080546416E-02 
929	 7.54440170661391E-02 
930	 7.57453562366138E-02 
931	 7.31524932503727E-02 
932	 6.80585149333113E-02 
933	 0.067960082826464 
934	 6.90424173644657E-02 
935	 6.33480285207191E-02 
936	 5.61497832633004E-02 
937	 5.73437560677011E-02 
938	 6.08006485998355E-02 
939	 5.89994658317613E-02 
940	 0.058285095225874 
941	 5.75019284717484E-02 
942	 5.62132131265646E-02 
943	 5.40291204714554E-02 
944	 4.84024878271755E-02 
945	 4.85714951468242E-02 
946	 5.15277691485115E-02 
947	 4.86659706106032E-02 
948	 4.74012494467759E-02 
949	 4.73481394428095E-02 
950	 4.55055322616393E-02 
951	 3.99374862542769E-02 
952	 4.28634430032173E-02 
953	 4.39672804634597E-02 
954	 4.16025963963304E-02 
955	 4.09224493929938E-02 
956	 4.10566704200786E-02 
957	 4.12527044886597E-02 
958	 0.040411853375912 
959	 3.81516173074262E-02 
960	 3.98635990713929E-02 
961	 4.07811184661519E-02 
962	 4.01177904783149E-02 
963	 4.02006769260513E-02 
964	 3.92060139916305E-02 
965	 3.88912324660786E-02 
966	 3.94851221420036E-02 
967	 3.99456056507915E-02 
968	 3.99867447166599E-02 
969	 4.01378360610931E-02 
970	 4.00243185346271E-02 
971	 0.038920056547938 
972	 4.04984452876849E-02 
973	 4.25739332719473E-02 
974	 4.23097972345715E-02 
975	 3.83098479535733E-02 
976	 3.93389110525595E-02 
977	 0.039452075052807 
978	 3.86374182851891E-02 
979	 4.20128333768261E-02 
980	 4.11807042884779E-02 
981	 4.07499453228403E-02 
982	 4.15309690685478E-02 
983	 4.06370184826775E-02 
984	 3.99609917821237E-02 
985	 4.03732952553958E-02 
986	 0.041181890865258 
987	 4.09252926036852E-02 
988	 4.11030837251439E-02 
989	 4.19643600883512E-02 
990	 4.27380942277693E-02 
991	 4.23294830730734E-02 
992	 4.19943926760471E-02 
993	 4.21855312737011E-02 
994	 4.26603379194922E-02 
995	 4.27971636905075E-02 
996	 4.25440709984845E-02 
997	 4.34543021472327E-02 
998	 4.50383845152683E-02 
999	 4.55602321582736E-02 
1000	 4.47676803022466E-02 
1001	 4.08279399292712E-02 
1002	 4.08719135893791E-02 
1003	 4.09596715261628E-02 
1004	 4.08122361534019E-02 
1005	 4.07850730609802E-02 
1006	 4.07834080931887E-02 
1007	 4.10421077127508E-02 
1008	 4.12417715770092E-02 
1009	 4.17809145698283E-02 
1010	 4.27067830409874E-02 
1011	 4.34164746032364E-02 
1012	 4.41023373330594E-02 
1013	 4.47733616558263E-02 
1014	 4.51937547219787E-02 
1015	 4.53444317374818E-02 
1016	 0.045612707624335 
1017	 4.54399583715603E-02 
1018	 4.59640435353546E-02 
1019	 4.72562595458157E-02 
1020	 4.77894296511811E-02 
1021	 4.83692438859004E-02 
1022	 4.87670971574425E-02 
1023	 4.85468358488998E-02 
1024	 4.83760559932915E-02 
1025	 4.88133275794854E-02 
1026	 4.92328765079095E-02 
1027	 4.94907023201396E-02 
1028	 4.95177090110875E-02 
1029	 5.02047199889158E-02 
1030	 5.11196082599985E-02 
1031	 5.19471071693991E-02 
1032	 5.33551280816784E-02 
1033	 5.42159342697032E-02 
1034	 5.47187530019262E-02 
1035	 5.52452604075989E-02 
1036	 5.56974584746779E-02 
1037	 5.61707863388795E-02 
1038	 5.64898806801253E-02 
1039	 5.68251101308985E-02 
1040	 5.74848922129877E-02 
1041	 5.75844342688569E-02 
1042	 5.79914238944068E-02 
1043	 5.83524305965372E-02 
1044	 5.89007576546416E-02 
1045	 5.93976124566132E-02 
1046	 6.03422999824858E-02 
1047	 6.19843768291486E-02 
1048	 6.28037997273182E-02 
1049	 6.37003007601644E-02 
1050	 6.42004718012223E-02 
1051	 6.36847861034635E-02 
1052	 6.38201659962546E-02 
1053	 6.42438493058819E-02 
1054	 6.45327146883096E-02 
1055	 6.47343627194334E-02 
1056	 6.52799680952991E-02 
1057	 6.59679276539815E-02 
1058	 6.67837226299345E-02 
1059	 6.74138267023236E-02 
1060	 6.85396137063611E-02 
1061	 0.06879216593708 
1062	 6.82861371336108E-02 
1063	 6.82581018837073E-02 
1064	 6.77546327039976E-02 
1065	 0.067996561963964 
1066	 6.90911835227468E-02 
1067	 6.95121283076398E-02 
1068	 7.02098859139037E-02 
1069	 7.03895073305649E-02 
1070	 0.069507590488725 
1071	 6.93401879470526E-02 
1072	 0.069426333168783 
1073	 6.94511485526331E-02 
1074	 6.95611603341314E-02 
1075	 7.02289323694099E-02 
1076	 7.00823898392493E-02 
1077	 6.93561916419676E-02 
1078	 6.91440746122939E-02 
1079	 6.88732850405071E-02 
1080	 6.85888230057196E-02 
1081	 6.86444708568492E-02 
1082	 6.83255437808341E-02 
1083	 6.75886052935898E-02 
1084	 0.067149611996541 
1085	 6.66890112217704E-02 
1086	 6.63286302421109E-02 
1087	 6.63301728920356E-02 
1088	 6.59194358279381E-02 
1089	 0.064773795445996 
1090	 6.47078643461504E-02 
1091	 6.44144915146116E-02 
1092	 6.40677318238983E-02 
1093	 6.35224898841918E-02 
1094	 6.31222640070409E-02 
1095	 6.26256204601286E-02 
1096	 6.17967960285158E-02 
1097	 6.12017758368562E-02 
1098	 6.10770370837999E-02 
1099	 6.03549947238323E-02 
1100	 5.87307712287348E-02 
1101	 5.79502208192327E-02 
1102	 0.057427594728551 
1103	 5.70697294818189E-02 
1104	 5.75303430643955E-02 
1105	 0.05758076320904 
1106	 5.78534149995551E-02 
1107	 5.74232988954102E-02 
1108	 5.61252514857984E-02 
1109	 5.56860298658732E-02 
1110	 5.48717732963601E-02 
1111	 5.30443614056971E-02 
1112	 0.052556899520322 
1113	 5.31713270963369E-02 
1114	 5.31722346499016E-02 
1115	 5.45844905112626E-02 
1116	 5.39917940429919E-02 
1117	 5.02239471295508E-02 
1118	 4.91979100518367E-02 
1119	 4.82578306821073E-02 
1120	 4.75127614654367E-02 
1121	 5.14057954284498E-02 
1122	 5.48477773209276E-02 
1123	 4.91197126974384E-02 
1124	 0.047017560262799 
1125	 4.63073891854809E-02 
1126	 4.25121132419913E-02 
1127	 4.19357116390099E-02 
1128	 4.05048595701525E-02 
1129	 4.13675154449444E-02 
1130	 4.40957216123213E-02 
1131	 0.042517347192175 
1132	 4.05915306941362E-02 
1133	 4.00819382613882E-02 
1134	 3.55931235315958E-02 
1135	 3.55564129714493E-02 
1136	 4.23228038326831E-02 
1137	 4.21546704566585E-02 
1138	 3.92544646708647E-02 
1139	 3.65255558987323E-02 
1140	 3.42143413301243E-02 
1141	 3.41045669602784E-02 
1142	 3.76183500696702E-02 
1143	 3.99230099037402E-02 
1144	 3.97174670775302E-02 
1145	 3.58998158755656E-02 
1146	 3.15203626954572E-02 
1147	 3.21359206999743E-02 
1148	 0.034085658914086 
1149	 3.49891540303851E-02 
1150	 3.52475898625345E-02 
1151	 3.51308034832632E-02 
1152	 3.43964298707424E-02 
1153	 3.29168749234859E-02 
1154	 3.25140625500241E-02 
1155	 3.22362121060006E-02 
1156	 3.24459408405267E-02 
1157	 3.26192666513076E-02 
1158	 0.032386959895939 
1159	 3.30994440745076E-02 
1160	 3.30531036145284E-02 
1161	 3.18897910877493E-02 
1162	 3.19228217095751E-02 
1163	 3.19539646270202E-02 
1164	 3.11605605058397E-02 
1165	 3.11548160080543E-02 
1166	 3.12515143450638E-02 
1167	 3.04712875507147E-02 
1168	 2.99112077044975E-02 
1169	 2.99152530076455E-02 
1170	 3.00682718151473E-02 
1171	 3.01045243846022E-02 
1172	 0.030307064818467 
1173	 0.030335261158224 
1174	 3.02786480000035E-02 
1175	 3.01741754623971E-02 
1176	 3.00384611411938E-02 
1177	 2.96416808321008E-02 
1178	 2.93772503599181E-02 
1179	 2.93626626648381E-02 
1180	 2.91638579016612E-02 
1181	 2.92384738445142E-02 
1182	 2.97636285985942E-02 
1183	 2.98670449589786E-02 
1184	 2.94288653890085E-02 
1185	 2.93270209941273E-02 
1186	 2.92672380667686E-02 
1187	 2.90571563162448E-02 
1188	 2.93321531999394E-02 
1189	 0.029761765353442 
1190	 2.98873812452757E-02 
1191	 2.95970529162713E-02 
1192	 2.94695792769172E-02 
1193	 2.91945452211355E-02 
1194	 2.91952591579335E-02 
1195	 2.90550683124301E-02 
1196	 2.89722333456147E-02 
1197	 2.89217375614245E-02 
1198	 2.87957959481338E-02 
1199	 2.88292974044624E-02 
1200	 2.88500916296853E-02 
1201	 2.88616313021219E-02 
1202	 2.87341701412364E-02 
1203	 2.88419638543347E-02 
1204	 2.92736913910482E-02 
1205	 2.91815253303793E-02 
1206	 2.89435953816508E-02 
1207	 2.88603432826679E-02 
1208	 2.89300135019368E-02 
1209	 2.93256368629905E-02 
1210	 2.94684256630329E-02 
1211	 2.92447863739174E-02 
1212	 0.028757146659659 
1213	 2.86087829377574E-02 
1214	 2.87757691269697E-02 
1215	 2.95227745398603E-02 
1216	 2.98254168878058E-02 
1217	 2.96408179947523E-02 
1218	 0.029435508923868 
1219	 2.91531032470177E-02 
1220	 2.90182385971689E-02 
1221	 2.91758487193484E-02 
1222	 2.93731513544414E-02 
1223	 2.93226278630376E-02 
1224	 2.91728350887555E-02 
1225	 2.93210025699514E-02 
1226	 2.97816872191595E-02 
1227	 2.97421813708313E-02 
1228	 2.96086921463524E-02 
1229	 2.99467079176761E-02 
1230	 2.97603146272368E-02 
1231	 2.93977677496286E-02 
1232	 2.95090946126052E-02 
1233	 2.96118953675906E-02 
1234	 2.95908360768429E-02 
1235	 2.95092154212321E-02 
1236	 2.94137555287494E-02 
1237	 2.94333928829964E-02 
1238	 2.93241696686831E-02 
1239	 2.94057721324632E-02 
1240	 2.97481077279283E-02 
1241	 2.98912821052385E-02 
1242	 2.98125789060053E-02 
1243	 2.97038174458908E-02 
1244	 2.96924461627271E-02 
1245	 2.96662919421496E-02 
1246	 2.97073057601582E-02 
1247	 3.00402540958136E-02 
1248	 2.99183433368047E-02 
1249	 2.95432932421361E-02 
1250	 2.95285145009172E-02 
1251	 2.93000425135133E-02 
1252	 0.029235962508932 
1253	 2.97685697788377E-02 
1254	 2.98308304049292E-02 
1255	 2.96538653752979E-02 
1256	 2.97226185422289E-02 
1257	 2.98257278799365E-02 
1258	 2.97229904681475E-02 
1259	 2.96436773184724E-02 
1260	 0.02968365222755 
1261	 2.96510433200783E-02 
1262	 2.97045509388847E-02 
1263	 3.00134995017235E-02 
1264	 0.030085728453183 
1265	 3.00291329262029E-02 
1266	 2.99379219996663E-02 
1267	 2.98155153097063E-02 
1268	 2.99110761773473E-02 
1269	 3.01166213431058E-02 
1270	 3.01365604984635E-02 
1271	 3.01461714143296E-02 
1272	 3.01061841472367E-02 
1273	 3.00119052811626E-02 
1274	 3.00258829725711E-02 
1275	 3.00302316603906E-02 
1276	 2.98954053734919E-02 
1277	 2.97669439437508E-02 
1278	 2.97420024247795E-02 
1279	 2.96825933941692E-02 
1280	 2.97247214435623E-02 
1281	 2.95751979357834E-02 
1282	 0.02895217127088 
1283	 2.89687120589337E-02 
1284	 2.95657711309364E-02 
1285	 0.029518473161489 
1286	 2.95097407948437E-02 
1287	 0.029560415036312 
1288	 0.02894504428255 
1289	 2.87293758439763E-02 
1290	 2.90012255466792E-02 
1291	 2.91610668113263E-02 
1292	 2.90158097070776E-02 
1293	 2.87650929340711E-02 
1294	 2.86303936974722E-02 
1295	 2.88561973362449E-02 
1296	 2.87981174604991E-02 
1297	 2.84837977611736E-02 
1298	 2.81608888118707E-02 
1299	 2.77436660914515E-02 
1300	 2.73810904669956E-02 
1301	 2.75055601267029E-02 
1302	 2.79737038001663E-02 
1303	 0.027875718339769 
1304	 2.72911927096375E-02 
1305	 2.70766856743771E-02 
1306	 2.71295722847455E-02 
1307	 2.72482372532279E-02 
1308	 2.70361331081614E-02 
1309	 2.70278251917779E-02 
1310	 2.71366346338277E-02 
1311	 0.026992195797 
1312	 2.66605028737131E-02 
1313	 0.026563748923483 
1314	 2.66532467198523E-02 
1315	 2.63094571063857E-02 
1316	 2.60056366887593E-02 
1317	 2.62753983405545E-02 
1318	 2.64016175479029E-02 
1319	 2.59349611617581E-02 
1320	 2.58018051906247E-02 
1321	 2.62120011867271E-02 
1322	 2.67572638055023E-02 
1323	 2.58991187137097E-02 
1324	 2.46328903607918E-02 
1325	 2.45645181978474E-02 
1326	 2.41345315175121E-02 
1327	 2.40880559531556E-02 
1328	 2.51272553356495E-02 
1329	 2.48570758967995E-02 
1330	 2.40353009276275E-02 
1331	 2.35367697744532E-02 
1332	 2.25392738071642E-02 
1333	 2.17800850786753E-02 
1334	 2.19283246214523E-02 
1335	 2.19399405836799E-02 
1336	 2.28852735142065E-02 
1337	 2.27335629022517E-02 
1338	 2.14660596480521E-02 
1339	 2.14138970497891E-02 
1340	 2.17738356955779E-02 
1341	 2.19598363162103E-02 
1342	 2.32662487341654E-02 
1343	 0.023695590569509 
1344	 2.30154267225497E-02 
1345	 2.27918660080644E-02 
1346	 2.37541789743981E-02 
1347	 2.21374742783948E-02 
1348	 1.29826259405897E-02 
1349	 1.04771875534065E-02 
1350	 1.78436051293814E-02 
1351	 1.67025584061592E-02 
1352	 1.74847557189322E-02 
1353	 2.37639247855026E-02 
1354	 2.86706283541355E-02 
1355	-2.40181139924062E-02 
1356	-9.89399195737122E-02 
1357	-4.15310231851368E-02 
1358	-1.39227498460868E-02 
1359	-8.66650628685573E-02 
1360	 5.79927376039234E-02 
1361	 0.264302653922403 
1362	-0.122090578131858 
1363	-0.147835870190983 
1364	 6.77085060328033E-02 
1365	 6.10267678047054E-02 
1366	 4.84953776838058E-02 
1367	 0.269640968088578 
1368	 0.471542314196459 
1369	 0.199287324016812 
1370	 0.195357192872094 
1371	 0.714053757019985 
1372	 0.619145966838578 
1373	 4.59624551241981E-02 
1374	-4.67797165638846E-02 
1375	-0.191189446512643 
1376	-0.253984973215984 
1377	 8.88806909118654E-02 
1378	 0.112995237591814 
1379	-0.299474811917238 
1380	-0.210056737123679 
1381	 8.42560233237955E-02 
1382	 6.23489340934655E-02 
1383	-2.39505438484475E-02 
1384	 0.124847363159127 
1385	 0.33058097504681 
1386	 0.198753608415168 
1387	 0.131155431840972 
1388	 0.104526664402138 
1389	-0.269056892921777 
1390	-0.434771827442647 
1391	-0.433347409583645 
1392	-0.202507870948014 
1393	-0.552688992008604 
1394	-1.36022032556832 
1395	-0.614723676388708 
1396	 3.02175687039791E-02 
1397	-0.28145186207529 
1398	 1.88984274399421E-02 
1399	-0.359778946313396 
1400	-0.820723155415176 
1401	-0.397492394737011 
1402	 3.51470230246099E-02 
1403	 0.34936718429503 
1404	 0.826113265803772 
1405	 0.684459954905309 
1406	 0.178558883080491 
1407	 0.121740716661523 
1408	 4.04054728660019E-02 
1409	 7.8493837039022E-03 
1410	 5.82240735385146E-02 
1411	 0.116039872499527 
1412	 0.174665575538369 
1413	 0.136064891798553 
1414	 0.145825206718737 
1415	 0.126532472430918 
1416	 1.76649363112321E-02 
1417	-1.52111968926857E-02 
1418	-1.00222944045445E-02 
1419	-9.80211333878453E-03 
1420	-9.92372399629898E-03 
1421	-9.19256149963932E-03 
1422	 5.32956498261582E-03 
1423	 6.77843331768658E-03 
1424	-2.93268133167624E-03 
1425	-7.68988389110136E-03 
1426	-1.13642229808109E-02 
1427	-1.10553521498491E-02 
1428	-1.45485779419807E-02 
1429	-1.50382083448891E-02 
1430	-5.10331557183173E-03 
1431	-1.00172774157151E-03 
1432	 2.80694510280616E-03 
1433	 1.9137634414773E-03 
1434	-1.11170437763588E-02 
1435	-0.012817871523842 
1436	-1.75372898785021E-02 
1437	-7.06343512669866E-03 
1438	 1.10897320450194E-02 
1439	 6.48544489386723E-03 
1440	-1.05677596075217E-02 
1441	-3.0805969604533E-03 
1442	 7.23140490923766E-03 
1443	 4.83812212709479E-03 
1444	 2.63178033884402E-03 
1445	 4.6877828498415E-03 
1446	 0.010749580852716 
1447	 9.34042250465165E-03 
1448	 3.58308074864687E-03 
1449	 5.30361664747009E-03 
1450	 6.41592537038282E-03 
1451	 3.60495398310963E-03 
1452	 4.32885723586731E-03 
1453	 3.40217765963599E-03 
1454	 2.74569102958409E-03 
1455	 1.02409823820729E-03 
1456	-2.55426900616035E-04 
1457	-1.6036346011681E-03 
1458	-1.58389973132208E-03 
1459	-2.35810306704166E-03 
1460	-1.5617040065185E-03 
1461	 2.70472950320511E-03 
1462	 2.81727277596357E-03 
1463	 4.35486634052137E-04 
1464	 5.26357605419894E-04 
1465	 5.86303449638206E-04 
1466	-1.46026662434891E-04 
1467	-9.96053745341082E-04 
1468	-1.59841074303049E-04 
1469	 6.40331313939531E-04 
1470	 5.34012292092356E-04 
1471	 2.52892613810234E-03 
1472	 4.12955045572453E-03 
1473	 4.6093505619546E-03 
1474	 4.33090959409846E-03 
1475	 3.61591788124332E-03 
1476	 3.72289152721132E-03 
1477	 3.51966787521816E-03 
1478	 2.58734835613019E-03 
1479	 2.50286136095587E-03 
1480	 2.61095237458681E-03 
1481	 2.61283278524444E-03 
1482	 1.83951964551613E-04 
1483	-5.20126834764153E-03 
1484	-4.40372555427231E-03 
1485	-1.51029115032872E-03 
1486	-1.05237696115937E-03 
1487	 2.27748713401172E-03 
1488	 3.33097973846201E-03 
1489	 1.14264021714152E-03 
1490	 4.07607007861454E-04 
1491	 7.73960285551032E-04 
1492	 5.01242512475931E-04 
1493	-8.85321503882771E-04 
1494	-9.72456449096693E-04 
1495	 1.29858888082571E-04 
1496	 2.41280482156741E-04 
1497	-7.65836060619176E-05 
1498	 2.8216723797248E-04 
1499	 8.25797561947033E-04 
1500	 7.12030006513626E-04 
1501	 5.32683206759283E-04 
1502	 8.22283076105527E-04 
1503	 9.48007136378959E-04 
1504	 8.48268303787404E-04 
1505	 8.77700085924039E-04 
1506	 1.41492362763456E-03 
1507	 1.44212720353676E-03 
1508	 1.07326136694642E-03 
1509	 1.32839229072502E-03 
1510	 1.53851548146116E-03 
1511	 1.25220666218937E-03 
1512	 8.88034278883224E-04 
1513	 8.87575882341343E-04 
1514	 1.27676141627465E-03 
1515	 1.60989321853535E-03 
1516	 2.06252770103771E-03 
1517	 2.40046383282504E-03 
1518	 2.10614223577019E-03 
1519	 1.68233903413989E-03 
1520	 1.44246340492871E-03 
1521	 1.32341603010789E-03 
1522	 1.67471271995717E-03 
1523	 1.74937606848363E-03 
1524	 1.46951945468595E-03 
1525	 1.85048702965677E-03 
1526	 1.86531588939419E-03 
1527	 1.50134720040324E-03 
1528	 2.0040221603709E-03 
1529	 2.44722971800275E-03 
1530	 2.11986474069139E-03 
1531	 2.07193130216484E-03 
1532	 2.36908618990939E-03 
1533	 2.11577163137462E-03 
1534	 1.84760637803719E-03 
1535	 2.01940243361975E-03 
1536	 2.15037246560573E-03 
1537	 2.12218762414735E-03 
1538	 0.002195525587785 
1539	 2.54068374044544E-03 
1540	 2.69089723629814E-03 
1541	 2.69111507289282E-03 
1542	 2.67039077268369E-03 
1543	 2.50095973046654E-03 
1544	 2.75515000404167E-03 
1545	 2.89572152885882E-03 
1546	 2.57514503868305E-03 
1547	 2.59167427237346E-03 
1548	 2.82282980423652E-03 
1549	 2.83034340864463E-03 
1550	 2.74410601905229E-03 
1551	 2.79789309052163E-03 
1552	 3.00061400992812E-03 
1553	 3.15957697945168E-03 
1554	 3.28311114123947E-03 
1555	 3.52279202880344E-03 
1556	 3.28248297673849E-03 
1557	 2.97273433330962E-03 
1558	 3.45997686827786E-03 
1559	 3.50918603595326E-03 
1560	 2.89092437868919E-03 
1561	 2.95467774892585E-03 
1562	 3.60382651588538E-03 
1563	 4.11592831998943E-03 
1564	 4.11932264595484E-03 
1565	 3.53231883798029E-03 
1566	 3.1591848194652E-03 
1567	 3.66770367849645E-03 
1568	 4.22307109001846E-03 
1569	 4.32778095053846E-03 
1570	 4.73099052929346E-03 
1571	 4.94479438896138E-03 
1572	 4.49055684242019E-03 
1573	 4.54697730380179E-03 
1574	 4.89829963752335E-03 
1575	 4.80685326242546E-03 
1576	 4.98618135527244E-03 
1577	 5.30475712720863E-03 
1578	 5.17571735750279E-03 
1579	 4.86498469651017E-03 
1580	 4.79359812163554E-03 
1581	 4.99671015090301E-03 
1582	 5.10339799504419E-03 
1583	 5.21014903107277E-03 
1584	 5.45589509771499E-03 
1585	 5.47943137995583E-03 
1586	 5.39746954879794E-03 
1587	 5.37980206788612E-03 
1588	 5.40103751800394E-03 
1589	 5.49349232398111E-03 
1590	 5.63010374059615E-03 
1591	 5.77140615363491E-03 
1592	 5.71163585568248E-03 
1593	 5.68070904690223E-03 
1594	 5.60719148579573E-03 
1595	 5.30240061425615E-03 
1596	 5.3609557495121E-03 
1597	 5.76621884472078E-03 
1598	 5.76923193700662E-03 
1599	 5.60037390299243E-03 
1600	 5.8804319111654E-03 
1601	 5.9319136120598E-03 
1602	 5.82075526342622E-03 
1603	 6.18064227873456E-03 
1604	 6.38581518354499E-03 
1605	 6.25032153734918E-03 
1606	 6.28540118202643E-03 
1607	 6.33822348362966E-03 
1608	 6.13295407532795E-03 
1609	 6.25971346821361E-03 
1610	 0.006780728057045 
1611	 6.92976027008107E-03 
1612	 6.52391085259787E-03 
1613	 6.0391417682677E-03 
1614	 6.26133284085358E-03 
1615	 6.85421561462664E-03 
1616	 6.88222799513774E-03 
1617	 6.8391100258331E-03 
1618	 6.9053462295988E-03 
1619	 6.70542995557942E-03 
1620	 6.64575468766972E-03 
1621	 6.86202499441274E-03 
1622	 6.8416212237569E-03 
1623	 6.65759312006605E-03 
1624	 7.23812642280257E-03 
1625	 7.8706513473831E-03 
1626	 7.37633032814594E-03 
1627	 6.92227964719585E-03 
1628	 7.0197978983357E-03 
1629	 6.89657060879794E-03 
1630	 6.89461884642201E-03 
1631	 7.31055934560744E-03 
1632	 7.47138335071609E-03 
1633	 7.33712238111627E-03 
1634	 7.38657206978411E-03 
1635	 7.3702892489438E-03 
1636	 7.29952662807805E-03 
1637	 7.40819611132909E-03 
1638	 7.5083712361523E-03 
1639	 7.73563883952691E-03 
1640	 7.85443510227396E-03 
1641	 7.67800904449971E-03 
1642	 7.75033332982484E-03 
1643	 7.87158252473584E-03 
1644	 7.7558621807282E-03 
1645	 7.75760719141104E-03 
1646	 8.0957930723274E-03 
1647	 8.1847916443258E-03 
1648	 7.83342834029273E-03 
1649	 7.55900941158159E-03 
1650	 7.33973969574381E-03 
1651	 7.41698717117684E-03 
1652	 7.65022235105701E-03 
1653	 7.82613505010415E-03 
1654	 7.9751326376077E-03 
1655	 7.85952021216912E-03 
1656	 7.80089663409382E-03 
1657	 7.79011876560867E-03 
1658	 7.92733533291081E-03 
1659	 7.98208833343767E-03 
1660	 8.06216549451266E-03 
1661	 8.83743129970256E-03 
1662	 0.00873514227828 
1663	 7.52222236259762E-03 
1664	 7.49145159317205E-03 
1665	 7.98926090806236E-03 
1666	 8.05502549317642E-03 
1667	 8.3181300877103E-03 
1668	 8.29115758885979E-03 
1669	 8.51473403561755E-03 
1670	 8.56838231132552E-03 
1671	 8.55627578307632E-03 
1672	 8.37102959518105E-03 
1673	 8.35317515718872E-03 
1674	 8.44974116849652E-03 
1675	 8.63559694831608E-03 
1676	 8.84743904105293E-03 
1677	 8.19935999727207E-03 
1678	 7.15657712771787E-03 
1679	 7.27763562264781E-03 
1680	 8.10899339267417E-03 
1681	 8.26778563589263E-03 
1682	 8.23979371034455E-03 
1683	 8.40728551196683E-03 
1684	 8.31439175162234E-03 
1685	 8.41751541581546E-03 
1686	 8.66763118699499E-03 
1687	 8.40507178174964E-03 
1688	 8.28071571762505E-03 
1689	 8.69209062780144E-03 
1690	 8.74558498324327E-03 
1691	 8.38579697809259E-03 
1692	 8.16847979800236E-03 
1693	 7.86118541695286E-03 
1694	 7.7683584225019E-03 
1695	 8.10914873417123E-03 
1696	 8.1621404102374E-03 
1697	 8.15409385478325E-03 
1698	 8.22264460594954E-03 
1699	 8.34507260747604E-03 
1700	 8.48187927793788E-03 
1701	 7.84481825244638E-03 
1702	 7.38662866044996E-03 
1703	 7.98182995181002E-03 
1704	 8.4161316787079E-03 
1705	 8.55007707698737E-03 
1706	 8.75470324348828E-03 
1707	 8.8193364269773E-03 
1708	 8.50714642729747E-03 
1709	 7.87883727926143E-03 
1710	 7.92968396205963E-03 
1711	 7.82711927096156E-03 
1712	 7.07570748455697E-03 
1713	 7.84210726413139E-03 
1714	 8.1087450640771E-03 
1715	 7.60158336097836E-03 
1716	 8.00549244272931E-03 
1717	 7.92544365865346E-03 
1718	 7.26347215236559E-03 
1719	 7.61111357920661E-03 
1720	 8.14333061709739E-03 
1721	 7.84289049256012E-03 
1722	 7.31691145497318E-03 
1723	 7.25094388657979E-03 
1724	 7.95587515458251E-03 
1725	 8.13865687625663E-03 
1726	 7.36241522900778E-03 
1727	 6.82473565214401E-03 
1728	 6.62125823023858E-03 
1729	 6.63186276819116E-03 
1730	 7.21028955345857E-03 
1731	 7.78461344700546E-03 
1732	 7.21923130140957E-03 
1733	 6.31544791425733E-03 
1734	 7.21717513032658E-03 
1735	 8.09913502994889E-03 
1736	 6.9115211601195E-03 
1737	 6.89342540343407E-03 
1738	 7.38218047836882E-03 
1739	 6.20793299546005E-03 
1740	 6.76050334892883E-03 
1741	 8.24212615525047E-03 
1742	 7.83836031096088E-03 
1743	 7.49124538146069E-03 
1744	 7.79936049382014E-03 
1745	 7.70455161699508E-03 
1746	 7.61000656678527E-03 
1747	 7.42880274913831E-03 
1748	 6.65702005542303E-03 
1749	 5.75336731900434E-03 
1750	 4.56378448341421E-03 
1751	 4.8338310158341E-03 
1752	 6.25218675014649E-03 
1753	 6.26742856347158E-03 
1754	 6.25324783132492E-03 
1755	 6.21528071759648E-03 
1756	 5.08486732748268E-03 
1757	 5.52792266974885E-03 
1758	 5.55150646455453E-03 
1759	 5.38694352745998E-03 
1760	 6.49940574512107E-03 
1761	 7.25408863733944E-03 
1762	 7.11182616208632E-03 
1763	 6.46876409916335E-03 
1764	 4.18303017199012E-03 
1765	 4.06715138344948E-03 
1766	 6.29389022164134E-03 
1767	 6.46723050212548E-03 
1768	 6.7609319371459E-03 
1769	 6.70059035995252E-03 
1770	 4.7876678623268E-03 
1771	 6.10358292833748E-03 
1772	 8.44014184516913E-03 
1773	 7.81724407426734E-03 
1774	 7.9748381695252E-03 
1775	 7.29711259662016E-03 
1776	 6.59287406356663E-03 
1777	 6.89890716982823E-03 
1778	 6.54484043444588E-03 
1779	 4.65851227272035E-03 
1780	 4.05125482450671E-03 
1781	 3.93361494476631E-03 
1782	 4.76766239455925E-03 
1783	 8.09521881386261E-03 
1784	 0.008326352753062 
1785	 7.82754048738963E-03 
1786	 6.78172186675708E-03 
1787	 2.49826162343545E-03 
1788	 3.98806107343068E-04 
1789	-1.12108344086074E-03 
1790	-1.99931303550892E-03 
1791	-3.3843031736426E-03 
1792	-6.56114358491876E-03 
1793	-3.09172476554861E-03 
1794	 6.66490286359005E-03 
1795	 1.18600208669081E-02 
1796	 1.32749932395679E-02 
1797	 1.45135868841208E-02 
1798	-1.75811867799386E-03 
1799	-0.014856388745952 
1800	-3.64751189924256E-03 
1801	 1.7535371324717E-03 
1802	 3.46524345614242E-02 
1803	 0.045831007944542 
1804	 2.04543235642206E-02 
1805	 6.63790092683729E-03 
1806	-5.38544181043467E-02 
1807	-6.99829266797615E-02 
1808	-6.07542462267603E-03 
1809	 2.63652136270609E-02 
1810	 0.144783660058119 
1811	 0.180968474820295 
1812	-3.35016046686661E-02 
1813	-6.66980414126344E-02 
1814	-3.18764917209394E-02 
1815	-1.38032497424795E-02 
1816	 0.240040347016011 
1817	 5.16110140970436E-02 
1818	-0.22723872753207 
1819	-0.431635655047441 
1820	-0.619938341966805 
1821	-0.180901880474907 
1822	-5.09842046712339E-02 
1823	-0.188484965155164 
1824	-0.151991988364709 
1825	-0.316747939003049 
1826	-0.234528480215748 
1827	 0.129852453990919 
1828	 0.167305886667151 
1829	 0.152509769159721 
1830	 1.23120465876687E-03 
1831	-0.301034703539774 
1832	-0.227991580697609 
1833	-1.2491389547006 
1834	-0.651040565250663 
1835	-0.735929067386785 
1836	-0.286584421472868 
1837	 0.487668017091584 
1838	 0.646291856810246 
1839	 0.8617054959403 
1840	 0.766795392994943 
1841	 7.51030331729154 
1842	-0.519800127140489 
1843	-0.228261632104592 
1844	-0.220836723494486 
1845	-7.72672690894004E-02 
1846	-1.5469559410166 
1847	-1.96350606912794 
1848	 14.9902853143222 
1849	 0.305948357883864 
1850	-0.154091264913323 
1851	-0.223846394688873 
1852	-0.544292900165267 
1853	 0.904493966606169 
1854	 1.12793134573659 
1855	 0.935832092859948 
1856	 0.912464099504805 
1857	 0.397553857086938 
1858	 0.146922929462301 
1859	-1.97811706302703 
1860	 0.889081384573569 
1861	-5.39339277198911 
1862	-4.25210289545547 
1863	-0.483837418326132 
1864	 0.458618271650745 
1865	 0.77484583319418 
1866	 1.73248968081584 
1867	 2.03643455689785 
1868	 2.11916364442608 
1869	 0.769957771957408 
1870	 0.945562206523481 
1871	 0.55183131819774 
1872	 0.658922733526782 
1873	 0.380147957099487 
1874	-2.22208443302035 
1875	 0.399569870164653 
1876	 0.3203586889655 
1877	 0.5552994696455 
1878	 0.521694065450851 
1879	 0.324227619455851 
1880	 0.281565701451664 
1881	 0.25883536065021 
1882	 0.192977083205096 
1883	 0.130302452172441 
1884	 0.157058059038285 
1885	 0.300029929169585 
1886	 0.326002333148501 
1887	 0.751949866683502 
1888	 0.615943306216692 
1889	 0.65866651341891 
1890	 0.784198561516087 
1891	 0.919587128290595 
1892	 0.438840993809099 
1893	 9.72795370957247 
1894	-0.880133463772192 
1895	-0.519312817261825 
1896	-0.827830556564588 
1897	-0.855328942872181 
1898	-4.27852020356161 
1899	-11.833354851615 
1900	-5.18677000744263 
1901	-1.50864181992983 
1902	-1.07869311100114 
1903	-0.705112726592185 
1904	-0.470168745380185 
1905	 0.301045953667408 
1906	 1.86125282677474 
1907	 1.62529147562374 
1908	 2.08548650762862 
1909	-5.85486567012955 
1910	 0.822605978481154 
1911	 0.218754371953582 
1912	 0.682068660381282 
1913	 0.702151757552841 
1914	-0.993246028758277 
1915	-2.18873810890333 
1916	 59.7610038919173 
1917	-1.6761835500027 
1918	-0.386103210005303 
1919	-6.59695538436203 
1920	 25.1484354695141 
1921	 1.54408541920206 
1922	 1.62033696848409 
1923	 1.04399538579678 
1924	 0.33910229546483 
1925	 0.696891867036864 
1926	 0.889578245200795 
1927	 1.32775922535826 
1928	 3.89846539627171 
1929	-8.78882098584304 
1930	-2.70949980222918 
1931	 3.19990131564132 
1932	 1.05387524329661 
1933	 1.10718550337962 
1934	 1.08443234360172 
1935	 0.965125265123424 
1936	 0.823532123336477 
1937	 0.498481256004077 
1938	 0.236551617950319 
1939	 0.135499299737332 
1940	 0.187404024394557 
1941	 0.157981915576634 
1942	-2.94488621676746E-02 
1943	-0.143844292813952 
1944	-0.142049397342328 
1945	-0.115462351899689 
1946	-0.10239921447967 
1947	-9.02947830166292E-02 
1948	-3.31143765186428E-02 
1949	-1.20204139743966E-02 
1950	-2.34835765803095E-02 
1951	-1.88937166310949E-03 
1952	 4.33830486135013E-03 
1953	-2.88854156649757E-02 
1954	-2.07195490231096E-02 
1955	 4.42075338882361E-02 
1956	 4.45657344873902E-02 
1957	 2.64912166485154E-02 
1958	 2.02664373836153E-02 
1959	-4.64859296491841E-03 
1960	-7.58820019044828E-03 
1961	 1.05149797431379E-02 
1962	 1.03596693599727E-02 
1963	 1.76072730316555E-03 
1964	 1.18117540486801E-03 
1965	 8.90552906548325E-04 
1966	-4.34628312506086E-03 
1967	-1.26435734459236E-02 
1968	-1.44911344655603E-02 
1969	-1.32414191063261E-02 
1970	-1.33169383386715E-02 
1971	-5.89608193824568E-03 
1972	 1.4640472571933E-03 
1973	 2.71706731143717E-03 
1974	 4.16307464565273E-03 
1975	 6.62466930000493E-03 
1976	 6.5764350225419E-03 
1977	 5.86506291278964E-03 
1978	 5.57055310374771E-03 
1979	 4.84985359038115E-03 
1980	 2.51644248893657E-03 
1981	 1.68930905050868E-03 
1982	 2.44445411353354E-03 
1983	 2.81041069414113E-03 
1984	 7.51517481759753E-04 
1985	-8.82977591367932E-04 
1986	 2.51213999035644E-04 
1987	-7.51658903578018E-04 
1988	-4.07400500600964E-04 
1989	 2.72660340351583E-03 
1990	 4.14137740858864E-03 
1991	 5.50544166338703E-03 
1992	 5.90476713091846E-03 
1993	 4.65863963917003E-03 
1994	 4.44220169019259E-03 
1995	 2.38431652786663E-03 
1996	 2.36111390947411E-03 
1997	 7.05860864146864E-03 
1998	 1.05369441904158E-02 
1999	 1.30498241125164E-02 
2000	 1.27631241723328E-02 
2001	 7.70146578640656E-03 
2002	 8.21502474013935E-03 
2003	 5.70886038449674E-03 
2004	 2.88273935477931E-03 
2005	 2.41246156597956E-04 
2006	-7.00594317937655E-03 
2007	 1.74948428888968E-04 
2008	 7.50341268953817E-03 
2009	 1.11286137953988E-02 
2010	 2.26102157302615E-02 
2011	 2.45416024723485E-02 
2012	 1.83210259348135E-02 
2013	 7.95577796538667E-03 
2014	 1.3997790318714E-03 
2015	 1.69406548163624E-03 
2016	 6.15409505088383E-03 
2017	 8.92813959398476E-03 
2018	 1.36546732169374E-02 
2019	 8.3904980373924E-03 
2020	-2.66509329441986E-04 
2021	 3.33014537717095E-04 
2022	 2.45629723089158E-05 
2023	 1.70966476454719E-03 
2024	 3.63844126826718E-03 
2025	 7.09827544570019E-03 
2026	 6.75291998082843E-03 
2027	 5.46629640509915E-03 
2028	 5.07702650788418E-03 
2029	 2.6936270477984E-03 
2030	 2.41718130213393E-03 
2031	 3.57703771237558E-03 
2032	 2.5779370679694E-03 
2033	 2.07608994996416E-03 
2034	 1.32711954624034E-03 
2035	-8.76012893128122E-04 
2036	-7.35678586210848E-04 
2037	 3.19450788449291E-04 
2038	 7.84972126406596E-04 
2039	 2.02363270704409E-03 
2040	 5.91023866075519E-03 
2041	 6.45068726488611E-03 
2042	 4.71303462487084E-03 
2043	 4.30101128351528E-03 
2044	 2.91617286293592E-03 
2045	 1.86713114997885E-03 
2046	 3.04516074257763E-03 
2047	 4.09255885398775E-03 
2048	 3.03434259948165E-03 
2049	 1.45189985542017E-03 
2050	-1.95715107845729E-04 
2051	 1.14187019006391E-04 
2052	 2.09353269345221E-03 
2053	 3.05379492996253E-03 
2054	 3.4172133368415E-03 
2055	 3.18207369665417E-03 
2056	 3.38725240800758E-03 
2057	 4.67989819441691E-03 
2058	 4.37743531104451E-03 
2059	 2.48132868964156E-03 
2060	 1.47842549741928E-03 
2061	 8.30082107225763E-05 
2062	-7.67304943980585E-04 
2063	-2.6786865732854E-03 
2064	-3.05087529909121E-03 
2065	-1.44874581454803E-03 
2066	-7.32780207505223E-04 
2067	 7.53248482183585E-04 
2068	 2.4277289795033E-03 
2069	-1.18709083929371E-03 
2070	-4.73467935285002E-03 
2071	-3.91529647383749E-03 
2072	-0.002212365477608 
2073	-1.03811820234571E-03 
2074	 2.93909848205722E-03 
2075	 4.50771506860511E-03 
2076	 4.49394896590248E-03 
2077	 3.65473160480982E-03 
2078	 1.87073038928637E-03 
2079	 1.38602791951746E-03 
2080	 1.53532175086993E-04 
2081	-4.4379532827838E-04 
2082	 2.27517344243233E-04 
2083	 2.8103258740596E-04 
2084	-1.91566363206388E-03 
2085	-3.41903234941307E-03 
2086	-2.97869752372852E-03 
2087	-3.36686062393916E-03 
2088	-1.47778490084299E-03 
2089	 1.35395284403493E-03 
2090	 1.17070693614038E-03 
2091	 1.11304072587293E-03 
2092	 1.05563009210466E-03 
2093	-4.75276114187726E-04 
2094	-1.23174601785729E-03 
2095	-1.60879989994946E-03 
2096	-1.06255506764106E-03 
2097	 2.33436281224892E-05 
2098	 9.15306495684765E-04 
2099	 2.66049461158919E-03 
2100	 4.36332568026145E-03 
2101	 3.86955586946189E-03 
2102	 2.49579625772604E-03 
2103	 2.16182876401815E-03 
2104	 5.54608967761324E-04 
2105	 1.4268333479244E-04 
2106	 9.08994769975555E-04 
2107	 3.97875815203861E-04 
2108	 9.02430091515043E-04 
2109	 0.00225304704099 
2110	 3.19029444134424E-03 
2111	 3.51936170706661E-03 
2112	 4.6683235954062E-03 
2113	 4.57049662784944E-03 
2114	 0.002309344837153 
2115	 1.50832341979441E-03 
2116	 1.59027226416512E-03 
2117	 1.13162212111843E-03 
2118	 6.33706627212995E-04 
2119	 8.69113192667973E-04 
2120	 2.09370323597401E-03 
2121	 7.56801921274941E-04 
2122	-1.36652958241299E-04 
2123	-5.27099569218573E-05 
2124	-4.30402777148272E-04 
2125	-1.71245906671282E-03 
2126	-2.66940799980494E-03 
2127	-2.15024669341817E-03 
2128	-2.05405654666997E-03 
2129	-2.27460450367232E-03 
2130	-1.12268846115437E-03 
2131	 1.4039565062749E-03 
2132	 2.20141126049174E-03 
2133	 1.6259199339608E-03 
2134	 1.39986313699737E-03 
2135	-3.96898761455833E-04 
2136	-1.0600124636951E-03 
2137	-5.29490650099092E-04 
2138	-3.56495375100276E-04 
2139	-2.0159133920294E-04 
2140	-3.85532594886913E-04 
2141	-1.50670616560195E-03 
2142	-1.69670730486929E-03 
2143	-1.40157192068692E-03 
2144	-7.59757489380208E-04 
2145	-1.49615636630278E-03 
2146	-5.06179417688129E-05 
2147	-6.02904927866997E-04 
2148	-9.12276821162988E-04 
2149	 2.11965814360705E-03 
2150	 2.77617576028397E-03 
2151	 1.89996641977254E-03 
2152	 1.23936171741283E-03 
2153	 8.29389187862325E-04 
2154	 9.25230367589415E-04 
2155	 1.90266968860676E-03 
2156	 3.33873375353554E-03 
2157	 3.93641783378543E-03 
2158	 2.78177187691092E-03 
2159	 2.19917416448638E-03 
2160	 2.53881884632257E-03 
2161	 2.7865246342155E-03 
2162	 1.54852145841349E-03 
2163	 2.07754307934153E-03 
2164	 4.76847020528453E-03 
2165	 4.91230626384232E-03 
2166	 4.53461261097286E-03 
2167	 4.44465383343306E-03 
2168	 3.36783604591655E-03 
2169	 2.06390332883359E-03 
2170	 6.26507734420133E-04 
2171	-4.93912714973364E-04 
2172	-2.44170371707188E-03 
2173	-3.29392917547296E-03 
2174	-1.12915033966067E-03 
2175	-2.30582289902798E-04 
2176	-5.74194401639724E-04 
2177	 1.14004702411527E-03 
2178	 2.33576645196503E-03 
2179	 4.04248809652567E-03 
2180	 5.46462529204284E-03 
2181	 5.15886028782732E-03 
2182	 5.1846089266434E-03 
2183	 3.87969987520013E-03 
2184	 4.56997346842992E-03 
2185	 6.07440779928716E-03 
2186	 6.27006731830869E-03 
2187	 5.18879822839772E-03 
2188	 4.32441871310644E-03 
2189	 3.98003451408644E-03 
2190	 2.40619256574456E-03 
2191	-1.83747784128812E-03 
2192	-2.33832009842433E-03 
2193	-2.21920467412138E-03 
2194	-2.26693114448648E-03 
2195	 1.23919508104753E-03 
2196	 2.24431348935288E-03 
2197	 2.51531976682204E-03 
2198	 2.99084595026113E-03 
2199	 4.08878232799156E-03 
2200	 3.77312786675201E-04 
2201	-1.33254478837115E-03 
2202	-2.51296482686842E-03 
2203	-1.0107612934982E-03 
2204	 3.3972135211324E-03 
2205	 5.08342332916218E-03 
2206	 4.39611542576616E-03 
2207	 3.52270879993754E-03 
2208	 1.6873881180855E-03 
2209	 8.90708430227493E-04 
2210	 1.69334178380791E-03 
2211	 6.79128650050315E-04 
2212	 1.13556705708312E-04 
2213	 9.18967756530389E-04 
2214	 6.61428594960569E-04 
2215	-1.08986752147094E-03 
2216	 1.661650460712E-04 
2217	 1.44200544734442E-03 
2218	 3.76381003714026E-03 
2219	 4.48470199365148E-03 
2220	 6.37717278475206E-03 
2221	 4.42910814864522E-03 
2222	-1.47330320107308E-03 
2223	-2.81721065782692E-03 
2224	-4.3536969082647E-03 
2225	-3.95793871579715E-03 
2226	 1.39480215199219E-03 
2227	 2.67404898140195E-03 
2228	 7.49325797860105E-04 
2229	 2.29544101879876E-04 
2230	-8.17828409464908E-04 
2231	-1.25137370099954E-04 
2232	 3.56198786400947E-03 
2233	 4.84088886553319E-03 
2234	 6.7827488270918E-03 
2235	 4.63463118088032E-03 
2236	 1.58259187920122E-03 
2237	-2.87510596354779E-04 
2238	-4.68872074549504E-03 
2239	-8.49908383934715E-03 
2240	-7.6430825812353E-03 
2241	-4.57099569868942E-03 
2242	-1.53807038456888E-03 
2243	-9.07418972174834E-04 
2244	-8.72783524688908E-04 
2245	-1.03005365050196E-05 
2246	 1.04636885375466E-03 
2247	 3.28250943507287E-03 
2248	 3.62345104581085E-03 
2249	 9.31168565594843E-04 
2250	-1.26948705007911E-03 
2251	-3.4177741900679E-05 
2252	-8.88606190575309E-04 
2253	-4.1210480762597E-03 
2254	-1.59895178821702E-03 
2255	 4.84704158914033E-04 
2256	 5.57964591211694E-04 
2257	 3.93661682733666E-03 
2258	 4.58823147998059E-03 
2259	 3.88863654414612E-03 
2260	 3.24164706734286E-03 
2261	 3.77706518974058E-03 
2262	 7.97223710719495E-04 
2263	-8.20202237643506E-03 
2264	-7.19892152386006E-03 
2265	-5.84783238954961E-04 
2266	 8.16634908962861E-04 
2267	 7.34394836625098E-03 
2268	 8.08053753567989E-03 
2269	-1.09848766032268E-03 
2270	-2.56039451148542E-03 
2271	 1.81079553750329E-04 
2272	-4.74365015165036E-04 
2273	-3.19319846235009E-04 
2274	-1.08205033026926E-03 
2275	-4.57088466267016E-03 
2276	-4.04968702621515E-03 
2277	-9.72443817235277E-04 
2278	 9.63746541096834E-06 
2279	 1.90815413187086E-03 
2280	 1.90479666194412E-03 
2281	-4.22103842097547E-05 
2282	-2.05456585213376E-03 
2283	-3.45013541162474E-03 
2284	-4.78726811336634E-03 
2285	-8.64339504554945E-03 
2286	-7.50140569247088E-03 
2287	-6.30723756418913E-03 
2288	-7.07818444583183E-03 
2289	-4.40931885904432E-03 
2290	-3.04932178100328E-03 
2291	-3.30868121729585E-03 
2292	-1.93398396949751E-03 
2293	 2.09839275818769E-03 
2294	 1.09073644009464E-03 
2295	-2.28566742556043E-03 
2296	-2.39395252966896E-03 
2297	-8.78981839249461E-03 
2298	-1.25106001700356E-02 
2299	-8.84416675663238E-03 
2300	-8.58098030932546E-03 
2301	-9.59759427298586E-03 
2302	-8.78535960838866E-03 
2303	-6.66904120781549E-03 
2304	-2.30353031229113E-03 
2305	 6.14544745277042E-03 
2306	 1.46405561409533E-02 
2307	 0.018594727245231 
2308	 1.43658391425679E-02 
2309	 3.99122705268434E-03 
2310	-2.00068310355301E-03 
2311	-5.52944810256949E-03 
2312	-7.67965850727756E-03 
2313	-1.74382523497854E-05 
2314	 0.003187918599881 
2315	-1.54622298742594E-03 
2316	-7.7127524127185E-04 
2317	-5.32875546233324E-03 
2318	-7.70731280131334E-03 
2319	-3.05254522391871E-03 
2320	-2.37491906045713E-03 
2321	 2.15873698733427E-04 
2322	 3.93439737801937E-03 
2323	 1.74424530545254E-03 
2324	-6.38516027625583E-03 
2325	-1.01335027215109E-02 
2326	-1.02819649020917E-02 
2327	-1.58823938666613E-02 
2328	-8.49586698938084E-03 
2329	 5.73226511584222E-03 
2330	-2.12257772138796E-03 
2331	-1.47318170845105E-02 
2332	-1.98391906592605E-02 
2333	-1.63894488130024E-02 
2334	-5.84572076197227E-03 
2335	 1.11468349412659E-03 
2336	 2.16731431704293E-03 
2337	-8.03095358178067E-03 
2338	-2.14583704582507E-02 
2339	-2.40597707388952E-02 
2340	-8.50179200892887E-03 
2341	 9.19702901451463E-03 
2342	 1.38914798908126E-02 
2343	 1.41777169186711E-02 
2344	 2.50012845388709E-03 
2345	-3.65598920137889E-03 
2346	 6.48478850451599E-03 
2347	 1.64027885922944E-02 
2348	 2.83206476094506E-02 
2349	 2.86683976926208E-02 
2350	 1.31607766652091E-02 
2351	 2.22333749087575E-03 
2352	-2.63807632446972E-03 
2353	-4.10844019569528E-03 
2354	 1.39739553391297E-03 
2355	 8.2019502918364E-03 
2356	 1.87626102070367E-02 
2357	 2.28670210418112E-02 
2358	 1.42076735613216E-02 
2359	 5.89781656615603E-04 
2360	-1.83811857490765E-02 
2361	-2.52491414025064E-02 
2362	-1.04545465050408E-02 
2363	 6.77355467955982E-03 
2364	 8.37304255002907E-03 
2365	 0.010451176362199 
2366	-3.89056724357015E-03 
2367	-2.51477728479584E-02 
2368	-6.10954584015521E-03 
2369	 4.16353970463856E-03 
2370	 4.25644943017137E-03 
2371	 4.11743022344234E-03 
2372	-9.36620737146452E-03 
2373	-2.01847808682993E-02 
2374	-2.50568466523463E-02 
2375	-2.19417546447673E-02 
2376	-0.055938635891579 
2377	-9.37712022106946E-02 
2378	-8.25332275128388E-02 
2379	-6.05081604123329E-02 
2380	-3.91471379668181E-02 
2381	-1.74194869330647E-02 
2382	-3.83626456075554E-02 
2383	-8.56385103939337E-02 
2384	-9.31283108531135E-02 
2385	-8.64821233130252E-02 
2386	-7.97157401406996E-02 
2387	-8.28416932756154E-02 
2388	-0.101274004135491 
2389	-0.113702259408792 
2390	-0.136398506173049 
2391	-0.12319904222078 
2392	-8.72716836406345E-02 
2393	-4.59497457673584E-02 
2394	 3.32274994039189E-03 
2395	 0.015136373603236 
2396	 1.28461365841518E-02 
2397	-1.29894423664136E-02 
2398	-5.76148078662243E-02 
2399	-7.10659161687208E-02 
2400	-4.18157219625307E-02 
2401	 8.97201865922097E-03 
2402	 0.075989831571942 
2403	 0.129437672272517 
2404	 0.136191135028551 
2405	 0.134067886488115 
2406	 0.123138907872184 
2407	 0.03282522332898 
2408	-6.24416354996855E-02 
2409	-6.62140059315822E-02 
2410	-0.15003348062301 
2411	-0.254039189431781 
2412	-0.132675769439837 
2413	-8.45125571364962E-02 
2414	-0.158000442404127 
2415	-5.82314061730406E-02 
2416	-2.88019356565825E-02 
2417	-0.121739046330563 
2418	-9.95317054147319E-02 
2419	-5.47997275382138E-02 
2420	-3.82462057949316E-02 
2421	 0.030525681548627 
2422	 4.90580004555229E-02 
2423	 8.93291732322521E-03 
2424	-6.71122530523752E-02 
2425	-0.286950720245366 
2426	-0.313934906324916 
2427	-4.62922075420692E-02 
2428	 8.92182755301082E-02 
2429	 0.13000591987241 
2430	 9.80774785715966E-02 
2431	-9.47535854199931E-03 
2432	-0.136860075900626 
2433	-0.202368139715641 
2434	-0.219161174879077 
2435	-0.298541835070033 
2436	-0.268592671058973 
2437	-0.09539160202355 
2438	 5.78140210537496E-02 
2439	 0.123141003369431 
2440	 6.46700503964805E-02 
2441	-0.29365478160798 
2442	-0.489070816585949 
2443	-0.531282399044881 
2444	-0.483472207941396 
2445	-0.418557590281552 
2446	-0.293211450199096 
2447	 1.49842454267739E-02 
2448	 0.204115602357882 
2449	 0.61428309259236 
2450	 1.04144208146204 
2451	 10.5550122229853 
2452	-2.37863667660122 
2453	-0.582347307307152 
2454	-0.383744979068965 
2455	-0.296407000358496 
2456	 0.413326042172053 
2457	 0.371415578280043 
2458	-0.147373161811074 
2459	-0.103358168280166 
2460	-1.29320499547569E-02 
2461	-0.206423930843843 
2462	-5.29387286699815E-02 
2463	-2.25821344014439E-02 
2464	-0.79074136406728 
2465	-2.03690609716514 
2466	-1.4109221453312 
2467	-1.76816677948463 
2468	-1.21506769740006 
2469	-0.374751357083519 
2470	 1.14083642455931 
2471	-5.92642101820977 
2472	-2.54178122715827 
2473	-4.29383625506701 
2474	-2.6880259591593 
2475	-3.31756767124972 
2476	 0.125159516977585 
2477	-0.407480788599406 
2478	-0.358618058945638 
2479	-0.51865405772405 
2480	-2.16826323567785 
2481	-31.5072219744533 
2482	 0.519855969899375 
2483	-0.921741272131656 
2484	-0.466913634969349 
2485	-0.355989484155886 
2486	 0.618645685704963 
2487	 1.84508614917215 
2488	-1.46221595753015 
2489	 11.1026589827345 
2490	 0.554563773508075 
2491	 2.62548421378962 
2492	 1.2018874351923 
2493	 2.70972869415276 
2494	 0.500949979234033 
2495	 0.164993943009365 
2496	 8.08327719151725E-02 
2497	-0.262371992432863 
2498	-0.804421570222696 
2499	 0.754786285153625 
2500	 0.331591786317819 
