Wavelength	rt0726close200001.asd
350	 5.08215733725566E-02 
351	 5.11855253650763E-02 
352	 5.03696246479935E-02 
353	 4.98542783826836E-02 
354	 5.04947086135798E-02 
355	 5.09931072515918E-02 
356	 5.11120459927952E-02 
357	 5.09226177313076E-02 
358	 5.07291630872254E-02 
359	 5.11377360106828E-02 
360	 5.13476091054415E-02 
361	 5.12819724157587E-02 
362	 5.13474378529651E-02 
363	 0.051134559453287 
364	 5.10648311394541E-02 
365	 5.12689553646027E-02 
366	 5.13116124419125E-02 
367	 5.10482214223038E-02 
368	 5.13559234008268E-02 
369	 5.24774929088277E-02 
370	 5.13979999609761E-02 
371	 5.14316245953593E-02 
372	 5.23591476183865E-02 
373	 5.20572618428995E-02 
374	 5.18290233923288E-02 
375	 5.17022154611814E-02 
376	 5.17756869429383E-02 
377	 5.23842009557867E-02 
378	 5.22519506596699E-02 
379	 5.20823753779726E-02 
380	 0.052495672077907 
381	 5.22577974092188E-02 
382	 5.25006855833811E-02 
383	 5.28516258298051E-02 
384	 5.25256533135753E-02 
385	 5.33342955922297E-02 
386	 5.37601226500166E-02 
387	 5.34552514680307E-02 
388	 0.053618842658697 
389	 5.35452190820492E-02 
390	 5.37318455187401E-02 
391	 5.43076523386344E-02 
392	 5.39578957859533E-02 
393	 5.40414521353682E-02 
394	 5.44150521096818E-02 
395	 5.44844021690514E-02 
396	 5.44777294094271E-02 
397	 5.48951205284394E-02 
398	 5.52878361095187E-02 
399	 5.45521671644568E-02 
400	 5.50545740595486E-02 
401	 5.56000445497144E-02 
402	 5.52857867226279E-02 
403	 5.49954200773408E-02 
404	 5.51637347538545E-02 
405	 0.055521737941441 
406	 5.56277594731809E-02 
407	 5.59400733031153E-02 
408	 5.58569264064769E-02 
409	 5.56101561831854E-02 
410	 0.056211372117652 
411	 5.65066465097828E-02 
412	 5.65387520953071E-02 
413	 5.65725530547369E-02 
414	 5.68458000780739E-02 
415	 5.71588786155337E-02 
416	 5.73375070071178E-02 
417	 5.73089326394732E-02 
418	 5.75004002092658E-02 
419	 5.78000305044244E-02 
420	 5.80435754269632E-02 
421	 5.80713102066288E-02 
422	 0.058230293391818 
423	 5.85228001585269E-02 
424	 5.88426745688209E-02 
425	 0.05900034403834 
426	 5.92290776687907E-02 
427	 5.95500571750877E-02 
428	 5.98600141014462E-02 
429	 5.99776303607262E-02 
430	 6.02802615672363E-02 
431	 6.07842177811469E-02 
432	 6.10371850482291E-02 
433	 6.11152666834576E-02 
434	 6.13703744381427E-02 
435	 6.19652883031649E-02 
436	 6.23645371568098E-02 
437	 6.26079775712752E-02 
438	 6.28354791538465E-02 
439	 6.32077346202281E-02 
440	 6.34931211390682E-02 
441	 6.38370883254661E-02 
442	 6.42377707450066E-02 
443	 6.44214440192757E-02 
444	 6.45661710667846E-02 
445	 6.48455392847239E-02 
446	 6.53129139325096E-02 
447	 6.55866330352635E-02 
448	 6.58908506191359E-02 
449	 6.61606667624998E-02 
450	 6.61595692392032E-02 
451	 6.63730944882275E-02 
452	 6.66097163643072E-02 
453	 6.67459799957323E-02 
454	 6.70123954321728E-02 
455	 6.71878588830133E-02 
456	 6.73424971732964E-02 
457	 6.75859887754837E-02 
458	 6.76545393363848E-02 
459	 6.76894949755899E-02 
460	 6.77901045036787E-02 
461	 6.79828079345839E-02 
462	 6.81068136962125E-02 
463	 6.82715025944896E-02 
464	 6.85313610586177E-02 
465	 6.86381652570732E-02 
466	 6.87090913814764E-02 
467	 6.88388931663971E-02 
468	 6.90764448050753E-02 
469	 6.92102273943922E-02 
470	 6.92495904121428E-02 
471	 6.93207676827843E-02 
472	 6.96702239941224E-02 
473	 6.98801238121034E-02 
474	 6.99644852313131E-02 
475	 7.00558582007756E-02 
476	 7.02417065907706E-02 
477	 0.070564108480328 
478	 7.08222374118822E-02 
479	 7.07367944486755E-02 
480	 7.10848968930371E-02 
481	 7.14896158850553E-02 
482	 7.16697433734784E-02 
483	 7.18464549594262E-02 
484	 7.20757718589974E-02 
485	 7.23956757327166E-02 
486	 7.27754750266972E-02 
487	 7.29300572223841E-02 
488	 7.32277781067473E-02 
489	 0.07368868709905 
490	 7.39801378123879E-02 
491	 7.42162786720626E-02 
492	 7.45197516317135E-02 
493	 7.49427093885682E-02 
494	 7.53490812275829E-02 
495	 7.57533875162936E-02 
496	 7.61113753865499E-02 
497	 7.63956724256024E-02 
498	 7.69436759245422E-02 
499	 7.74058483136829E-02 
500	 7.77066039081025E-02 
501	 7.82972965154953E-02 
502	 7.88486802206622E-02 
503	 7.92819640330908E-02 
504	 7.96527075514169E-02 
505	 8.02437818349035E-02 
506	 8.07667783235589E-02 
507	 8.12032107986552E-02 
508	 8.17487640197448E-02 
509	 8.22840604130014E-02 
510	 8.28510044499076E-02 
511	 0.083448318948762 
512	 8.39174926817827E-02 
513	 8.43795541622621E-02 
514	 8.49598811604662E-02 
515	 8.57186350548256E-02 
516	 0.086260382689312 
517	 8.68533163373834E-02 
518	 8.75584529220189E-02 
519	 8.81152723770333E-02 
520	 8.86366404228523E-02 
521	 8.92339746877603E-02 
522	 8.99514774189321E-02 
523	 9.06013444521353E-02 
524	 9.12360911136933E-02 
525	 9.18905432035007E-02 
526	 9.25881860724738E-02 
527	 9.33539945808852E-02 
528	 9.40687194165561E-02 
529	 9.46902650803575E-02 
530	 9.53606423745364E-02 
531	 9.60697578595285E-02 
532	 9.67889092094515E-02 
533	 9.74825540159898E-02 
534	 9.81581078241672E-02 
535	 9.89187429628299E-02 
536	 9.97612723040618E-02 
537	 0.100553886688186 
538	 0.101327834765961 
539	 0.102121423872558 
540	 0.10295046402426 
541	 0.103740855642606 
542	 0.104579606042047 
543	 0.105428617777767 
544	 0.106191987678895 
545	 0.10701705042085 
546	 0.107833042919446 
547	 0.108625985282629 
548	 0.109560772684444 
549	 0.110367543582137 
550	 0.111120127911125 
551	 0.111981914711902 
552	 0.11285581380402 
553	 0.113681613570589 
554	 0.114461276564834 
555	 0.115258170282658 
556	 0.11595458584198 
557	 0.116731645517994 
558	 0.117675745165499 
559	 0.118362146456935 
560	 0.119074308435162 
561	 0.119852414647001 
562	 0.120584624716447 
563	 0.121231724205396 
564	 0.121854550734639 
565	 0.122485076245623 
566	 0.123074098709863 
567	 0.123637095961276 
568	 0.124224867998103 
569	 0.124857726175242 
570	 0.125316260675417 
571	 0.125787088209004 
572	 0.126337778245743 
573	 0.126880967672137 
574	 0.127445602493417 
575	 0.127912781234884 
576	 0.128241813750139 
577	 0.128756977315363 
578	 0.129214267164918 
579	 0.129556211028057 
580	 0.129863013058349 
581	 0.130313467918215 
582	 0.130781222793909 
583	 0.131136197581107 
584	 0.131292280776647 
585	 0.131567769472154 
586	 0.131866704265982 
587	 0.132003679997492 
588	 0.132233589329785 
589	 0.132543488226864 
590	 0.13285745276228 
591	 0.133085315793926 
592	 0.13327035912074 
593	 0.133473314752608 
594	 0.133716782668112 
595	 0.133930168488358 
596	 0.134009891544564 
597	 0.134046874441636 
598	 0.134208464426997 
599	 0.134205593619643 
600	 0.134274617079847 
601	 0.134483363773097 
602	 0.134495582120528 
603	 0.134632119523685 
604	 0.134832278763006 
605	 0.134952846170636 
606	 0.135099752570873 
607	 0.135245594360169 
608	 0.135355969682738 
609	 0.135401236106539 
610	 0.135543021582318 
611	 0.135651507680464 
612	 0.135642974533578 
613	 0.13575129640754 
614	 0.135901998000574 
615	 0.135990178062374 
616	 0.135938420480239 
617	 0.13612381103826 
618	 0.136215414699014 
619	 0.136101054113356 
620	 0.136126506606007 
621	 0.136389003870273 
622	 0.136654690770684 
623	 0.136651614999009 
624	 0.136553732441217 
625	 0.136569872363152 
626	 0.136641449455378 
627	 0.13648436113714 
628	 0.136679378064428 
629	 0.136936663569523 
630	 0.13698017478478 
631	 0.137009247414263 
632	 0.137110032428459 
633	 0.137254748154702 
634	 0.137354458916613 
635	 0.13736992361737 
636	 0.137462231671537 
637	 0.137629785874613 
638	 0.13761193832875 
639	 0.137762974529113 
640	 0.13795950823323 
641	 0.138018019181257 
642	 0.138129168931602 
643	 0.138187178154385 
644	 0.138194731341474 
645	 0.138245696986792 
646	 0.138349508667035 
647	 0.138458720991517 
648	 0.138530114492176 
649	 0.138571104010459 
650	 0.138538643197087 
651	 0.138536416418772 
652	 0.138646538488667 
653	 0.138403657219073 
654	 0.138339958930893 
655	 0.138517068533827 
656	 0.138247929754723 
657	 0.137788065620075 
658	 0.137439741636203 
659	 0.137320908201032 
660	 0.137071788639126 
661	 0.136735834594916 
662	 0.136435023993174 
663	 0.136304896215731 
664	 0.135949759980037 
665	 0.135624879623081 
666	 0.135495815506365 
667	 0.135439191834092 
668	 0.135259300868524 
669	 0.135110200968383 
670	 0.135186972198697 
671	 0.135216193427727 
672	 0.13531488639687 
673	 0.135508123056462 
674	 0.135719941404721 
675	 0.135918420658189 
676	 0.136096357425254 
677	 0.136315238744389 
678	 0.136800694472972 
679	 0.137281823393667 
680	 0.137770192057101 
681	 0.138372020848156 
682	 0.138869728716599 
683	 0.139431751546955 
684	 0.140114143921793 
685	 0.140852293935987 
686	 0.141433481243132 
687	 0.141993083592057 
688	 0.14268703354929 
689	 0.143371562860642 
690	 0.144094154990932 
691	 0.144717942795288 
692	 0.14505884124493 
693	 0.145728053493334 
694	 0.146268310819494 
695	 0.146532261510963 
696	 0.14715274616741 
697	 0.147425625260564 
698	 0.147457682675343 
699	 0.147539752394193 
700	 0.14762429215021 
701	 0.147808057667098 
702	 0.147984331544069 
703	 0.147927223880269 
704	 0.147980364585838 
705	 0.148008558932984 
706	 0.147899660845133 
707	 0.147745564273701 
708	 0.147620104614862 
709	 0.147444499078669 
710	 0.147119775836598 
711	 0.146802933853467 
712	 0.146426699606724 
713	 0.145999869821219 
714	 0.145599629242292 
715	 0.144771650641128 
716	 0.143930769018574 
717	 0.14352752659707 
718	 0.14252265768809 
719	 0.141993063846514 
720	 0.141672421830912 
721	 0.14089414596931 
722	 0.140306048795728 
723	 0.139584286225169 
724	 0.138619250603536 
725	 0.137507571285721 
726	 0.136590818180743 
727	 0.135676367099916 
728	 0.134522681172163 
729	 0.133062491939371 
730	 0.131616166549007 
731	 0.130279987192504 
732	 0.128978660249911 
733	 0.127952464337169 
734	 0.126897203538766 
735	 0.125813886051097 
736	 0.125128931485841 
737	 0.124764350554136 
738	 0.124488403260361 
739	 0.124178968610221 
740	 0.12415573310848 
741	 0.124150868842176 
742	 0.124159286956185 
743	 0.124284537196179 
744	 0.124303369700732 
745	 0.124265667586597 
746	 0.12427709025934 
747	 0.124475367910215 
748	 0.124576624752253 
749	 0.124682019611762 
750	 0.12489437450003 
751	 0.124990887941608 
752	 0.125020660311275 
753	 0.125097582933274 
754	 0.125310969803983 
755	 0.125235250997946 
756	 0.125264444724344 
757	 0.125512747158 
758	 0.125595713966642 
759	 0.125499050688252 
760	 0.125460741932783 
761	 0.125681158633671 
762	 0.125161860081413 
763	 0.125289812295869 
764	 0.12588616501262 
765	 0.126324467760263 
766	 0.126563209062773 
767	 0.126751205620817 
768	 0.126973154203847 
769	 0.127254449011946 
770	 0.127557468689455 
771	 0.127710843740222 
772	 0.127719658334048 
773	 0.128154161516024 
774	 0.128337109174685 
775	 0.128412285973142 
776	 0.128796581413018 
777	 0.129185849347087 
778	 0.129447041653287 
779	 0.129637871989882 
780	 0.129987222639472 
781	 0.13039632080911 
782	 0.13061516252845 
783	 0.130634554814785 
784	 0.131055228108926 
785	 0.131368654223439 
786	 0.131561786098974 
787	 0.13179104743315 
788	 0.132113346348591 
789	 0.13237927698804 
790	 0.132637312426192 
791	 0.13308081601782 
792	 0.133525459651458 
793	 0.133860764461565 
794	 0.134092147134749 
795	 0.134381012432904 
796	 0.134494465476243 
797	 0.134598972857339 
798	 0.134871064422856 
799	 0.135122939433591 
800	 0.135306332066898 
801	 0.135409365031518 
802	 0.135490737159568 
803	 0.135869546235003 
804	 0.136080787467925 
805	 0.136009219837919 
806	 0.135982394728114 
807	 0.135881891307808 
808	 0.135736733041129 
809	 0.13557706782791 
810	 0.135368104274641 
811	 0.13513684804493 
812	 0.134815817491433 
813	 0.134333560629492 
814	 0.133848661284619 
815	 0.133434137123972 
816	 0.133030329021575 
817	 0.132499494529645 
818	 0.132025740779004 
819	 0.131756516272909 
820	 0.131440267631091 
821	 0.130357858144565 
822	 0.129403943782779 
823	 0.128495161343052 
824	 0.127374164395225 
825	 0.125884132917783 
826	 0.124424535268328 
827	 0.12293451631153 
828	 0.121263462128101 
829	 0.119285092817512 
830	 0.117715345004563 
831	 0.116527213551741 
832	 0.115207370285113 
833	 0.11410660367575 
834	 0.113355220269516 
835	 0.112798566220169 
836	 0.111994334915405 
837	 0.111449623448225 
838	 0.111067773819785 
839	 0.110658187980779 
840	 0.110119273633706 
841	 0.109785671411717 
842	 0.109517300427787 
843	 0.109075046869417 
844	 0.108639831476057 
845	 0.108441321547046 
846	 0.108262472597811 
847	 0.107668012302475 
848	 0.107159068153698 
849	 0.107228057705583 
850	 0.107455445392312 
851	 0.106416526641978 
852	 0.105876624114645 
853	 0.105756854493861 
854	 0.105619892890488 
855	 0.105157377322298 
856	 0.104791295777344 
857	 0.104763900371156 
858	 0.104925631494811 
859	 0.103943246436609 
860	 0.103466116612241 
861	 0.103524310383953 
862	 0.103331737371714 
863	 0.102912765246024 
864	 0.102480629384163 
865	 0.102154371632602 
866	 0.101908716673436 
867	 0.101439531514557 
868	 0.1010232629157 
869	 0.100758246473128 
870	 0.10041797001296 
871	 0.100112682167224 
872	 9.96987716494425E-02 
873	 9.91162446572592E-02 
874	 9.85846675020766E-02 
875	 9.81965997630761E-02 
876	 9.76492106232453E-02 
877	 9.68268119824877E-02 
878	 0.096809879644557 
879	 9.61333705960228E-02 
880	 9.52548801346058E-02 
881	 9.51968647554774E-02 
882	 9.44112366331258E-02 
883	 9.39839131415147E-02 
884	 9.38393384197217E-02 
885	 9.31007721070777E-02 
886	 9.28438913695795E-02 
887	 0.092397778110449 
888	 9.16742347852476E-02 
889	 9.14069883657149E-02 
890	 9.12046556394681E-02 
891	 9.09334262164993E-02 
892	 9.04647698407961E-02 
893	 8.96196290482882E-02 
894	 8.94573637849332E-02 
895	 8.94161467775533E-02 
896	 8.88324006529282E-02 
897	 8.84919661356171E-02 
898	 8.76851131715144E-02 
899	 8.66820981105102E-02 
900	 8.60832817343866E-02 
901	 0.086368871990629 
902	 8.54733190762999E-02 
903	 8.43268014788458E-02 
904	 8.43906644775885E-02 
905	 8.34879130538234E-02 
906	 8.33689265334862E-02 
907	 8.38344928915543E-02 
908	 8.32617276136766E-02 
909	 8.19030130016957E-02 
910	 0.080718815151593 
911	 0.080132833602854 
912	 7.98404273019505E-02 
913	 7.89510073501656E-02 
914	 7.77107646654919E-02 
915	 7.65317699976416E-02 
916	 7.56933931429227E-02 
917	 7.44501700431557E-02 
918	 0.07316942513482 
919	 7.20538653008012E-02 
920	 7.08558039976204E-02 
921	 6.91786214622253E-02 
922	 6.78206867468965E-02 
923	 6.70967889277145E-02 
924	 6.58174442677034E-02 
925	 6.45994174871494E-02 
926	 6.36336161111489E-02 
927	 6.28199700714832E-02 
928	 6.13994581650444E-02 
929	 6.12146234642083E-02 
930	 5.94370572427943E-02 
931	 5.29229217696852E-02 
932	 5.74059320193823E-02 
933	 5.64300485332857E-02 
934	 5.18332740967679E-02 
935	 5.35253682897845E-02 
936	 5.14548191909263E-02 
937	 4.85683303296998E-02 
938	 4.76698078520513E-02 
939	 4.89175228800797E-02 
940	 4.34539432912013E-02 
941	 4.10143487628233E-02 
942	 4.11730356713143E-02 
943	 3.95351277323325E-02 
944	 4.25827341002704E-02 
945	 0.039267771149289 
946	 3.33754158858191E-02 
947	 3.52956601198203E-02 
948	 3.43953012512423E-02 
949	 3.15722157253905E-02 
950	 3.14655731583357E-02 
951	 3.67657485283205E-02 
952	 2.81219192021135E-02 
953	 2.24621945687645E-02 
954	 2.48643628903195E-02 
955	 2.85920406662462E-02 
956	 2.56245282707777E-02 
957	 2.20130543752272E-02 
958	 2.23803841051652E-02 
959	 2.70048493441264E-02 
960	 2.42127467775316E-02 
961	 2.24643598583539E-02 
962	 0.023524729221119 
963	 2.34252396045553E-02 
964	 2.45323422364531E-02 
965	 2.30107278622665E-02 
966	 2.04456864761365E-02 
967	 2.15587295653202E-02 
968	 0.022011944020591 
969	 2.15404707718783E-02 
970	 2.10307181937411E-02 
971	 2.15987750962245E-02 
972	 2.02323625877375E-02 
973	 2.09008125103419E-02 
974	 2.27402516517458E-02 
975	 2.06876374640659E-02 
976	 2.15049611938461E-02 
977	 2.24671843858915E-02 
978	 0.022107702214496 
979	 2.13425736948483E-02 
980	 2.20829734844386E-02 
981	 2.19854703451392E-02 
982	 2.14918824101337E-02 
983	 2.28639788308166E-02 
984	 2.19497959633063E-02 
985	 0.020378608526638 
986	 2.03208438869663E-02 
987	 2.28435121965364E-02 
988	 2.28027938560733E-02 
989	 0.021258997853482 
990	 2.07955228635074E-02 
991	 2.33108437121973E-02 
992	 2.23136121221839E-02 
993	 2.18767315483304E-02 
994	 2.33967381476128E-02 
995	 2.52103692017786E-02 
996	 2.42975792234894E-02 
997	 2.19939932522831E-02 
998	 2.21256030559658E-02 
999	 2.69068059257291E-02 
1000	 2.41832364738588E-02 
1001	 0.023195233193331 
1002	 2.27902935902943E-02 
1003	 2.28725220850431E-02 
1004	 2.33144618480645E-02 
1005	 2.33443616911931E-02 
1006	 2.31272673303344E-02 
1007	 2.34775016742109E-02 
1008	 0.023755139731517 
1009	 2.35176905247729E-02 
1010	 2.37264772445446E-02 
1011	 2.44690734152887E-02 
1012	 2.47962730368517E-02 
1013	 2.49439432049659E-02 
1014	 2.55541655713664E-02 
1015	 2.67050595781154E-02 
1016	 0.027091869882497 
1017	 2.72919092908143E-02 
1018	 0.027814132842726 
1019	 2.80907494669102E-02 
1020	 2.83111311000919E-02 
1021	 2.86907934258785E-02 
1022	 2.91798454244165E-02 
1023	 2.94675460440276E-02 
1024	 3.00351583475134E-02 
1025	 3.05571885189101E-02 
1026	 3.09679472010869E-02 
1027	 3.15850390609312E-02 
1028	 3.19231228728452E-02 
1029	 3.25628745408932E-02 
1030	 3.38838276190364E-02 
1031	 3.44315546212131E-02 
1032	 3.43662886069161E-02 
1033	 3.48625930528533E-02 
1034	 3.53194085399344E-02 
1035	 3.59009060058807E-02 
1036	 3.69582468595548E-02 
1037	 3.77502074832213E-02 
1038	 3.83439951814735E-02 
1039	 3.89701546829779E-02 
1040	 0.039858589239497 
1041	 4.04748276175364E-02 
1042	 4.11274574862356E-02 
1043	 4.17781621768939E-02 
1044	 4.24360370057481E-02 
1045	 4.29283687135941E-02 
1046	 4.36681724581146E-02 
1047	 4.46141194400369E-02 
1048	 4.54277163651605E-02 
1049	 4.63832033368919E-02 
1050	 4.71019239198373E-02 
1051	 4.78242779149732E-02 
1052	 4.82877031761231E-02 
1053	 0.048336657686838 
1054	 4.86229025547403E-02 
1055	 4.84280792610731E-02 
1056	 4.88366271818821E-02 
1057	 4.95947824367208E-02 
1058	 5.10663520044273E-02 
1059	 5.16186032920468E-02 
1060	 5.23686300024272E-02 
1061	 5.25484544791198E-02 
1062	 0.051437913139101 
1063	 5.17386734131173E-02 
1064	 0.052737105804719 
1065	 5.33243470028978E-02 
1066	 5.46141445397659E-02 
1067	 5.51783960225376E-02 
1068	 0.055227496885642 
1069	 5.51297243794199E-02 
1070	 5.42629634292659E-02 
1071	 5.41301158596684E-02 
1072	 5.42188226038027E-02 
1073	 5.44316072004957E-02 
1074	 5.42502409051525E-02 
1075	 0.054438604900449 
1076	 0.054201872481874 
1077	 5.29456458794226E-02 
1078	 5.28639664316333E-02 
1079	 5.39104379337139E-02 
1080	 5.36676113530809E-02 
1081	 5.31561952959456E-02 
1082	 5.27264197110108E-02 
1083	 5.12876781846623E-02 
1084	 5.05800156816132E-02 
1085	 5.07836187333705E-02 
1086	 5.03964729056641E-02 
1087	 4.95828892723423E-02 
1088	 0.049131817617391 
1089	 4.89095678536075E-02 
1090	 4.82018796239571E-02 
1091	 4.77596105383647E-02 
1092	 4.78691198737867E-02 
1093	 0.04718057130152 
1094	 4.56177421405073E-02 
1095	 4.49982205941482E-02 
1096	 4.46157335382216E-02 
1097	 0.044130013968243 
1098	 4.42111178406101E-02 
1099	 4.38972010304935E-02 
1100	 4.30059557949209E-02 
1101	 4.23267062990094E-02 
1102	 4.20310986049522E-02 
1103	 0.041571134967861 
1104	 4.16494291815318E-02 
1105	 4.00434118320815E-02 
1106	 3.83960889270748E-02 
1107	 3.77259169754785E-02 
1108	 3.67771485639428E-02 
1109	 0.037312031159256 
1110	 3.75247275157918E-02 
1111	 3.87096790050099E-02 
1112	 0.038452003465315 
1113	 3.73771983569374E-02 
1114	 3.69079482528359E-02 
1115	 3.58298082253407E-02 
1116	 3.51646336044508E-02 
1117	 3.57467795609073E-02 
1118	 3.46956569732713E-02 
1119	 3.08978792205408E-02 
1120	 2.98812946265498E-02 
1121	 3.17675689260163E-02 
1122	 2.98077623961196E-02 
1123	 3.35030009017127E-02 
1124	 3.64550390101192E-02 
1125	 2.83654884579856E-02 
1126	 2.63413972278405E-02 
1127	 2.68675699362897E-02 
1128	 2.26617572825188E-02 
1129	 2.32486551708725E-02 
1130	 3.11664779876835E-02 
1131	 3.06601298572714E-02 
1132	 2.60009910885075E-02 
1133	 2.44677475404318E-02 
1134	 2.24182015427056E-02 
1135	 2.01531654221802E-02 
1136	 1.86250783290563E-02 
1137	 1.89295901733263E-02 
1138	 2.13571610617227E-02 
1139	 1.72272860313446E-02 
1140	 0.016475577567288 
1141	 1.83760735060083E-02 
1142	 1.75308552520628E-02 
1143	 1.81186609417905E-02 
1144	 2.08300471245556E-02 
1145	 2.18348687580551E-02 
1146	 1.92886089784209E-02 
1147	 1.75775008225657E-02 
1148	 1.85263626482328E-02 
1149	 1.82661513908003E-02 
1150	 1.75689108522143E-02 
1151	 1.77100276857622E-02 
1152	 1.83515571893049E-02 
1153	 0.018046444490375 
1154	 1.81557426059496E-02 
1155	 1.92593179764427E-02 
1156	 1.96887554228305E-02 
1157	 1.90506253002164E-02 
1158	 1.79932442604159E-02 
1159	 1.74728140125416E-02 
1160	 1.71830522687951E-02 
1161	 1.69649804585985E-02 
1162	 1.75602203777779E-02 
1163	 1.78323734842222E-02 
1164	 1.77758039737212E-02 
1165	 1.79919541678024E-02 
1166	 1.74719633811894E-02 
1167	 1.68429023254795E-02 
1168	 1.68544208975778E-02 
1169	 1.69292232135352E-02 
1170	 1.73501252046934E-02 
1171	 1.75088608719708E-02 
1172	 1.76859141888794E-02 
1173	 1.77381347357596E-02 
1174	 1.78567226667508E-02 
1175	 0.017139972619449 
1176	 1.65949363086157E-02 
1177	 1.69526997572288E-02 
1178	 1.70360325923234E-02 
1179	 0.017167546025374 
1180	 1.77544523454824E-02 
1181	 1.77213920261465E-02 
1182	 1.67833503779811E-02 
1183	 1.61961050667911E-02 
1184	 1.63815088109931E-02 
1185	 1.65858004331771E-02 
1186	 1.69797762321623E-02 
1187	 1.72153901690686E-02 
1188	 1.65956293809281E-02 
1189	 1.64900262547378E-02 
1190	 1.67157406209855E-02 
1191	 1.63416210010322E-02 
1192	 1.63989392362667E-02 
1193	 1.69213581993696E-02 
1194	 1.70993995526471E-02 
1195	 1.66723342187987E-02 
1196	 1.70526390173752E-02 
1197	 0.017167590050272 
1198	 1.60349674359318E-02 
1199	 1.57680306294222E-02 
1200	 1.61120365731921E-02 
1201	 1.60818766782507E-02 
1202	 0.016618045502466 
1203	 1.70477794087497E-02 
1204	 1.70414278180209E-02 
1205	 1.70630015487356E-02 
1206	 1.69597203522741E-02 
1207	 1.66033579451971E-02 
1208	 1.63691982401133E-02 
1209	 1.66775157605913E-02 
1210	 1.70994944387799E-02 
1211	 1.71822852709308E-02 
1212	 1.68855926814397E-02 
1213	 1.66709012272969E-02 
1214	 1.66230169948257E-02 
1215	 1.66601698862651E-02 
1216	 1.66393988088151E-02 
1217	 0.016645157248798 
1218	 1.66701117264841E-02 
1219	 1.64829920429695E-02 
1220	 0.016388140290917 
1221	 1.67096246408445E-02 
1222	 1.68920518735027E-02 
1223	 1.67511825262071E-02 
1224	 1.67051598728556E-02 
1225	 1.66539856956206E-02 
1226	 1.67737214855674E-02 
1227	 1.71513363653652E-02 
1228	 0.017230602499061 
1229	 1.71433876976867E-02 
1230	 1.71559701176655E-02 
1231	 0.017186713196674 
1232	 1.74781506646889E-02 
1233	 1.75403632815223E-02 
1234	 1.74183874724989E-02 
1235	 1.75318485221665E-02 
1236	 1.76348942526298E-02 
1237	 1.74113728311482E-02 
1238	 1.71610436739088E-02 
1239	 1.72173402391907E-02 
1240	 1.73151138956084E-02 
1241	 1.71251360558976E-02 
1242	 1.71078193884194E-02 
1243	 1.73345596381366E-02 
1244	 0.017171405242528 
1245	 1.68409137582633E-02 
1246	 0.016989196503052 
1247	 1.74062807554343E-02 
1248	 1.70755283945161E-02 
1249	 1.65849913099688E-02 
1250	 1.66288784810203E-02 
1251	 1.63870723359355E-02 
1252	 1.61366663849129E-02 
1253	 1.62691525053421E-02 
1254	 1.62932016520425E-02 
1255	 1.62245414513577E-02 
1256	 1.62446095928502E-02 
1257	 1.64645151007046E-02 
1258	 1.63271639581548E-02 
1259	 0.015912155605083 
1260	 1.57458123366435E-02 
1261	 1.51403419807489E-02 
1262	 1.52171530099037E-02 
1263	 1.58891115582745E-02 
1264	 0.016782792958026 
1265	 1.66417159799396E-02 
1266	 1.62723712650004E-02 
1267	 1.60584339438508E-02 
1268	 1.57815532359605E-02 
1269	 1.60083366981469E-02 
1270	 1.64067005519671E-02 
1271	 1.62557495733514E-02 
1272	 0.015893299986382 
1273	 1.60881193049382E-02 
1274	 0.016533831044853 
1275	 1.63027657106405E-02 
1276	 1.59832279095364E-02 
1277	 1.60301797021854E-02 
1278	 1.63458516885581E-02 
1279	 1.68953706086922E-02 
1280	 1.70467181852179E-02 
1281	 1.70430427938252E-02 
1282	 1.63115661610043E-02 
1283	 1.60431435305654E-02 
1284	 1.60315397905047E-02 
1285	 0.01603913152661 
1286	 1.61204722316214E-02 
1287	 1.60784331287491E-02 
1288	 1.58614414157392E-02 
1289	 1.59419690848563E-02 
1290	 1.62526708115484E-02 
1291	 1.63436405298077E-02 
1292	 1.59031683084383E-02 
1293	 1.57789766401205E-02 
1294	 1.59634108937382E-02 
1295	 1.58961625203632E-02 
1296	 1.61955056693527E-02 
1297	 1.66159397671937E-02 
1298	 1.62323824583104E-02 
1299	 1.55828423216985E-02 
1300	 1.58316713153719E-02 
1301	 0.016323576821791 
1302	 1.62135883379696E-02 
1303	 1.61217334700956E-02 
1304	 0.016224978599315 
1305	 1.63713154110798E-02 
1306	 1.62648404199236E-02 
1307	 1.61843977490515E-02 
1308	 1.62682679224861E-02 
1309	 1.59806678285666E-02 
1310	 1.59908829310448E-02 
1311	 1.68465939475214E-02 
1312	 1.70171320651057E-02 
1313	 1.65561788994421E-02 
1314	 1.64898588932066E-02 
1315	 1.64705487902927E-02 
1316	 1.62743327914764E-02 
1317	 1.56741104599262E-02 
1318	 1.60265219421043E-02 
1319	 1.74151382456283E-02 
1320	 1.76175090492634E-02 
1321	 1.76356130460326E-02 
1322	 1.80560655612176E-02 
1323	 1.81445012034342E-02 
1324	 1.77883270726945E-02 
1325	 1.76430049402687E-02 
1326	 0.018401089329805 
1327	 0.019645063482421 
1328	 2.01199173726316E-02 
1329	 0.020590143252132 
1330	 2.05186108769078E-02 
1331	 1.98394507536733E-02 
1332	 1.90040260135778E-02 
1333	 1.79180507593788E-02 
1334	 1.83903196662316E-02 
1335	 1.85637776340941E-02 
1336	 1.75898412502304E-02 
1337	 0.017004120098578 
1338	 1.79887947439258E-02 
1339	 1.80103568590656E-02 
1340	 1.61461943525801E-02 
1341	 1.53219162342601E-02 
1342	 0.015295452131622 
1343	 1.53858421604994E-02 
1344	 1.64385892869689E-02 
1345	 1.65012197528119E-02 
1346	 1.69019375056499E-02 
1347	 0.016419487058234 
1348	 1.05230472319009E-02 
1349	 7.37284317944795E-03 
1350	 1.09879237691619E-02 
1351	 8.63781057745792E-03 
1352	-1.49188379218309E-03 
1353	-9.75541076828152E-03 
1354	-2.69377730485819E-02 
1355	-5.17989051907234E-02 
1356	-5.34941089629958E-02 
1357	-2.31877800116578E-02 
1358	-4.48517385863743E-02 
1359	-0.207545697292766 
1360	-0.28158099832801 
1361	-0.26107708285618 
1362	-0.291006417243865 
1363	-0.194711963010936 
1364	-0.185036262872524 
1365	-0.173361194732654 
1366	-0.161726913593763 
1367	-0.467751182586464 
1368	-0.444668163118379 
1369	-0.309405195421852 
1370	-0.442711567739601 
1371	-0.682053120808172 
1372	-0.565481034796493 
1373	-0.597175479160682 
1374	-0.684786692843994 
1375	-0.29492440444452 
1376	-9.59498827678302E-02 
1377	-0.149587878579166 
1378	-0.271289429247752 
1379	-0.252188483121464 
1380	-0.360229987714907 
1381	-1.65677090237566 
1382	-2.25934628619515 
1383	-0.612494086675422 
1384	-0.547879699983604 
1385	-0.557440495294805 
1386	-0.471263033828507 
1387	-0.637455925288488 
1388	-0.755015494439386 
1389	-0.726356172980258 
1390	-0.523930265978921 
1391	 2.78634582603423E-02 
1392	-0.370695656328918 
1393	-0.275316389682612 
1394	-0.212936116605309 
1395	-0.475599773123802 
1396	-0.349795356782659 
1397	-0.284901058160859 
1398	-0.507424604976037 
1399	-0.349504277127798 
1400	-0.433316677864556 
1401	-0.635650866154576 
1402	-0.374373804965863 
1403	-0.222636965889808 
1404	-0.290248811326504 
1405	-0.296192670073134 
1406	-0.209354142079872 
1407	-0.069267985171846 
1408	 6.99202904436268E-02 
1409	-2.91797462062333E-02 
1410	-0.203856939192389 
1411	-0.149729468947688 
1412	-0.128786332045567 
1413	-0.166044594454713 
1414	-0.083191598058084 
1415	-3.84155275202247E-02 
1416	-0.128523278550482 
1417	-0.150408702432679 
1418	-0.092328704034212 
1419	-5.46569649772828E-02 
1420	-3.22737846476059E-02 
1421	-4.42928566269522E-02 
1422	-6.04057478440097E-02 
1423	-4.18897982087184E-02 
1424	-3.81304076434407E-02 
1425	-2.82986308534385E-02 
1426	 1.73653437560417E-02 
1427	 3.06184689798826E-02 
1428	 2.20145299890606E-02 
1429	 1.60558654148588E-02 
1430	 7.30387824201748E-04 
1431	 3.42009436610554E-03 
1432	 1.57325821190696E-02 
1433	 1.62055789319457E-02 
1434	 2.25538688082785E-02 
1435	 2.63759536862369E-02 
1436	 2.27928178871291E-02 
1437	 1.46935188071885E-02 
1438	-2.00203515743749E-03 
1439	-9.15689251857783E-04 
1440	-3.52472084570134E-05 
1441	-9.68077682211889E-03 
1442	-1.05117613809219E-03 
1443	 1.23829504811495E-02 
1444	 1.85208967618361E-02 
1445	 1.87158698400838E-02 
1446	 7.83189782869159E-03 
1447	 5.67859006483954E-03 
1448	 1.37955407497133E-02 
1449	 1.23606980204955E-02 
1450	 1.09144141569909E-02 
1451	 1.58311098811944E-02 
1452	 1.66800323670005E-02 
1453	 1.63256869507476E-02 
1454	 1.62678623807909E-02 
1455	 1.80295294456814E-02 
1456	 1.80028228484346E-02 
1457	 0.015750126300539 
1458	 0.016026519231227 
1459	 1.79558456770592E-02 
1460	 1.80822339822659E-02 
1461	 1.81210668978964E-02 
1462	 1.72786930749538E-02 
1463	 1.46480626856581E-02 
1464	 1.49910183776439E-02 
1465	 1.58281313518141E-02 
1466	 1.73301829245443E-02 
1467	 2.33925844849192E-02 
1468	 2.39193293318258E-02 
1469	 2.11134741335686E-02 
1470	 1.94787078257889E-02 
1471	 1.39521559576319E-02 
1472	 1.29426516668277E-02 
1473	 0.015834679306352 
1474	 1.55150871950685E-02 
1475	 1.43726577941036E-02 
1476	 1.58261311923858E-02 
1477	 1.92163774264323E-02 
1478	 1.75427836669559E-02 
1479	 1.31946599219324E-02 
1480	 0.014143957887036 
1481	 0.015304673873393 
1482	 1.42494420648557E-02 
1483	 1.55537671753181E-02 
1484	 1.65124046991417E-02 
1485	 1.47838581620921E-02 
1486	 1.39746223346219E-02 
1487	 1.54247129999272E-02 
1488	 1.57975080855728E-02 
1489	 1.40900577054152E-02 
1490	 1.38581802270169E-02 
1491	 1.52528209374034E-02 
1492	 1.55607153274963E-02 
1493	 1.53523711603062E-02 
1494	 1.51327344397215E-02 
1495	 1.45876003649216E-02 
1496	 1.45474205577502E-02 
1497	 1.45381839843576E-02 
1498	 1.47136306551104E-02 
1499	 1.59453494354981E-02 
1500	 0.015858899975864 
1501	 1.41373978039595E-02 
1502	 1.40468051480951E-02 
1503	 1.52155411050923E-02 
1504	 1.47320287836333E-02 
1505	 1.38442269104616E-02 
1506	 1.36129714002968E-02 
1507	 1.35959973396819E-02 
1508	 1.28451150161145E-02 
1509	 1.21090643275114E-02 
1510	 1.28968496513795E-02 
1511	 1.32033941547406E-02 
1512	 1.21663381726625E-02 
1513	 0.012365947110531 
1514	 0.01296442938625 
1515	 1.23149166823945E-02 
1516	 1.19012038600241E-02 
1517	 1.22771877574897E-02 
1518	 1.24838918079888E-02 
1519	 0.01216567457695 
1520	 1.18697161948272E-02 
1521	 1.17135933536131E-02 
1522	 1.15015557563486E-02 
1523	 1.18167378863419E-02 
1524	 1.25503935871043E-02 
1525	 1.31395226092746E-02 
1526	 1.31184966554033E-02 
1527	 1.21345537882714E-02 
1528	 1.14942762288222E-02 
1529	 1.15436868326726E-02 
1530	 0.011171187606266 
1531	 1.10089453407192E-02 
1532	 1.12209102543781E-02 
1533	 1.14444175519083E-02 
1534	 0.011514846222981 
1535	 0.011173174726729 
1536	 1.12105354164863E-02 
1537	 1.14170559639354E-02 
1538	 1.12932937585711E-02 
1539	 1.16912410958728E-02 
1540	 1.19952920379932E-02 
1541	 1.16301670563972E-02 
1542	 1.17241874390128E-02 
1543	 0.012271605583268 
1544	 1.24784795377516E-02 
1545	 1.20313108174366E-02 
1546	 0.011576028740374 
1547	 0.011453131626987 
1548	 1.13593494451566E-02 
1549	 0.011622348818929 
1550	 1.18641779220993E-02 
1551	 1.16971780851468E-02 
1552	 1.15056085123545E-02 
1553	 1.14395546393337E-02 
1554	 1.14672081429787E-02 
1555	 1.18436346462059E-02 
1556	 1.25505085078638E-02 
1557	 1.26804915038123E-02 
1558	 1.25771103763792E-02 
1559	 1.25441024461818E-02 
1560	 1.21319932593538E-02 
1561	 1.20558655854025E-02 
1562	 1.23668950779832E-02 
1563	 1.29662275492144E-02 
1564	 1.36656425296162E-02 
1565	 0.01386244965701 
1566	 1.37274471325844E-02 
1567	 1.34510090838095E-02 
1568	 1.35264101017022E-02 
1569	 1.37385892801399E-02 
1570	 1.34942377907624E-02 
1571	 0.013438016648478 
1572	 1.34311038628819E-02 
1573	 1.31664540416945E-02 
1574	 1.31188299738529E-02 
1575	 1.28617124726899E-02 
1576	 1.23130594624298E-02 
1577	 1.25199021646317E-02 
1578	 1.30661298262372E-02 
1579	 1.31214902541447E-02 
1580	 1.32620634410401E-02 
1581	 1.32149776894257E-02 
1582	 1.28381978200512E-02 
1583	 0.01241628650096 
1584	 1.21632775313431E-02 
1585	 1.26047190593228E-02 
1586	 1.26646327470378E-02 
1587	 1.25274347077554E-02 
1588	 1.30551984497962E-02 
1589	 1.27646362698434E-02 
1590	 1.20876856574276E-02 
1591	 1.25280428592228E-02 
1592	 1.29938304797937E-02 
1593	 1.30310261640575E-02 
1594	 1.32784887450281E-02 
1595	 1.39571972778534E-02 
1596	 1.45236231628988E-02 
1597	 1.40816021834497E-02 
1598	 1.43140571285671E-02 
1599	 1.51486694314739E-02 
1600	 1.47861036210641E-02 
1601	 0.014738154480804 
1602	 1.51770494495895E-02 
1603	 0.014919373261523 
1604	 1.49773551487154E-02 
1605	 0.015480106281505 
1606	 1.61785309023099E-02 
1607	 1.65421459855431E-02 
1608	 1.56918775170324E-02 
1609	 1.52980776351109E-02 
1610	 1.54436874873843E-02 
1611	 1.52989327359625E-02 
1612	 1.54974905384257E-02 
1613	 1.59410681410578E-02 
1614	 1.59799451753284E-02 
1615	 1.53370554480555E-02 
1616	 1.48968398965648E-02 
1617	 1.46116150177944E-02 
1618	 1.40749065507723E-02 
1619	 1.41283291954675E-02 
1620	 1.47454752456605E-02 
1621	 1.45023984637236E-02 
1622	 1.40415992489516E-02 
1623	 1.42652477117829E-02 
1624	 1.40741455197164E-02 
1625	 1.42342176467154E-02 
1626	 1.44679170536383E-02 
1627	 1.39548506952639E-02 
1628	 0.013980715102218 
1629	 1.39980951079365E-02 
1630	 0.013820167189278 
1631	 1.40780015482979E-02 
1632	 1.41284212067251E-02 
1633	 1.39291314220011E-02 
1634	 1.38199832222399E-02 
1635	 1.39743235730751E-02 
1636	 1.37999475740925E-02 
1637	 1.32916978941231E-02 
1638	 1.29420751461266E-02 
1639	 1.28281822182393E-02 
1640	 1.33447521357718E-02 
1641	 1.36231626536122E-02 
1642	 1.37633955487743E-02 
1643	 1.37800736100079E-02 
1644	 1.31255597981701E-02 
1645	 1.29995497722804E-02 
1646	 1.32857845128221E-02 
1647	 1.31373566204831E-02 
1648	 1.26928258824811E-02 
1649	 1.23392509370461E-02 
1650	 0.01227804456228 
1651	 1.27119489206796E-02 
1652	 1.31033444746079E-02 
1653	 1.38333651220589E-02 
1654	 1.39026774925502E-02 
1655	 1.29889046872099E-02 
1656	 1.29924464223712E-02 
1657	 0.013212463427081 
1658	 0.013322487038186 
1659	 1.43625473508795E-02 
1660	 0.014207017142438 
1661	 1.28028894870316E-02 
1662	 1.28427877575201E-02 
1663	 1.29357530708627E-02 
1664	 1.30971069676435E-02 
1665	 0.014418727362665 
1666	 1.46365707182853E-02 
1667	 0.014218818282472 
1668	 1.41491440968219E-02 
1669	 1.36964677871233E-02 
1670	 1.39463910912353E-02 
1671	 1.42091775487618E-02 
1672	 1.45424785303284E-02 
1673	 1.44861622627728E-02 
1674	 1.37879838496583E-02 
1675	 1.38350810767656E-02 
1676	 0.01366682626251 
1677	 1.33060173762431E-02 
1678	 1.41351666865762E-02 
1679	 1.43026306860709E-02 
1680	 1.32183707002502E-02 
1681	 1.27480498539088E-02 
1682	 1.26074202100445E-02 
1683	 1.29371244723537E-02 
1684	 1.44655925045806E-02 
1685	 1.51536053195379E-02 
1686	 1.38254495904806E-02 
1687	 1.28327385505198E-02 
1688	 1.31227722921104E-02 
1689	 1.39957493740171E-02 
1690	 1.53734990779323E-02 
1691	 1.52116782629523E-02 
1692	 1.37074515773633E-02 
1693	 1.34972507574513E-02 
1694	 1.37584639808388E-02 
1695	 1.40936959506557E-02 
1696	 1.46277937919824E-02 
1697	 0.014144291179837 
1698	 1.35112059781132E-02 
1699	 1.37403082143593E-02 
1700	 1.36630238138726E-02 
1701	 1.28094932414134E-02 
1702	 1.28361220203629E-02 
1703	 0.013460187560339 
1704	 1.33796290329154E-02 
1705	 1.38740459003584E-02 
1706	 1.49880405891279E-02 
1707	 1.46604830372996E-02 
1708	 1.41348131970114E-02 
1709	 1.50033544095915E-02 
1710	 0.014808666262197 
1711	 1.41948151570541E-02 
1712	 1.49613015370743E-02 
1713	 1.49345602180811E-02 
1714	 0.014907595932405 
1715	 1.52058446532603E-02 
1716	 1.47351969096029E-02 
1717	 1.46605804806074E-02 
1718	 1.51335343030496E-02 
1719	 1.47721812250282E-02 
1720	 1.43748230315769E-02 
1721	 1.44372335962298E-02 
1722	 1.43391459696922E-02 
1723	 1.42052210646588E-02 
1724	 1.39730113448773E-02 
1725	 0.013504950424696 
1726	 1.27226817583527E-02 
1727	 1.29491038787794E-02 
1728	 1.42111610850173E-02 
1729	 1.45014221374752E-02 
1730	 1.43162855376943E-02 
1731	 1.39600276896055E-02 
1732	 1.26269827529475E-02 
1733	 1.17053411692845E-02 
1734	 1.28508843436501E-02 
1735	 1.34843221280811E-02 
1736	 1.25404438568173E-02 
1737	 1.36204102784338E-02 
1738	 0.013724392315636 
1739	 1.21682158434088E-02 
1740	 1.36816646232296E-02 
1741	 1.46471160558825E-02 
1742	 1.38976566837954E-02 
1743	 0.014731343220243 
1744	 1.52062919355543E-02 
1745	 0.014428168355993 
1746	 1.46959616893236E-02 
1747	 1.44906214417398E-02 
1748	 1.35861892245819E-02 
1749	 1.31247188872115E-02 
1750	 1.24046905843354E-02 
1751	 1.20321383728586E-02 
1752	 1.23362436100533E-02 
1753	 1.27299461091326E-02 
1754	 1.34234458138515E-02 
1755	 0.013183864410212 
1756	 1.23165788729597E-02 
1757	 1.30107108973049E-02 
1758	 1.35469380523987E-02 
1759	 1.34962303842709E-02 
1760	 1.33100350445245E-02 
1761	 1.30064231664509E-02 
1762	 1.16653517726108E-02 
1763	 1.18531804328528E-02 
1764	 0.012911048884081 
1765	 1.25076109749478E-02 
1766	 1.29666611829062E-02 
1767	 0.013325295863569 
1768	 1.23839047822108E-02 
1769	 1.09980136284558E-02 
1770	 1.03706630850608E-02 
1771	 0.011584545146663 
1772	 1.16667240362957E-02 
1773	 1.05842105800057E-02 
1774	 1.07904101248702E-02 
1775	 1.03402327351928E-02 
1776	 0.010498454611928 
1777	 1.34203664032857E-02 
1778	 0.01385500375009 
1779	 1.19538675592619E-02 
1780	 1.14870940450882E-02 
1781	 1.08221613740643E-02 
1782	 9.89353015645967E-03 
1783	 8.52682548953789E-03 
1784	 8.9958599807986E-03 
1785	 1.06745796846107E-02 
1786	 1.12690168835944E-02 
1787	 1.41188372556157E-02 
1788	 1.39241089441269E-02 
1789	 1.09722415310142E-02 
1790	 9.62844994641679E-03 
1791	 2.66317474283102E-03 
1792	 4.1731473861239E-03 
1793	 6.71166774256168E-03 
1794	 9.19761173780803E-03 
1795	 2.08504537661164E-02 
1796	 2.44123337137125E-02 
1797	 1.85678054502941E-02 
1798	 1.14091474415181E-02 
1799	 6.61404141189965E-03 
1800	-2.75787901304188E-03 
1801	-5.31870371390226E-03 
1802	 1.02934042560978E-02 
1803	 8.15430970717258E-03 
1804	-2.37652625277429E-03 
1805	-6.08755371941687E-03 
1806	-3.74843067396781E-02 
1807	-4.46666515828536E-02 
1808	 8.75626791352065E-03 
1809	 1.60152815910665E-02 
1810	 1.61839525706249E-02 
1811	-4.29042354160871E-02 
1812	-0.24727654497181 
1813	-0.234565668450636 
1814	-0.105010572540647 
1815	-3.72098803240733E-02 
1816	 0.400137335676481 
1817	 0.158264653762879 
1818	-0.38236085281176 
1819	-0.878709081728277 
1820	-0.758982529495452 
1821	 3.28091565436399E-02 
1822	 0.121020501361644 
1823	-0.114617471332781 
1824	-0.283028302799492 
1825	-0.746090911202331 
1826	-0.950476634373422 
1827	-0.961797250737075 
1828	-1.15722049342433 
1829	-2.12440174938422 
1830	-1.20471533274118 
1831	-0.140239348890881 
1832	-0.244443052266048 
1833	-1.06194581224162 
1834	-1.12496340835351 
1835	-9.0502362047333 
1836	-8.04424088791603 
1837	 4.46876056643787E-02 
1838	 0.734780188002382 
1839	 1.49654243042863 
1840	 0.887034395942496 
1841	 0.509322702529217 
1842	 0.626892030220526 
1843	 0.505775461687331 
1844	 3.9191240415439E-04 
1845	-0.285156830180548 
1846	-0.805550905453262 
1847	-0.77306238603559 
1848	-0.500804488691933 
1849	-0.208697975914803 
1850	-0.156837298237909 
1851	 0.23125358597187 
1852	 0.138467603741184 
1853	-0.19453849030619 
1854	-0.198967561746603 
1855	 6.05837214301173E-02 
1856	 0.27717978859465 
1857	 3.60786896986581 
1858	-5.12701694062207 
1859	-1.18365518054325 
1860	-1.32795712704772 
1861	-2.97990027640894 
1862	-17.8406684828209 
1863	-0.282885508251149 
1864	-0.475140064562242 
1865	-0.475598596989083 
1866	-7.09218420541062 
1867	-7.91508554476941 
1868	 0.840991385377701 
1869	 0.70433720813659 
1870	-1.40080359423732 
1871	-1.68639938912914 
1872	-1.1009328566392 
1873	-1.41339536044843 
1874	-1.92087734300536 
1875	-2.39769477159138 
1876	-2.23800805204616 
1877	 7.78354207896192 
1878	 1.82603372416904 
1879	-3.72778031830112 
1880	-1.49509365917994 
1881	 0.569116103701555 
1882	 1.4224863364032 
1883	 3.00557529329051 
1884	 4.81798725943186 
1885	 17.2554372829834 
1886	-10.3110619013631 
1887	-2.91713095112091 
1888	-4.15565540974203 
1889	-7.25548733796846 
1890	-13.2942946016268 
1891	-25.6809499308572 
1892	 1.54609847379933 
1893	 1.58486753172516 
1894	-2.6799453846301 
1895	-2.1295197183862 
1896	-0.708292712854417 
1897	-0.244361195993241 
1898	-0.171965370842059 
1899	-0.653461079754449 
1900	-0.598177666663174 
1901	 0.256933719945846 
1902	 0.314766668158436 
1903	 0.156696238032456 
1904	 5.13377605704646E-02 
1905	-0.063562428466014 
1906	-0.597049962214907 
1907	 12.3311436652587 
1908	 1.94294378147491 
1909	-1.62927576450928 
1910	 1.7528566505498 
1911	 2.05438518685708 
1912	-15.0687204617106 
1913	 6.18819056728347 
1914	 0.332345028305464 
1915	 0.548155476982007 
1916	 1.98301403432657 
1917	 1.20089502049079 
1918	 2.272530582913 
1919	 1.72386925831739 
1920	 1.25934870530496 
1921	-2.34881878849808 
1922	-1.50004077474404 
1923	-0.991119937194907 
1924	-0.773149879543718 
1925	-1.22072852990119 
1926	-1.32262700145845 
1927	-1.01199411730501 
1928	-0.62540188767234 
1929	-0.163218975918967 
1930	-0.207868901265022 
1931	-0.181747353405054 
1932	 0.216358201310832 
1933	-0.439550723324043 
1934	-0.363387232738447 
1935	-0.578838320210105 
1936	-0.741985615987734 
1937	-0.729522645842994 
1938	-0.614198981157432 
1939	-0.365036666729851 
1940	-7.87935624955115E-02 
1941	 1.23005326431744E-02 
1942	 2.18314507969868E-02 
1943	-4.19313122962998E-02 
1944	-7.57880040773767E-02 
1945	-0.122942620477588 
1946	-0.187771285115178 
1947	-0.176747099909357 
1948	-0.118386332978048 
1949	-0.12867624832876 
1950	-6.88424005577882E-02 
1951	-1.92882355578265E-02 
1952	-1.72375116516063E-02 
1953	-8.30283240745539E-02 
1954	-5.63404431590315E-02 
1955	-2.62651388165156E-02 
1956	-2.49782595809608E-02 
1957	 3.29968761212558E-02 
1958	 6.25700976234758E-02 
1959	 4.32169675134775E-02 
1960	 3.02291028150677E-02 
1961	 1.51876295577306E-02 
1962	 8.29652702992345E-03 
1963	 1.60511182397279E-02 
1964	 2.13437789352806E-02 
1965	 1.95697988198774E-02 
1966	 0.01535118352613 
1967	 3.15389563101692E-03 
1968	-1.86120289849412E-03 
1969	-1.0585343946861E-04 
1970	 5.24829727192404E-03 
1971	 0.012898700916666 
1972	 1.33388373140984E-02 
1973	 1.03259842971404E-02 
1974	 4.80197424190575E-03 
1975	 4.17340680381193E-03 
1976	 5.99010065898473E-03 
1977	 3.30544247134914E-03 
1978	 3.1390280390497E-03 
1979	 3.01949419175131E-03 
1980	 1.11628615423078E-03 
1981	-7.944828632911E-05 
1982	 2.90130439507471E-03 
1983	 3.94990191209961E-03 
1984	 6.44861967564546E-03 
1985	 8.9380866145235E-03 
1986	 7.93271683239122E-03 
1987	 9.47807966226365E-03 
1988	 1.12096320560336E-02 
1989	 8.17316299443119E-03 
1990	 4.71316186184204E-03 
1991	 1.73610512396638E-03 
1992	-1.32851944209357E-03 
1993	-3.29862254962835E-03 
1994	-3.45367352395708E-03 
1995	-2.70339561604583E-04 
1996	 5.17939072027491E-03 
1997	 8.85058371075869E-03 
1998	 1.08128967852155E-02 
1999	 1.23052238676802E-02 
2000	 1.12627704379079E-02 
2001	 1.41629888441991E-03 
2002	-0.011282825288717 
2003	-1.06253169152803E-02 
2004	-1.39971318764035E-02 
2005	-2.07467986366352E-02 
2006	-1.62898418714063E-02 
2007	-1.43629213915747E-02 
2008	-4.9451657993425E-03 
2009	 3.55237973840595E-04 
2010	 1.63333462672597E-02 
2011	 2.24366295952788E-02 
2012	 2.35573597260766E-02 
2013	 1.39279954531456E-02 
2014	 3.70559290275833E-03 
2015	-6.78350414236042E-03 
2016	-1.62965512950093E-03 
2017	 5.22977046614721E-03 
2018	 0.014326972889685 
2019	 2.34524606691594E-02 
2020	 1.28327023719209E-02 
2021	 7.21998012576611E-03 
2022	 1.06321179979087E-02 
2023	 1.05005326706659E-02 
2024	 1.00478892943276E-02 
2025	 1.30616730447305E-02 
2026	 1.24336328170799E-02 
2027	 7.57523767966395E-03 
2028	 6.24530182074553E-03 
2029	 5.23374319166201E-03 
2030	 4.4663525783076E-03 
2031	 5.10704082778984E-03 
2032	 5.89954458109495E-03 
2033	 7.55494603747948E-03 
2034	 8.70455051569444E-03 
2035	 7.86621068974612E-03 
2036	 7.3759036790491E-03 
2037	 7.55185321093524E-03 
2038	 8.36488882084829E-03 
2039	 9.36478632432456E-03 
2040	 1.00293099044074E-02 
2041	 1.12687368503024E-02 
2042	 1.51326819694312E-02 
2043	 1.59726353985691E-02 
2044	 1.55987014617469E-02 
2045	 0.015324469604477 
2046	 1.23160871990733E-02 
2047	 7.35398929898992E-03 
2048	 8.73148427266803E-03 
2049	 1.30423588911757E-02 
2050	 1.45060505334505E-02 
2051	 0.017496367622216 
2052	 1.71146759610185E-02 
2053	 1.33659226037471E-02 
2054	 1.48292915129234E-02 
2055	 1.66196815541159E-02 
2056	 0.016739944298793 
2057	 1.60018467200635E-02 
2058	 1.57926015673384E-02 
2059	 1.46180636143677E-02 
2060	 1.42710673242843E-02 
2061	 1.55324111052384E-02 
2062	 1.42265920101323E-02 
2063	 1.21241969160786E-02 
2064	 1.04466608357442E-02 
2065	 9.96665422065261E-03 
2066	 1.15954087825275E-02 
2067	 1.26082207316637E-02 
2068	 1.29439976649292E-02 
2069	 9.92876407005643E-03 
2070	 7.46790528913895E-03 
2071	 9.78259700418235E-03 
2072	 0.011510395396261 
2073	 0.011709731698672 
2074	 1.25238985592349E-02 
2075	 1.22886402268723E-02 
2076	 9.46689801867204E-03 
2077	 9.58171940420378E-03 
2078	 1.25065327178225E-02 
2079	 1.31424801562196E-02 
2080	 1.31813027424189E-02 
2081	 1.25178866306373E-02 
2082	 1.35325488557194E-02 
2083	 1.39955849075733E-02 
2084	 1.57654042535299E-02 
2085	 1.34864473215752E-02 
2086	 9.24394815406161E-03 
2087	 8.06255804732877E-03 
2088	 7.99172591455498E-03 
2089	 1.00921331424211E-02 
2090	 1.10951609315668E-02 
2091	 1.00066241892048E-02 
2092	 9.85203085376259E-03 
2093	 8.22038442173095E-03 
2094	 8.8635117582904E-03 
2095	 1.23764983101226E-02 
2096	 1.20958478107528E-02 
2097	 9.77939355140767E-03 
2098	 9.40841218336012E-03 
2099	 7.75853725347737E-03 
2100	 7.53145158980029E-03 
2101	 9.92570988559499E-03 
2102	 1.25338890932207E-02 
2103	 0.012662069570722 
2104	 0.011451968381479 
2105	 0.011684894593063 
2106	 1.20805084936521E-02 
2107	 1.05530358391264E-02 
2108	 0.010736724753929 
2109	 1.15246707441486E-02 
2110	 8.85908105417603E-03 
2111	 6.35106976328467E-03 
2112	 6.78615567586843E-03 
2113	 8.41966754381169E-03 
2114	 0.012839129243945 
2115	 1.34675881976084E-02 
2116	 1.44576962651642E-02 
2117	 1.44090997141204E-02 
2118	 9.31861412805496E-03 
2119	 7.99048133854211E-03 
2120	 8.90144012328031E-03 
2121	 1.07554000073501E-02 
2122	 1.06590434682843E-02 
2123	 1.13605365756019E-02 
2124	 1.06238550111581E-02 
2125	 8.70032769980869E-03 
2126	 8.69750267655444E-03 
2127	 8.6901625447869E-03 
2128	 9.75744950419914E-03 
2129	 1.15877806750635E-02 
2130	 1.25658470833014E-02 
2131	 1.35552487273959E-02 
2132	 1.28102681042422E-02 
2133	 1.31944306433673E-02 
2134	 1.39419087243989E-02 
2135	 1.50220579655508E-02 
2136	 1.45264156686427E-02 
2137	 1.38313747080059E-02 
2138	 1.31980837625324E-02 
2139	 1.12581631211883E-02 
2140	 1.08261872169266E-02 
2141	 1.16060457902649E-02 
2142	 1.20352097106707E-02 
2143	 1.34019567283981E-02 
2144	 1.21910274532055E-02 
2145	 1.04995041232731E-02 
2146	 1.10704248270377E-02 
2147	 1.08380423822452E-02 
2148	 1.10963053331846E-02 
2149	 1.24556711728542E-02 
2150	 1.31067818897055E-02 
2151	 1.23693476415264E-02 
2152	 1.06390074598832E-02 
2153	 1.10352712545944E-02 
2154	 1.06983400265462E-02 
2155	 8.87193039624063E-03 
2156	 9.62808705924265E-03 
2157	 8.90847223762455E-03 
2158	 5.75825168130325E-03 
2159	 5.30260912294853E-03 
2160	 5.97666305143357E-03 
2161	 6.37347581485892E-03 
2162	 8.55798799387041E-03 
2163	 1.05528241720798E-02 
2164	 1.28160951279072E-02 
2165	 1.36563177541471E-02 
2166	 0.014600516867019 
2167	 1.39125679126961E-02 
2168	 9.35402259589919E-03 
2169	 9.16813678022212E-03 
2170	 1.14903167876656E-02 
2171	 1.12520917784499E-02 
2172	 1.43303710399871E-02 
2173	 1.85967321389924E-02 
2174	 1.95564264496238E-02 
2175	 1.91256526778196E-02 
2176	 1.64720124902724E-02 
2177	 1.32554035933754E-02 
2178	 9.22122140148346E-03 
2179	 6.81258558151675E-03 
2180	 6.92435253633103E-03 
2181	 8.1104692157831E-03 
2182	 9.9471781190604E-03 
2183	 1.26907211106697E-02 
2184	 1.49768537539943E-02 
2185	 1.25043429527174E-02 
2186	 1.14951885507166E-02 
2187	 9.5792554002599E-03 
2188	 1.01792656735315E-02 
2189	 1.14390485186383E-02 
2190	 0.012217307775695 
2191	 1.57821883445312E-02 
2192	 1.46942871856295E-02 
2193	 9.77932400014733E-03 
2194	 9.33039074158883E-03 
2195	 7.77063990193296E-03 
2196	 7.22541420544483E-03 
2197	 1.12139533214399E-02 
2198	 0.011576836909316 
2199	 7.74156730134992E-03 
2200	 9.73190994294873E-03 
2201	 1.48435623510568E-02 
2202	 1.50425099219476E-02 
2203	 1.49769124900898E-02 
2204	 1.71046816303831E-02 
2205	 1.62186310283156E-02 
2206	 1.35746027243889E-02 
2207	 1.49604030482569E-02 
2208	 1.54918549068567E-02 
2209	 0.013319220146444 
2210	 1.29005330598091E-02 
2211	 1.06211145881811E-02 
2212	 9.0189686975834E-03 
2213	 1.09936587195138E-02 
2214	 1.23278139627423E-02 
2215	 1.43780481986784E-02 
2216	 0.014283016060649 
2217	 1.40944124530585E-02 
2218	 1.11523042605766E-02 
2219	 9.95394285632708E-03 
2220	 1.02891395744149E-02 
2221	 1.06472228742698E-02 
2222	 0.010231537050483 
2223	 8.96934790088714E-03 
2224	 8.63203722706468E-03 
2225	 7.6505004068761E-03 
2226	 3.03533537998986E-03 
2227	 3.28914678613283E-03 
2228	 7.53273249211103E-03 
2229	 8.92594213639716E-03 
2230	 1.29970823239684E-02 
2231	 1.40185155718828E-02 
2232	 9.91374922109049E-03 
2233	 8.79588776236618E-03 
2234	 6.60067821699871E-03 
2235	 8.68525891810757E-03 
2236	 1.11524571243641E-02 
2237	 1.24698195999498E-02 
2238	 1.67495805389003E-02 
2239	 1.63825088849219E-02 
2240	 1.15037252328047E-02 
2241	 1.12223156265819E-02 
2242	 1.16082358392036E-02 
2243	 6.08850229514768E-03 
2244	 4.90145550784871E-03 
2245	 9.69900501515787E-03 
2246	 6.77814862149201E-03 
2247	 5.09109252919177E-03 
2248	 1.02320649586923E-02 
2249	 1.05229389220889E-02 
2250	 1.16173022651673E-02 
2251	 1.59270941296658E-02 
2252	 0.013679348543188 
2253	 8.29925283572064E-03 
2254	 4.62599423850454E-03 
2255	 5.49720014812026E-03 
2256	 0.010783159262113 
2257	 1.35305532778561E-02 
2258	 1.37194301931448E-02 
2259	 8.32084425174981E-03 
2260	 5.75994912073995E-03 
2261	 6.13260187626854E-04 
2262	 1.10914342060197E-03 
2263	 5.98068711973837E-03 
2264	 9.01951974204047E-03 
2265	 0.014492615150863 
2266	 1.63527183257279E-02 
2267	 1.61342224653394E-02 
2268	 1.62074267755266E-02 
2269	 1.46307078660825E-02 
2270	 1.31006593840362E-02 
2271	 0.01113170686209 
2272	 1.19957387616657E-02 
2273	 1.27697740616354E-02 
2274	 1.24029510606458E-02 
2275	 1.56206579464847E-02 
2276	 1.40808842582943E-02 
2277	 8.07537223170915E-03 
2278	 7.19851142102274E-03 
2279	 6.77165011584691E-03 
2280	 4.34650077232377E-03 
2281	 1.42648921814079E-03 
2282	 4.68894409764001E-03 
2283	 1.19027163355633E-04 
2284	-4.34063933147008E-03 
2285	 5.44938701777845E-04 
2286	-2.51276283358101E-03 
2287	-5.80524562593444E-03 
2288	-1.09930159918813E-03 
2289	-2.08827238732017E-03 
2290	-2.35487107622386E-03 
2291	 7.15015914172995E-03 
2292	 1.16265563748308E-02 
2293	 8.34328148313382E-03 
2294	 7.79713836392069E-03 
2295	 1.03925080990733E-02 
2296	 7.34738454217339E-03 
2297	 6.41064199245442E-03 
2298	 1.37354822286243E-02 
2299	 9.47796129481795E-03 
2300	 3.50535982969197E-03 
2301	 7.08325657169678E-03 
2302	 4.07325164884392E-03 
2303	 1.22771035800202E-03 
2304	 2.88811941361625E-03 
2305	 4.95768678767086E-03 
2306	 1.24376585225573E-02 
2307	 1.50034432832725E-02 
2308	 1.49462770875108E-02 
2309	 1.57902912611073E-02 
2310	 8.69618931552759E-03 
2311	 6.90088113621824E-04 
2312	-2.17855385161124E-03 
2313	 4.24256535841178E-04 
2314	 1.0321055495516E-03 
2315	-1.58173500988653E-03 
2316	-2.49945712974417E-03 
2317	-4.54931777539987E-03 
2318	-5.96062441710666E-03 
2319	-4.2318456169913E-03 
2320	-5.3989240760904E-04 
2321	-2.51538164755538E-04 
2322	-2.42983003124511E-03 
2323	-1.98134286659689E-04 
2324	-2.73789860919183E-03 
2325	-0.012944402943776 
2326	-1.77676369243512E-02 
2327	-2.41607436910389E-02 
2328	-3.11797648691306E-02 
2329	-2.60217934596827E-02 
2330	-1.88046177693889E-02 
2331	-1.85006413112579E-02 
2332	-1.92491155259775E-02 
2333	-1.50669254124806E-02 
2334	-1.31966115685195E-02 
2335	-5.70058450940572E-03 
2336	 0.014148732631165 
2337	 1.30513836724546E-02 
2338	-3.76914717234159E-03 
2339	-9.44816441814696E-03 
2340	-1.42049312352228E-02 
2341	-1.51338361748082E-02 
2342	-1.10253957387257E-02 
2343	-1.84059397860353E-02 
2344	-3.35394008909271E-02 
2345	-4.10904212728054E-02 
2346	-3.65100424887318E-02 
2347	-2.36033439981466E-02 
2348	 8.11820291971148E-04 
2349	 1.11745665138282E-02 
2350	 7.04540338915238E-04 
2351	-4.68380736753554E-03 
2352	-2.56780730492288E-02 
2353	-3.92007057246297E-02 
2354	-0.01982307754906 
2355	-1.81792630732711E-03 
2356	 1.0704613287619E-03 
2357	-1.62455405589914E-02 
2358	-3.95070029264628E-02 
2359	-4.37854851911799E-02 
2360	-3.96058668648268E-02 
2361	-2.31943053667794E-02 
2362	-6.40543866158844E-03 
2363	-2.99306821194201E-03 
2364	 4.78143996111683E-03 
2365	 1.12569670629146E-02 
2366	 2.11045557615757E-02 
2367	 1.10188329502173E-02 
2368	-3.10467915042986E-03 
2369	-3.0759181810433E-03 
2370	-4.31684537651051E-03 
2371	 2.01046356740095E-02 
2372	 1.47880942439777E-02 
2373	 9.35172463198237E-03 
2374	 5.73887431425623E-03 
2375	-4.02514498502479E-02 
2376	-3.74247525883358E-02 
2377	-4.92142258025286E-02 
2378	-0.111116407774971 
2379	-0.115541625530973 
2380	-9.32708587135756E-02 
2381	-0.114801605993395 
2382	-0.102672569730855 
2383	-5.42477760254338E-02 
2384	-0.068047257885686 
2385	-8.56884782026907E-02 
2386	-3.49408579364532E-02 
2387	-1.09344720780142E-02 
2388	 2.2171241287919E-03 
2389	 7.29477037542592E-02 
2390	 0.100252239427968 
2391	 1.90222969410364E-02 
2392	-2.62224259887956E-02 
2393	-4.50935062446855E-02 
2394	-8.34035700673002E-02 
2395	-2.19451546081666E-02 
2396	 1.43747679473216E-02 
2397	-0.032316394844451 
2398	-2.08222395764521E-02 
2399	 1.95750845767335E-03 
2400	-4.16588158938975E-03 
2401	-2.16763407151386E-04 
2402	-1.87920345356282E-02 
2403	-4.87446116646063E-02 
2404	-1.06950411534362E-02 
2405	-1.38900523095416E-02 
2406	-0.111563443557502 
2407	-0.121746312397256 
2408	-0.166468732406784 
2409	-0.206358537823172 
2410	-0.13126422378044 
2411	-0.12264565784687 
2412	-0.102782442797703 
2413	-7.26433587636519E-02 
2414	-2.45991274245137E-02 
2415	 6.69034064773599E-02 
2416	 2.75572849738546E-02 
2417	 2.76167455186061E-03 
2418	-2.64847459540558E-02 
2419	-0.166735751718053 
2420	-0.120585471592551 
2421	-0.127299971180228 
2422	-0.220834811203176 
2423	-0.203440934969263 
2424	-0.310948390397362 
2425	-0.364404159099924 
2426	-0.264673558746248 
2427	-0.349523125390949 
2428	-0.45650381864077 
2429	-0.408023114019382 
2430	-0.37994332018427 
2431	-0.26869487867424 
2432	-0.179972129486784 
2433	-0.251921748465238 
2434	-0.42822613616469 
2435	-0.436487370741955 
2436	-0.490825487346187 
2437	-0.655028753037489 
2438	-0.413299214833047 
2439	-0.360807737511455 
2440	-0.411175306598765 
2441	-0.194305677228683 
2442	-0.455721694533973 
2443	-0.988784528976592 
2444	-0.384357087988053 
2445	-0.324560371290967 
2446	-0.253129919303021 
2447	-0.55572212094797 
2448	-0.938050336126691 
2449	-0.742054145308149 
2450	-0.669985993512319 
2451	-0.491081575864487 
2452	-6.76336939658927 
2453	-2.32250899065772 
2454	 5.0437862632103 
2455	-2.08832236558779E-03 
2456	-0.982329044607285 
2457	-1.08211159873117 
2458	-1.05955390480152 
2459	-0.634638440689176 
2460	-3.65637673754817E-02 
2461	-9.27440070982101E-02 
2462	-0.121623200722484 
2463	-5.31874950330455E-02 
2464	-0.192530553620414 
2465	-0.171617996488105 
2466	-0.364154644291022 
2467	-1.02781362740345 
2468	-0.294331231754343 
2469	-0.542126009116699 
2470	-1.55705208660395 
2471	-1.3512599391517 
2472	-1.30341301077277 
2473	-4.21527082293396 
2474	 4.86123812650165 
2475	 4.02619200563618 
2476	 1.80065166616908 
2477	-6.77164697905308 
2478	-1.31407401258664 
2479	-1.73092105238787 
2480	-0.734219954469199 
2481	-0.557130837815146 
2482	-0.450480452673543 
2483	-0.300056226130987 
2484	-0.277057825939272 
2485	 2.08062311722918 
2486	 0.436862964581439 
2487	-1.55631443405338 
2488	-3.22527133210771 
2489	-3.19734547069748 
2490	 3.45255979350562 
2491	-0.100808391427636 
2492	 0.262503086973741 
2493	-4.60559339370612E-02 
2494	-5.38238043504976 
2495	-14.9094704697761 
2496	-22.4631901878052 
2497	-3.11362395064804 
2498	-1.24972808101967 
2499	-1.04838022727317 
2500	-2.31457850414267 
