Wavelength	rt0726far00008.asd
350	 3.72748627181726E-02 
351	 3.74880074844454E-02 
352	 3.68781355862047E-02 
353	 3.68471193934501E-02 
354	 3.78003039816155E-02 
355	 3.72239067805056E-02 
356	 3.67108215873149E-02 
357	 3.69120212558718E-02 
358	 3.76654594023643E-02 
359	 0.036679827691179 
360	 0.036751952951621 
361	 3.76661390460374E-02 
362	 3.72708942820022E-02 
363	 3.67784912670971E-02 
364	 3.67171435041946E-02 
365	 3.69782386614952E-02 
366	 3.66437659492537E-02 
367	 3.64888240049562E-02 
368	 3.65120319798761E-02 
369	 3.65544270528461E-02 
370	 3.66653547882893E-02 
371	 3.67798090537088E-02 
372	 3.66753608223222E-02 
373	 3.61824448134991E-02 
374	 0.036268682541034 
375	 3.65938250848915E-02 
376	 3.66195246636233E-02 
377	 3.57911486693276E-02 
378	 3.61497762667726E-02 
379	 3.67391286173185E-02 
380	 3.65401314001416E-02 
381	 3.67063805037093E-02 
382	 3.66687499870242E-02 
383	 0.036480653407956 
384	 3.64441691382743E-02 
385	 0.036380578162881 
386	 3.63465555379704E-02 
387	 3.63842688227167E-02 
388	 3.64951416337234E-02 
389	 3.65236277510465E-02 
390	 3.66178209984301E-02 
391	 3.67871683380656E-02 
392	 3.65315659449875E-02 
393	 3.65685498790503E-02 
394	 3.66424050360535E-02 
395	 0.036350922304872 
396	 3.65563491514707E-02 
397	 3.66556482555625E-02 
398	 3.65580017631792E-02 
399	 0.036662592632157 
400	 3.69538564728784E-02 
401	 3.68975912224243E-02 
402	 3.64588404008981E-02 
403	 3.68939686688052E-02 
404	 3.70331548944056E-02 
405	 3.68905933800685E-02 
406	 3.68739468659777E-02 
407	 3.69335126375543E-02 
408	 3.69014958622438E-02 
409	 3.68398661836624E-02 
410	 3.70170114255456E-02 
411	 3.70742326995208E-02 
412	 0.03707609258468 
413	 3.71042426727389E-02 
414	 3.70960659258306E-02 
415	 3.69509220924994E-02 
416	 3.69338472013165E-02 
417	 3.73167104852351E-02 
418	 0.037498122205981 
419	 3.74797034413912E-02 
420	 3.74144884747598E-02 
421	 3.75533677784984E-02 
422	 3.77394872325382E-02 
423	 3.79211419049526E-02 
424	 3.80531307566232E-02 
425	 3.80238794654598E-02 
426	 3.81532393596612E-02 
427	 3.83979641126884E-02 
428	 0.03855338291327 
429	 3.87064204381214E-02 
430	 3.87741528486408E-02 
431	 3.88272853747366E-02 
432	 3.91206365920685E-02 
433	 3.92535592572728E-02 
434	 3.93643976852863E-02 
435	 0.03960041318756 
436	 3.97742990861012E-02 
437	 3.98981608646843E-02 
438	 4.00105267965824E-02 
439	 4.01722506350649E-02 
440	 4.05020557277835E-02 
441	 4.07100965513405E-02 
442	 4.07508201944662E-02 
443	 4.09928740300616E-02 
444	 4.12676862754698E-02 
445	 4.15256286874123E-02 
446	 4.17418095652331E-02 
447	 4.18736816386458E-02 
448	 4.20010718055429E-02 
449	 4.21631491238352E-02 
450	 4.23591326965613E-02 
451	 4.25139011309247E-02 
452	 4.26755070765155E-02 
453	 4.28611592800287E-02 
454	 4.29878751973306E-02 
455	 4.30655055169853E-02 
456	 4.31981022481943E-02 
457	 4.34545715572128E-02 
458	 4.35351407403247E-02 
459	 4.35945296804675E-02 
460	 4.36894759540226E-02 
461	 4.37590531237195E-02 
462	 4.39216255072548E-02 
463	 0.044055716938933 
464	 0.044102077464671 
465	 4.43104533407584E-02 
466	 4.44654630952486E-02 
467	 4.45813190002836E-02 
468	 4.47652655021349E-02 
469	 4.49104279113356E-02 
470	 4.50628829659311E-02 
471	 4.52354647562005E-02 
472	 4.53779483229533E-02 
473	 4.56132314889467E-02 
474	 4.58697278665645E-02 
475	 4.60435781815907E-02 
476	 4.60869664140375E-02 
477	 4.62787027522768E-02 
478	 4.65461546437858E-02 
479	 0.04661025552683 
480	 0.046797576180262 
481	 4.70352764019946E-02 
482	 4.72315641154038E-02 
483	 4.73566533597113E-02 
484	 4.75573544962513E-02 
485	 4.77837625735635E-02 
486	 4.79424746440004E-02 
487	 4.81298531525143E-02 
488	 4.84461666958927E-02 
489	 4.87784979662171E-02 
490	 4.88413181766355E-02 
491	 4.90878517370805E-02 
492	 4.94385403135804E-02 
493	 4.97565254063179E-02 
494	 5.00504023067062E-02 
495	 5.03979596973338E-02 
496	 5.07399034431321E-02 
497	 5.09827861737127E-02 
498	 5.13791477550514E-02 
499	 5.17470456674625E-02 
500	 5.20235392005923E-02 
501	 5.23945046098764E-02 
502	 5.28003564313648E-02 
503	 5.32612307599539E-02 
504	 5.37763005540551E-02 
505	 5.41926880134747E-02 
506	 5.45771047921663E-02 
507	 5.49323461870526E-02 
508	 5.52237468163425E-02 
509	 5.57201782658399E-02 
510	 5.62030897943767E-02 
511	 5.65634147481851E-02 
512	 5.71588225972539E-02 
513	 5.76186867632422E-02 
514	 5.80086962117302E-02 
515	 5.85496019198678E-02 
516	 5.91282334743253E-02 
517	 5.96254257292223E-02 
518	 0.060048108436326 
519	 6.05571188009586E-02 
520	 6.09504647240417E-02 
521	 6.14084182384436E-02 
522	 6.20741735216255E-02 
523	 6.26719997137896E-02 
524	 6.31689634789505E-02 
525	 6.36479514378819E-02 
526	 6.42562710285173E-02 
527	 6.48208376745219E-02 
528	 6.53708502327712E-02 
529	 6.59220716922975E-02 
530	 6.63949903732263E-02 
531	 6.69557375257301E-02 
532	 6.75734421495921E-02 
533	 6.81589899648974E-02 
534	 6.87926021752003E-02 
535	 6.93688115900054E-02 
536	 6.99083368087629E-02 
537	 7.05778835367418E-02 
538	 7.11730119345798E-02 
539	 7.17725162013139E-02 
540	 7.24591587747022E-02 
541	 7.30942775205244E-02 
542	 7.37761252769315E-02 
543	 7.44538046959325E-02 
544	 7.50153466525769E-02 
545	 7.57316922957812E-02 
546	 7.64239773303623E-02 
547	 7.70078478580612E-02 
548	 7.76947601193752E-02 
549	 7.83845424191854E-02 
550	 7.90437832531704E-02 
551	 7.96788687697561E-02 
552	 8.03937172457253E-02 
553	 8.10424550220493E-02 
554	 0.081653477676219 
555	 8.24541472627375E-02 
556	 8.31099022552077E-02 
557	 8.36824033654921E-02 
558	 0.084295053631961 
559	 8.49698511115663E-02 
560	 8.55690092489795E-02 
561	 8.60658018186653E-02 
562	 8.65238534358872E-02 
563	 8.70905814559739E-02 
564	 8.76592433825421E-02 
565	 8.81275323151539E-02 
566	 8.84597342602925E-02 
567	 8.88526866112018E-02 
568	 8.92703761701618E-02 
569	 8.96065351446617E-02 
570	 8.99288392380906E-02 
571	 9.01961168089761E-02 
572	 9.04332925946205E-02 
573	 9.07356357286952E-02 
574	 9.09268024760968E-02 
575	 9.10783476840285E-02 
576	 9.12799021586042E-02 
577	 9.15087309268004E-02 
578	 9.15703746489939E-02 
579	 9.15180879259126E-02 
580	 9.15501642865575E-02 
581	 9.15971714301912E-02 
582	 9.16449067829043E-02 
583	 9.16700667577799E-02 
584	 9.16253751897602E-02 
585	 9.14792465118918E-02 
586	 9.13743608207787E-02 
587	 9.14155800375697E-02 
588	 9.10611673092942E-02 
589	 9.08360985026933E-02 
590	 9.08601828966332E-02 
591	 9.07390367443057E-02 
592	 9.06293874807904E-02 
593	 9.04879839412592E-02 
594	 9.02563792445418E-02 
595	 8.99276197341866E-02 
596	 8.95533344285914E-02 
597	 0.089131599286587 
598	 8.86360098174038E-02 
599	 8.80847946811503E-02 
600	 8.76753429434112E-02 
601	 8.74414008760788E-02 
602	 8.70973105272337E-02 
603	 8.69144663302926E-02 
604	 8.68185488300948E-02 
605	 8.66720994670906E-02 
606	 8.66146182475817E-02 
607	 0.086549698910559 
608	 8.64450978354814E-02 
609	 8.63463154382937E-02 
610	 8.62586977630994E-02 
611	 8.61722534589007E-02 
612	 8.60542351546131E-02 
613	 8.57927358250463E-02 
614	 8.57161901523396E-02 
615	 8.57186762023184E-02 
616	 8.54958279214282E-02 
617	 8.54003099712464E-02 
618	 8.53138728311843E-02 
619	 8.51855107507838E-02 
620	 8.51592775795762E-02 
621	 8.51340169642084E-02 
622	 0.085072044681081 
623	 0.084976002890451 
624	 8.49544097335051E-02 
625	 8.48096334097945E-02 
626	 8.45900870455588E-02 
627	 8.45736442675827E-02 
628	 8.45412268173043E-02 
629	 8.44943874979795E-02 
630	 8.44336558811534E-02 
631	 8.42224331106664E-02 
632	 8.41627816213066E-02 
633	 8.41720696240755E-02 
634	 8.40240709490452E-02 
635	 8.39529304244898E-02 
636	 8.39958005407467E-02 
637	 8.40779344820406E-02 
638	 8.39948654993795E-02 
639	 8.39889829767764E-02 
640	 8.40190044602756E-02 
641	 0.084018388543732 
642	 8.41889000924127E-02 
643	 8.42841591871655E-02 
644	 8.42112885796502E-02 
645	 8.40253339462531E-02 
646	 8.39588967559048E-02 
647	 8.39776619847587E-02 
648	 8.39718707038684E-02 
649	 8.38012390610832E-02 
650	 8.35285199375739E-02 
651	 8.32486361591449E-02 
652	 8.30151189437686E-02 
653	 8.24597164137867E-02 
654	 0.081814122598512 
655	 8.11489848665787E-02 
656	 8.03540343224047E-02 
657	 7.96099703482111E-02 
658	 7.87962252870815E-02 
659	 7.78453914255136E-02 
660	 7.71508480198535E-02 
661	 7.63706546402889E-02 
662	 7.54798534248975E-02 
663	 7.46737067750179E-02 
664	 7.40370822347082E-02 
665	 7.34341186951084E-02 
666	 7.27752721246515E-02 
667	 7.21095427981236E-02 
668	 7.16983241270272E-02 
669	 7.13717906005389E-02 
670	 7.09347756303309E-02 
671	 7.08506431503433E-02 
672	 7.08653832463187E-02 
673	 7.08751394310071E-02 
674	 7.09555578983022E-02 
675	 7.12378352537164E-02 
676	 7.15460837111393E-02 
677	 7.17794791140164E-02 
678	 0.072164822526466 
679	 7.26962611411368E-02 
680	 7.32524301966122E-02 
681	 7.37184917640776E-02 
682	 7.44491342209354E-02 
683	 0.075320285122567 
684	 7.61549113409697E-02 
685	 7.68293084831292E-02 
686	 7.77854064603405E-02 
687	 7.88553946767763E-02 
688	 7.96881443140896E-02 
689	 8.03755968543207E-02 
690	 8.10960147223855E-02 
691	 0.081786584353888 
692	 8.22652228861458E-02 
693	 8.27762241553909E-02 
694	 8.30710805414872E-02 
695	 8.30805458812449E-02 
696	 8.31062021728412E-02 
697	 8.30603188740674E-02 
698	 8.29332191268075E-02 
699	 8.27187156809956E-02 
700	 8.23365727852365E-02 
701	 8.19322246648027E-02 
702	 8.14644669817119E-02 
703	 8.07525360236114E-02 
704	 8.01728236192358E-02 
705	 7.95460270395021E-02 
706	 7.87469105942267E-02 
707	 7.79039907831333E-02 
708	 7.70313311209657E-02 
709	 0.076028239448068 
710	 7.48081694399274E-02 
711	 7.36413544542089E-02 
712	 7.23164310666252E-02 
713	 7.08613911947577E-02 
714	 6.95425763612372E-02 
715	 6.82164749581328E-02 
716	 6.67181342495388E-02 
717	 6.50628555280934E-02 
718	 6.35597222228983E-02 
719	 6.16539222473562E-02 
720	 5.99732028339972E-02 
721	 5.88650778613646E-02 
722	 5.74298834078388E-02 
723	 5.57664264592301E-02 
724	 5.41457459509682E-02 
725	 5.24485311627576E-02 
726	 5.07080782152136E-02 
727	 4.88233860217505E-02 
728	 4.67531750992085E-02 
729	 4.46218990624827E-02 
730	 4.23971530097639E-02 
731	 4.02943012633405E-02 
732	 3.84749599562143E-02 
733	 3.69997489128856E-02 
734	 3.57938900178555E-02 
735	 3.48002113585004E-02 
736	 3.39548781472071E-02 
737	 3.32606837649436E-02 
738	 3.27225745716086E-02 
739	 3.23407746785232E-02 
740	 3.20631538025479E-02 
741	 3.18579114757741E-02 
742	 3.17227330781239E-02 
743	 3.16581444113593E-02 
744	 3.15634409179799E-02 
745	 3.15482976298884E-02 
746	 3.16114127857238E-02 
747	 3.15772581445776E-02 
748	 3.15385066678544E-02 
749	 3.15291576439114E-02 
750	 3.15429532453699E-02 
751	 3.14736855683951E-02 
752	 3.15343137170666E-02 
753	 3.16251206234909E-02 
754	 3.15301389403676E-02 
755	 3.16261973652185E-02 
756	 3.16392593963331E-02 
757	 3.15527047390025E-02 
758	 3.18922774914367E-02 
759	 3.23758967662819E-02 
760	 3.26409737519722E-02 
761	 0.032412402509061 
762	 3.24737513422416E-02 
763	 3.24126768985531E-02 
764	 3.22557919500797E-02 
765	 0.032165852052778 
766	 3.22762368507757E-02 
767	 3.23367289273405E-02 
768	 3.23716204090421E-02 
769	 3.26410582484079E-02 
770	 3.28023235953528E-02 
771	 3.28983097674859E-02 
772	 3.30283939946246E-02 
773	 3.32216429317445E-02 
774	 3.34318970211376E-02 
775	 3.36449745137529E-02 
776	 3.38579271080668E-02 
777	 0.03401641345522 
778	 3.42831351777119E-02 
779	 3.46313677128825E-02 
780	 3.48457164100346E-02 
781	 3.50998438935754E-02 
782	 0.035365822166035 
783	 3.56239716091427E-02 
784	 3.59513637301988E-02 
785	 3.63714779870135E-02 
786	 3.67693231876811E-02 
787	 3.70353047086012E-02 
788	 3.73897648170517E-02 
789	 3.77312164396453E-02 
790	 3.81147171400675E-02 
791	 3.86817065541965E-02 
792	 3.89222697868423E-02 
793	 3.91907259849578E-02 
794	 3.96640118333359E-02 
795	 4.00240981818543E-02 
796	 4.03909771968077E-02 
797	 4.07474831877206E-02 
798	 4.10557797323509E-02 
799	 4.12538230519647E-02 
800	 4.15644707479953E-02 
801	 4.19521417015145E-02 
802	 4.22242122056405E-02 
803	 0.042240496163737 
804	 0.042403992129297 
805	 4.27061256050737E-02 
806	 4.26687902023391E-02 
807	 4.26168181163422E-02 
808	 4.26193616444954E-02 
809	 4.26457560075745E-02 
810	 4.25377588007626E-02 
811	 4.23630492670208E-02 
812	 4.21327061633089E-02 
813	 4.18480020090205E-02 
814	 4.15521388412266E-02 
815	 0.041255489857224 
816	 4.08561289160118E-02 
817	 4.02438686436134E-02 
818	 3.99667868930393E-02 
819	 3.94208241102599E-02 
820	 3.85107344194632E-02 
821	 0.037912291204758 
822	 3.66977083186741E-02 
823	 3.54698214098079E-02 
824	 3.46769609355406E-02 
825	 3.33848114163669E-02 
826	 3.20643820892232E-02 
827	 0.030749733632198 
828	 2.94019342033022E-02 
829	 2.79459339979495E-02 
830	 0.026659747463036 
831	 2.56972126439629E-02 
832	 2.50781939615634E-02 
833	 2.43300420837476E-02 
834	 2.37753373194346E-02 
835	 2.34711709376863E-02 
836	 2.30294395109132E-02 
837	 2.28043334789634E-02 
838	 2.25756357584161E-02 
839	 2.22045485894226E-02 
840	 2.20802149614232E-02 
841	 2.19315140679615E-02 
842	 2.16570070198486E-02 
843	 2.12762793007077E-02 
844	 2.09934838307315E-02 
845	 2.10744065958875E-02 
846	 2.11960630247235E-02 
847	 2.07579226747558E-02 
848	 2.05300757775852E-02 
849	 2.03215581465595E-02 
850	 2.01103286570062E-02 
851	 2.01847857999439E-02 
852	 1.98008940467905E-02 
853	 1.94791109320307E-02 
854	 1.95926603889027E-02 
855	 1.96215535938261E-02 
856	 1.94606976729944E-02 
857	 1.92636515639198E-02 
858	 1.91847095305729E-02 
859	 1.90613884361157E-02 
860	 1.90379125703677E-02 
861	 1.89792568605295E-02 
862	 1.86941697739833E-02 
863	 1.85627884173183E-02 
864	 0.01846209761874 
865	 1.83867187540292E-02 
866	 1.84184192302268E-02 
867	 1.80915873742811E-02 
868	 1.79033878989201E-02 
869	 1.79568905042066E-02 
870	 1.77008223992239E-02 
871	 1.74363757625784E-02 
872	 1.74396484295024E-02 
873	 1.76340471519943E-02 
874	 1.71802659632421E-02 
875	 1.67997029483874E-02 
876	 1.66764661388289E-02 
877	 1.67163586604497E-02 
878	 1.65193137180677E-02 
879	 1.63050604058893E-02 
880	 1.60399545014006E-02 
881	 1.56869705723788E-02 
882	 1.58709870422109E-02 
883	 1.59499110550947E-02 
884	 1.56975405487062E-02 
885	 1.53493066376846E-02 
886	 1.56965338128882E-02 
887	 1.54997863416486E-02 
888	 1.48162350401174E-02 
889	 1.52596888284184E-02 
890	 1.51316730528387E-02 
891	 1.48703843179612E-02 
892	 1.49518600406142E-02 
893	 1.52009886133047E-02 
894	 1.51920451030812E-02 
895	 1.52105984764023E-02 
896	 1.53644484624313E-02 
897	 1.44524862004622E-02 
898	 1.43165859886611E-02 
899	 1.45167484279951E-02 
900	 1.41794978093317E-02 
901	 1.41528504977035E-02 
902	 1.39417163259398E-02 
903	 1.38200420480075E-02 
904	 1.40844749785121E-02 
905	 1.36094445062824E-02 
906	 1.35793549654063E-02 
907	 1.38989013695416E-02 
908	 1.36363041551665E-02 
909	 1.36851756033903E-02 
910	 1.39236381861332E-02 
911	 1.39821191910368E-02 
912	 1.34956881410785E-02 
913	 1.32321002344985E-02 
914	 1.35662374067077E-02 
915	 1.39199454733641E-02 
916	 1.30046681842437E-02 
917	 1.25272175205856E-02 
918	 1.21728142875841E-02 
919	 1.20590180955868E-02 
920	 1.31590008748903E-02 
921	 1.28749958472317E-02 
922	 1.21112442023661E-02 
923	 0.011937601724182 
924	 1.22926453460266E-02 
925	 1.23650430958987E-02 
926	 1.18064363818288E-02 
927	 1.09139931856142E-02 
928	 1.17342857375617E-02 
929	 1.25700534291937E-02 
930	 0.0128862075056 
931	 1.25579337839737E-02 
932	 1.03677209336781E-02 
933	 1.10135169389693E-02 
934	 1.26645053643705E-02 
935	 1.10865005029021E-02 
936	 1.02100330016202E-02 
937	 1.05299497739395E-02 
938	 1.17917842343104E-02 
939	 1.29966982420384E-02 
940	 1.10992552207879E-02 
941	 1.15427500153834E-02 
942	 1.28957693966837E-02 
943	 1.10651446958805E-02 
944	 9.01890264609727E-03 
945	 1.07450014729067E-02 
946	 1.33216601804442E-02 
947	 0.0111842240544 
948	 8.11693755698888E-03 
949	 9.12524825574846E-03 
950	 1.10939079674043E-02 
951	 8.21539126697587E-03 
952	 0.010198190432045 
953	 1.18515380497396E-02 
954	 1.17721729284084E-02 
955	 1.17444382473316E-02 
956	 1.02085967316806E-02 
957	 1.02030119168398E-02 
958	 1.06403527754007E-02 
959	 8.60513214574797E-03 
960	 1.05748069083024E-02 
961	 1.19735929602786E-02 
962	 1.17892768815536E-02 
963	 1.20426568005311E-02 
964	 1.20209219974509E-02 
965	 1.10854873746448E-02 
966	 1.01950592416653E-02 
967	 1.09352832664444E-02 
968	 0.011022044424606 
969	 1.13924289408637E-02 
970	 1.15271082406149E-02 
971	 9.97983783972035E-03 
972	 1.04209144119504E-02 
973	 0.011361231660232 
974	 1.09206513775035E-02 
975	 8.32604488291435E-03 
976	 9.24744590045635E-03 
977	 1.10786568808425E-02 
978	 1.19944397039271E-02 
979	 1.19654626263082E-02 
980	 1.06403246389488E-02 
981	 1.06676272406739E-02 
982	 1.11098333005757E-02 
983	 8.90649292444877E-03 
984	 9.09095846844571E-03 
985	 9.87863371662697E-03 
986	 9.77910086059873E-03 
987	 8.60177584932682E-03 
988	 8.91189812464631E-03 
989	 1.09559942054388E-02 
990	 0.012552454094139 
991	 1.08958705006942E-02 
992	 9.70922039889368E-03 
993	 8.73798373302886E-03 
994	 8.62699497013179E-03 
995	 1.01128533120866E-02 
996	 9.88771001814464E-03 
997	 9.87634797383354E-03 
998	 1.06647493707488E-02 
999	 1.13187013172179E-02 
1000	 9.15376879042417E-03 
1001	 1.20195121535622E-02 
1002	 1.12967331491538E-02 
1003	 1.11369572608516E-02 
1004	 1.08552206002681E-02 
1005	 1.08088785752487E-02 
1006	 1.10967968680001E-02 
1007	 1.17773564913948E-02 
1008	 1.20644109073912E-02 
1009	 1.20779408854674E-02 
1010	 1.19740715016663E-02 
1011	 1.12448039354493E-02 
1012	 1.08094228051168E-02 
1013	 0.010822270595239 
1014	 1.08103578062134E-02 
1015	 1.10445987092916E-02 
1016	 1.13510190987602E-02 
1017	 1.19657907334581E-02 
1018	 1.21640644800231E-02 
1019	 1.23903281689946E-02 
1020	 1.23659865238435E-02 
1021	 0.012019874484408 
1022	 1.15086484591566E-02 
1023	 0.010787937087253 
1024	 1.08394477849917E-02 
1025	 1.09532988568041E-02 
1026	 0.010568724735311 
1027	 1.05893394693571E-02 
1028	 0.010797763266054 
1029	 1.11015536414545E-02 
1030	 0.011751153432009 
1031	 1.18987357376978E-02 
1032	 1.20062352622243E-02 
1033	 1.18755379397613E-02 
1034	 1.10709061058272E-02 
1035	 1.08916384083969E-02 
1036	 0.011034327850774 
1037	 1.10600407422089E-02 
1038	 1.12310296739093E-02 
1039	 1.15308735937693E-02 
1040	 0.011521080029077 
1041	 1.10785130421378E-02 
1042	 1.08035701206625E-02 
1043	 0.010186215371237 
1044	 1.02441451247252E-02 
1045	 1.07020204478356E-02 
1046	 1.08776462366781E-02 
1047	 1.13471566521148E-02 
1048	 1.16103359729885E-02 
1049	 1.14780049157428E-02 
1050	 1.16368464278506E-02 
1051	 1.23079120113354E-02 
1052	 1.24023113581497E-02 
1053	 1.21147710849172E-02 
1054	 1.19811878529553E-02 
1055	 1.15343598246846E-02 
1056	 1.12427747518816E-02 
1057	 1.10514865528469E-02 
1058	 1.10543346157952E-02 
1059	 1.10680552241028E-02 
1060	 1.11609483965013E-02 
1061	 1.11426989870926E-02 
1062	 1.11147012839892E-02 
1063	 1.12294428132303E-02 
1064	 1.14799891082458E-02 
1065	 0.011421259734462 
1066	 0.011234874881286 
1067	 1.12656442628392E-02 
1068	 1.12430019241525E-02 
1069	 0.011092755550963 
1070	 1.09194860665381E-02 
1071	 1.09944422001184E-02 
1072	 1.08251424374611E-02 
1073	 1.10423812943207E-02 
1074	 0.011224513301554 
1075	 1.19450309456608E-02 
1076	 1.20430207333997E-02 
1077	 1.18221665250525E-02 
1078	 1.16633373907869E-02 
1079	 0.011129782701441 
1080	 1.11343222298469E-02 
1081	 1.14303029591722E-02 
1082	 1.15742442769901E-02 
1083	 1.20179336572258E-02 
1084	 1.22794625706632E-02 
1085	 1.24002371200054E-02 
1086	 1.23922378013662E-02 
1087	 1.23782769725267E-02 
1088	 0.012255935768356 
1089	 0.011704804626033 
1090	 1.13653714294999E-02 
1091	 1.14428209455159E-02 
1092	 1.18205536720191E-02 
1093	 1.20127498196796E-02 
1094	 1.26757239259521E-02 
1095	 0.012748597390782 
1096	 1.23475231820931E-02 
1097	 1.22169390186792E-02 
1098	 1.17952143858754E-02 
1099	 0.011749949760937 
1100	 1.21307813056299E-02 
1101	 1.22668486242987E-02 
1102	 1.23478848286919E-02 
1103	 0.012597387433235 
1104	 1.32246000500088E-02 
1105	 1.31418376241588E-02 
1106	 1.24760645633868E-02 
1107	 1.31547893482985E-02 
1108	 1.30176463637726E-02 
1109	 1.21551258431826E-02 
1110	 1.23634584990547E-02 
1111	 1.35621468125462E-02 
1112	 1.38722200422069E-02 
1113	 1.45052171113182E-02 
1114	 1.46709895125881E-02 
1115	 1.32705808498021E-02 
1116	 1.32334262716361E-02 
1117	 1.40268845816531E-02 
1118	 1.51349056239189E-02 
1119	 2.05037783148152E-02 
1120	 2.11016124238317E-02 
1121	 1.62413592379046E-02 
1122	 1.17413128225567E-02 
1123	 1.06139936171175E-02 
1124	 8.18347706362248E-03 
1125	 1.12421969101845E-02 
1126	 2.02370104281499E-02 
1127	 2.12121381651772E-02 
1128	 1.78045191926908E-02 
1129	 1.86321687469554E-02 
1130	 2.22785699292058E-02 
1131	 2.09734417077312E-02 
1132	 1.82151512598032E-02 
1133	 1.77869469814319E-02 
1134	 1.57103751500189E-02 
1135	 1.50976316722097E-02 
1136	 1.71582690962827E-02 
1137	 1.68890594627593E-02 
1138	 1.42484535580858E-02 
1139	 1.50584479204967E-02 
1140	 1.56094348759737E-02 
1141	 1.57145433909891E-02 
1142	 1.93658380800233E-02 
1143	 1.80538264631868E-02 
1144	 1.48424808860525E-02 
1145	 1.52603022437668E-02 
1146	 0.010817410438151 
1147	 8.36861706127465E-03 
1148	 1.28646700307241E-02 
1149	 0.014645858305262 
1150	 1.47899484618107E-02 
1151	 1.58841174762783E-02 
1152	 1.60094361498922E-02 
1153	 1.35533028837136E-02 
1154	 1.25852725935207E-02 
1155	 1.27151597314305E-02 
1156	 0.012422145133131 
1157	 1.14604717303015E-02 
1158	 1.08662313749166E-02 
1159	 0.010524069519996 
1160	 1.06740423543855E-02 
1161	 1.08033955047825E-02 
1162	 1.10005819194822E-02 
1163	 1.15470637432893E-02 
1164	 1.17406497193869E-02 
1165	 1.16966758687921E-02 
1166	 1.12971283100799E-02 
1167	 1.08544820366552E-02 
1168	 1.12604636689281E-02 
1169	 1.16887896231498E-02 
1170	 1.16493606960538E-02 
1171	 1.16413600510936E-02 
1172	 1.13636377656855E-02 
1173	 1.10900536384118E-02 
1174	 1.05410684453679E-02 
1175	 1.08783862833038E-02 
1176	 1.09364054702292E-02 
1177	 1.08293957065728E-02 
1178	 1.12670487471028E-02 
1179	 1.11551167489967E-02 
1180	 1.09295170006728E-02 
1181	 1.10564257167165E-02 
1182	 1.10003879688972E-02 
1183	 1.08655060456978E-02 
1184	 1.06618745182016E-02 
1185	 1.05955132167155E-02 
1186	 1.05620240158925E-02 
1187	 1.04271674571943E-02 
1188	 1.04773667174271E-02 
1189	 1.05112391999509E-02 
1190	 1.04061780289996E-02 
1191	 1.05723804465584E-02 
1192	 1.07060059073026E-02 
1193	 1.09989002131075E-02 
1194	 1.11728173673212E-02 
1195	 1.11397098735271E-02 
1196	 1.07642454626385E-02 
1197	 1.06374249855221E-02 
1198	 1.06749983306037E-02 
1199	 1.03903985640279E-02 
1200	 1.03991451321455E-02 
1201	 1.07398106761248E-02 
1202	 1.03768459877907E-02 
1203	 9.91336707260396E-03 
1204	 1.03098762600584E-02 
1205	 1.05557145966905E-02 
1206	 1.04293038217181E-02 
1207	 1.08023626200908E-02 
1208	 1.10006287629866E-02 
1209	 1.03922024209046E-02 
1210	 1.02415907065904E-02 
1211	 1.08129080686068E-02 
1212	 1.07086544879768E-02 
1213	 1.03510371478305E-02 
1214	 1.03913225082413E-02 
1215	 1.06523161865618E-02 
1216	 1.04950412695659E-02 
1217	 1.03418014188495E-02 
1218	 0.010766114002496 
1219	 0.011082684307722 
1220	 1.07940670825953E-02 
1221	 1.07146743696936E-02 
1222	 1.08780949457745E-02 
1223	 1.05241278745122E-02 
1224	 1.02365048692695E-02 
1225	 1.04971147321752E-02 
1226	 1.06073380635406E-02 
1227	 1.05605118655734E-02 
1228	 1.06737038422239E-02 
1229	 1.06297453066777E-02 
1230	 1.03381091880896E-02 
1231	 9.99943867758589E-03 
1232	 1.00679475437586E-02 
1233	 0.010264000758341 
1234	 1.01488235728202E-02 
1235	 1.01048782483312E-02 
1236	 1.01122242055954E-02 
1237	 1.00860953118783E-02 
1238	 9.90806469709172E-03 
1239	 9.95139332893343E-03 
1240	 1.02068772951648E-02 
1241	 1.03784333112582E-02 
1242	 1.04740239340449E-02 
1243	 1.07276872986643E-02 
1244	 1.06409360928719E-02 
1245	 1.02135390218563E-02 
1246	 1.01606716312515E-02 
1247	 1.04360560580067E-02 
1248	 1.03339506934153E-02 
1249	 1.03435471749094E-02 
1250	 0.010545629984033 
1251	 9.97774343881969E-03 
1252	 9.81927643560527E-03 
1253	 1.01495529674971E-02 
1254	 9.83986926066762E-03 
1255	 9.82416386224574E-03 
1256	 1.00011342546018E-02 
1257	 1.05219437897865E-02 
1258	 1.06239290945843E-02 
1259	 0.010631122330004 
1260	 1.07358387810135E-02 
1261	 1.07143364145589E-02 
1262	 0.010592460483629 
1263	 1.04822521652405E-02 
1264	 1.05927906063665E-02 
1265	 1.05925606302867E-02 
1266	 1.04048881747654E-02 
1267	 1.03024570778801E-02 
1268	 1.06502296672847E-02 
1269	 1.07693632486823E-02 
1270	 1.02730449720711E-02 
1271	 0.010237655198067 
1272	 1.05545964022721E-02 
1273	 1.04559576801842E-02 
1274	 1.05441308751302E-02 
1275	 1.10061230667697E-02 
1276	 1.08566748762046E-02 
1277	 1.02219082334946E-02 
1278	 1.02090929127182E-02 
1279	 1.05546111949015E-02 
1280	 1.05366886216779E-02 
1281	 0.010440482018823 
1282	 1.05236998474968E-02 
1283	 0.010582801072463 
1284	 1.03714663830699E-02 
1285	 1.01475326198356E-02 
1286	 9.90420928824359E-03 
1287	 9.9461591575138E-03 
1288	 9.99001503545096E-03 
1289	 1.00005276190466E-02 
1290	 1.03029231236575E-02 
1291	 1.07298824063675E-02 
1292	 1.06410917336455E-02 
1293	 1.01883464662057E-02 
1294	 1.01904960889876E-02 
1295	 1.06001960369839E-02 
1296	 1.08949854096949E-02 
1297	 1.11249656526772E-02 
1298	 1.12710795108907E-02 
1299	 1.10486774056059E-02 
1300	 1.06900196718319E-02 
1301	 1.05423639696923E-02 
1302	 1.06304137572722E-02 
1303	 0.010971455557374 
1304	 1.10394163124375E-02 
1305	 1.09948520287181E-02 
1306	 1.10251288423101E-02 
1307	 1.08328486089599E-02 
1308	 1.06933264197015E-02 
1309	 1.08591406214126E-02 
1310	 1.08071189581491E-02 
1311	 1.02655632784807E-02 
1312	 1.03538538419011E-02 
1313	 1.08320576123728E-02 
1314	 1.09674215243163E-02 
1315	 1.14102264304461E-02 
1316	 1.15518651009416E-02 
1317	 1.12120672577306E-02 
1318	 1.12342595466465E-02 
1319	 1.12963303933014E-02 
1320	 1.14647888410177E-02 
1321	 1.18881224068198E-02 
1322	 1.23267865695096E-02 
1323	 1.17621530698773E-02 
1324	 1.14084312002455E-02 
1325	 1.25035843253952E-02 
1326	 1.23979554891523E-02 
1327	 1.11824260220662E-02 
1328	 1.18278870631297E-02 
1329	 1.25293865861989E-02 
1330	 1.15807048571515E-02 
1331	 1.13627972826508E-02 
1332	 1.27034151023566E-02 
1333	 1.25062760811822E-02 
1334	 1.10289818723791E-02 
1335	 1.13843307721773E-02 
1336	 1.42278663805886E-02 
1337	 1.47573405216518E-02 
1338	 1.45239836034063E-02 
1339	 1.46927253737064E-02 
1340	 1.38958094896598E-02 
1341	 1.34901287589547E-02 
1342	 1.33779728339543E-02 
1343	 1.36962621460218E-02 
1344	 1.44950300175764E-02 
1345	 1.46034870204511E-02 
1346	 1.54210698443273E-02 
1347	 1.63567014838081E-02 
1348	 1.53413317686104E-02 
1349	 1.52910018410645E-02 
1350	 1.51823196324051E-02 
1351	 1.97600085424781E-02 
1352	 4.68792059465911E-02 
1353	 5.74682607492697E-02 
1354	 4.14296499105092E-02 
1355	 1.58953485622478E-02 
1356	-1.40895975896951E-02 
1357	-0.093467263442465 
1358	-7.45572297795926E-02 
1359	 2.30207612825857E-03 
1360	-1.53255287477894E-02 
1361	 1.55350711259767E-02 
1362	 5.41199838044983E-02 
1363	-0.201314709985002 
1364	-0.205129927907524 
1365	 7.97935551897531E-02 
1366	 0.163758016843844 
1367	 0.638557534339905 
1368	 1.08094691406134 
1369	 0.442445881988999 
1370	 0.300817667245465 
1371	 0.43693616471661 
1372	 0.500121523642383 
1373	 9.99957372351868E-02 
1374	-1.41492711093976E-02 
1375	 0.365730107691882 
1376	 0.441483749103733 
1377	 0.242809609776143 
1378	-1.71882987182289E-02 
1379	-0.262515547785364 
1380	-0.234397655285261 
1381	-0.224068849893101 
1382	-0.279806665161171 
1383	 9.33311161026926E-02 
1384	 0.167835040767838 
1385	-0.300811076333205 
1386	-0.291442453064823 
1387	 0.387976114785897 
1388	 0.314382440758785 
1389	-0.198991617227237 
1390	-0.117766052785636 
1391	 0.320659288541593 
1392	 0.114852213044331 
1393	-0.340168870063445 
1394	 0.198785827378004 
1395	 1.4030011944061 
1396	 0.400766937666526 
1397	-0.108371497198778 
1398	 0.24114482409349 
1399	 0.407349603597731 
1400	 1.80903759836671E-02 
1401	-2.72943611677988E-02 
1402	 0.125031907585706 
1403	-1.56463555048404E-02 
1404	-0.123628824567433 
1405	-3.51876114876886E-02 
1406	 0.732618938756841 
1407	 0.818618350890203 
1408	 0.411005055328519 
1409	 0.338705886299413 
1410	 0.354340585152807 
1411	 0.333493914265331 
1412	 0.241747292269863 
1413	 0.187102215548528 
1414	 0.155269075554944 
1415	 0.148056111309762 
1416	 0.159785942585234 
1417	 0.138812691618083 
1418	 0.142552904193368 
1419	 0.111955455876022 
1420	 3.78633119494515E-02 
1421	 2.21849522998723E-02 
1422	 0.027009856263179 
1423	 2.85193925984872E-02 
1424	 4.19219173490925E-02 
1425	 4.28536037537505E-02 
1426	 3.73168572584055E-02 
1427	 3.78107895392827E-02 
1428	 4.25162886933108E-02 
1429	 3.76972842013449E-02 
1430	 2.26264871880806E-02 
1431	 2.61541554812952E-02 
1432	 4.00123305425904E-02 
1433	 3.63007658996274E-02 
1434	 3.01952597656279E-02 
1435	 3.30520512096371E-02 
1436	 2.39381042858521E-02 
1437	 2.77427992882679E-02 
1438	 0.034919072274795 
1439	 3.38805752192543E-02 
1440	 0.033280463235172 
1441	 0.024164721581654 
1442	 1.64474228117222E-02 
1443	 2.35596628136455E-02 
1444	 2.93888626849039E-02 
1445	 2.93489172147742E-02 
1446	 2.53112403394692E-02 
1447	 2.07844699380116E-02 
1448	 1.87628555640799E-02 
1449	 1.28558264207255E-02 
1450	 9.86860647848837E-03 
1451	 1.35014145205039E-02 
1452	 1.43100115722219E-02 
1453	 1.27863188465075E-02 
1454	 1.15746488277449E-02 
1455	 1.14512262278305E-02 
1456	 1.11677013826545E-02 
1457	 8.88815549152315E-03 
1458	 9.69639272330647E-03 
1459	 1.40697589941899E-02 
1460	 1.39364674916229E-02 
1461	 1.12578135737709E-02 
1462	 1.18398693471459E-02 
1463	 1.28441442929569E-02 
1464	 1.23740038113151E-02 
1465	 0.014168585681472 
1466	 1.36950584243718E-02 
1467	 7.3358196650867E-03 
1468	 7.27848725041608E-03 
1469	 1.27593602666333E-02 
1470	 1.27557665022273E-02 
1471	 1.16737320253998E-02 
1472	 1.24838232354821E-02 
1473	 1.21362661381559E-02 
1474	 1.09903324558869E-02 
1475	 1.08626297985145E-02 
1476	 1.16457707019961E-02 
1477	 1.20062888405684E-02 
1478	 1.03097074460815E-02 
1479	 7.82811762909829E-03 
1480	 8.51423584854808E-03 
1481	 9.43259604402858E-03 
1482	 8.67128807838956E-03 
1483	 9.43276045500003E-03 
1484	 0.010353248114903 
1485	 9.6835124559728E-03 
1486	 8.98476768202696E-03 
1487	 9.52026664734898E-03 
1488	 9.76615876255606E-03 
1489	 8.55583886663763E-03 
1490	 8.2747447506191E-03 
1491	 1.01031368179701E-02 
1492	 9.7075521306445E-03 
1493	 7.16996974497551E-03 
1494	 6.55167330142418E-03 
1495	 6.52498873410561E-03 
1496	 6.17403673015661E-03 
1497	 6.2321226635392E-03 
1498	 6.42442883414389E-03 
1499	 6.41923156325195E-03 
1500	 6.19661845296624E-03 
1501	 6.11737839349471E-03 
1502	 6.23181417974067E-03 
1503	 6.12562492742033E-03 
1504	 6.17691726858493E-03 
1505	 6.70641347269413E-03 
1506	 6.97474728751011E-03 
1507	 6.98532061880315E-03 
1508	 6.52008621181808E-03 
1509	 6.26574245352454E-03 
1510	 6.69723328839229E-03 
1511	 6.89437581666263E-03 
1512	 6.47488023205616E-03 
1513	 5.93551303881711E-03 
1514	 5.9386905912479E-03 
1515	 6.38699746225085E-03 
1516	 6.64209391559617E-03 
1517	 6.6065310205888E-03 
1518	 6.5014037315405E-03 
1519	 6.30580246004761E-03 
1520	 5.90831368365982E-03 
1521	 5.58923169304277E-03 
1522	 6.00878529146825E-03 
1523	 6.89857191649025E-03 
1524	 6.95985718292848E-03 
1525	 6.33321177620022E-03 
1526	 6.16470341709769E-03 
1527	 5.95746094094211E-03 
1528	 5.39514380818691E-03 
1529	 5.52223378882521E-03 
1530	 5.9082617613929E-03 
1531	 5.79224638990659E-03 
1532	 5.89034657782229E-03 
1533	 6.30673766076294E-03 
1534	 6.22494273335888E-03 
1535	 5.71562498616129E-03 
1536	 5.66365718793585E-03 
1537	 6.09585097266207E-03 
1538	 6.30608269305871E-03 
1539	 6.45612413789044E-03 
1540	 6.85294468086605E-03 
1541	 6.6591388402604E-03 
1542	 5.99900925540895E-03 
1543	 6.09473208828726E-03 
1544	 6.31118139149122E-03 
1545	 6.02100624428482E-03 
1546	 5.87662781249745E-03 
1547	 5.77131718716427E-03 
1548	 5.63594797222931E-03 
1549	 5.78141643820016E-03 
1550	 6.23316464381358E-03 
1551	 6.50991832399891E-03 
1552	 6.23749598096965E-03 
1553	 6.06216203887951E-03 
1554	 6.20372538109983E-03 
1555	 5.99866680306659E-03 
1556	 6.02823406337673E-03 
1557	 6.5007291813102E-03 
1558	 6.61044944692504E-03 
1559	 6.81189316216493E-03 
1560	 7.08373436895146E-03 
1561	 7.07805611736023E-03 
1562	 6.79708387277944E-03 
1563	 6.49090820907701E-03 
1564	 6.68316934895468E-03 
1565	 6.97615273481899E-03 
1566	 7.06874128443851E-03 
1567	 6.77447599330006E-03 
1568	 6.38346278859598E-03 
1569	 6.4178812849402E-03 
1570	 6.34014573541929E-03 
1571	 6.54502183935345E-03 
1572	 7.34261388924073E-03 
1573	 7.6827537288302E-03 
1574	 7.65801208624402E-03 
1575	 7.49850178060191E-03 
1576	 7.17052876121314E-03 
1577	 7.01930789945957E-03 
1578	 6.90075279851267E-03 
1579	 6.91658746108094E-03 
1580	 6.84239675892739E-03 
1581	 6.33877083337583E-03 
1582	 5.88103921419812E-03 
1583	 0.005961790754634 
1584	 6.45629595050996E-03 
1585	 6.53391901198186E-03 
1586	 6.19453563858129E-03 
1587	 6.22937676555747E-03 
1588	 6.40036618959974E-03 
1589	 6.39798859694873E-03 
1590	 6.42460722654726E-03 
1591	 6.44203621692258E-03 
1592	 6.45844003183125E-03 
1593	 6.67363540070566E-03 
1594	 6.92942895776638E-03 
1595	 6.82203656198178E-03 
1596	 6.58952721512698E-03 
1597	 6.61052345913593E-03 
1598	 6.89582554400687E-03 
1599	 7.23245844188873E-03 
1600	 7.08151675462871E-03 
1601	 6.67180764969609E-03 
1602	 7.08812875039612E-03 
1603	 0.007868277138382 
1604	 7.55962833441944E-03 
1605	 6.91852617839582E-03 
1606	 7.03427748475522E-03 
1607	 7.05987884739845E-03 
1608	 7.01306326891439E-03 
1609	 7.46863941082087E-03 
1610	 7.32941673861622E-03 
1611	 6.70851764397588E-03 
1612	 7.33096975175338E-03 
1613	 8.31511751468706E-03 
1614	 7.73842993312077E-03 
1615	 6.84603959506263E-03 
1616	 6.9826841664067E-03 
1617	 7.00213959287938E-03 
1618	 7.17828374816142E-03 
1619	 7.99704363226821E-03 
1620	 7.73833633440049E-03 
1621	 6.87676245135385E-03 
1622	 6.92876567795798E-03 
1623	 7.17715427324775E-03 
1624	 7.03530931026607E-03 
1625	 6.97623109150866E-03 
1626	 7.08459955254497E-03 
1627	 6.88060196083558E-03 
1628	 6.99946764058744E-03 
1629	 7.59840152547236E-03 
1630	 7.53591740586666E-03 
1631	 6.96982032509193E-03 
1632	 0.00689207886717 
1633	 6.99692220394023E-03 
1634	 6.6376290925819E-03 
1635	 6.85826366608416E-03 
1636	 7.35123667079087E-03 
1637	 6.85340124045024E-03 
1638	 6.6167256975086E-03 
1639	 7.22354858220089E-03 
1640	 7.24555865984714E-03 
1641	 6.90111283146126E-03 
1642	 7.44576265729089E-03 
1643	 7.82808538394076E-03 
1644	 7.51186261675198E-03 
1645	 7.62107490179016E-03 
1646	 7.79774401563643E-03 
1647	 7.49521113798011E-03 
1648	 7.3170582842992E-03 
1649	 7.68405810884089E-03 
1650	 7.75614697275302E-03 
1651	 7.24372427891797E-03 
1652	 7.49123456486712E-03 
1653	 7.98075009165855E-03 
1654	 7.79413973820849E-03 
1655	 7.51699249825682E-03 
1656	 7.47379007569202E-03 
1657	 6.95213817109271E-03 
1658	 6.74121696356198E-03 
1659	 7.25422423411718E-03 
1660	 7.15138117929712E-03 
1661	 6.31991008422789E-03 
1662	 6.42656313214682E-03 
1663	 7.15130618919685E-03 
1664	 7.01922669017083E-03 
1665	 6.80031118869319E-03 
1666	 7.10434753202854E-03 
1667	 7.1383448656806E-03 
1668	 7.32038716973081E-03 
1669	 7.30180322008517E-03 
1670	 6.65923372919202E-03 
1671	 6.98445885688863E-03 
1672	 7.75858966259502E-03 
1673	 7.6536219650274E-03 
1674	 7.56325576578207E-03 
1675	 7.46338968892339E-03 
1676	 7.09895386041764E-03 
1677	 7.42890720444326E-03 
1678	 7.85613432556106E-03 
1679	 7.55293718311398E-03 
1680	 7.49723476641061E-03 
1681	 7.80900773617808E-03 
1682	 7.76893511472233E-03 
1683	 7.49028197110495E-03 
1684	 7.44688445095034E-03 
1685	 7.62625267704713E-03 
1686	 7.34393058070202E-03 
1687	 7.22356647429382E-03 
1688	 7.53546528492493E-03 
1689	 7.60520779845975E-03 
1690	 7.71665452615197E-03 
1691	 7.87877006646631E-03 
1692	 8.03502863326456E-03 
1693	 8.22986688553966E-03 
1694	 8.38111282118188E-03 
1695	 8.38184025169232E-03 
1696	 7.88907827907753E-03 
1697	 7.36633801796971E-03 
1698	 7.24869858443921E-03 
1699	 7.48930742054692E-03 
1700	 8.42850321720037E-03 
1701	 9.08581213029258E-03 
1702	 8.70286486655414E-03 
1703	 8.75056026779902E-03 
1704	 9.13350818331684E-03 
1705	 8.84663227473336E-03 
1706	 8.72397384394315E-03 
1707	 9.11068691802963E-03 
1708	 9.03832475017473E-03 
1709	 8.4468102540863E-03 
1710	 8.74327013139996E-03 
1711	 0.008940678376488 
1712	 8.37121319968152E-03 
1713	 8.97162215448628E-03 
1714	 8.67560157010964E-03 
1715	 7.70922525744614E-03 
1716	 8.37683388200819E-03 
1717	 8.53529164888509E-03 
1718	 8.0954448530861E-03 
1719	 8.70781355499877E-03 
1720	 9.59786418985917E-03 
1721	 9.00071727589762E-03 
1722	 8.69363509621606E-03 
1723	 9.88977133087594E-03 
1724	 1.00799846469641E-02 
1725	 9.36685330838605E-03 
1726	 9.59396423225507E-03 
1727	 8.69274796969103E-03 
1728	 7.09462846225656E-03 
1729	 7.89390246367015E-03 
1730	 9.29546094417883E-03 
1731	 9.61807094244126E-03 
1732	 9.92642107450913E-03 
1733	 9.53091619144989E-03 
1734	 7.99613815475979E-03 
1735	 7.51648634755164E-03 
1736	 8.18875087075121E-03 
1737	 8.17411347455195E-03 
1738	 8.98218740993438E-03 
1739	 1.03135963402679E-02 
1740	 9.94432362164962E-03 
1741	 9.30137840400258E-03 
1742	 8.14180307762981E-03 
1743	 6.5781974783574E-03 
1744	 6.96847469140337E-03 
1745	 7.9590357903258E-03 
1746	 9.22514600704591E-03 
1747	 9.87434551536699E-03 
1748	 9.23593148770272E-03 
1749	 8.92400980128557E-03 
1750	 9.18273422049951E-03 
1751	 9.22053307762586E-03 
1752	 8.54825205049935E-03 
1753	 8.13130960916664E-03 
1754	 7.80016488059324E-03 
1755	 7.86345906142571E-03 
1756	 8.34664073368417E-03 
1757	 8.79146549191203E-03 
1758	 8.50905394583455E-03 
1759	 8.02072448821464E-03 
1760	 9.09646396458061E-03 
1761	 9.17668766516733E-03 
1762	 8.65205163974212E-03 
1763	 9.25579307610784E-03 
1764	 8.36226379818914E-03 
1765	 8.30165617950996E-03 
1766	 1.10423055385991E-02 
1767	 1.17244989940445E-02 
1768	 1.07943163860067E-02 
1769	 1.10444407525729E-02 
1770	 1.01628666790629E-02 
1771	 9.12617545806285E-03 
1772	 1.05179291470086E-02 
1773	 0.012271049293674 
1774	 0.012828049692401 
1775	 1.32075798651522E-02 
1776	 1.29786253500749E-02 
1777	 0.010116782127581 
1778	 9.27068731953307E-03 
1779	 9.14520825730483E-03 
1780	 9.67164035286733E-03 
1781	 0.013904381251358 
1782	 1.36968747841259E-02 
1783	 0.010085431784361 
1784	 9.75099800164675E-03 
1785	 7.47724483068099E-03 
1786	 7.43632529001019E-03 
1787	 1.36765937161099E-02 
1788	 1.31774962436254E-02 
1789	 7.07341170310406E-03 
1790	 6.55416128134025E-03 
1791	 4.46187009988696E-03 
1792	 4.98339980705805E-03 
1793	 1.09173381386826E-02 
1794	 0.017058670617303 
1795	 1.77009351266103E-02 
1796	 1.39397496731025E-02 
1797	 1.07455532690942E-02 
1798	-2.06009962328681E-03 
1799	-4.84378096756909E-03 
1800	 2.01099650319729E-02 
1801	 2.83244033306578E-02 
1802	 3.12161637725135E-02 
1803	 3.29550306275904E-02 
1804	 3.92607517234103E-03 
1805	-9.69151596478425E-03 
1806	-3.9920736046611E-03 
1807	-4.91144845884254E-03 
1808	-4.95973676040992E-03 
1809	 1.61302644863828E-02 
1810	 7.09717699282086E-02 
1811	 0.112866120701735 
1812	 0.200914487774502 
1813	 0.216095604236808 
1814	 0.0513991530403 
1815	 0.06027607661003 
1816	 7.15822244520484E-02 
1817	 0.45994486063013 
1818	 0.765927931906358 
1819	 1.10983930000295 
1820	 1.06721786205382 
1821	 0.123846645755298 
1822	-0.143832255417364 
1823	 1.25342361724332E-02 
1824	 0.23572457868264 
1825	 2.86927790630269 
1826	 2.74186278585143 
1827	 0.491413755895719 
1828	 0.246549610501271 
1829	-0.42714422116317 
1830	-0.727196848389725 
1831	-3.92244150669941 
1832	-5.30245616643767 
1833	 5.18546418402415 
1834	 1.69308682423551 
1835	 0.618178576724197 
1836	 0.187435227741281 
1837	 0.467746747935599 
1838	 0.512368902429495 
1839	 0.771857213922537 
1840	 1.18122131560249 
1841	-4.93532199021845 
1842	-5.39902239860851E-02 
1843	-0.23102857888041 
1844	-0.97196047738637 
1845	-1.1843896461097 
1846	 3.04251609019221 
1847	 3.16939044632524 
1848	-5.3359297800078 
1849	-0.757181476537106 
1850	-0.595023056006626 
1851	-0.538456858831056 
1852	-1.38974191230479 
1853	-1.6210513831603 
1854	-1.55344244662729 
1855	-1.31896981258161 
1856	-1.36871744785872 
1857	-1.14680036630722 
1858	-0.929647785895514 
1859	-1.75310398568993 
1860	-1.58023972525024 
1861	 7.04695764011101 
1862	 4.90352022392254 
1863	 0.490991959902619 
1864	-0.25544590161442 
1865	-0.588858642140554 
1866	-1.25042443471849 
1867	-1.53757260390623 
1868	-5.0217307489428 
1869	 0.363387636734763 
1870	-0.961061612045469 
1871	-1.15153008924974 
1872	-1.83633124576018 
1873	-1.0294902163465 
1874	 3.08407630104158 
1875	-2.06618499467886 
1876	-1.52457050941938 
1877	-1.36868209642011 
1878	-1.25017338566177 
1879	-0.846811671099075 
1880	-0.810514830787647 
1881	-1.24121644476666 
1882	-0.883735764149249 
1883	-0.884314477769501 
1884	-0.944428275993107 
1885	-0.774148035533282 
1886	-1.07066708390756 
1887	-1.57933821865746 
1888	-1.25671677934195 
1889	-1.17057999461954 
1890	-0.654377066035654 
1891	-0.662737868191056 
1892	-0.743466201847295 
1893	-12.1897081253685 
1894	 1.59897664549798 
1895	 1.10820348416898 
1896	 0.551483626457969 
1897	 0.360930584160871 
1898	 5.67974972184429 
1899	 23.8321833252505 
1900	 5.93849522671398 
1901	-1.07277950000354 
1902	-1.42093823731139 
1903	-1.77043089550264 
1904	-0.920623901720087 
1905	-2.06917369315467E-02 
1906	 9.11578734008607E-02 
1907	-0.382996911506738 
1908	-2.86375216641158 
1909	 13.5247217802159 
1910	-0.425703534104236 
1911	 0.179252106268114 
1912	 0.805140533223185 
1913	 1.43583109632657 
1914	 0.366744587447824 
1915	 0.703910702369905 
1916	-38.2047447854048 
1917	 2.72251719567688 
1918	 2.70254625637318 
1919	 11.3477661197545 
1920	-26.0851128897871 
1921	-1.38426543666535 
1922	-0.77828350388823 
1923	-0.106647045021192 
1924	 9.33485557270294E-02 
1925	-0.166409174571349 
1926	-0.192933847920387 
1927	-2.86706504331113E-03 
1928	 3.51578851376307E-02 
1929	 0.88529538556872 
1930	-0.157970182988048 
1931	 1.41505871085679 
1932	 1.49586057209701E-02 
1933	-0.302574917381703 
1934	-0.227512890130679 
1935	-0.188066656898724 
1936	-8.27398693390788E-02 
1937	 4.89925929877642E-02 
1938	 1.69973434371996E-02 
1939	 2.25451517636715E-02 
1940	 4.17032434940835E-02 
1941	-1.30385888371005E-02 
1942	-1.49766730644943E-02 
1943	-4.18967204218263E-02 
1944	-0.108585474865685 
1945	-8.10724550927164E-02 
1946	-0.101102800651311 
1947	-0.126998397319604 
1948	-8.66402258783842E-02 
1949	-7.31774011558421E-02 
1950	-6.90094606124919E-02 
1951	-9.32855756329764E-03 
1952	 2.59665799143304E-02 
1953	 7.42904908442419E-02 
1954	 0.059528845849276 
1955	 4.17731209150545E-02 
1956	 0.031799901551831 
1957	 1.29638309737837E-03 
1958	-2.65338595568788E-03 
1959	 1.70593608897226E-04 
1960	-0.010926436335289 
1961	-5.07712164634776E-03 
1962	 4.09780525103989E-04 
1963	 1.25606329254294E-03 
1964	 5.64047848604886E-03 
1965	 2.04634320274886E-03 
1966	-1.14115926365067E-03 
1967	-6.99143113088465E-03 
1968	-7.85485737550982E-03 
1969	-4.99042310942768E-03 
1970	-3.85122993132632E-03 
1971	-5.2256724874877E-03 
1972	-4.34219612141956E-03 
1973	-3.72401756541738E-03 
1974	-3.72019755240824E-04 
1975	 5.41618856369768E-03 
1976	 9.43401258558092E-03 
1977	 1.13794387761215E-02 
1978	 1.14629067639554E-02 
1979	 1.05502907735564E-02 
1980	 8.95267567532696E-03 
1981	 5.98672615585927E-03 
1982	 3.27836493351384E-03 
1983	 2.79808342018637E-03 
1984	 3.05463219998796E-03 
1985	 5.02691823760552E-03 
1986	 5.6461366824893E-03 
1987	 3.74155635452614E-03 
1988	 3.41504806476946E-03 
1989	 2.94792718056084E-03 
1990	 3.05858210952499E-03 
1991	 2.16426638402476E-03 
1992	-4.19528495793809E-04 
1993	-1.59952664442053E-03 
1994	-2.31176688765273E-03 
1995	-2.84045229274539E-03 
1996	-5.80728821458679E-04 
1997	 2.85643700656988E-03 
1998	 7.13041782879758E-03 
1999	 1.28623502916717E-02 
2000	 1.29675932566005E-02 
2001	 1.26034214934559E-02 
2002	 1.39781118724681E-02 
2003	 1.16276362655714E-02 
2004	 1.59628634317215E-02 
2005	 2.12914128723039E-02 
2006	 1.82237332719395E-02 
2007	 9.4677913943847E-03 
2008	 5.82101580055082E-03 
2009	 4.54571761881349E-03 
2010	 3.02980559186231E-03 
2011	 5.02193455390567E-03 
2012	 1.75534930969071E-02 
2013	 1.28356264032354E-02 
2014	 5.3563860957021E-03 
2015	 5.71894316029876E-03 
2016	 6.53851802064217E-04 
2017	-2.01627331797803E-03 
2018	-6.34030284983929E-03 
2019	-5.57556465350559E-03 
2020	-4.04260043358799E-03 
2021	-0.002975556382512 
2022	 3.82666339196509E-03 
2023	 4.10054186136184E-03 
2024	 4.02060964651863E-03 
2025	 1.53694681345994E-03 
2026	 1.67461755710388E-03 
2027	 1.68027773129695E-03 
2028	 2.63359030756722E-03 
2029	 5.08313215033422E-03 
2030	 6.20602013613735E-03 
2031	 5.14295683675533E-03 
2032	 4.13821704051663E-03 
2033	 3.12323330765689E-03 
2034	 1.95513070092025E-03 
2035	 2.63133512837933E-03 
2036	 3.27550836227386E-03 
2037	 2.57589034267097E-03 
2038	 8.8391538020187E-04 
2039	-2.46884324167249E-04 
2040	-2.1235434029706E-03 
2041	-2.32463266260854E-03 
2042	-9.49252591280228E-04 
2043	-7.79638406589333E-04 
2044	-1.04815804341271E-04 
2045	-2.38711989039147E-04 
2046	-2.2212060900109E-03 
2047	-4.17312018034032E-03 
2048	-4.29646756924341E-03 
2049	-4.30662386236921E-03 
2050	-3.37370496644843E-03 
2051	-3.79255901819439E-04 
2052	 2.73766729026513E-03 
2053	 4.43254299762869E-03 
2054	 4.96859037080584E-03 
2055	 5.7330717787078E-03 
2056	 4.83401729692254E-03 
2057	-8.25067684186079E-04 
2058	-1.40935798306776E-03 
2059	 1.37127297806065E-03 
2060	 9.65879915416259E-04 
2061	-1.16615001014582E-08 
2062	 2.13094710323921E-03 
2063	 9.67434910289786E-04 
2064	 3.39815626634006E-05 
2065	 2.57543641321731E-03 
2066	 3.7932610055776E-03 
2067	 4.36222290411611E-03 
2068	 3.14422082144619E-03 
2069	 1.24755344100448E-03 
2070	 2.46205981262367E-03 
2071	 4.54124295580728E-03 
2072	 4.02546804486803E-03 
2073	 3.42324071250981E-03 
2074	 2.13742468506359E-03 
2075	 1.71793114225584E-03 
2076	 5.16152798203832E-04 
2077	 7.25895354065347E-04 
2078	 0.002588472805927 
2079	 2.7766211708009E-03 
2080	 2.28135976175502E-03 
2081	 2.65642663721628E-03 
2082	 1.80253179394464E-03 
2083	 5.08554226634094E-04 
2084	 6.61135706894001E-04 
2085	 4.82768063299579E-04 
2086	-3.92092539039605E-04 
2087	-1.51468367859059E-04 
2088	 1.208116661922E-04 
2089	 2.04535283598501E-04 
2090	 2.56498838020274E-04 
2091	 1.37709205066557E-03 
2092	 2.35192616146591E-03 
2093	 2.85190972147758E-03 
2094	 3.13384146949018E-03 
2095	 3.78917637939479E-03 
2096	 4.3875093681033E-03 
2097	 4.98718417044147E-03 
2098	 4.99007220024304E-03 
2099	 4.96901921144879E-03 
2100	 4.90457767994053E-03 
2101	 4.84504491371874E-03 
2102	 3.40063366631167E-03 
2103	 2.72642142703918E-03 
2104	 3.14200712752201E-03 
2105	 3.04730651704724E-03 
2106	 3.25213276708306E-03 
2107	 4.33749866489427E-03 
2108	 4.98472682516341E-03 
2109	 3.74732349333811E-03 
2110	 2.15774944862043E-03 
2111	 1.97270271455113E-03 
2112	 2.82552420981401E-03 
2113	 2.94088225089617E-03 
2114	 4.08876314342311E-03 
2115	 4.89546323909614E-03 
2116	 4.40641065099682E-03 
2117	 3.80756341028431E-03 
2118	 3.57805565615968E-03 
2119	 3.65855875297522E-03 
2120	 2.76343302952274E-03 
2121	 3.93939331284702E-03 
2122	 5.35419942353514E-03 
2123	 5.10346719437781E-03 
2124	 5.12412864190162E-03 
2125	 5.40673407180443E-03 
2126	 5.57053051824533E-03 
2127	 5.52131670628944E-03 
2128	 4.91230062816765E-03 
2129	 4.69969719551337E-03 
2130	 4.73980475262636E-03 
2131	 5.03001082872292E-03 
2132	 5.65444140557939E-03 
2133	 5.61627999373039E-03 
2134	 5.63101473892795E-03 
2135	 5.99072708401186E-03 
2136	 5.66039291890038E-03 
2137	 4.24440063262814E-03 
2138	 4.16965613044083E-03 
2139	 4.10642525007743E-03 
2140	 3.96304521588188E-03 
2141	 4.92197233163997E-03 
2142	 5.36473184811387E-03 
2143	 4.8558964406278E-03 
2144	 5.86618641694977E-03 
2145	 6.30920662397972E-03 
2146	 6.37136998604088E-03 
2147	 7.61259794700378E-03 
2148	 6.50127399941166E-03 
2149	 4.1098803761257E-03 
2150	 2.89503355135192E-03 
2151	 1.81687270303983E-03 
2152	 9.22790451257468E-04 
2153	 1.96085766506515E-03 
2154	 4.91479496989713E-03 
2155	 5.36051160260434E-03 
2156	 4.77173530327337E-03 
2157	 5.52560769117858E-03 
2158	 6.45054173795648E-03 
2159	 7.07062622681644E-03 
2160	 8.87044289854542E-03 
2161	 9.25912955210371E-03 
2162	 8.35793308274276E-03 
2163	 8.10076181487572E-03 
2164	 7.98570188431902E-03 
2165	 7.75127509255271E-03 
2166	 7.15339709388184E-03 
2167	 7.21770909618156E-03 
2168	 7.51256581102665E-03 
2169	 7.16071555831191E-03 
2170	 7.21521350533771E-03 
2171	 6.80832362983427E-03 
2172	 5.43863456125632E-03 
2173	 5.58618395735543E-03 
2174	 6.09371403048821E-03 
2175	 5.82002441144848E-03 
2176	 6.42369809221498E-03 
2177	 4.71915811259241E-03 
2178	 1.97067902767873E-03 
2179	 3.1212311143145E-03 
2180	 4.45273302415619E-03 
2181	 6.45262840906248E-03 
2182	 1.19859081779164E-02 
2183	 1.22476240187853E-02 
2184	 7.77361247810384E-03 
2185	 6.19127967229123E-03 
2186	 4.90900777168131E-03 
2187	 1.58397129981242E-03 
2188	 1.05633185255302E-03 
2189	 5.02845728816654E-03 
2190	 4.66888988082076E-03 
2191	 1.03530427086409E-03 
2192	 1.13048205306627E-03 
2193	 2.69264808323066E-03 
2194	 2.9297064589578E-03 
2195	 4.76739581936617E-03 
2196	 5.44035801072201E-03 
2197	 2.92264566670975E-03 
2198	 2.95123433537551E-03 
2199	 5.0095136005049E-03 
2200	 7.12615805538794E-03 
2201	 5.4557527956393E-03 
2202	 4.69568159172333E-03 
2203	 5.66445182401866E-03 
2204	 5.27428800141708E-03 
2205	 7.15309414595047E-03 
2206	 1.01596084960622E-02 
2207	 1.02283101355913E-02 
2208	 8.91290369941576E-03 
2209	 5.61019779977357E-03 
2210	 4.18861829237906E-03 
2211	 4.00424911451435E-03 
2212	 3.90530241641333E-03 
2213	 7.84940382298642E-03 
2214	 7.2563684055212E-03 
2215	 5.29056322992705E-03 
2216	 6.49683506247572E-03 
2217	 5.64884115924679E-03 
2218	 4.25644214822199E-03 
2219	 3.79577178116544E-03 
2220	 1.95331231406493E-03 
2221	 1.98434735153967E-03 
2222	 4.51890940823662E-03 
2223	 5.05722210261118E-03 
2224	 5.0887844836498E-03 
2225	 5.03328180639241E-03 
2226	 3.95634097156117E-03 
2227	 3.39906063496656E-03 
2228	 3.4209467423791E-03 
2229	 3.52833320334702E-03 
2230	 4.03148936140912E-03 
2231	 3.89463380492072E-03 
2232	 3.56484210560324E-03 
2233	 3.4583728948335E-03 
2234	 0.00406848530228 
2235	 5.60628185412617E-04 
2236	 6.37992261205577E-04 
2237	 2.08176155383149E-03 
2238	 2.64399669175077E-04 
2239	 3.88478124334469E-03 
2240	 5.78847394356017E-03 
2241	 2.98812068902803E-03 
2242	 5.80853719348256E-03 
2243	 6.80609128859297E-03 
2244	 5.59578299713966E-03 
2245	 1.01361151617638E-02 
2246	 1.18403197407242E-02 
2247	 9.19093038567868E-03 
2248	 7.04226836681035E-03 
2249	 5.62275505063797E-03 
2250	 2.53222497674139E-03 
2251	-1.15226911812938E-03 
2252	 2.06759852170207E-04 
2253	 2.12755487146271E-04 
2254	-8.68391580580251E-04 
2255	 1.42270136860808E-03 
2256	 2.42594844378634E-03 
2257	 4.34493836147852E-03 
2258	 6.56624972426645E-03 
2259	 7.87418900134981E-03 
2260	 8.27336032972523E-03 
2261	 6.13546792840354E-03 
2262	 4.51715714408621E-03 
2263	 2.75906535466917E-03 
2264	 1.67893690662684E-03 
2265	-6.93124334925469E-04 
2266	-5.13217942562554E-04 
2267	 3.06466749940711E-03 
2268	 2.11630783444823E-03 
2269	-7.64389954094165E-04 
2270	-1.24635645861709E-03 
2271	-2.63943403578611E-03 
2272	-2.22848589907629E-03 
2273	 1.6117689445447E-03 
2274	 3.25951530039771E-03 
2275	 8.44492676050628E-04 
2276	 5.73970456101665E-04 
2277	 3.72252834308746E-03 
2278	 5.64943031478594E-03 
2279	 8.6060552038553E-03 
2280	 1.06799531799703E-02 
2281	 1.23589135560585E-02 
2282	 1.12316354887984E-02 
2283	 1.10052935669478E-02 
2284	 9.46062028956171E-03 
2285	 5.68345137512183E-03 
2286	-1.38063331448937E-04 
2287	-2.61578056006855E-03 
2288	 9.59128293412677E-04 
2289	 6.69444812419352E-03 
2290	 1.02369274936671E-02 
2291	 9.01907377587072E-03 
2292	 7.31368798790687E-03 
2293	 8.36885049731221E-03 
2294	 1.28894168292446E-02 
2295	 1.41045903030765E-02 
2296	 1.11287202277051E-02 
2297	 1.03783375215884E-02 
2298	 7.30252916325399E-03 
2299	 6.74780272148017E-03 
2300	 7.9612059912988E-03 
2301	 6.83988404589223E-03 
2302	 5.6876748730909E-03 
2303	 4.30173626585919E-03 
2304	 4.25577249120968E-03 
2305	 4.90635364091245E-03 
2306	 9.62862881775867E-03 
2307	 1.71951735281514E-02 
2308	 2.16327286145616E-02 
2309	 1.81868320504014E-02 
2310	 1.19423477516985E-02 
2311	 8.69510302041516E-03 
2312	 5.9933293775109E-03 
2313	 3.1701440237309E-03 
2314	-1.35824030243989E-03 
2315	-4.9909902862993E-03 
2316	-5.62567499549692E-03 
2317	 7.55183745223728E-04 
2318	 8.61052951063267E-03 
2319	 7.20548297676284E-03 
2320	 3.65595224150412E-03 
2321	 1.06212660956278E-04 
2322	-4.97139695686031E-03 
2323	 1.48725528408159E-03 
2324	 7.49101773728214E-03 
2325	 1.86021387476223E-03 
2326	 7.08842360006501E-04 
2327	-1.06698018452346E-03 
2328	-6.10560025542877E-03 
2329	-5.65398174089671E-03 
2330	 3.19200085446848E-04 
2331	-9.46399091413276E-04 
2332	-4.16586133362284E-03 
2333	 5.68591133184868E-04 
2334	-2.94865494383626E-03 
2335	-8.80506328213938E-03 
2336	-6.18495872334964E-03 
2337	-9.71313821536222E-03 
2338	-2.05876343923197E-02 
2339	-1.90834034801213E-02 
2340	-0.019497922464296 
2341	-2.89625943594996E-02 
2342	-0.019582183735788 
2343	-1.31864762173275E-02 
2344	-1.70774024902446E-02 
2345	-0.015556263706034 
2346	-1.52788757490905E-02 
2347	-2.08583898076787E-02 
2348	-3.95648930728042E-02 
2349	-4.52558979016392E-02 
2350	-3.75542072547872E-02 
2351	-0.029642336997061 
2352	-1.45426870271527E-02 
2353	-9.3199016071048E-03 
2354	-2.78673814480536E-02 
2355	-4.56458512757757E-02 
2356	-0.038587928234207 
2357	-3.26417105760629E-02 
2358	-3.18802940897558E-02 
2359	-1.75068586514526E-02 
2360	-8.84911652230913E-03 
2361	-1.03682583099558E-02 
2362	 8.75382278999121E-03 
2363	 1.06716052878539E-02 
2364	-1.50108383392025E-02 
2365	-3.08872631201577E-02 
2366	-7.05712582720694E-02 
2367	-0.106154618668564 
2368	-0.102323519884478 
2369	-9.74704593012565E-02 
2370	-8.34607709432619E-02 
2371	-6.23931822759522E-02 
2372	-7.41680575387517E-02 
2373	-8.19319547806932E-02 
2374	-7.61845948024163E-02 
2375	-8.00446023824652E-02 
2376	-6.91970927288691E-02 
2377	-7.25477503885631E-02 
2378	-0.080889348552658 
2379	-6.13181825115226E-02 
2380	-4.87180849159887E-02 
2381	-6.18166908399549E-02 
2382	-0.087947741434907 
2383	-0.100526256646716 
2384	-9.51639265127638E-02 
2385	-8.50735532275925E-02 
2386	-6.15013330836387E-02 
2387	-3.56012051913978E-02 
2388	-4.79912675254447E-02 
2389	-4.34137890817759E-02 
2390	-3.67146808924022E-03 
2391	 1.48217876394994E-02 
2392	 1.91626728884783E-02 
2393	 2.49795634218625E-02 
2394	 1.84551066284958E-02 
2395	-4.24409935076387E-02 
2396	-6.37631639852351E-02 
2397	-5.81249084478456E-02 
2398	-0.090050457464613 
2399	-5.58699926883972E-02 
2400	 1.82807385130431E-03 
2401	 1.03326207763527E-02 
2402	 2.24463338599694E-02 
2403	 7.16569559972898E-02 
2404	 6.33858522956145E-02 
2405	 5.92749837504299E-02 
2406	 7.84625546354894E-02 
2407	-5.97890961789407E-03 
2408	-6.32426425172142E-02 
2409	-0.103775020886108 
2410	-7.69845970886706E-02 
2411	 5.49239259367921E-03 
2412	-5.15004601510401E-02 
2413	-0.096176816154694 
2414	-0.177722605091951 
2415	-0.247026820689702 
2416	-0.173662666946254 
2417	-0.162333765660047 
2418	-0.287906707997865 
2419	-0.440732799613529 
2420	-0.526860160642577 
2421	-0.434013002891591 
2422	-0.271902633582805 
2423	-0.224906752436764 
2424	-0.260143963202643 
2425	-0.17708326308326 
2426	-9.49501724559258E-02 
2427	 3.10232930985385E-02 
2428	 0.194819278715724 
2429	 0.14450916524065 
2430	-5.43542261968645E-02 
2431	-0.145198282103677 
2432	-0.221794531540567 
2433	-0.245445935980968 
2434	-5.55628636083768E-02 
2435	 4.06130415781194E-03 
2436	-7.65909830566748E-04 
2437	 2.52153647607193E-02 
2438	-0.041024861835882 
2439	-4.06755377027034E-02 
2440	 0.05882368325433 
2441	 0.102842278798555 
2442	 6.09169672006677E-02 
2443	 1.30826692836437E-02 
2444	-0.119854106438211 
2445	-0.200640494467067 
2446	-0.226897708726677 
2447	-9.35435622230291E-02 
2448	-0.127888709367805 
2449	-0.420382884434487 
2450	-0.854409733851793 
2451	-24.6023148804578 
2452	-7.80442860555399 
2453	-2.06659332377119 
2454	-1.33663103529743 
2455	-0.881952899351662 
2456	-0.623876255390119 
2457	-0.527420430552516 
2458	-0.665620717888866 
2459	-0.643019591242895 
2460	-0.586018158010219 
2461	-0.685243595787816 
2462	-0.328190650509524 
2463	-0.222821090423986 
2464	-1.42316584964587 
2465	-2.67284552683607 
2466	-1.4274744019494 
2467	-2.31164956921847 
2468	-1.70892132094641 
2469	-0.649290494588983 
2470	-1.67854449136994 
2471	 4.53921597667112 
2472	 3.03937131662391 
2473	 5.88460138748644 
2474	 5.6269519170924 
2475	 45.5025667447595 
2476	 33.7222388612682 
2477	 1.55201825818774 
2478	 1.49917376080044 
2479	 2.72997523633356 
2480	 6.68179261899117 
2481	 225.919933348729 
2482	-5.17700212819204 
2483	 0.86897461425883 
2484	 2.85053321894939E-03 
2485	 0.620198141514982 
2486	 1.201148465406 
2487	 2.20514337921021 
2488	-2.22658463613172 
2489	 24.7776567220637 
2490	 2.81493425845138 
2491	 2.84717440068289 
2492	 0.403086908684982 
2493	 2.0998366173698 
2494	 1.20581941952494 
2495	 0.820479435826854 
2496	 0.837380714604382 
2497	 0.488025303261088 
2498	 0.163371339258004 
2499	-0.286752517074625 
2500	-0.389865569476477 
