Wavelength	rt0726close200000.asd
350	 0.049370231853081 
351	 0.049390599243214 
352	 4.95752458178492E-02 
353	 4.97828102335508E-02 
354	 4.98220168950159E-02 
355	 4.93744083779583E-02 
356	 4.93482984045122E-02 
357	 4.95332703851349E-02 
358	 4.95614770763629E-02 
359	 5.01173347941663E-02 
360	 5.02448902578911E-02 
361	 4.99306001539801E-02 
362	 4.98278632046097E-02 
363	 5.00654356746159E-02 
364	 5.02829333135622E-02 
365	 5.03164827971736E-02 
366	 5.04071466585777E-02 
367	 4.99914393749015E-02 
368	 4.99808010278411E-02 
369	 5.08810046919723E-02 
370	 5.03962414914442E-02 
371	 5.03186829097022E-02 
372	 5.07598764600838E-02 
373	 5.08528638839338E-02 
374	 5.07344917361725E-02 
375	 0.050743457320504 
376	 5.10322448850613E-02 
377	 5.14548147137059E-02 
378	 5.13890551791314E-02 
379	 5.11739408944056E-02 
380	 5.12291182150331E-02 
381	 5.14024163834691E-02 
382	 5.18865213484421E-02 
383	 5.20335040398987E-02 
384	 5.12625615858652E-02 
385	 5.22482209015851E-02 
386	 5.30233817496605E-02 
387	 5.28565886806647E-02 
388	 5.28142327403523E-02 
389	 0.053071149851311 
390	 5.34142893348789E-02 
391	 5.35726562877299E-02 
392	 5.33171628170179E-02 
393	 5.35149945275476E-02 
394	 5.38878835083605E-02 
395	 5.39002633912393E-02 
396	 0.05417865683 
397	 5.43518210709405E-02 
398	 5.43099409150623E-02 
399	 5.42258611136017E-02 
400	 5.44950491409925E-02 
401	 5.47861100385878E-02 
402	 5.48226847463939E-02 
403	 5.46541785689004E-02 
404	 5.46406454544881E-02 
405	 5.48813600618134E-02 
406	 5.52935710339838E-02 
407	 5.55134249399396E-02 
408	 5.55053775225173E-02 
409	 0.055444165598936 
410	 5.56578727711867E-02 
411	 0.056013929917327 
412	 5.61867718479773E-02 
413	 5.60834110101759E-02 
414	 0.056190786772165 
415	 5.65873725805344E-02 
416	 5.69371522224634E-02 
417	 0.056880101747664 
418	 5.70688249866146E-02 
419	 5.73193655678886E-02 
420	 5.75191781426537E-02 
421	 5.76987591095294E-02 
422	 5.78647640877141E-02 
423	 5.80009024059519E-02 
424	 5.81556945732528E-02 
425	 5.86021176909051E-02 
426	 5.88767418159498E-02 
427	 5.89970307836994E-02 
428	 5.92111503662553E-02 
429	 5.95177989717462E-02 
430	 5.98821332523142E-02 
431	 6.03005580249625E-02 
432	 0.060814959806533 
433	 6.09607613896309E-02 
434	 6.10151238460194E-02 
435	 6.13052610454549E-02 
436	 6.18144078533307E-02 
437	 6.22428549317343E-02 
438	 6.25061111157502E-02 
439	 6.26752442355668E-02 
440	 6.29558652782523E-02 
441	 6.33908794923051E-02 
442	 6.38309803613891E-02 
443	 6.38771611958793E-02 
444	 0.064078297379419 
445	 6.44494552527269E-02 
446	 6.48503536264859E-02 
447	 6.51899711904085E-02 
448	 6.54766800064944E-02 
449	 6.56625147907015E-02 
450	 6.56943942205801E-02 
451	 6.59688609611944E-02 
452	 6.62604722431337E-02 
453	 6.64298004568429E-02 
454	 6.67170765501414E-02 
455	 6.68200694571941E-02 
456	 6.69401852360205E-02 
457	 6.73195141394505E-02 
458	 6.74039681336745E-02 
459	 6.74240032025532E-02 
460	 6.75196183388264E-02 
461	 6.76923907684193E-02 
462	 6.78410179797473E-02 
463	 6.80300070173618E-02 
464	 6.82878255536126E-02 
465	 6.84593353961476E-02 
466	 6.85281882190473E-02 
467	 6.86472831188526E-02 
468	 6.89816122080956E-02 
469	 6.90864630973492E-02 
470	 6.92134969443647E-02 
471	 0.069465666350109 
472	 6.96619872158042E-02 
473	 0.069825763048702 
474	 6.99931961590876E-02 
475	 7.01842116879074E-02 
476	 7.03211182479821E-02 
477	 7.05584795516897E-02 
478	 7.08042423709348E-02 
479	 7.08508487999062E-02 
480	 7.12154799241397E-02 
481	 7.16217205279013E-02 
482	 7.18437533958537E-02 
483	 7.19513081909214E-02 
484	 7.22600519524102E-02 
485	 7.26629078620387E-02 
486	 0.072918138088057 
487	 7.30435672297783E-02 
488	 7.33234720531034E-02 
489	 7.37482456544926E-02 
490	 7.40307782234211E-02 
491	 7.44255475714921E-02 
492	 7.47993649530224E-02 
493	 7.50742945219009E-02 
494	 7.55381289186677E-02 
495	 7.59548622009117E-02 
496	 7.62999701520921E-02 
497	 7.66622868742093E-02 
498	 7.70954438389488E-02 
499	 7.75354948219967E-02 
500	 7.79809583203935E-02 
501	 7.85500192095545E-02 
502	 7.90017393667793E-02 
503	 7.94306614390881E-02 
504	 7.99653675874121E-02 
505	 8.04411902299539E-02 
506	 8.09612603933223E-02 
507	 8.14618300186694E-02 
508	 0.081774979802491 
509	 8.23305215674933E-02 
510	 0.082950682466745 
511	 8.34558830271764E-02 
512	 8.38907854517656E-02 
513	 8.44143201791865E-02 
514	 8.50428551406148E-02 
515	 8.57047394902805E-02 
516	 8.62796240181511E-02 
517	 8.68888940249111E-02 
518	 8.75556714506262E-02 
519	 8.81597461902896E-02 
520	 8.86645515283458E-02 
521	 8.91881627772749E-02 
522	 0.089835157138532 
523	 9.05437577811094E-02 
524	 0.091137965211048 
525	 0.091698897615475 
526	 9.24673304980038E-02 
527	 9.32190033187772E-02 
528	 0.093891803452368 
529	 9.44892032443441E-02 
530	 9.50701135260442E-02 
531	 0.095838643308698 
532	 9.66556133235844E-02 
533	 0.09730781885613 
534	 0.098038449785614 
535	 9.88330698708079E-02 
536	 9.96308123407446E-02 
537	 0.100335215304548 
538	 0.101130785309106 
539	 0.101911073399844 
540	 0.10260843359859 
541	 0.103533577982252 
542	 0.104375123777061 
543	 0.105117477133171 
544	 0.105925458327946 
545	 0.106699345139222 
546	 0.107501865984992 
547	 0.108356286895593 
548	 0.109170133706236 
549	 0.110066000983611 
550	 0.110914590379718 
551	 0.111578484669531 
552	 0.112390979843894 
553	 0.113257031805525 
554	 0.114095532670036 
555	 0.114868332182043 
556	 0.115630815002992 
557	 0.11644913366202 
558	 0.117312539216368 
559	 0.11798812959955 
560	 0.118686214321798 
561	 0.119452567064198 
562	 0.120220736123847 
563	 0.120881848265602 
564	 0.121512400226301 
565	 0.122155576182134 
566	 0.122742157731354 
567	 0.12329470967135 
568	 0.123877990691803 
569	 0.124519915924537 
570	 0.124952715814893 
571	 0.125423599677476 
572	 0.126000352948207 
573	 0.126525227412391 
574	 0.127020350808453 
575	 0.127439119044775 
576	 0.127791921227796 
577	 0.128330641124245 
578	 0.12874934035403 
579	 0.129028892698854 
580	 0.129338020385823 
581	 0.129749029532198 
582	 0.130189645372582 
583	 0.130554981025619 
584	 0.130689581788593 
585	 0.131068605679106 
586	 0.13143819558271 
587	 0.131437336029605 
588	 0.131790182765697 
589	 0.132151684831185 
590	 0.132320283941948 
591	 0.132370110664086 
592	 0.132619840141232 
593	 0.132869025075123 
594	 0.132945994439522 
595	 0.133158004644202 
596	 0.133164498445113 
597	 0.133040810430379 
598	 0.133078289646341 
599	 0.1331609130322 
600	 0.133234532120561 
601	 0.133258727682213 
602	 0.133194595243466 
603	 0.133309757377029 
604	 0.133493563566985 
605	 0.133567539858816 
606	 0.133724835244565 
607	 0.133815246230007 
608	 0.133837649745708 
609	 0.133953562205521 
610	 0.134054594491736 
611	 0.134079207378237 
612	 0.134064102251434 
613	 0.134316715688111 
614	 0.13449891962864 
615	 0.134517620378152 
616	 0.134454984326316 
617	 0.134575326138951 
618	 0.134701594712693 
619	 0.134731128644354 
620	 0.134751772256125 
621	 0.134912627148568 
622	 0.135094909652247 
623	 0.135127799597278 
624	 0.135077895833693 
625	 0.135073226971047 
626	 0.135137650082125 
627	 0.135197921861418 
628	 0.135403069962169 
629	 0.135538628492499 
630	 0.135474100125878 
631	 0.135433824659288 
632	 0.135631543657167 
633	 0.135880790574109 
634	 0.135855387228252 
635	 0.135853011153472 
636	 0.135927398755002 
637	 0.136055593829486 
638	 0.136141861679364 
639	 0.136308643023396 
640	 0.136400131222434 
641	 0.136332347353737 
642	 0.136656333053315 
643	 0.136838101323792 
644	 0.136842443878361 
645	 0.137034766868271 
646	 0.137082566507888 
647	 0.137173711872036 
648	 0.137365265306666 
649	 0.137177267948864 
650	 0.13713649490245 
651	 0.137237612713994 
652	 0.137248138237002 
653	 0.136922334485431 
654	 0.136700090381359 
655	 0.136653688807569 
656	 0.136300182638851 
657	 0.135904117648986 
658	 0.135582727731065 
659	 0.135320243588904 
660	 0.134833791519882 
661	 0.134455136289367 
662	 0.134206783079708 
663	 0.133925504169757 
664	 0.133628236132241 
665	 0.133365224589924 
666	 0.133117568833131 
667	 0.132726090277184 
668	 0.13248432270835 
669	 0.132412614125841 
670	 0.132429817340467 
671	 0.132453744572299 
672	 0.132585769842825 
673	 0.132836891410072 
674	 0.133120448433307 
675	 0.133266939502629 
676	 0.133408642948458 
677	 0.133711740991183 
678	 0.134305099005266 
679	 0.134732897712181 
680	 0.135139419693003 
681	 0.135841874030594 
682	 0.136196083747963 
683	 0.136736837314002 
684	 0.137619688588547 
685	 0.13845214098675 
686	 0.139120232630879 
687	 0.13975190156294 
688	 0.140488918266234 
689	 0.14125458038714 
690	 0.141863367345467 
691	 0.142321407301468 
692	 0.142764946490228 
693	 0.143370651774516 
694	 0.1438664147364 
695	 0.144138020526355 
696	 0.144459644597546 
697	 0.144632559985029 
698	 0.144729608677142 
699	 0.144854472312956 
700	 0.144912491456903 
701	 0.144896464894885 
702	 0.144832414494544 
703	 0.144764827167381 
704	 0.144708206267826 
705	 0.144566126694838 
706	 0.144296785097305 
707	 0.143989891887166 
708	 0.143743256077762 
709	 0.143422189771559 
710	 0.142865285980878 
711	 0.142307811301317 
712	 0.14169451371614 
713	 0.141047017429539 
714	 0.140457960621402 
715	 0.139614915165084 
716	 0.138793212606409 
717	 0.138251358035283 
718	 0.137020761793607 
719	 0.135902215874671 
720	 0.135083817578465 
721	 0.13423533781921 
722	 0.133330804770119 
723	 0.132211688268416 
724	 0.130982623063745 
725	 0.129790880417895 
726	 0.128364128812991 
727	 0.126843952169831 
728	 0.125336932187072 
729	 0.123514102401063 
730	 0.121577175579334 
731	 0.119641550045958 
732	 0.11772931547486 
733	 0.11631675343436 
734	 0.115042286427055 
735	 0.11378254808491 
736	 0.112765432956202 
737	 0.11215595318421 
738	 0.111680375190421 
739	 0.111153838653089 
740	 0.110963037193849 
741	 0.110906304351192 
742	 0.110854793094044 
743	 0.110754513115074 
744	 0.110816744596951 
745	 0.110842826153664 
746	 0.110807568006082 
747	 0.110969879586166 
748	 0.110981267601897 
749	 0.110988555221029 
750	 0.111151805100704 
751	 0.111249218704058 
752	 0.111317209429714 
753	 0.11139408443148 
754	 0.111500864165855 
755	 0.111479616603958 
756	 0.111541427092673 
757	 0.111752558394773 
758	 0.111967868895729 
759	 0.112558109239444 
760	 0.113175922607902 
761	 0.112923395320121 
762	 0.112758558835961 
763	 0.112778298001943 
764	 0.112931647382171 
765	 0.113094899783811 
766	 0.113193363377398 
767	 0.113257371598101 
768	 0.113361187988731 
769	 0.113616129146862 
770	 0.113909810929695 
771	 0.114113794973537 
772	 0.114218748211972 
773	 0.114543373813499 
774	 0.114813697902944 
775	 0.115021217321981 
776	 0.115299034545439 
777	 0.115877208961211 
778	 0.116227320881502 
779	 0.116338763434043 
780	 0.116753838817627 
781	 0.117216609920378 
782	 0.117553426549385 
783	 0.117759529641282 
784	 0.118182480403192 
785	 0.118573095415733 
786	 0.118985028392055 
787	 0.119499266381982 
788	 0.119779732915345 
789	 0.120130787032114 
790	 0.120577423490834 
791	 0.120920165878335 
792	 0.121356897545051 
793	 0.121794290040339 
794	 0.122183978342335 
795	 0.122602784799816 
796	 0.122854252217352 
797	 0.123089010825614 
798	 0.123451217051735 
799	 0.123660701048473 
800	 0.124031703289127 
801	 0.124353138284264 
802	 0.124268375150231 
803	 0.124642604309699 
804	 0.124930497424417 
805	 0.124909104344427 
806	 0.124840209012651 
807	 0.124680322561192 
808	 0.124622576464295 
809	 0.124699978213058 
810	 0.124418855312837 
811	 0.124172540111991 
812	 0.123978120222769 
813	 0.123703695273973 
814	 0.123305018087014 
815	 0.122967340814124 
816	 0.122589202255108 
817	 0.121871944825511 
818	 0.120947296562799 
819	 0.120474427972205 
820	 0.120243946047348 
821	 0.11899377912804 
822	 0.117761788602751 
823	 0.11650757455908 
824	 0.115030564036556 
825	 0.113214884530052 
826	 0.111607495772799 
827	 0.109867111146731 
828	 0.107596888125755 
829	 0.105569931741006 
830	 0.103838619644517 
831	 0.102324547460012 
832	 0.100927620071111 
833	 9.96315281511101E-02 
834	 0.098732041844822 
835	 9.81491181761851E-02 
836	 9.73211579249328E-02 
837	 9.65068522007131E-02 
838	 9.58996269615993E-02 
839	 9.55205136403927E-02 
840	 9.49906069370644E-02 
841	 9.45001711649533E-02 
842	 9.41157254564227E-02 
843	 9.37972744687049E-02 
844	 9.32077410967634E-02 
845	 0.092789484678617 
846	 9.25358045056166E-02 
847	 9.21262738481567E-02 
848	 9.15806453722825E-02 
849	 0.09138863065447 
850	 9.13577323928055E-02 
851	 9.04655107012555E-02 
852	 9.03521099645012E-02 
853	 9.02202369327991E-02 
854	 0.089500927851177 
855	 8.91937141486407E-02 
856	 8.90954194116114E-02 
857	 8.88626539354876E-02 
858	 8.83237490106363E-02 
859	 8.80929877204142E-02 
860	 8.76719346060238E-02 
861	 8.72665709895626E-02 
862	 8.72886489338569E-02 
863	 8.71290823938204E-02 
864	 8.65428825165981E-02 
865	 8.59300289535764E-02 
866	 8.60755021085981E-02 
867	 0.085697368837669 
868	 8.50843240165314E-02 
869	 8.45766510280732E-02 
870	 8.42696293419844E-02 
871	 8.38753838226399E-02 
872	 8.35561504757439E-02 
873	 8.32806768793287E-02 
874	 8.23415965973004E-02 
875	 8.18612236409084E-02 
876	 8.14793725154675E-02 
877	 8.07068704474869E-02 
878	 8.04276621205754E-02 
879	 7.98882988132342E-02 
880	 7.92438698453266E-02 
881	 7.89202290736535E-02 
882	 7.81410168825424E-02 
883	 7.77035035462573E-02 
884	 7.74696406664138E-02 
885	 7.66968050166901E-02 
886	 7.63544259047073E-02 
887	 0.076095878026465 
888	 7.56594565526579E-02 
889	 7.50822392188712E-02 
890	 7.48152718472781E-02 
891	 7.46593496020953E-02 
892	 7.42850951239315E-02 
893	 7.33695968144816E-02 
894	 7.32775921690077E-02 
895	 7.32965323613208E-02 
896	 7.27473309969968E-02 
897	 7.33094021478348E-02 
898	 7.21318741695928E-02 
899	 7.09217297080258E-02 
900	 7.15869827811804E-02 
901	 7.09503902418748E-02 
902	 6.97655329564442E-02 
903	 6.90858390419731E-02 
904	 6.94146306952825E-02 
905	 6.79792899565638E-02 
906	 6.76177770246808E-02 
907	 6.82534692245116E-02 
908	 6.76795891748481E-02 
909	 0.066537246231196 
910	 6.51647372819408E-02 
911	 6.43708876021786E-02 
912	 6.48699510201004E-02 
913	 6.32410005616763E-02 
914	 6.21983342062433E-02 
915	 6.22257876355237E-02 
916	 6.06505979237305E-02 
917	 5.90964260074726E-02 
918	 5.81657445279386E-02 
919	 5.77495656784438E-02 
920	 5.70457042544744E-02 
921	 5.47576168898825E-02 
922	 5.29582027831836E-02 
923	 5.26829391057929E-02 
924	 5.13758598440738E-02 
925	 5.06204380842809E-02 
926	 5.03747019893142E-02 
927	 5.01282785433021E-02 
928	 4.95523654688147E-02 
929	 4.77910085224826E-02 
930	 4.65252020879623E-02 
931	 4.79311282795623E-02 
932	 0.045068803472843 
933	 4.30407177313318E-02 
934	 4.44895796060183E-02 
935	 4.71378227092506E-02 
936	 4.27085074759527E-02 
937	 3.91725244627912E-02 
938	 4.02394921823365E-02 
939	 0.044666723214586 
940	 0.040353173618428 
941	 3.70574481238316E-02 
942	 3.63319566891343E-02 
943	 3.58592772224978E-02 
944	 3.81092531103366E-02 
945	 3.48327847862689E-02 
946	 3.06259825623588E-02 
947	 3.47272647929669E-02 
948	 0.034383282312145 
949	 3.33942334413614E-02 
950	 3.29181068013628E-02 
951	 3.17268041268244E-02 
952	 2.81105515238692E-02 
953	 2.94066296370743E-02 
954	 3.25416094455985E-02 
955	 0.029146041751112 
956	 2.69265262089971E-02 
957	 2.69953366167856E-02 
958	 2.87153795048769E-02 
959	 3.05132544984869E-02 
960	 3.14857356328275E-02 
961	 3.10168241251748E-02 
962	 2.89928414190162E-02 
963	 2.63344157155947E-02 
964	 2.89633543726518E-02 
965	 2.87040282673628E-02 
966	 2.58145242930561E-02 
967	 2.65713563273216E-02 
968	 2.86394409383125E-02 
969	 2.73269609135444E-02 
970	 2.51539108046826E-02 
971	 2.90009557583208E-02 
972	 2.68855842209497E-02 
973	 2.58234510488086E-02 
974	 2.77400941860416E-02 
975	 2.77187646460498E-02 
976	 2.57854014249701E-02 
977	 2.56909492116769E-02 
978	 2.70341780305252E-02 
979	 2.62164794331784E-02 
980	 2.72316026392423E-02 
981	 2.66758069371821E-02 
982	 2.51460369354202E-02 
983	 2.61688835484092E-02 
984	 2.57700893936334E-02 
985	 2.55357383464419E-02 
986	 2.57490333721709E-02 
987	 2.55303838650146E-02 
988	 2.67350287683378E-02 
989	 0.025926684092406 
990	 2.49307366850624E-02 
991	 2.79468194630312E-02 
992	 2.53081968111367E-02 
993	 2.26385610836632E-02 
994	 2.40360718540049E-02 
995	 2.92574117504196E-02 
996	 2.70703914252254E-02 
997	 0.025511814523132 
998	 2.68374985425733E-02 
999	 2.81906581462326E-02 
1000	 2.65880730774245E-02 
1001	 2.72471355228904E-02 
1002	 2.80711710474557E-02 
1003	 2.81461716464511E-02 
1004	 2.77337612158707E-02 
1005	 2.78079787361406E-02 
1006	 2.79680362347074E-02 
1007	 2.76449111200196E-02 
1008	 2.83607705769529E-02 
1009	 2.86444770492882E-02 
1010	 2.84632769439268E-02 
1011	 2.87793884974116E-02 
1012	 2.86745959454683E-02 
1013	 2.90956790326892E-02 
1014	 2.93462047854596E-02 
1015	 0.029673266927703 
1016	 2.99183567012983E-02 
1017	 3.01998408967323E-02 
1018	 3.02560839047179E-02 
1019	 3.01771389904453E-02 
1020	 3.02117366854715E-02 
1021	 3.01826909599633E-02 
1022	 3.00398685751257E-02 
1023	 3.01697781266871E-02 
1024	 3.05538884079951E-02 
1025	 0.030595024094746 
1026	 3.07699241424792E-02 
1027	 0.030797630684447 
1028	 3.05600439408433E-02 
1029	 3.06071362396434E-02 
1030	 3.06536815567574E-02 
1031	 3.09343810601099E-02 
1032	 3.15728071201694E-02 
1033	 3.19728717427962E-02 
1034	 3.24530868020405E-02 
1035	 0.032827048261893 
1036	 3.28691113393504E-02 
1037	 3.32235599355554E-02 
1038	 3.39612994726964E-02 
1039	 0.034296969580211 
1040	 3.42012048010275E-02 
1041	 3.46543996465772E-02 
1042	 3.51885054726991E-02 
1043	 0.035507105255851 
1044	 3.62785541550789E-02 
1045	 0.03816084456173 
1046	 3.85231174006332E-02 
1047	 3.82035234809901E-02 
1048	 0.038057505455624 
1049	 3.67750466201063E-02 
1050	 3.66358750455771E-02 
1051	 3.74177732468203E-02 
1052	 3.77017814291443E-02 
1053	 3.81961197478723E-02 
1054	 3.85714270246592E-02 
1055	 3.88076256336536E-02 
1056	 3.88725370403513E-02 
1057	 0.038847088545287 
1058	 3.86245752423102E-02 
1059	 3.89651326591363E-02 
1060	 3.93952956104867E-02 
1061	 3.97136256798286E-02 
1062	 4.04468416712666E-02 
1063	 4.09895581467832E-02 
1064	 4.11333269699476E-02 
1065	 4.15579510127136E-02 
1066	 0.0425823342172 
1067	 4.29589281775843E-02 
1068	 4.31618949382253E-02 
1069	 4.30472506413658E-02 
1070	 4.19001613190711E-02 
1071	 4.16735170048777E-02 
1072	 4.21582019943067E-02 
1073	 4.19272326966106E-02 
1074	 4.19022232223276E-02 
1075	 4.25375091729932E-02 
1076	 4.23252322102116E-02 
1077	 4.10553001648607E-02 
1078	 4.09892439932606E-02 
1079	 4.14509732090845E-02 
1080	 4.15144543329232E-02 
1081	 4.21092264808226E-02 
1082	 4.21051847050244E-02 
1083	 4.15565077763553E-02 
1084	 0.041032007650154 
1085	 4.00303593650679E-02 
1086	 3.96428653105095E-02 
1087	 3.94889351860619E-02 
1088	 3.91955369377892E-02 
1089	 3.94342152549067E-02 
1090	 3.92677687546898E-02 
1091	 3.90944620759439E-02 
1092	 3.89342115676847E-02 
1093	 3.82784783575229E-02 
1094	 3.69375363006254E-02 
1095	 3.65534288067424E-02 
1096	 3.59640618430152E-02 
1097	 3.56930430716614E-02 
1098	 3.70307257756717E-02 
1099	 3.69279988997264E-02 
1100	 3.55740418682014E-02 
1101	 3.50805247239711E-02 
1102	 3.40870134477312E-02 
1103	 3.36318092096346E-02 
1104	 3.39329480305747E-02 
1105	 3.45599320199849E-02 
1106	 3.48282612034497E-02 
1107	 3.46811303363346E-02 
1108	 3.37657724162828E-02 
1109	 3.27885498983656E-02 
1110	 3.22374830126255E-02 
1111	 3.12551789023994E-02 
1112	 3.15433878963722E-02 
1113	 3.38530552109354E-02 
1114	 3.44540035662078E-02 
1115	 3.55977150020285E-02 
1116	 3.49987192403123E-02 
1117	 2.90607568046002E-02 
1118	 2.78398778467202E-02 
1119	 0.031609218457968 
1120	 3.17105865274305E-02 
1121	 3.36748371037682E-02 
1122	 3.36065155038996E-02 
1123	 0.036183061615314 
1124	 3.45094991407878E-02 
1125	 3.37966426934755E-02 
1126	 3.97649595925528E-02 
1127	 3.51176383564914E-02 
1128	 2.28350778973531E-02 
1129	 2.27310264650449E-02 
1130	 3.27334215620281E-02 
1131	 3.15074359566019E-02 
1132	 2.80133044682413E-02 
1133	 2.89781940036018E-02 
1134	 2.56067197986981E-02 
1135	 2.62831654603475E-02 
1136	 3.62176586802809E-02 
1137	 3.72999707506921E-02 
1138	 3.50791894006925E-02 
1139	 0.030353095782327 
1140	 2.65101318621793E-02 
1141	 2.70586420768167E-02 
1142	 2.79497631300181E-02 
1143	 2.71853064470901E-02 
1144	 0.030825040817697 
1145	 3.07925556864118E-02 
1146	 2.84322376757225E-02 
1147	 3.20408087793807E-02 
1148	 3.36866492303058E-02 
1149	 3.03961134601941E-02 
1150	 2.86721750526368E-02 
1151	 2.78840150163706E-02 
1152	 2.71467891098201E-02 
1153	 2.49775845494828E-02 
1154	 2.51065951110077E-02 
1155	 2.70876088980732E-02 
1156	 2.68584984406511E-02 
1157	 2.58561865183586E-02 
1158	 2.61626982902983E-02 
1159	 2.58605233642051E-02 
1160	 2.55104713633864E-02 
1161	 2.62881364634895E-02 
1162	 2.67083231210744E-02 
1163	 2.66017441702034E-02 
1164	 2.65424417368919E-02 
1165	 2.65368503437906E-02 
1166	 2.64289032945686E-02 
1167	 2.59425279549874E-02 
1168	 2.59654858942064E-02 
1169	 2.60492892981395E-02 
1170	 2.56818001077943E-02 
1171	 2.56336590689649E-02 
1172	 2.58705124906777E-02 
1173	 2.57485577802544E-02 
1174	 2.53129269815137E-02 
1175	 2.56428065490945E-02 
1176	 2.58462001035208E-02 
1177	 0.026125509397527 
1178	 2.65249721175143E-02 
1179	 2.61160044339932E-02 
1180	 2.54577738451208E-02 
1181	 2.53177296630291E-02 
1182	 2.54110565816305E-02 
1183	 2.54113483284369E-02 
1184	 2.57543281362264E-02 
1185	 2.59629505651843E-02 
1186	 2.57159581675291E-02 
1187	 2.59519333798595E-02 
1188	 2.60037232212819E-02 
1189	 2.53695548026049E-02 
1190	 2.51761919140077E-02 
1191	 2.54104217465665E-02 
1192	 2.54276312767473E-02 
1193	 2.55724309395716E-02 
1194	 2.57351143753956E-02 
1195	 2.54633879053105E-02 
1196	 2.50136284333602E-02 
1197	 2.48260274328563E-02 
1198	 2.51713797066204E-02 
1199	 0.026011121731273 
1200	 2.60170116419478E-02 
1201	 2.51375983421711E-02 
1202	 2.48991776191325E-02 
1203	 2.51636567537759E-02 
1204	 2.53572160028546E-02 
1205	 0.025698350348101 
1206	 0.025533618054708 
1207	 2.47165196917674E-02 
1208	 2.43974199325959E-02 
1209	 0.024600951445199 
1210	 2.47447504693005E-02 
1211	 0.024920012304262 
1212	 2.49399110511293E-02 
1213	 2.48174570636536E-02 
1214	 2.47309977094704E-02 
1215	 2.48199161211494E-02 
1216	 2.45375213613043E-02 
1217	 0.024357269894081 
1218	 2.47749399446454E-02 
1219	 2.45704374123972E-02 
1220	 2.42096656297522E-02 
1221	 2.44505701616034E-02 
1222	 2.41308386986437E-02 
1223	 2.39457027903399E-02 
1224	 2.45500511824628E-02 
1225	 2.44876828543691E-02 
1226	 2.40267691321725E-02 
1227	 2.44466573228511E-02 
1228	 2.46345246321492E-02 
1229	 0.024159479041951 
1230	 2.41727079336051E-02 
1231	 0.024241853128025 
1232	 2.40295050523107E-02 
1233	 2.38829751105416E-02 
1234	 0.024201604491015 
1235	 2.43374662572469E-02 
1236	 2.41474886376815E-02 
1237	 2.39944713984502E-02 
1238	 2.40404215430439E-02 
1239	 2.39164285204364E-02 
1240	 2.36429923213576E-02 
1241	 2.38144390697846E-02 
1242	 2.39099735321661E-02 
1243	 2.36549538332589E-02 
1244	 2.37873378822942E-02 
1245	 2.39494811638849E-02 
1246	 2.37926594646363E-02 
1247	 2.38812991171803E-02 
1248	 2.38837291115276E-02 
1249	 2.39360418020568E-02 
1250	 2.40622305905907E-02 
1251	 0.024132941283726 
1252	 2.41712889949536E-02 
1253	 2.39821010252044E-02 
1254	 2.40696798320401E-02 
1255	 2.41662626689138E-02 
1256	 2.39381981650695E-02 
1257	 2.29733302523581E-02 
1258	 2.28138744892716E-02 
1259	 2.31639142149065E-02 
1260	 2.31170144966643E-02 
1261	 2.30199007793395E-02 
1262	 2.31726846461359E-02 
1263	 2.33435825937257E-02 
1264	 0.023184258761743 
1265	 2.30644811746615E-02 
1266	 2.33519588380577E-02 
1267	 2.29396484509514E-02 
1268	 2.25294877501332E-02 
1269	 2.31345805883643E-02 
1270	 2.34965243586221E-02 
1271	 2.31424325887702E-02 
1272	 2.30834975889336E-02 
1273	 2.30378106346012E-02 
1274	 2.28990228005699E-02 
1275	 0.023087768566742 
1276	 2.30932698760427E-02 
1277	 2.30602422655215E-02 
1278	 2.31624943914762E-02 
1279	 2.31940060640799E-02 
1280	 2.32489708464512E-02 
1281	 2.32880434541602E-02 
1282	 2.31617531745973E-02 
1283	 2.30060052821063E-02 
1284	 2.28773169303737E-02 
1285	 2.29498124543428E-02 
1286	 2.28883543919244E-02 
1287	 2.28356690726665E-02 
1288	 2.30723896341299E-02 
1289	 2.32200165422519E-02 
1290	 2.32226129345494E-02 
1291	 2.33553409288526E-02 
1292	 2.33644167227917E-02 
1293	 2.31052350054318E-02 
1294	 2.28354352294396E-02 
1295	 2.25562850136681E-02 
1296	 2.28450595241337E-02 
1297	 2.35346472083388E-02 
1298	 2.33640674889584E-02 
1299	 2.31326997338437E-02 
1300	 2.33938965948977E-02 
1301	 0.023355169001348 
1302	 2.33547379847846E-02 
1303	 2.34952649044552E-02 
1304	 2.37486293126846E-02 
1305	 2.38659247290803E-02 
1306	 2.36467327087856E-02 
1307	 2.34504229908015E-02 
1308	 0.023471752813821 
1309	 2.29253214679631E-02 
1310	 2.28367084466225E-02 
1311	 2.34360571976545E-02 
1312	 2.38461162623314E-02 
1313	 2.44346320188681E-02 
1314	 2.44296490884176E-02 
1315	 2.40234482925029E-02 
1316	 2.41353976209642E-02 
1317	 2.40953267598544E-02 
1318	 2.38642617402141E-02 
1319	 0.023939531222077 
1320	 2.41278086865384E-02 
1321	 0.024338553094266 
1322	 2.38301973810015E-02 
1323	 2.29269915412449E-02 
1324	 2.33807647754572E-02 
1325	 2.43095788134873E-02 
1326	 2.39928952164886E-02 
1327	 2.47193588337653E-02 
1328	 2.60769698670057E-02 
1329	 0.025063192934527 
1330	 0.023797243093808 
1331	 2.44407679641845E-02 
1332	 2.47519522807051E-02 
1333	 2.47954899301716E-02 
1334	 0.025986992176691 
1335	 2.63096291254675E-02 
1336	 2.59309683195894E-02 
1337	 0.025518561174883 
1338	 2.39823233437991E-02 
1339	 0.024470432037552 
1340	 0.027061319993449 
1341	 2.76601175247768E-02 
1342	 2.84928395348128E-02 
1343	 2.85937269977718E-02 
1344	 2.57913631227581E-02 
1345	 2.37925046936139E-02 
1346	 2.20388234052045E-02 
1347	 2.15271882737865E-02 
1348	 2.16893193796626E-02 
1349	 0.020615558965206 
1350	 0.022241067768601 
1351	 2.27738945916096E-02 
1352	 2.46798448426074E-02 
1353	 1.98635148852264E-02 
1354	 1.08764066294257E-04 
1355	-4.32049927254627E-02 
1356	-6.20864371595863E-02 
1357	-0.059589356440383 
1358	-4.52848008745764E-02 
1359	-0.109313999201718 
1360	-0.205207443395003 
1361	-0.231266734929928 
1362	-0.278934296910983 
1363	-0.20235428494722 
1364	-0.207533446377038 
1365	-0.322916746705425 
1366	-0.263821036621191 
1367	 2.78241523015144E-02 
1368	-8.85299213073294E-02 
1369	-0.370875015979779 
1370	-0.42674455744241 
1371	-0.658634711807724 
1372	-0.666639166744963 
1373	-0.319659091050952 
1374	-0.32623997349333 
1375	-0.997288665451179 
1376	-0.822322835031867 
1377	-0.22115131569897 
1378	-0.267670184505559 
1379	-0.548165449478665 
1380	-0.424905501115043 
1381	-0.505740618026652 
1382	-0.652103886872418 
1383	-9.59172782321832E-02 
1384	 2.62080251324247E-02 
1385	-0.164048157243592 
1386	-0.197192062548356 
1387	-4.84461380932466E-02 
1388	 5.80776224945295E-03 
1389	 0.053857905585371 
1390	-9.07360202278131E-02 
1391	-0.485957263052537 
1392	-0.677634690140071 
1393	-0.557597520014318 
1394	-0.555443127191638 
1395	-0.624318351861679 
1396	-0.73843884783479 
1397	-0.619931554381988 
1398	-0.325767398126855 
1399	-0.475634350788718 
1400	-0.637437327872473 
1401	-0.48429899732772 
1402	-0.591265373012912 
1403	-0.651345062993677 
1404	-0.228007106120835 
1405	-0.137357547815548 
1406	-0.47515123949858 
1407	-0.48979269692449 
1408	-0.160320217597882 
1409	-0.123043436376626 
1410	-0.272958836336671 
1411	-0.247209587031477 
1412	-0.202412401407558 
1413	-0.180071106264053 
1414	-0.116165281367926 
1415	-5.73970913187628E-02 
1416	 1.92019023932392E-03 
1417	 4.38076858016275E-03 
1418	-1.07270946871514E-02 
1419	 2.83682375905294E-03 
1420	 1.00614151734355E-02 
1421	 0.01104672345404 
1422	 2.38810055990731E-02 
1423	 2.23724360841249E-02 
1424	-9.10960734523224E-04 
1425	-4.78212307559508E-05 
1426	 1.82875965480615E-02 
1427	 1.85621089744609E-02 
1428	 1.65178618260984E-02 
1429	 1.60027151246536E-02 
1430	 5.06927317735327E-03 
1431	 2.28104715903697E-03 
1432	 1.91556632400886E-03 
1433	 7.07946089589908E-03 
1434	 2.00514931121918E-02 
1435	 2.79412010640934E-02 
1436	 4.28670448383964E-02 
1437	 5.57137178237969E-02 
1438	 2.64814915932229E-02 
1439	 7.40592183942201E-03 
1440	 2.64143948166376E-02 
1441	 2.98197912969606E-02 
1442	 2.14632717958423E-02 
1443	 0.027099401618628 
1444	 3.44650572723631E-02 
1445	 2.73780617822922E-02 
1446	 1.61225076150797E-02 
1447	 2.29240761177155E-02 
1448	 3.12391247332498E-02 
1449	 2.54296089491519E-02 
1450	 0.022423006093581 
1451	 2.49639027061194E-02 
1452	 2.64600330893183E-02 
1453	 2.56989178256612E-02 
1454	 2.49265205482836E-02 
1455	 3.13852007948395E-02 
1456	 3.28631496132126E-02 
1457	 2.82186242135608E-02 
1458	 0.026732272943567 
1459	 2.93602398818148E-02 
1460	 2.84221420732777E-02 
1461	 2.22226229551094E-02 
1462	 2.10385589012624E-02 
1463	 2.32049180562046E-02 
1464	 2.38920287843133E-02 
1465	 2.52111781213635E-02 
1466	 2.57225271479268E-02 
1467	 2.60933188172945E-02 
1468	 2.55978310364798E-02 
1469	 0.0222543045159 
1470	 2.50837997686355E-02 
1471	 3.49023271415181E-02 
1472	 3.38812035506144E-02 
1473	 2.74438120189945E-02 
1474	 2.81860675175515E-02 
1475	 0.026996425796261 
1476	 2.44519672831257E-02 
1477	 2.65624115561271E-02 
1478	 2.89514453197698E-02 
1479	 2.82258771932742E-02 
1480	 2.66995342029769E-02 
1481	 2.75620428327803E-02 
1482	 2.81242699481943E-02 
1483	 2.52761194996386E-02 
1484	 2.46945142247446E-02 
1485	 2.80861539129822E-02 
1486	 2.83546810317294E-02 
1487	 2.65277867424249E-02 
1488	 2.54555609364009E-02 
1489	 2.43719489823348E-02 
1490	 2.36555365134208E-02 
1491	 2.25441057332015E-02 
1492	 2.22947049547125E-02 
1493	 2.24713510019852E-02 
1494	 2.26873229447377E-02 
1495	 2.40735939591786E-02 
1496	 0.024164902586483 
1497	 2.33193606251759E-02 
1498	 2.30176346424563E-02 
1499	 2.20048839855947E-02 
1500	 2.16231083261685E-02 
1501	 0.02245092971986 
1502	 2.24900128647045E-02 
1503	 2.20322740007931E-02 
1504	 0.021962954711914 
1505	 2.19699799375623E-02 
1506	 2.15060100273424E-02 
1507	 0.021506670552583 
1508	 2.15474003188723E-02 
1509	 2.12926286527642E-02 
1510	 2.08595653877101E-02 
1511	 2.03706804750929E-02 
1512	 2.05693217289743E-02 
1513	 0.021261573916465 
1514	 2.11208378041112E-02 
1515	 2.05307185036642E-02 
1516	 2.01620642938608E-02 
1517	 2.02913853739391E-02 
1518	 2.05501157205258E-02 
1519	 2.06506173009483E-02 
1520	 2.11188842900279E-02 
1521	 0.020876551054109 
1522	 2.00216457415813E-02 
1523	 2.03076267789742E-02 
1524	 2.05247156184923E-02 
1525	 1.96846051256621E-02 
1526	 1.97386749547777E-02 
1527	 0.020332491177819 
1528	 2.02170958733231E-02 
1529	 2.00949745464192E-02 
1530	 2.02173667720211E-02 
1531	 2.01243465554539E-02 
1532	 1.94600734305375E-02 
1533	 1.88344234668819E-02 
1534	 1.88690786452644E-02 
1535	 1.94386433694876E-02 
1536	 1.98057464977916E-02 
1537	 1.95878590150376E-02 
1538	 1.95904283530836E-02 
1539	 0.019486899280292 
1540	 0.018888011061949 
1541	 0.019080826378319 
1542	 1.94108229063389E-02 
1543	 1.86363929489549E-02 
1544	 1.85826418446147E-02 
1545	 1.93962596206703E-02 
1546	 1.91607520288665E-02 
1547	 1.87673928487067E-02 
1548	 1.90104789167217E-02 
1549	 1.90060614712981E-02 
1550	 1.93978793489395E-02 
1551	 2.00936601547829E-02 
1552	 1.99389898837357E-02 
1553	 1.98117592857643E-02 
1554	 1.98497206388376E-02 
1555	 0.019603809168208 
1556	 1.96685701001149E-02 
1557	 1.97473723601077E-02 
1558	 1.95549443790571E-02 
1559	 0.019490315222364 
1560	 1.96384863079097E-02 
1561	 1.99353149446987E-02 
1562	 2.00644475041895E-02 
1563	 1.96590182201396E-02 
1564	 1.92100518777006E-02 
1565	 1.91260900639891E-02 
1566	 1.93364449713726E-02 
1567	 1.95280062211953E-02 
1568	 1.98953214856697E-02 
1569	 2.06753216065177E-02 
1570	 2.04276517715209E-02 
1571	 1.94989717073189E-02 
1572	 1.97483382505704E-02 
1573	 2.00936363332007E-02 
1574	 1.98171329355092E-02 
1575	 1.99162501136291E-02 
1576	 2.00538151114818E-02 
1577	 1.97040325033457E-02 
1578	 1.95030910255403E-02 
1579	 0.020088112976411 
1580	 2.04199989358255E-02 
1581	 2.00623546059704E-02 
1582	 1.99422109581137E-02 
1583	 1.99927592784024E-02 
1584	 1.98188817755228E-02 
1585	 1.98031317962349E-02 
1586	 0.020281626424116 
1587	 2.01044939507684E-02 
1588	 1.98492653075888E-02 
1589	 2.06146188709754E-02 
1590	 2.04580041220065E-02 
1591	 1.94346132740842E-02 
1592	 1.93170495519952E-02 
1593	 0.019484276165256 
1594	 1.92763032681938E-02 
1595	 1.96074310413494E-02 
1596	 2.02110136787061E-02 
1597	 1.98551147473577E-02 
1598	 1.93216706829402E-02 
1599	 1.97166675707683E-02 
1600	 2.04310085299691E-02 
1601	 2.04268371939581E-02 
1602	 2.03891031256538E-02 
1603	 2.08860201560214E-02 
1604	 2.04154058423411E-02 
1605	 1.96871943714525E-02 
1606	 2.00660971286968E-02 
1607	 2.01941944047248E-02 
1608	 2.00369197940137E-02 
1609	 2.03779893648181E-02 
1610	 2.01780797890191E-02 
1611	 1.92671229796466E-02 
1612	 1.89758533099005E-02 
1613	 1.92099726742911E-02 
1614	 1.94014151780989E-02 
1615	 1.98386954933267E-02 
1616	 2.00904945166005E-02 
1617	 0.019970860580218 
1618	 2.02422295241881E-02 
1619	 2.03489836469814E-02 
1620	 1.99189353348717E-02 
1621	 2.00455378349847E-02 
1622	 2.00039434372983E-02 
1623	 1.95904284587971E-02 
1624	 1.96117032115857E-02 
1625	 1.94326234553577E-02 
1626	 1.95711740807331E-02 
1627	 1.96191675999693E-02 
1628	 1.89486933182751E-02 
1629	 1.90328578187961E-02 
1630	 1.91619458063125E-02 
1631	 0.018860312923276 
1632	 1.89700037377427E-02 
1633	 0.018661219534695 
1634	 1.81856369735512E-02 
1635	 1.81608269925756E-02 
1636	 1.86698002444599E-02 
1637	 1.94306708851331E-02 
1638	 0.019402298644712 
1639	 1.91196305597172E-02 
1640	 1.89666889929706E-02 
1641	 1.87399612812907E-02 
1642	 1.84118311079515E-02 
1643	 1.81609151133467E-02 
1644	 1.84081309243642E-02 
1645	 1.84333209310943E-02 
1646	 1.82693080999895E-02 
1647	 1.81939587724273E-02 
1648	 1.80237856279048E-02 
1649	 1.82549027146764E-02 
1650	 1.85118649865759E-02 
1651	 1.85890013330859E-02 
1652	 1.91925505004768E-02 
1653	 1.89403987174061E-02 
1654	 1.88865752065131E-02 
1655	 1.93415986968276E-02 
1656	 1.94644940202807E-02 
1657	 1.93290284126972E-02 
1658	 1.97535065122457E-02 
1659	 2.04700680919076E-02 
1660	 2.07122525507202E-02 
1661	 2.08937918055922E-02 
1662	 2.10922155450013E-02 
1663	 0.021200775048613 
1664	 0.020990151175791 
1665	 2.04867153034186E-02 
1666	 2.04151197758971E-02 
1667	 2.01175634056863E-02 
1668	 0.020676228866965 
1669	 2.14045046597589E-02 
1670	 2.12799441270682E-02 
1671	 2.03182179724607E-02 
1672	 1.99032682086258E-02 
1673	 2.06047034861176E-02 
1674	 2.03067481694916E-02 
1675	 1.97729248945584E-02 
1676	 2.05296149688638E-02 
1677	 2.03004089270502E-02 
1678	 1.94474079733542E-02 
1679	 2.00625593336789E-02 
1680	 0.019945571139057 
1681	 1.90442705454171E-02 
1682	 1.97589325631788E-02 
1683	 2.03556071458127E-02 
1684	 0.020063012277536 
1685	 1.97139442188295E-02 
1686	 1.93683271339539E-02 
1687	 1.94897343974291E-02 
1688	 1.95431554754533E-02 
1689	 1.90227123054388E-02 
1690	 1.86330132777819E-02 
1691	 1.88670852790058E-02 
1692	 1.90342230814237E-02 
1693	 1.89883691544688E-02 
1694	 1.90273892886009E-02 
1695	 1.91755615579743E-02 
1696	 1.95671016499915E-02 
1697	 1.97407125842361E-02 
1698	 0.019242494581272 
1699	 0.018266434318961 
1700	 1.76601325824727E-02 
1701	 1.86346472539954E-02 
1702	 2.04918070807486E-02 
1703	 2.05631665778895E-02 
1704	 1.96269941087045E-02 
1705	 1.93467245141212E-02 
1706	 1.87859782779078E-02 
1707	 1.86517757411887E-02 
1708	 1.93131766268284E-02 
1709	 1.94903789497596E-02 
1710	 1.91030297224607E-02 
1711	 1.97620424096672E-02 
1712	 2.06159986100911E-02 
1713	 1.96581414515007E-02 
1714	 1.91194308145943E-02 
1715	 1.81997779500872E-02 
1716	 1.92428035674624E-02 
1717	 1.94701351769159E-02 
1718	 1.90116410837843E-02 
1719	 1.95078264317045E-02 
1720	 0.019544741268504 
1721	 1.95470559503459E-02 
1722	 1.98822624498016E-02 
1723	 1.97327670022648E-02 
1724	 1.94359184232632E-02 
1725	 1.89796699379829E-02 
1726	 1.92857618000066E-02 
1727	 2.03433670087677E-02 
1728	 2.02568256200348E-02 
1729	 1.99178356602219E-02 
1730	 1.98925402067979E-02 
1731	 1.91122761046976E-02 
1732	 1.88536108611921E-02 
1733	 0.019170826198403 
1734	 1.92291235726735E-02 
1735	 1.97432090951833E-02 
1736	 1.99998662224622E-02 
1737	 0.019467476839995 
1738	 1.98737377999866E-02 
1739	 2.08771173319081E-02 
1740	 2.07767216417116E-02 
1741	 2.08377130250024E-02 
1742	 2.02135462404898E-02 
1743	 1.84789074804614E-02 
1744	 1.84204645901577E-02 
1745	 1.92477033159637E-02 
1746	 2.04938502235148E-02 
1747	 2.08542712165042E-02 
1748	 2.00538883716639E-02 
1749	 1.96361344066468E-02 
1750	 1.91875067777372E-02 
1751	 1.92598334912619E-02 
1752	 1.99231472399769E-02 
1753	 1.97583389335321E-02 
1754	 1.92525045546903E-02 
1755	 1.92957439757147E-02 
1756	 1.90087122828639E-02 
1757	 1.96146357864396E-02 
1758	 1.95332348204459E-02 
1759	 0.018706479422006 
1760	 1.91751202828598E-02 
1761	 2.02728725652027E-02 
1762	 2.13768075798936E-02 
1763	 2.14002185908261E-02 
1764	 2.07287377117384E-02 
1765	 1.99880252129149E-02 
1766	 1.86948718930035E-02 
1767	 1.87614926713715E-02 
1768	 1.97414290398841E-02 
1769	 1.89709265945623E-02 
1770	 1.94819999259448E-02 
1771	 2.05454326868968E-02 
1772	 1.88499412126558E-02 
1773	 1.82860476447335E-02 
1774	 1.79435771720018E-02 
1775	 0.019001894916377 
1776	 1.93256128839583E-02 
1777	 2.03693494816816E-02 
1778	 0.02097450878251 
1779	 1.93028207229622E-02 
1780	 0.018569034364387 
1781	 1.91034793411047E-02 
1782	 2.02537076109092E-02 
1783	 2.22758840546688E-02 
1784	 2.25014126675616E-02 
1785	 0.021746434753776 
1786	 2.22658591466224E-02 
1787	 2.25642325586627E-02 
1788	 2.28886384037795E-02 
1789	 2.57218562315669E-02 
1790	 2.51661156936468E-02 
1791	 1.87616271836548E-02 
1792	 2.12154125562526E-02 
1793	 2.92583126818653E-02 
1794	 2.94330354724155E-02 
1795	 3.82444553277096E-02 
1796	 3.76704090015859E-02 
1797	 2.70424115925059E-02 
1798	 3.23066544448486E-02 
1799	 2.37333735502574E-02 
1800	 5.65257736452594E-03 
1801	 2.56768819367498E-03 
1802	 1.57239930772843E-02 
1803	 2.41868479277794E-02 
1804	 7.14966471175823E-02 
1805	 0.079711920181115 
1806	 4.79330073001689E-03 
1807	-1.52674494540425E-02 
1808	-4.27121298468378E-02 
1809	-6.88757164794777E-02 
1810	 0.029882287069991 
1811	 3.67125204253783E-02 
1812	-6.41458454016674E-02 
1813	-6.43881703431717E-02 
1814	-0.059411973417287 
1815	-1.27973315470865E-02 
1816	 0.211409330101726 
1817	 0.321114893427835 
1818	 0.525428152691616 
1819	 0.82308169467899 
1820	 0.689592264721293 
1821	 0.441268214212744 
1822	 0.311990593588764 
1823	-5.20193325032974E-02 
1824	-0.132224676564138 
1825	-4.92442462187234E-02 
1826	-3.98744117572908E-02 
1827	 0.338592521931568 
1828	 0.493223407732108 
1829	 0.115788603348696 
1830	-0.509523785195724 
1831	 1.33090129377041 
1832	 0.958222776787216 
1833	 1.43175747022323 
1834	 1.64910218435526 
1835	 13.6092850519171 
1836	 13.3483319471436 
1837	 1.88430332072295 
1838	 1.50439804367451 
1839	 1.64577123996105 
1840	 0.392954154052747 
1841	-0.207710512918197 
1842	-1.141386850001 
1843	-1.76935278827675 
1844	-1.40363071667789 
1845	-1.15221040540504 
1846	-0.62066826203174 
1847	-0.38455685110345 
1848	-0.152134969544156 
1849	-0.136361940144416 
1850	-0.265570353739232 
1851	-1.66921826555983 
1852	-0.696567790593701 
1853	 0.330816242630606 
1854	 1.12037465538327 
1855	 0.942986335975992 
1856	 1.11348054679904 
1857	 5.22146417674283 
1858	-6.85936809504713 
1859	-1.42946620790884 
1860	-2.07957258014229 
1861	-4.24718100479175 
1862	-34.3818371085774 
1863	 3.4059863401288 
1864	 1.33894117472748 
1865	 0.948933188040173 
1866	 2.47744048994308 
1867	 2.71969494116162 
1868	 1.03086532039375 
1869	 1.01119167010095 
1870	 1.78888889963409 
1871	 1.29483617536927 
1872	 0.244667303263025 
1873	-8.84681155195924E-02 
1874	-0.126373584758999 
1875	-0.522336509731693 
1876	-0.653823127650181 
1877	 0.940799633244336 
1878	-0.422094787774176 
1879	 4.0258439498575 
1880	 5.79362384127561 
1881	-2.20807482547624 
1882	-1.69364130975715 
1883	-1.95189686851712 
1884	-3.87642416880597 
1885	-10.151240820881 
1886	 3.35451274325516 
1887	 1.37682697243365 
1888	 2.34123069064427 
1889	 3.30090533039048 
1890	-1.68296568289824 
1891	-4.66549583925345 
1892	 0.183916213073778 
1893	-0.123814426776072 
1894	 1.66705054918058 
1895	 3.64930789089489 
1896	 1.33596422550474 
1897	 0.335717792596024 
1898	 0.395119320439476 
1899	 0.279385626371967 
1900	 2.78318382215733E-02 
1901	-0.398590286549109 
1902	-0.360679133998891 
1903	-0.144978159916208 
1904	 5.06938245129504E-02 
1905	 0.161573341642623 
1906	 0.384310179644348 
1907	-2.69237619339187 
1908	 0.731077952339837 
1909	 0.981830160715224 
1910	-0.612735451929225 
1911	-0.790602231733157 
1912	 28.3122313397763 
1913	-15.1031869039011 
1914	-2.47094542890148 
1915	-2.66526339990995 
1916	-3.13593339855123 
1917	-0.59587815907531 
1918	-0.650575884982429 
1919	-1.23601056286805 
1920	-1.35725685649826 
1921	 1.33567347254125 
1922	 0.230141555111812 
1923	 0.313951046128675 
1924	 0.245273765813164 
1925	 0.480684962696412 
1926	 0.65542631112249 
1927	 1.18560116303446 
1928	 0.976902183009855 
1929	 1.04189040420777 
1930	 0.760425428609363 
1931	 0.314623341776834 
1932	 2.07328644753125 
1933	-4.16447644942979E-02 
1934	 0.430606150912464 
1935	 0.364038470295627 
1936	 0.571755465338808 
1937	 0.54794536799125 
1938	 0.391715320131799 
1939	 0.270067086515283 
1940	 0.109144787927747 
1941	 1.56135605251093E-02 
1942	 5.86994369396703E-02 
1943	 8.76432397295191E-02 
1944	 0.136892030490596 
1945	 0.181026950369722 
1946	 0.146499651126969 
1947	 0.15738930729206 
1948	 0.133950992455166 
1949	 8.96909226718748E-02 
1950	 0.079436676928388 
1951	 2.61406721371086E-02 
1952	-4.32698527226706E-03 
1953	-4.77207947691748E-02 
1954	-7.68464873373057E-02 
1955	-4.70975045940389E-02 
1956	 4.75480092967448E-02 
1957	 0.100730256652065 
1958	 0.12750391061917 
1959	 0.111179104911092 
1960	 4.74269641840234E-02 
1961	 1.14833806827713E-02 
1962	-7.84847732372536E-03 
1963	-1.02813548175273E-02 
1964	 1.33773877554726E-02 
1965	 2.37453466845781E-02 
1966	 2.89754249660102E-02 
1967	 3.44629309250842E-02 
1968	 3.79095258900029E-02 
1969	 0.030835879007958 
1970	 3.34768021997205E-02 
1971	 3.55429007544576E-02 
1972	 2.98673304198327E-02 
1973	 2.89224673916859E-02 
1974	 2.73116000079246E-02 
1975	 0.026095639716941 
1976	 2.46019213587575E-02 
1977	 2.10873755853782E-02 
1978	 2.06291777321806E-02 
1979	 1.98889849289594E-02 
1980	 1.86033975375369E-02 
1981	 1.89415752439559E-02 
1982	 1.87948449331315E-02 
1983	 1.92385746331436E-02 
1984	 1.82968871700547E-02 
1985	 1.43606385052455E-02 
1986	 1.52425204470299E-02 
1987	 1.29926798441542E-02 
1988	 0.010953719454524 
1989	 1.61939818435203E-02 
1990	 1.74823476479909E-02 
1991	 1.56525879070042E-02 
1992	 1.83408861249928E-02 
1993	 2.02223225871789E-02 
1994	 0.020568613048002 
1995	 2.01314099329346E-02 
1996	 2.66241862968492E-02 
1997	 3.14763562369356E-02 
1998	 3.17773865507558E-02 
1999	 3.82132555661823E-02 
2000	 3.98628293356961E-02 
2001	 3.43704500058646E-02 
2002	 3.44915727390825E-02 
2003	 3.50397235260301E-02 
2004	 3.62648204005017E-02 
2005	 4.00237764071266E-02 
2006	 4.41148027793974E-02 
2007	 5.02013714508974E-02 
2008	 4.99242620460538E-02 
2009	 4.76258508485139E-02 
2010	 3.83339798647889E-02 
2011	 3.47221517260415E-02 
2012	 0.027795086778917 
2013	 0.03039748276335 
2014	 0.039323113701462 
2015	 3.88753123005297E-02 
2016	 3.31802591821473E-02 
2017	 3.27845431663724E-02 
2018	 0.033006593115416 
2019	 2.88585401497465E-02 
2020	 2.48711856823695E-02 
2021	 2.19619710236254E-02 
2022	 1.75272942717854E-02 
2023	 1.26833992697161E-02 
2024	 1.36858241452086E-02 
2025	 2.19802810887242E-02 
2026	 2.45571984310823E-02 
2027	 2.71722855029696E-02 
2028	 0.027236526991346 
2029	 2.65787243573203E-02 
2030	 2.41802930131623E-02 
2031	 2.31920442714333E-02 
2032	 0.025703728285682 
2033	 2.71871683136521E-02 
2034	 2.60890125661155E-02 
2035	 0.025849836194238 
2036	 2.54203574344415E-02 
2037	 2.40757322079825E-02 
2038	 2.36430968165485E-02 
2039	 2.29875585880554E-02 
2040	 2.11250860779131E-02 
2041	 1.97942135588126E-02 
2042	 1.91176238363192E-02 
2043	 1.83295326917728E-02 
2044	 1.64460669254066E-02 
2045	 1.68072849286436E-02 
2046	 1.73519870482287E-02 
2047	 1.80314597423443E-02 
2048	 1.89575056514141E-02 
2049	 1.93178525643596E-02 
2050	 2.10900687381104E-02 
2051	 2.15312286107556E-02 
2052	 0.019370977087796 
2053	 1.77319409713625E-02 
2054	 1.89455869457883E-02 
2055	 2.13285079253619E-02 
2056	 2.20868869528718E-02 
2057	 2.43751266570088E-02 
2058	 0.025230180948 
2059	 2.35618039115856E-02 
2060	 2.39179258199247E-02 
2061	 2.68463388349702E-02 
2062	 2.55676940505353E-02 
2063	 2.46359789143247E-02 
2064	 2.27477707799044E-02 
2065	 1.84815066494141E-02 
2066	 1.94461583237147E-02 
2067	 2.25136752559293E-02 
2068	 2.23375933237472E-02 
2069	 2.15842690270814E-02 
2070	 2.28933558545704E-02 
2071	 2.17198407917228E-02 
2072	 1.84882091226304E-02 
2073	 0.01818961303158 
2074	 1.91541279117373E-02 
2075	 1.94474807740204E-02 
2076	 0.021793859238083 
2077	 2.19467841454815E-02 
2078	 1.96998174895067E-02 
2079	 1.94989949644358E-02 
2080	 2.01892180224844E-02 
2081	 1.97833011000717E-02 
2082	 1.85150966659637E-02 
2083	 1.69436614342816E-02 
2084	 1.60715588301855E-02 
2085	 1.82820132858081E-02 
2086	 2.04146916949425E-02 
2087	 2.09600272811033E-02 
2088	 2.18538625398865E-02 
2089	 2.10905012399961E-02 
2090	 1.80065584961238E-02 
2091	 1.73573482589353E-02 
2092	 1.69941398932585E-02 
2093	 1.36562626523258E-02 
2094	 1.49762286977369E-02 
2095	 2.34647192160657E-02 
2096	 2.44283379084764E-02 
2097	 0.023188748721541 
2098	 2.22213562690776E-02 
2099	 1.75002819114431E-02 
2100	 1.33089769004335E-02 
2101	 1.40859909668626E-02 
2102	 1.73104982906368E-02 
2103	 1.82932442006466E-02 
2104	 1.89800405607001E-02 
2105	 2.06771503712144E-02 
2106	 2.03363042675937E-02 
2107	 2.17794201679751E-02 
2108	 2.44394078333115E-02 
2109	 2.49084312559655E-02 
2110	 2.62178041895226E-02 
2111	 0.027185822324612 
2112	 2.65324619357323E-02 
2113	 2.55427560781509E-02 
2114	 2.27241240331918E-02 
2115	 2.15751264671299E-02 
2116	 2.17261090715028E-02 
2117	 2.05828065558387E-02 
2118	 1.83995366283126E-02 
2119	 1.82592735841041E-02 
2120	 1.91276683164447E-02 
2121	 1.76658506401269E-02 
2122	 1.73198951620942E-02 
2123	 1.91393749907455E-02 
2124	 1.90687189584497E-02 
2125	 1.80867881718025E-02 
2126	 1.87351088730995E-02 
2127	 1.99250730421705E-02 
2128	 1.95289696892332E-02 
2129	 2.03754388798265E-02 
2130	 2.25758982625599E-02 
2131	 2.25631653873051E-02 
2132	 2.14273521332247E-02 
2133	 2.14685879529746E-02 
2134	 2.12854282086227E-02 
2135	 1.94830857329105E-02 
2136	 1.96050279292132E-02 
2137	 2.18800450831819E-02 
2138	 2.28060766405622E-02 
2139	 2.37559154493878E-02 
2140	 2.41683051424375E-02 
2141	 0.024054820150909 
2142	 2.34157245545262E-02 
2143	 2.13590060619238E-02 
2144	 2.10785308448428E-02 
2145	 2.17829430270791E-02 
2146	 2.29452915208907E-02 
2147	 2.26581128863771E-02 
2148	 0.022431204178125 
2149	 0.022356289269339 
2150	 2.32450674081259E-02 
2151	 2.50815916895759E-02 
2152	 2.66426547052917E-02 
2153	 2.66472208768746E-02 
2154	 2.38679322926067E-02 
2155	 2.34531470007902E-02 
2156	 2.43066896476375E-02 
2157	 2.38821870314511E-02 
2158	 2.44707650958238E-02 
2159	 2.39746183489268E-02 
2160	 2.08515771047602E-02 
2161	 2.02180355624501E-02 
2162	 2.17942958628928E-02 
2163	 2.06741784071414E-02 
2164	 0.018147123577585 
2165	 1.82802823165413E-02 
2166	 1.77544468153712E-02 
2167	 1.83522877541745E-02 
2168	 2.34394224773893E-02 
2169	 2.39387897351943E-02 
2170	 2.05251459193544E-02 
2171	 2.04840487472668E-02 
2172	 2.06440174722117E-02 
2173	 2.24245478789686E-02 
2174	 2.55267251736814E-02 
2175	 0.024936355514624 
2176	 2.34363273984777E-02 
2177	 2.05078746995551E-02 
2178	 0.018324295264835 
2179	 1.91946524291753E-02 
2180	 2.04512909067573E-02 
2181	 2.05550168457166E-02 
2182	 1.94865963800949E-02 
2183	 1.93328621506563E-02 
2184	 1.99494395292417E-02 
2185	 0.021587937780285 
2186	 2.18185222148269E-02 
2187	 2.28947903396534E-02 
2188	 0.022766410163748 
2189	 1.92895471461185E-02 
2190	 1.85966574306572E-02 
2191	 2.02061189318264E-02 
2192	 2.10905838532284E-02 
2193	 2.26403363519211E-02 
2194	 2.37262111606516E-02 
2195	 2.51796395078372E-02 
2196	 2.48915993208545E-02 
2197	 2.32083336084863E-02 
2198	 2.17811772748345E-02 
2199	 1.90200412519297E-02 
2200	 1.71948967227802E-02 
2201	 0.015651432338899 
2202	 0.013448878377172 
2203	 1.30085639020355E-02 
2204	 1.28994447456469E-02 
2205	 0.014221294291542 
2206	 1.58964163370024E-02 
2207	 1.50761181778276E-02 
2208	 1.69063543945294E-02 
2209	 1.82322573685647E-02 
2210	 1.83469065307581E-02 
2211	 2.03637901596492E-02 
2212	 2.05317020474136E-02 
2213	 1.72772942564065E-02 
2214	 0.017104655394198 
2215	 2.06693357145538E-02 
2216	 1.84294429096208E-02 
2217	 1.84433321753915E-02 
2218	 2.07337881550916E-02 
2219	 2.15387312224357E-02 
2220	 2.17493412569179E-02 
2221	 2.25050441985662E-02 
2222	 2.29651671714781E-02 
2223	 2.30667437108199E-02 
2224	 2.20029500130885E-02 
2225	 2.15291855082408E-02 
2226	 2.18715818300998E-02 
2227	 2.23596993126288E-02 
2228	 2.41467419064363E-02 
2229	 0.023544993102812 
2230	 2.03951786960547E-02 
2231	 1.91709756147264E-02 
2232	 1.68798400680367E-02 
2233	 1.60114888117205E-02 
2234	 0.017007975025472 
2235	 1.99021899055951E-02 
2236	 2.05374548277963E-02 
2237	 2.05352206223279E-02 
2238	 1.85722632317015E-02 
2239	 1.80147439600749E-02 
2240	 1.66939718256142E-02 
2241	 0.013554518111704 
2242	 1.44823548278719E-02 
2243	 1.41160424888803E-02 
2244	 1.34468423958059E-02 
2245	 1.70227173737292E-02 
2246	 1.83532530699477E-02 
2247	 2.03342117949705E-02 
2248	 2.34943317206118E-02 
2249	 2.29141853328504E-02 
2250	 2.25724026152199E-02 
2251	 2.13990382730994E-02 
2252	 1.88966802923498E-02 
2253	 0.016793939608151 
2254	 1.50691249928928E-02 
2255	 1.15380726016101E-02 
2256	 9.14416562058141E-03 
2257	 1.15088829523556E-02 
2258	 0.013678228071836 
2259	 1.69254222398989E-02 
2260	 2.04756900890856E-02 
2261	 2.59341912325495E-02 
2262	 2.66551670471899E-02 
2263	 2.52766408490498E-02 
2264	 2.57162156318509E-02 
2265	 2.39680733327869E-02 
2266	 2.18060210350637E-02 
2267	 0.020584274923183 
2268	 0.019520764782834 
2269	 1.49244420099674E-02 
2270	 1.58154043260424E-02 
2271	 2.36853956254389E-02 
2272	 2.46831121588091E-02 
2273	 2.46484804007707E-02 
2274	 0.023859129467493 
2275	 1.70828659310204E-02 
2276	 1.51407734839995E-02 
2277	 1.60420384696503E-02 
2278	 1.52363790369937E-02 
2279	 1.69244459754607E-02 
2280	 1.72875817992752E-02 
2281	 1.48615806149398E-02 
2282	 1.55002073821683E-02 
2283	 2.18944850797853E-02 
2284	 0.019982241744053 
2285	 2.01929367304813E-02 
2286	 2.21336586010788E-02 
2287	 1.54747518581618E-02 
2288	 0.01185429238053 
2289	 1.51160295443558E-02 
2290	 1.69374124388581E-02 
2291	 1.70507174744124E-02 
2292	 2.04164941807207E-02 
2293	 2.31266019632643E-02 
2294	 2.59622425643334E-02 
2295	 3.13726013682483E-02 
2296	 3.10835191441795E-02 
2297	 2.70139912417958E-02 
2298	 2.02736737496348E-02 
2299	 1.34196228299997E-02 
2300	 1.77572545360948E-02 
2301	 2.58954854822912E-02 
2302	 2.68519608374483E-02 
2303	 2.54067802190296E-02 
2304	 2.04086177971473E-02 
2305	 9.93322380904057E-03 
2306	 5.0363823052902E-03 
2307	 0.012354263968368 
2308	 2.14349395230365E-02 
2309	 2.49410000616076E-02 
2310	 2.68587160382368E-02 
2311	 2.70336210185216E-02 
2312	 2.38218483591815E-02 
2313	 0.023459417842597 
2314	 1.99668527817135E-02 
2315	 1.42492043643574E-02 
2316	 1.74200013982015E-02 
2317	 0.023346804941285 
2318	 2.64998476299396E-02 
2319	 2.76373674139529E-02 
2320	 3.32682983566553E-02 
2321	 3.12334202964939E-02 
2322	 2.63550883163552E-02 
2323	 0.037025584949276 
2324	 3.09264012017157E-02 
2325	 1.77571018090459E-02 
2326	 1.85175694188904E-02 
2327	 4.85022396293048E-03 
2328	 2.30240044810791E-03 
2329	 1.80107845234629E-02 
2330	 2.68949948914878E-02 
2331	 3.58980853072497E-02 
2332	 3.67121630156311E-02 
2333	 2.35900086389754E-02 
2334	 1.06728996993192E-02 
2335	 8.83891636001141E-03 
2336	 3.97974361544535E-03 
2337	-9.33208475296147E-03 
2338	-1.03351638310816E-02 
2339	 1.28585247352431E-03 
2340	 6.42180083301109E-03 
2341	 1.36985739684006E-03 
2342	 5.1118044756746E-05 
2343	-1.02067577452059E-02 
2344	-2.89345676679248E-02 
2345	-2.63843594424087E-02 
2346	-1.91283106817937E-02 
2347	-1.28534797522455E-02 
2348	 3.31130831563655E-03 
2349	 2.17735559197708E-02 
2350	 3.84954623247463E-02 
2351	 3.85302079047611E-02 
2352	 3.53174353439651E-02 
2353	 3.97651526358726E-02 
2354	 3.22165841325349E-02 
2355	 1.07231157991832E-02 
2356	 7.66794923515116E-03 
2357	 2.40605692789157E-03 
2358	-7.23894883129624E-04 
2359	 3.06016947169371E-02 
2360	 3.44025446561005E-02 
2361	 2.64566705869624E-02 
2362	 3.29749430475516E-02 
2363	 3.99139199778956E-02 
2364	 7.15223543771958E-02 
2365	 8.78826206199708E-02 
2366	 9.91096346869584E-02 
2367	 0.101599440636037 
2368	 5.48003643891199E-02 
2369	 3.19631523729105E-02 
2370	 2.32180588849731E-02 
2371	-1.08978393877077E-02 
2372	-8.97354621810296E-03 
2373	 1.97465165102761E-02 
2374	 1.83244056611009E-02 
2375	 7.28393253494609E-03 
2376	 1.15423933272015E-02 
2377	 2.39103230310496E-02 
2378	 3.66064909612375E-02 
2379	 4.05501091977577E-02 
2380	 1.76981328480431E-02 
2381	-1.77726637915954E-02 
2382	-3.93319363929616E-02 
2383	-2.68773584300464E-03 
2384	 8.22913082795493E-02 
2385	 0.090300631186554 
2386	 5.66761086025104E-02 
2387	 1.45574718945993E-02 
2388	-3.38300728832776E-02 
2389	-3.63488159966652E-02 
2390	 6.62472048312464E-03 
2391	-3.26234889535991E-03 
2392	-7.06137259302888E-02 
2393	-2.99212862562403E-02 
2394	 4.09539493290131E-02 
2395	 4.97489627993882E-02 
2396	 8.38134241059525E-02 
2397	 6.47729652611722E-02 
2398	-2.51311943714067E-02 
2399	-0.040467139966937 
2400	-5.49726870254487E-03 
2401	-4.19632042524212E-03 
2402	 1.65669194151484E-03 
2403	-6.00044105503829E-03 
2404	 2.48040529042463E-02 
2405	 4.32918923437863E-02 
2406	 2.78176959314169E-02 
2407	 3.35363382325848E-02 
2408	 2.08889539395095E-02 
2409	 0.100842450945424 
2410	 0.172232764000023 
2411	 0.083748973942984 
2412	 0.126133375366873 
2413	 0.108793178403564 
2414	 0.078154292902361 
2415	 0.227883570872471 
2416	 0.300674396930373 
2417	 0.240888116528689 
2418	 0.110174636049745 
2419	-6.03976810919913E-02 
2420	-0.096368350204453 
2421	-4.38709616465519E-02 
2422	-1.89741329877061E-03 
2423	 0.112299617146798 
2424	 0.113614180375506 
2425	 0.100025974005994 
2426	 0.203473208462349 
2427	 0.133349570085956 
2428	 6.49321993207999E-02 
2429	-5.73132808098768E-02 
2430	-0.28366486295918 
2431	-0.106308858485693 
2432	 3.33530181905459E-02 
2433	 9.54209905676851E-02 
2434	 0.131419806177033 
2435	-0.039573146934273 
2436	-7.08429501360123E-02 
2437	 5.81621828450212E-02 
2438	 0.228593777242008 
2439	 0.44105411268208 
2440	 0.657323469938135 
2441	 0.623665984498805 
2442	 0.64807995332212 
2443	 0.694510350161568 
2444	 0.314133243080651 
2445	 0.221534044108992 
2446	 0.286907715028032 
2447	 0.526846906316952 
2448	 0.699419040399138 
2449	 0.21892564571028 
2450	 8.87813972496147E-02 
2451	 0.535566528264623 
2452	-1.8897814395815 
2453	-8.08367416176007E-02 
2454	-1.82194623349214 
2455	-0.703623215152252 
2456	-0.615929645248808 
2457	-0.598677024177556 
2458	-0.555882619987568 
2459	-0.205031436119369 
2460	-0.145470600794866 
2461	 8.32835487245687E-02 
2462	 0.430609624219685 
2463	 0.237928291640522 
2464	 0.352587422667438 
2465	 0.368112686513787 
2466	 1.75499628130033E-02 
2467	 1.93397322329786 
2468	 1.89326373524543 
2469	 1.36211919461471 
2470	 1.55850971972422 
2471	 0.832613427189278 
2472	 5.60426713106651E-02 
2473	 1.79160066262494 
2474	-6.13481234322147 
2475	-5.47061848019607 
2476	-2.04229195574632 
2477	 3.13959109974725 
2478	-0.559770765055878 
2479	-3.13729281790245 
2480	-2.69093537360101 
2481	-0.993101490749871 
2482	-0.618581575372307 
2483	-0.901886979287059 
2484	-2.232925313823 
2485	 12.4934357970783 
2486	 4.28300283111699 
2487	-3.61092304105419 
2488	-0.36223982917906 
2489	 3.07657593073312 
2490	-4.63669737323922 
2491	-0.801214504360544 
2492	-0.075022204495248 
2493	-0.072071785278093 
2494	 2.6046352184282 
2495	 1.03568528965414 
2496	-0.158400430181731 
2497	-5.29519551799537E-02 
2498	-0.359684263899951 
2499	 0.111442528710922 
2500	-3.88408666421968E-02 
