Wavelength	rt0726far00007.asd
350	 3.64917731582134E-02 
351	 3.71888267219381E-02 
352	 3.66146873172301E-02 
353	 3.64072967942383E-02 
354	 3.73821983366825E-02 
355	 3.73931798341407E-02 
356	 3.67423870956314E-02 
357	 0.036537725434959 
358	 3.74159749659352E-02 
359	 3.68740609480461E-02 
360	 0.036565485368723 
361	 3.68600315298474E-02 
362	 3.70914571933504E-02 
363	 3.64153494126785E-02 
364	 3.61775811480037E-02 
365	 3.67415513081297E-02 
366	 3.66218945546818E-02 
367	 3.65918362368845E-02 
368	 3.65411339643046E-02 
369	 3.63184239375416E-02 
370	 0.036423605351296 
371	 3.62039861349498E-02 
372	 3.59123326494567E-02 
373	 3.61785296548116E-02 
374	 3.58940610913156E-02 
375	 3.58933986643447E-02 
376	 3.61989459141536E-02 
377	 3.55167413294579E-02 
378	 3.57334704987175E-02 
379	 3.62259338355584E-02 
380	 3.61601698342682E-02 
381	 3.59593831377944E-02 
382	 3.59964508421562E-02 
383	 3.61683825091516E-02 
384	 3.61585130759205E-02 
385	 3.60469782323889E-02 
386	 3.60517339260832E-02 
387	 3.62139680423748E-02 
388	 3.63624485515104E-02 
389	 3.61769437319377E-02 
390	 3.60386564266432E-02 
391	 3.61973807792231E-02 
392	 3.62697453648526E-02 
393	 3.62994706263117E-02 
394	 3.63006540629141E-02 
395	 3.63067616313516E-02 
396	 0.036483898269217 
397	 3.64788162745715E-02 
398	 3.63475909092958E-02 
399	 3.64848938136873E-02 
400	 3.66528899291067E-02 
401	 3.65017279560392E-02 
402	 3.61158756155507E-02 
403	 3.66013236739067E-02 
404	 3.68116801156183E-02 
405	 3.66096010944255E-02 
406	 3.63284701637753E-02 
407	 3.66247772346921E-02 
408	 3.67384080035176E-02 
409	 3.65467231186239E-02 
410	 3.66136826942445E-02 
411	 3.67996869957558E-02 
412	 3.69051668863614E-02 
413	 0.03685590349408 
414	 3.69082928031671E-02 
415	 3.68499551343733E-02 
416	 3.67904645511915E-02 
417	 0.036930510177549 
418	 3.72124685011262E-02 
419	 3.73190704322848E-02 
420	 3.72373151999705E-02 
421	 3.72888257917612E-02 
422	 3.75030190322246E-02 
423	 3.77371482020448E-02 
424	 3.78675176360134E-02 
425	 3.79446644420968E-02 
426	 3.79281517723432E-02 
427	 3.80079316505158E-02 
428	 3.83864508207559E-02 
429	 3.85695475065162E-02 
430	 3.86114503258948E-02 
431	 3.86511273566564E-02 
432	 3.88528737140961E-02 
433	 3.89155222626266E-02 
434	 3.90634628041275E-02 
435	 3.94291021520797E-02 
436	 3.95302590477574E-02 
437	 3.96585463387946E-02 
438	 3.98143839980272E-02 
439	 3.98855146269682E-02 
440	 4.02814902848084E-02 
441	 4.05481010736658E-02 
442	 4.05706816825354E-02 
443	 4.08639129630971E-02 
444	 4.10479771625708E-02 
445	 4.12177120977699E-02 
446	 4.15020612410317E-02 
447	 4.16601687325716E-02 
448	 0.041805327960978 
449	 4.19896792397533E-02 
450	 4.22035092140375E-02 
451	 4.23114350426036E-02 
452	 4.23992744177808E-02 
453	 4.25508839840682E-02 
454	 4.27933195738039E-02 
455	 4.28726336301994E-02 
456	 0.04293347748093 
457	 4.31840093137296E-02 
458	 0.043327329870395 
459	 4.33930043272613E-02 
460	 4.34311654653406E-02 
461	 4.34951269961282E-02 
462	 4.36066505810867E-02 
463	 0.043743767895209 
464	 4.38908979760471E-02 
465	 0.044096009170993 
466	 4.41760485472897E-02 
467	 0.044239661885111 
468	 4.44935378830097E-02 
469	 4.46880279348903E-02 
470	 0.044830015560146 
471	 4.49818136596956E-02 
472	 4.52443250375372E-02 
473	 4.54938871996115E-02 
474	 4.56337340884284E-02 
475	 0.04564351438124 
476	 4.57023481635403E-02 
477	 4.59211599206844E-02 
478	 4.61849017285608E-02 
479	 0.046258821421409 
480	 4.64262834637284E-02 
481	 4.66275054141257E-02 
482	 4.68112466257952E-02 
483	 4.70400188449535E-02 
484	 4.72448310944298E-02 
485	 0.047436536432172 
486	 4.76471270124681E-02 
487	 4.78338241912858E-02 
488	 0.048117269353522 
489	 4.84552138819126E-02 
490	 4.86554522087674E-02 
491	 0.048824099869995 
492	 4.90852336205301E-02 
493	 4.94510478136461E-02 
494	 4.96084927895797E-02 
495	 4.99369232993152E-02 
496	 5.03537618621475E-02 
497	 5.05834564431756E-02 
498	 5.08596368145036E-02 
499	 5.12368608126929E-02 
500	 5.16704403659952E-02 
501	 5.19918806851724E-02 
502	 5.24656776818987E-02 
503	 5.29403665824973E-02 
504	 5.32464964474989E-02 
505	 5.36336952988378E-02 
506	 5.40585117401579E-02 
507	 5.44519797738103E-02 
508	 5.47502779925555E-02 
509	 5.52087826372044E-02 
510	 5.57030254839672E-02 
511	 5.61287492527727E-02 
512	 5.65828737995694E-02 
513	 0.057017071009047 
514	 5.74573728896062E-02 
515	 5.79582374870309E-02 
516	 5.85666086664567E-02 
517	 5.91131351974418E-02 
518	 5.95350996491304E-02 
519	 5.99260936966564E-02 
520	 6.03869599270882E-02 
521	 0.060910462861014 
522	 6.14644689436516E-02 
523	 6.20481174474545E-02 
524	 0.062521260401883 
525	 6.29773291714879E-02 
526	 6.36431286562399E-02 
527	 6.42046133035816E-02 
528	 6.46833280687421E-02 
529	 6.51559833336634E-02 
530	 6.57078697464143E-02 
531	 6.62952746019466E-02 
532	 6.68715846842653E-02 
533	 6.74109828203995E-02 
534	 6.80447674064785E-02 
535	 6.86725981060152E-02 
536	 6.92398474755656E-02 
537	 6.97580117591484E-02 
538	 7.04128409557926E-02 
539	 7.10870831825528E-02 
540	 7.16682796691529E-02 
541	 7.23151888725158E-02 
542	 7.30005992966551E-02 
543	 7.36700753449046E-02 
544	 7.42708090862594E-02 
545	 0.074934263038982 
546	 7.56028723646049E-02 
547	 7.62474578406102E-02 
548	 7.69521513359862E-02 
549	 7.75815366299676E-02 
550	 7.81752973880798E-02 
551	 7.88309918359738E-02 
552	 7.95756655763116E-02 
553	 0.080259953642996 
554	 8.08781121919531E-02 
555	 8.15884852073772E-02 
556	 0.082235660454732 
557	 8.28482887860551E-02 
558	 8.34765914573942E-02 
559	 8.41261055418395E-02 
560	 8.46861923016543E-02 
561	 8.51799418188431E-02 
562	 8.57166556381709E-02 
563	 8.63123450170901E-02 
564	 8.68366504223858E-02 
565	 8.72357293320046E-02 
566	 8.76358605724165E-02 
567	 8.80586586665318E-02 
568	 8.84353652682256E-02 
569	 0.088702056242047 
570	 8.90637065156576E-02 
571	 8.93639272932189E-02 
572	 8.95948119464154E-02 
573	 8.99233665904302E-02 
574	 9.01168543331359E-02 
575	 9.02812506920419E-02 
576	 9.05199656652218E-02 
577	 9.06783039055193E-02 
578	 9.07670664616291E-02 
579	 9.08498449804898E-02 
580	 9.09993836825827E-02 
581	 9.10142799287587E-02 
582	 9.10269599006124E-02 
583	 9.10793967405756E-02 
584	 9.09639903986916E-02 
585	 9.09090386886716E-02 
586	 9.08818354346452E-02 
587	 9.07746762859778E-02 
588	 9.06405572641647E-02 
589	 9.05124374006137E-02 
590	 9.04180804945487E-02 
591	 9.03644393834601E-02 
592	 9.02804842714267E-02 
593	 9.01633656015518E-02 
594	 8.99937132939421E-02 
595	 8.96294718170017E-02 
596	 8.93565228694842E-02 
597	 8.90591660180898E-02 
598	 8.84572526995201E-02 
599	 8.80525847109346E-02 
600	 8.77270973696567E-02 
601	 8.73877351291406E-02 
602	 8.71148273567137E-02 
603	 0.086954751467853 
604	 8.68459217898747E-02 
605	 0.086725712680566 
606	 8.67484540150768E-02 
607	 8.66483446672887E-02 
608	 8.64580996590741E-02 
609	 8.65204047915771E-02 
610	 8.64767590406449E-02 
611	 8.63779735883615E-02 
612	 8.62866454495333E-02 
613	 8.60102860610577E-02 
614	 8.59077594744735E-02 
615	 8.59084598007594E-02 
616	 8.57363601543884E-02 
617	 8.56877118681433E-02 
618	 8.55941602956595E-02 
619	 8.54206519851523E-02 
620	 8.54307972140614E-02 
621	 8.53858593372321E-02 
622	 8.53221245419832E-02 
623	 8.53213134100796E-02 
624	 8.52507645214418E-02 
625	 8.50834044420413E-02 
626	 8.48947548266048E-02 
627	 8.48447006765075E-02 
628	 8.48188898115166E-02 
629	 8.47875959572516E-02 
630	 8.47264046855087E-02 
631	 0.084563815989293 
632	 0.084532664613318 
633	 8.45308362592229E-02 
634	 8.43514980192407E-02 
635	 8.43400889061233E-02 
636	 8.44216563680698E-02 
637	 8.44798525008045E-02 
638	 8.43986420839543E-02 
639	 0.08439001309972 
640	 8.44288952249806E-02 
641	 8.44543285210182E-02 
642	 8.45844861410099E-02 
643	 8.46341403526928E-02 
644	 0.084573048403162 
645	 8.45031841355386E-02 
646	 8.44371692120711E-02 
647	 8.44509924404635E-02 
648	 8.45241382622814E-02 
649	 8.44180869263083E-02 
650	 0.084128731490691 
651	 8.37806426627074E-02 
652	 8.35097229171355E-02 
653	 8.30563126170286E-02 
654	 8.24755293022023E-02 
655	 8.17953424876536E-02 
656	 8.10744777815484E-02 
657	 8.03803257345704E-02 
658	 7.96261634636537E-02 
659	 7.87627569161707E-02 
660	 7.80574558599948E-02 
661	 7.72072520457213E-02 
662	 7.62886216727378E-02 
663	 7.56083228616438E-02 
664	 0.0750179821368 
665	 7.44274115243927E-02 
666	 7.37854244639623E-02 
667	 7.30944514612217E-02 
668	 7.26858947726194E-02 
669	 7.24175194302447E-02 
670	 0.072064595653918 
671	 7.18519879918559E-02 
672	 7.18804989021107E-02 
673	 7.20387231539792E-02 
674	 7.20518521048003E-02 
675	 7.22939142563913E-02 
676	 7.26414134088427E-02 
677	 7.29460739311641E-02 
678	 7.32060059158569E-02 
679	 7.37624805725337E-02 
680	 7.44165711615701E-02 
681	 0.074819568070113 
682	 7.55019255968322E-02 
683	 7.63121315026066E-02 
684	 7.70940372039222E-02 
685	 7.78328977869734E-02 
686	 7.88461942453408E-02 
687	 7.98704398669371E-02 
688	 8.05608679550757E-02 
689	 0.081226618338473 
690	 8.20015107413055E-02 
691	 8.27043523609726E-02 
692	 8.30267292333228E-02 
693	 8.35859248997895E-02 
694	 8.40274699314471E-02 
695	 8.41338276034114E-02 
696	 8.41364145590874E-02 
697	 8.40474814746517E-02 
698	 8.39385838757301E-02 
699	 0.083826202660183 
700	 8.33736691290874E-02 
701	 8.29781272914198E-02 
702	 8.26250523118249E-02 
703	 8.19699651702202E-02 
704	 8.14480697377412E-02 
705	 8.08440743521471E-02 
706	 8.00505865341425E-02 
707	 0.079385247324371 
708	 7.84675461209501E-02 
709	 7.73855549953819E-02 
710	 7.63469745671198E-02 
711	 7.51712441718043E-02 
712	 7.39209587004924E-02 
713	 7.26374139769316E-02 
714	 7.12976718376839E-02 
715	 7.00830997852153E-02 
716	 6.87161625952208E-02 
717	 6.70449573212757E-02 
718	 6.55798872020439E-02 
719	 6.37488736780965E-02 
720	 6.21146032180808E-02 
721	 6.09990988509723E-02 
722	 5.96710897949561E-02 
723	 5.80431002979852E-02 
724	 5.63932269815231E-02 
725	 5.49321612477696E-02 
726	 5.31958691698684E-02 
727	 5.12559343879745E-02 
728	 4.92556733749219E-02 
729	 4.70898950093815E-02 
730	 4.48429542991949E-02 
731	 0.042712257631767 
732	 4.08101410618747E-02 
733	 3.93481355084821E-02 
734	 3.81787607832264E-02 
735	 0.037173577649709 
736	 3.62183366808415E-02 
737	 3.55617110827447E-02 
738	 3.50886463262466E-02 
739	 3.46553513033571E-02 
740	 3.42579857147688E-02 
741	 3.40501436460368E-02 
742	 3.39895948263243E-02 
743	 0.033932195553024 
744	 0.033886273739551 
745	 3.38398966491191E-02 
746	 3.37935325684626E-02 
747	 3.37629217249258E-02 
748	 3.36896527114654E-02 
749	 3.37242063104583E-02 
750	 3.39134596313363E-02 
751	 0.033791444499973 
752	 3.37568880943263E-02 
753	 0.03382661234163 
754	 3.38157792240337E-02 
755	 3.37835639265232E-02 
756	 3.38097848948195E-02 
757	 0.033942842644659 
758	 3.42581625681951E-02 
759	 3.45717885625172E-02 
760	 3.46936511110236E-02 
761	 3.46267263785061E-02 
762	 3.49320877837819E-02 
763	 3.48075175828683E-02 
764	 3.45073677798047E-02 
765	 3.44832810443961E-02 
766	 3.45767322178833E-02 
767	 3.46480171001833E-02 
768	 3.47352155346313E-02 
769	 0.035016519384936 
770	 3.51751738992426E-02 
771	 3.52631504670923E-02 
772	 3.53990041296517E-02 
773	 3.56736651182228E-02 
774	 3.59040649122897E-02 
775	 3.60831644897915E-02 
776	 3.62773528376956E-02 
777	 3.64368879686683E-02 
778	 3.66948434624272E-02 
779	 0.037062823603839 
780	 3.74158947058321E-02 
781	 3.76318405291195E-02 
782	 3.78273857767382E-02 
783	 3.81405689779585E-02 
784	 3.86758559316525E-02 
785	 3.90030697668056E-02 
786	 3.92214343313906E-02 
787	 3.95846782884621E-02 
788	 4.00132078271699E-02 
789	 4.03391948353224E-02 
790	 4.06662817921116E-02 
791	 4.12569408704547E-02 
792	 4.14692302875359E-02 
793	 0.041792497211177 
794	 4.23780410608269E-02 
795	 0.042561400729173 
796	 4.28773926049494E-02 
797	 4.32981529367933E-02 
798	 4.36680446467651E-02 
799	 4.38986942179809E-02 
800	 4.41975249734973E-02 
801	 4.45675053147816E-02 
802	 4.48740094392801E-02 
803	 4.49340136260398E-02 
804	 4.50798490581477E-02 
805	 4.53471933703978E-02 
806	 0.045411882611397 
807	 4.53114761398285E-02 
808	 4.52284856288016E-02 
809	 4.52440866793869E-02 
810	 4.50801046024936E-02 
811	 4.49960536201493E-02 
812	 4.48389785274273E-02 
813	 4.43924647943937E-02 
814	 4.42236486436779E-02 
815	 4.39203890393487E-02 
816	 4.34034811302158E-02 
817	 4.29211904256125E-02 
818	 4.25011374139346E-02 
819	 4.20160089537654E-02 
820	 4.13575597157971E-02 
821	 4.04776998286736E-02 
822	 3.92884355037118E-02 
823	 3.80825269938112E-02 
824	 3.70429740636007E-02 
825	 0.035754225510294 
826	 3.44992349228942E-02 
827	 0.03315551920826 
828	 3.16071575455216E-02 
829	 3.01337748071969E-02 
830	 2.89567850446998E-02 
831	 2.79878419754327E-02 
832	 2.69838374948548E-02 
833	 2.61159021450807E-02 
834	 2.55924449896249E-02 
835	 2.53083635654276E-02 
836	 2.47931471683273E-02 
837	 2.46248646332691E-02 
838	 2.43996186031057E-02 
839	 2.38603766092131E-02 
840	 2.36642783358281E-02 
841	 2.34780489626269E-02 
842	 2.31918128139479E-02 
843	 2.28505692331179E-02 
844	 2.28172471096205E-02 
845	 2.28192029059167E-02 
846	 2.26513719097652E-02 
847	 2.22501156075732E-02 
848	 2.21741849421466E-02 
849	 2.19613701956214E-02 
850	 2.15688409238777E-02 
851	 2.15902697037541E-02 
852	 2.13730767826355E-02 
853	 2.11987290738437E-02 
854	 2.12256068045459E-02 
855	 2.09294973971338E-02 
856	 2.08411050735093E-02 
857	 2.08990562824175E-02 
858	 0.02087825064949 
859	 2.05846745005354E-02 
860	 2.04470109768701E-02 
861	 2.04013064649783E-02 
862	 2.01713194954226E-02 
863	 0.019923678994731 
864	 1.96977285945699E-02 
865	 1.95766940323145E-02 
866	 1.96417636238749E-02 
867	 1.95912998021921E-02 
868	 0.019419602321493 
869	 1.91877811512633E-02 
870	 0.018976330713516 
871	 1.88320099041222E-02 
872	 0.018697906960473 
873	 1.85442630717426E-02 
874	 0.01846925946235 
875	 1.82323066141698E-02 
876	 1.79718441366339E-02 
877	 1.78411025954388E-02 
878	 1.75742033205572E-02 
879	 1.74488204601471E-02 
880	 1.73089407280723E-02 
881	 1.69286201123709E-02 
882	 1.69342474289603E-02 
883	 1.67485927076694E-02 
884	 1.63550213001426E-02 
885	 1.61915293253821E-02 
886	 1.63190122482171E-02 
887	 1.62206428117943E-02 
888	 1.58601131730096E-02 
889	 1.57838355883669E-02 
890	 1.56421156162771E-02 
891	 1.56617164666542E-02 
892	 1.59216184659847E-02 
893	 1.60417387775973E-02 
894	 1.58854662213357E-02 
895	 1.56218084860967E-02 
896	 1.54014523852588E-02 
897	 1.48953979116829E-02 
898	 1.50939357953588E-02 
899	 1.53033829105301E-02 
900	 1.48052257809815E-02 
901	 1.50223755168115E-02 
902	 1.46093953207354E-02 
903	 1.40603849425307E-02 
904	 1.42318007864835E-02 
905	 1.40369437456578E-02 
906	 1.42769418052571E-02 
907	 0.014554967074722 
908	 1.38721733515017E-02 
909	 1.40550229706324E-02 
910	 1.43326363757532E-02 
911	 1.42062737838387E-02 
912	 1.37523337136381E-02 
913	 1.35071586650952E-02 
914	 1.38015351085178E-02 
915	 1.42561626004854E-02 
916	 1.38787147922136E-02 
917	 1.29905054438442E-02 
918	 1.19985939374357E-02 
919	 1.16783827141408E-02 
920	 1.31019389610498E-02 
921	 1.27103558165762E-02 
922	 1.20616267839157E-02 
923	 1.23948921685905E-02 
924	 0.012121553242913 
925	 1.19276724055303E-02 
926	 1.18878824682341E-02 
927	 1.19477825730041E-02 
928	 0.012185408339228 
929	 1.23654353424432E-02 
930	 1.34382055422892E-02 
931	 1.55131976965076E-02 
932	 8.92523141963519E-03 
933	 8.48190401805927E-03 
934	 1.35336248534102E-02 
935	 1.37490008689588E-02 
936	 9.54305663525455E-03 
937	 8.9986988564788E-03 
938	 0.012576656702474 
939	 1.65379074800986E-02 
940	 1.21949080352344E-02 
941	 1.09140554537942E-02 
942	 1.24292097470522E-02 
943	 1.10374859573011E-02 
944	 7.82938413713877E-03 
945	 9.47478992220001E-03 
946	 0.013460662192399 
947	 1.29415383427061E-02 
948	 1.14882466183592E-02 
949	 1.15179308339901E-02 
950	 1.16233482797551E-02 
951	 9.24751060195574E-03 
952	 9.70438493789433E-03 
953	 1.08968940121882E-02 
954	 1.02857516773804E-02 
955	 7.22548181131225E-03 
956	 1.14464425776486E-02 
957	 1.17962696030156E-02 
958	 8.36777630642299E-03 
959	 9.20940827573197E-03 
960	 1.19793913608869E-02 
961	 1.28672665932963E-02 
962	 0.011826969784934 
963	 1.13606619577016E-02 
964	 1.11599736015414E-02 
965	 1.12354361551979E-02 
966	 1.13442344062238E-02 
967	 1.11868513864448E-02 
968	 1.13945497118507E-02 
969	 1.15512073711602E-02 
970	 1.11339695192861E-02 
971	 9.95521458426223E-03 
972	 1.05477565862887E-02 
973	 1.22758027721757E-02 
974	 1.27925302717374E-02 
975	 9.66457445841564E-03 
976	 9.67888945274504E-03 
977	 1.03141781686741E-02 
978	 1.04401913475508E-02 
979	 1.09427914214127E-02 
980	 9.97656229312884E-03 
981	 9.83263754780396E-03 
982	 1.03964295771951E-02 
983	 9.69421158691419E-03 
984	 9.62709848192998E-03 
985	 9.69597080811962E-03 
986	 9.35852014379553E-03 
987	 8.54456013715573E-03 
988	 9.24798251978226E-03 
989	 9.61438995326141E-03 
990	 9.74927775518658E-03 
991	 1.08532972429003E-02 
992	 9.19688789568984E-03 
993	 7.99574993457529E-03 
994	 8.57881306578021E-03 
995	 1.00419670754098E-02 
996	 0.010224800056694 
997	 9.72163684507218E-03 
998	 9.60899315255064E-03 
999	 1.03833919753662E-02 
1000	 8.5792086673476E-03 
1001	 1.17003360608151E-02 
1002	 1.18748042075334E-02 
1003	 1.19701502668142E-02 
1004	 1.21821090945968E-02 
1005	 1.22160539980553E-02 
1006	 1.23427233300704E-02 
1007	 1.23182130845444E-02 
1008	 1.16228814636806E-02 
1009	 1.12962950322516E-02 
1010	 1.09067070022628E-02 
1011	 1.07221649729981E-02 
1012	 1.10648507269671E-02 
1013	 1.14509676683539E-02 
1014	 1.15922238938809E-02 
1015	 1.16412054182579E-02 
1016	 1.16710976657863E-02 
1017	 1.14694962371057E-02 
1018	 1.14846909880585E-02 
1019	 1.19431902869244E-02 
1020	 1.18583986118789E-02 
1021	 1.14733625721287E-02 
1022	 1.10729296441198E-02 
1023	 1.09364730530289E-02 
1024	 1.05893887551883E-02 
1025	 1.09531541851166E-02 
1026	 1.12431323574611E-02 
1027	 1.13160077400082E-02 
1028	 1.12189736030998E-02 
1029	 1.12181708812811E-02 
1030	 1.12239184725793E-02 
1031	 1.11482804775518E-02 
1032	 1.08643165322544E-02 
1033	 1.08477419823268E-02 
1034	 1.10377678702495E-02 
1035	 1.10029945598978E-02 
1036	 1.08222931397841E-02 
1037	 1.09499667995604E-02 
1038	 1.12252145057987E-02 
1039	 1.11650014518962E-02 
1040	 1.16902751849682E-02 
1041	 1.25252689348815E-02 
1042	 1.24642204686388E-02 
1043	 1.18384268579873E-02 
1044	 1.17281254754224E-02 
1045	 1.12275452632841E-02 
1046	 1.11294032120322E-02 
1047	 1.17723284895777E-02 
1048	 0.011715361204278 
1049	 1.13647408968436E-02 
1050	 1.10123983112828E-02 
1051	 9.96643166647273E-03 
1052	 0.009776305065225 
1053	 9.91446951017392E-03 
1054	 1.01863765842067E-02 
1055	 1.17350615669554E-02 
1056	 1.21947166193174E-02 
1057	 1.22209265240623E-02 
1058	 1.18117576609634E-02 
1059	 1.14362088108257E-02 
1060	 1.00760054916552E-02 
1061	 9.91001693623228E-03 
1062	 0.010505470331838 
1063	 1.05317253794083E-02 
1064	 1.07637036278152E-02 
1065	 1.08400404162277E-02 
1066	 0.010367620470569 
1067	 1.03890352183958E-02 
1068	 1.08825325941051E-02 
1069	 1.10924373049038E-02 
1070	 1.14449066840935E-02 
1071	 1.15689268923793E-02 
1072	 1.13584154519573E-02 
1073	 0.01130509296439 
1074	 1.11530527405941E-02 
1075	 1.07949914284596E-02 
1076	 1.07595335784994E-02 
1077	 1.08879014991965E-02 
1078	 1.08646926618248E-02 
1079	 1.08501086607712E-02 
1080	 1.10017718435584E-02 
1081	 1.14062333702461E-02 
1082	 1.13391016654033E-02 
1083	 0.010962166834557 
1084	 1.09793326713047E-02 
1085	 1.07966431582898E-02 
1086	 1.06974809599276E-02 
1087	 1.12781978977705E-02 
1088	 1.14731660278663E-02 
1089	 0.011001219667671 
1090	 1.09623400526097E-02 
1091	 1.11988867159638E-02 
1092	 1.16659188042202E-02 
1093	 1.17125550160613E-02 
1094	 1.21572319144653E-02 
1095	 1.20012614316509E-02 
1096	 1.08647472289796E-02 
1097	 1.07445917661597E-02 
1098	 1.10619456609202E-02 
1099	 1.09440216928219E-02 
1100	 1.12204273301144E-02 
1101	 1.12533378675046E-02 
1102	 0.010539576941717 
1103	 1.04233825411688E-02 
1104	 1.08729112496903E-02 
1105	 1.07218306991321E-02 
1106	 1.17835246939792E-02 
1107	 0.012446577459323 
1108	 1.19013864326544E-02 
1109	 1.26478803340387E-02 
1110	 1.27186012103316E-02 
1111	 1.13753035066343E-02 
1112	 0.011359522141438 
1113	 1.29218375032023E-02 
1114	 1.30311391631163E-02 
1115	 1.27839271616796E-02 
1116	 1.28967213579291E-02 
1117	 1.06541367660049E-02 
1118	 1.04436128442376E-02 
1119	 1.58038608920436E-02 
1120	 1.67632458480251E-02 
1121	 0.014349562620333 
1122	 1.25454839377813E-02 
1123	 1.59996747396948E-02 
1124	 1.39891809333283E-02 
1125	 1.45382815007364E-02 
1126	 2.00182607008977E-02 
1127	 1.24235767580957E-02 
1128	 3.72977333651108E-03 
1129	 5.12358066298879E-03 
1130	 1.50311549919447E-02 
1131	 1.56879585774239E-02 
1132	 1.62044445604357E-02 
1133	 1.60001951870903E-02 
1134	 1.10497649628712E-02 
1135	 1.06593840100578E-02 
1136	 1.49850463393552E-02 
1137	 1.61873938245051E-02 
1138	 1.73961151004029E-02 
1139	 1.50867788511609E-02 
1140	 1.42711348100745E-02 
1141	 1.38029371182057E-02 
1142	 1.27076217262493E-02 
1143	 1.35590156625469E-02 
1144	 1.37055731014644E-02 
1145	 1.34375227718902E-02 
1146	 1.43867791594769E-02 
1147	 0.013749905451357 
1148	 1.29839360282437E-02 
1149	 1.37423407415555E-02 
1150	 1.37010595296791E-02 
1151	 1.38114288082745E-02 
1152	 1.31382071050631E-02 
1153	 1.15953895326631E-02 
1154	 1.11344979731092E-02 
1155	 1.03589109694782E-02 
1156	 0.010922984812113 
1157	 1.25634176182515E-02 
1158	 1.29172618380971E-02 
1159	 1.19257389769493E-02 
1160	 1.17699273434657E-02 
1161	 1.10730523988542E-02 
1162	 1.02640193828952E-02 
1163	 1.14506625754537E-02 
1164	 0.01202086787645 
1165	 1.17625678259462E-02 
1166	 1.21750872407125E-02 
1167	 1.17370191958392E-02 
1168	 1.09682807233589E-02 
1169	 1.06325953836245E-02 
1170	 1.03172208029796E-02 
1171	 1.01629715200815E-02 
1172	 9.92288681348556E-03 
1173	 1.01140005593704E-02 
1174	 1.06127235694593E-02 
1175	 1.13989019367289E-02 
1176	 1.16020165995596E-02 
1177	 1.14850626889507E-02 
1178	 1.14514383048283E-02 
1179	 0.011032012204922 
1180	 1.07218129946052E-02 
1181	 1.10261958952409E-02 
1182	 1.10244388912478E-02 
1183	 1.11087439474963E-02 
1184	 1.13542334810068E-02 
1185	 1.10597414589456E-02 
1186	 1.07814421716935E-02 
1187	 1.05945704034351E-02 
1188	 1.04843725502979E-02 
1189	 1.08500163940021E-02 
1190	 0.011273490975026 
1191	 1.13454015309846E-02 
1192	 1.11892401229916E-02 
1193	 1.06142213683635E-02 
1194	 1.01582480263298E-02 
1195	 1.02714540591299E-02 
1196	 1.04840041874369E-02 
1197	 1.06598358094664E-02 
1198	 1.08898230834221E-02 
1199	 1.07868691514298E-02 
1200	 0.010596104304579 
1201	 1.06221481394047E-02 
1202	 1.05212947051269E-02 
1203	 1.03786376148546E-02 
1204	 0.010303659781266 
1205	 1.00497159567333E-02 
1206	 0.010145344392571 
1207	 0.010562726938583 
1208	 1.02923800695094E-02 
1209	 9.89903167993053E-03 
1210	 1.01748231085396E-02 
1211	 1.04214070039704E-02 
1212	 1.03430655511189E-02 
1213	 1.02306888898511E-02 
1214	 1.02925236549256E-02 
1215	 1.01982108155165E-02 
1216	 9.89135877767002E-03 
1217	 9.88218494330802E-03 
1218	 1.05276540231793E-02 
1219	 1.07498183990942E-02 
1220	 1.03971255848593E-02 
1221	 1.04918590085891E-02 
1222	 1.05871933754387E-02 
1223	 0.010316925639745 
1224	 1.03478576337883E-02 
1225	 1.04816149867298E-02 
1226	 1.02674542121303E-02 
1227	 1.01157948756768E-02 
1228	 1.04051968401958E-02 
1229	 1.05841447829998E-02 
1230	 1.03106402000554E-02 
1231	 1.00859561591301E-02 
1232	 0.01019092957618 
1233	 1.03980957924696E-02 
1234	 1.03675570531927E-02 
1235	 1.02606175762351E-02 
1236	 9.95226959020909E-03 
1237	 9.94209842649181E-03 
1238	 9.85723901130671E-03 
1239	 9.94190001570584E-03 
1240	 1.02278008838244E-02 
1241	 1.03232779971832E-02 
1242	 1.01234655585681E-02 
1243	 1.01870520307896E-02 
1244	 1.04321614756547E-02 
1245	 0.010360929375708 
1246	 1.01538316080016E-02 
1247	 0.010120664341248 
1248	 1.01456733482863E-02 
1249	 0.0101934712304 
1250	 1.00905408223039E-02 
1251	 9.85233420376997E-03 
1252	 9.90642442498248E-03 
1253	 1.01421133035743E-02 
1254	 1.03704924251008E-02 
1255	 1.05068387715292E-02 
1256	 1.05015733846029E-02 
1257	 1.01802487478878E-02 
1258	 1.00919530782723E-02 
1259	 1.01057033211283E-02 
1260	 9.91809762707434E-03 
1261	 9.38209235325743E-03 
1262	 9.41600614214671E-03 
1263	 9.62919539571549E-03 
1264	 9.99470369341312E-03 
1265	 1.01913435979474E-02 
1266	 1.03145702387074E-02 
1267	 1.01922121207509E-02 
1268	 9.93360481677069E-03 
1269	 9.9428037367437E-03 
1270	 1.02971667787722E-02 
1271	 1.02893836704334E-02 
1272	 9.77757956934955E-03 
1273	 9.69992147378428E-03 
1274	 1.00555029017019E-02 
1275	 9.93713404410383E-03 
1276	 9.75206430268941E-03 
1277	 0.010055457943164 
1278	 1.00359668619378E-02 
1279	 9.65914002565232E-03 
1280	 9.57526396263117E-03 
1281	 9.66972437997837E-03 
1282	 9.80325463282621E-03 
1283	 9.71086004723364E-03 
1284	 9.69929684621854E-03 
1285	 9.88908076182988E-03 
1286	 1.00348003759505E-02 
1287	 9.88317341312597E-03 
1288	 9.82751094437518E-03 
1289	 9.89225558324136E-03 
1290	 9.70124016494526E-03 
1291	 9.43882272738327E-03 
1292	 9.49781733375642E-03 
1293	 9.97940705555037E-03 
1294	 1.02501940740295E-02 
1295	 1.00324800083368E-02 
1296	 1.00858542498863E-02 
1297	 1.01988016539534E-02 
1298	 9.89419018009031E-03 
1299	 9.8405405694317E-03 
1300	 1.01915595378226E-02 
1301	 1.01578466749118E-02 
1302	 9.90881352535086E-03 
1303	 9.90459366860574E-03 
1304	 9.86623392487439E-03 
1305	 9.82087875869395E-03 
1306	 9.79345631896221E-03 
1307	 9.97864150473643E-03 
1308	 1.00570252864846E-02 
1309	 9.89630670073326E-03 
1310	 9.86608777815954E-03 
1311	 1.01154101779098E-02 
1312	 1.02388434453023E-02 
1313	 1.03703982972532E-02 
1314	 1.01156022281464E-02 
1315	 9.22302878370841E-03 
1316	 9.26246735167078E-03 
1317	 9.82432681751195E-03 
1318	 9.8751086530521E-03 
1319	 1.02627349498052E-02 
1320	 1.06782542637096E-02 
1321	 1.05269107624602E-02 
1322	 1.04704894362804E-02 
1323	 1.11462375803557E-02 
1324	 1.14873481547255E-02 
1325	 1.08927965489497E-02 
1326	 1.02197424818878E-02 
1327	 1.07220307131701E-02 
1328	 1.13437431464103E-02 
1329	 1.10179796968505E-02 
1330	 1.10360132134678E-02 
1331	 1.09655310218504E-02 
1332	 9.98856161152951E-03 
1333	 1.02956754257085E-02 
1334	 1.23890399411911E-02 
1335	 1.27760639533247E-02 
1336	 1.23915773094235E-02 
1337	 1.23601738164763E-02 
1338	 0.011781534825944 
1339	 1.10426282332739E-02 
1340	 1.00878438052441E-02 
1341	 1.01540173225599E-02 
1342	 1.05285503645867E-02 
1343	 1.01422571907747E-02 
1344	 1.02017989935223E-02 
1345	 1.12546552823394E-02 
1346	 1.34567930726051E-02 
1347	 1.27951513330772E-02 
1348	 9.23457925898321E-03 
1349	 8.71667731311309E-03 
1350	 4.47605291106309E-03 
1351	 5.53578732076125E-04 
1352	 1.62971825171736E-02 
1353	 2.49872682702921E-02 
1354	 1.01022012398849E-02 
1355	-1.31857906507491E-02 
1356	 1.32625868115998E-02 
1357	 0.022678784779271 
1358	 1.11008529572056E-02 
1359	-1.65875168129654E-02 
1360	-8.27512723906034E-02 
1361	-0.14477197976298 
1362	-0.272877015896182 
1363	-0.203789998089298 
1364	-0.158211843523261 
1365	-0.378611747379473 
1366	-0.487445441956763 
1367	-0.594032555702379 
1368	-0.313530132126577 
1369	 0.20605665825634 
1370	 1.53812199964016E-02 
1371	-0.938312289103631 
1372	-0.88246302252321 
1373	-0.810498859104399 
1374	-1.04037205455756 
1375	-0.584981029132129 
1376	 1.63134424426737E-02 
1377	 1.00898783223084 
1378	 0.807884216057649 
1379	 0.196881648659947 
1380	 0.269726289679309 
1381	-0.5503694422472 
1382	-0.994272534581619 
1383	-0.374476313467151 
1384	-0.103953151059529 
1385	-0.479128359474142 
1386	-0.573114189899082 
1387	 0.038842878092024 
1388	 0.292837052404861 
1389	 3.33158880282887E-02 
1390	 2.87033306100465E-03 
1391	 4.15017216911519E-02 
1392	 0.274495500039376 
1393	-6.66855695523652E-02 
1394	-0.568941867502722 
1395	-0.444112574068098 
1396	-0.501149432458557 
1397	-0.381116552261035 
1398	 0.206440151524807 
1399	 0.566362735513027 
1400	 0.132774446855922 
1401	-4.87362250913126E-02 
1402	 0.251444031308943 
1403	 0.418712854364109 
1404	 0.173819920893248 
1405	-3.10092899510351E-02 
1406	-0.274002819171218 
1407	-9.97967070474661E-02 
1408	-8.16362581368744E-03 
1409	 3.07147813408698E-02 
1410	 0.271781766366934 
1411	 0.278592919628032 
1412	 7.12146427619244E-02 
1413	 5.35365348081377E-02 
1414	 0.127753595089057 
1415	 0.087374669651159 
1416	 2.46036740117663E-02 
1417	 7.04149069671871E-03 
1418	-4.10063166698723E-02 
1419	-3.28417550243467E-02 
1420	 2.47765054182792E-02 
1421	 2.64464341499431E-02 
1422	 5.51826213555917E-03 
1423	 8.72193805000372E-03 
1424	 1.36285566004357E-02 
1425	 1.19546927931293E-02 
1426	 2.04470078534278E-02 
1427	 2.33219779266768E-02 
1428	 1.56876220259857E-02 
1429	 8.43635872738563E-03 
1430	-9.31733012699798E-04 
1431	 1.15455804026084E-03 
1432	 0.010605660155569 
1433	 1.03021310667491E-02 
1434	 5.65745589261837E-03 
1435	 1.15619268943149E-02 
1436	 0.015135212290423 
1437	 2.34924611631866E-02 
1438	 2.46304590074389E-02 
1439	 2.82964147928457E-02 
1440	 0.018661158621986 
1441	 6.42540426908656E-03 
1442	 1.42903115838977E-02 
1443	 2.23860613803106E-02 
1444	 1.94808631072401E-02 
1445	 0.014535764185256 
1446	 1.25302815032737E-02 
1447	 1.45683312298494E-02 
1448	 0.012262894390942 
1449	 8.72717819512797E-03 
1450	 1.26437791483876E-02 
1451	 0.012335812228377 
1452	 7.61725662864553E-03 
1453	 8.63518570600763E-03 
1454	 1.00830829340552E-02 
1455	 9.26165107441402E-03 
1456	 8.68496426649194E-03 
1457	 1.16828511217442E-02 
1458	 1.16605294697053E-02 
1459	 7.75608425332207E-03 
1460	 6.98285095027282E-03 
1461	 8.59074207088238E-03 
1462	 8.44640774233398E-03 
1463	 6.87562990916306E-03 
1464	 6.77773229890646E-03 
1465	 8.12635253675664E-03 
1466	 7.69116666331962E-03 
1467	 6.33274317573949E-03 
1468	 6.18050691321548E-03 
1469	 4.77876981783151E-03 
1470	 4.84225661377439E-03 
1471	 7.69572825825435E-03 
1472	 7.9821039918364E-03 
1473	 7.28063826327956E-03 
1474	 7.33797310147146E-03 
1475	 7.80831679626771E-03 
1476	 7.28303601038985E-03 
1477	 4.88187237042054E-03 
1478	 4.77638784826454E-03 
1479	 5.48777611634355E-03 
1480	 5.3945689603983E-03 
1481	 7.32550602810156E-03 
1482	 7.3717109305883E-03 
1483	 4.88082818746021E-03 
1484	 4.29183810891004E-03 
1485	 3.84222821774198E-03 
1486	 4.38317961821594E-03 
1487	 6.72192677741002E-03 
1488	 7.06147970444797E-03 
1489	 5.82603079198447E-03 
1490	 6.40608498271196E-03 
1491	 8.77433376482549E-03 
1492	 7.97268381831475E-03 
1493	 4.94731586040543E-03 
1494	 5.33075881052757E-03 
1495	 6.64675623265356E-03 
1496	 5.96299794076519E-03 
1497	 6.01183667075489E-03 
1498	 6.75885034681428E-03 
1499	 6.0559297772436E-03 
1500	 5.27362471330364E-03 
1501	 5.80343080961591E-03 
1502	 6.3401209538528E-03 
1503	 5.88064890989177E-03 
1504	 5.4818842979429E-03 
1505	 5.57449298713082E-03 
1506	 6.39979006049605E-03 
1507	 6.12597392623878E-03 
1508	 5.44122761493812E-03 
1509	 5.33873146870865E-03 
1510	 5.36061975690707E-03 
1511	 5.39940583260141E-03 
1512	 5.67451496095653E-03 
1513	 5.87252134038429E-03 
1514	 5.71414726346621E-03 
1515	 5.55389053465888E-03 
1516	 5.58700642521673E-03 
1517	 6.14879484688665E-03 
1518	 6.55653169211943E-03 
1519	 5.95060689068228E-03 
1520	 5.4674195039215E-03 
1521	 5.47920409424497E-03 
1522	 5.64205434734097E-03 
1523	 6.15322087348573E-03 
1524	 6.28280601518918E-03 
1525	 6.01280553596883E-03 
1526	 5.90418150428513E-03 
1527	 5.8180523483913E-03 
1528	 5.95613684661489E-03 
1529	 5.96777811481942E-03 
1530	 6.03849484281024E-03 
1531	 5.9889722002746E-03 
1532	 5.57411772834681E-03 
1533	 5.87741556823581E-03 
1534	 6.24262872250977E-03 
1535	 6.34055292898423E-03 
1536	 6.53790256756634E-03 
1537	 6.47503777313197E-03 
1538	 6.2920829486322E-03 
1539	 5.96483527516848E-03 
1540	 5.8538024340741E-03 
1541	 6.25407578346682E-03 
1542	 6.1907094471387E-03 
1543	 5.78718758375112E-03 
1544	 6.03612103558347E-03 
1545	 6.05049791263177E-03 
1546	 5.67642764734047E-03 
1547	 5.97314275600751E-03 
1548	 6.2462452454424E-03 
1549	 6.08756345889323E-03 
1550	 6.08162225478163E-03 
1551	 5.88128649790994E-03 
1552	 5.82650639974543E-03 
1553	 6.47698895819855E-03 
1554	 6.73277808599938E-03 
1555	 6.61354940909333E-03 
1556	 6.89596287342486E-03 
1557	 6.63092964811758E-03 
1558	 5.98039299420404E-03 
1559	 6.20592833708238E-03 
1560	 6.66410042304335E-03 
1561	 6.46346473721174E-03 
1562	 6.09674566171428E-03 
1563	 6.02106377836193E-03 
1564	 6.0715642923934E-03 
1565	 6.03624802039062E-03 
1566	 6.25048471552436E-03 
1567	 6.6849400809434E-03 
1568	 6.45366435129672E-03 
1569	 6.0155305548741E-03 
1570	 6.38328960936014E-03 
1571	 7.02184136753213E-03 
1572	 7.11110590179529E-03 
1573	 6.71393436682257E-03 
1574	 6.64747538276348E-03 
1575	 6.86149999017997E-03 
1576	 6.76148397642358E-03 
1577	 7.18123846650277E-03 
1578	 7.78466172532842E-03 
1579	 7.40505576560141E-03 
1580	 6.87267202505473E-03 
1581	 6.75800751334851E-03 
1582	 6.52851835795693E-03 
1583	 6.34503207772583E-03 
1584	 6.57603914661636E-03 
1585	 6.60907233836757E-03 
1586	 6.6061012233687E-03 
1587	 6.92551868182053E-03 
1588	 6.72626423158029E-03 
1589	 6.20658827605554E-03 
1590	 6.32480546265844E-03 
1591	 6.86995079012805E-03 
1592	 6.82102531758219E-03 
1593	 6.80917446265106E-03 
1594	 7.27524217729621E-03 
1595	 7.1022156341438E-03 
1596	 7.16517016076443E-03 
1597	 7.75938674125356E-03 
1598	 7.82754475043419E-03 
1599	 7.63249199197241E-03 
1600	 7.40617257489255E-03 
1601	 7.1426618037149E-03 
1602	 6.8386560459253E-03 
1603	 6.65397826036176E-03 
1604	 6.92518397387689E-03 
1605	 7.26558349254617E-03 
1606	 7.2656946576288E-03 
1607	 7.20711274504959E-03 
1608	 7.20072261497753E-03 
1609	 7.25132371333198E-03 
1610	 7.24737223889627E-03 
1611	 7.02610268870896E-03 
1612	 7.00889680559756E-03 
1613	 7.16691142148135E-03 
1614	 7.23999457517347E-03 
1615	 7.56883837498602E-03 
1616	 7.64930201975375E-03 
1617	 6.98757685258121E-03 
1618	 6.61986248719071E-03 
1619	 6.79565152834797E-03 
1620	 7.02823490414947E-03 
1621	 7.40360140276438E-03 
1622	 7.51600243636946E-03 
1623	 7.04568484842296E-03 
1624	 6.43251588902262E-03 
1625	 6.25704486250709E-03 
1626	 6.4997420125785E-03 
1627	 6.88572968156154E-03 
1628	 7.14913322230551E-03 
1629	 7.12060739574728E-03 
1630	 7.09340395454677E-03 
1631	 7.14471926119662E-03 
1632	 7.25566100188559E-03 
1633	 7.28947406076903E-03 
1634	 7.07569139816997E-03 
1635	 6.87056433939344E-03 
1636	 7.02132040814722E-03 
1637	 7.45413991549851E-03 
1638	 7.57426245883056E-03 
1639	 7.58125165966661E-03 
1640	 7.62952185858949E-03 
1641	 7.38164993928641E-03 
1642	 7.47346943654342E-03 
1643	 7.54643088871854E-03 
1644	 7.43785749048628E-03 
1645	 7.79777685028745E-03 
1646	 7.5803746015222E-03 
1647	 6.91890618388432E-03 
1648	 6.87167147505461E-03 
1649	 6.86758058304767E-03 
1650	 6.88262021734035E-03 
1651	 0.007617881121919 
1652	 8.04024371085682E-03 
1653	 7.04253613039202E-03 
1654	 7.12714353704471E-03 
1655	 7.88015250293072E-03 
1656	 7.84606741777243E-03 
1657	 7.73258738451151E-03 
1658	 7.9753898617058E-03 
1659	 7.86025147146361E-03 
1660	 7.65289624931416E-03 
1661	 8.04205903242053E-03 
1662	 8.03156026870056E-03 
1663	 7.16437210775065E-03 
1664	 7.18595889349412E-03 
1665	 8.01820672015299E-03 
1666	 7.91937897385652E-03 
1667	 7.36521829097587E-03 
1668	 7.50234449627487E-03 
1669	 7.84082019670455E-03 
1670	 8.12621913210196E-03 
1671	 7.14011587998766E-03 
1672	 6.1497706826669E-03 
1673	 6.75710489006629E-03 
1674	 7.15663687459931E-03 
1675	 7.27679577716467E-03 
1676	 8.00146239382944E-03 
1677	 7.3375456068962E-03 
1678	 6.39153946320933E-03 
1679	 7.22928114891576E-03 
1680	 7.92816128558613E-03 
1681	 0.007919448013075 
1682	 8.06640920362215E-03 
1683	 8.1547338482484E-03 
1684	 8.28639512854723E-03 
1685	 8.3563608572615E-03 
1686	 8.19884785520425E-03 
1687	 8.05444583871527E-03 
1688	 7.91339064546378E-03 
1689	 7.96232596396868E-03 
1690	 8.07363152918563E-03 
1691	 7.80096458520595E-03 
1692	 7.41104115323368E-03 
1693	 7.45260524717817E-03 
1694	 7.7650510589075E-03 
1695	 8.09236973979657E-03 
1696	 8.34550515984862E-03 
1697	 8.14736719936432E-03 
1698	 8.10090123753272E-03 
1699	 8.27474360776063E-03 
1700	 8.01681383570255E-03 
1701	 7.64786408156035E-03 
1702	 7.39606459735618E-03 
1703	 7.8543530842764E-03 
1704	 8.19805806493205E-03 
1705	 7.75207475897144E-03 
1706	 7.81854728337007E-03 
1707	 7.3169352094217E-03 
1708	 6.47370630978568E-03 
1709	 6.9555143352791E-03 
1710	 7.35692069658489E-03 
1711	 7.37608877473869E-03 
1712	 7.66999179068967E-03 
1713	 7.66825906470971E-03 
1714	 7.74231218813665E-03 
1715	 7.85258354923473E-03 
1716	 0.008632020254038 
1717	 8.53973270448844E-03 
1718	 8.06534386080878E-03 
1719	 7.68336313664294E-03 
1720	 7.99533570678046E-03 
1721	 8.45955499433614E-03 
1722	 8.53878100633014E-03 
1723	 8.43454288539897E-03 
1724	 7.51874510834679E-03 
1725	 7.00071996035123E-03 
1726	 7.51107018999473E-03 
1727	 7.31697723622831E-03 
1728	 6.67540918490835E-03 
1729	 6.95554515299733E-03 
1730	 7.21456172409559E-03 
1731	 7.1570745010205E-03 
1732	 8.1124171334542E-03 
1733	 8.9136136581572E-03 
1734	 8.39870466920806E-03 
1735	 7.98145598806697E-03 
1736	 8.3283665615679E-03 
1737	 7.97665802773058E-03 
1738	 7.7005173670045E-03 
1739	 8.80237453760819E-03 
1740	 9.00838932229343E-03 
1741	 7.95386505771897E-03 
1742	 7.4310237687521E-03 
1743	 6.89499841658282E-03 
1744	 6.50709662707947E-03 
1745	 7.39441262258352E-03 
1746	 8.88273410345331E-03 
1747	 9.34430195271852E-03 
1748	 9.72944243388315E-03 
1749	 9.5035786240036E-03 
1750	 8.03993549081219E-03 
1751	 7.96304293763512E-03 
1752	 8.25076488671429E-03 
1753	 8.17372394093049E-03 
1754	 8.88543245086552E-03 
1755	 8.60391987169261E-03 
1756	 6.99822514295359E-03 
1757	 7.83902261665786E-03 
1758	 8.31810777374261E-03 
1759	 9.17955334291347E-03 
1760	 0.010004133745682 
1761	 8.2813152463402E-03 
1762	 6.91471802815341E-03 
1763	 7.42473181040667E-03 
1764	 7.40651764675869E-03 
1765	 8.2871584853495E-03 
1766	 1.00399975794556E-02 
1767	 9.74808963328315E-03 
1768	 9.36187773279696E-03 
1769	 1.03024612497338E-02 
1770	 9.96238392732187E-03 
1771	 9.6581010349648E-03 
1772	 1.03537269665249E-02 
1773	 9.5415974239154E-03 
1774	 9.77999361382806E-03 
1775	 1.08319291911877E-02 
1776	 1.05246690198588E-02 
1777	 9.18876936937724E-03 
1778	 9.7725050302671E-03 
1779	 1.15064455479449E-02 
1780	 1.19142008171313E-02 
1781	 1.40339981747837E-02 
1782	 1.37771690647122E-02 
1783	 8.44146174311806E-03 
1784	 7.59698816648626E-03 
1785	 9.37833295487659E-03 
1786	 1.00095728058127E-02 
1787	 1.33057151002269E-02 
1788	 1.34123241623933E-02 
1789	 1.07575427360837E-02 
1790	 8.89026793990816E-03 
1791	 3.8319297676088E-03 
1792	 1.6368433147694E-03 
1793	 1.95986282064411E-03 
1794	 1.89466651132162E-03 
1795	 6.73931196179257E-03 
1796	 1.53016755700755E-02 
1797	 2.03939844218578E-02 
1798	 1.94335581349591E-02 
1799	 0.02639047607534 
1800	 2.00783119844469E-02 
1801	 1.27958354241727E-02 
1802	 5.45701597339009E-03 
1803	 6.57151225514549E-04 
1804	-4.52021321514903E-03 
1805	-1.70224755337561E-04 
1806	 0.027262556975866 
1807	 0.030683822424371 
1808	 1.84072119038005E-02 
1809	-2.61179531781506E-03 
1810	-8.21048016958878E-02 
1811	-0.10256328656053 
1812	-5.76555529259619E-02 
1813	-3.74467701299959E-02 
1814	 8.89072686354184E-02 
1815	 9.53378117505083E-02 
1816	-0.016334182220907 
1817	-7.03338179182373E-02 
1818	-0.144656660182202 
1819	 0.13622738058638 
1820	 0.206788579787805 
1821	 0.583166435451512 
1822	 0.807622419641811 
1823	 0.988037728612486 
1824	 1.14215330927838 
1825	 1.06707467261674 
1826	 0.644255820699231 
1827	 0.359746173675053 
1828	 0.286676203377119 
1829	 0.155588946464546 
1830	 2.68760896456064E-02 
1831	-1.63927956698351 
1832	-1.89586902920451 
1833	 4.11356746317411 
1834	 1.34528041807482 
1835	 0.535171053019201 
1836	-0.209914770350202 
1837	-1.00289064846582 
1838	-0.976391009973043 
1839	-0.214047875015174 
1840	 6.89413486095864E-02 
1841	 21.3663629554878 
1842	-2.13557402963265 
1843	-2.1274822823727 
1844	-3.51155622304783 
1845	-4.42855530388278 
1846	 5.40922345472792 
1847	 4.25344356415042 
1848	-8.2335864878841 
1849	-0.652899478057385 
1850	-0.360554517308612 
1851	-1.12805364196289E-02 
1852	-1.03423189316219 
1853	-1.65010362630062 
1854	-1.34296639569846 
1855	-0.768155424764984 
1856	-0.709373106085661 
1857	 0.162702861497251 
1858	 0.392094847921545 
1859	 0.491912367250823 
1860	 0.546579117949781 
1861	-3.38992441691831 
1862	-5.08675094446094 
1863	-1.1540642371183 
1864	-0.559043160781612 
1865	-0.493017913359912 
1866	-0.190323873812956 
1867	-0.106950532772091 
1868	-5.73495467516546 
1869	 2.7589546056513 
1870	 1.01123955538668 
1871	 0.695458328401739 
1872	 1.15538412687136 
1873	-0.256859791161756 
1874	-1.66947348186892 
1875	 5.91846415178972E-03 
1876	 0.101836772840694 
1877	-1.80201495732618E-02 
1878	 8.68651358303243E-02 
1879	 0.674759665723911 
1880	 0.75217363155152 
1881	 0.877512720615912 
1882	 0.480074752632804 
1883	-5.52653484416028E-02 
1884	-0.201362854142507 
1885	-0.182933196730898 
1886	-0.16005925214064 
1887	-5.49829047472094E-03 
1888	-5.94732379735826E-02 
1889	-0.11236765638021 
1890	-0.388315848394891 
1891	-0.490985293273951 
1892	-0.516589050537137 
1893	-2.80772380873169 
1894	-0.127070854641642 
1895	-0.593994828706709 
1896	-0.473806383874864 
1897	-0.353616877985169 
1898	-2.94175992390597 
1899	-7.65497447807838 
1900	-0.515956034952633 
1901	 0.198766684670462 
1902	 0.402711583512406 
1903	 0.591057547918442 
1904	 0.796556599758982 
1905	 1.46512973845245 
1906	 1.8070424307291 
1907	 1.64572769598558 
1908	 2.86078673008406 
1909	-2.76583819158239 
1910	 7.62530960957773E-02 
1911	-0.112257546100382 
1912	-0.532962530028603 
1913	-0.827377101853179 
1914	-1.22998428954851 
1915	-1.5512049286374 
1916	 9.21012023174196 
1917	-0.751164637904879 
1918	-1.27833579278492 
1919	-5.47132978282039 
1920	 13.1437407941895 
1921	-0.325829385306465 
1922	-8.76563330076784E-02 
1923	 0.247841902277168 
1924	 0.359069939217653 
1925	 0.435195464212046 
1926	 0.587715930079883 
1927	 0.262640495836176 
1928	 0.753725884153312 
1929	-3.60036285792538 
1930	-2.06880265217708 
1931	 6.40547955525056 
1932	 1.01544838744185 
1933	 0.356160778600703 
1934	 0.341736388088516 
1935	 0.65081152585758 
1936	 0.674471930542349 
1937	 0.382008061948259 
1938	 0.148732076969877 
1939	 0.077013905007074 
1940	-7.43703297172052E-02 
1941	-0.134295760300274 
1942	-4.53558985929093E-02 
1943	-1.28662368691577E-02 
1944	 3.55365035260474E-03 
1945	 1.88989486878465E-02 
1946	 7.24629937660758E-02 
1947	 0.136844104569959 
1948	 0.104027795460411 
1949	 6.04528539239961E-02 
1950	 2.65101754293734E-02 
1951	-2.94222359530605E-02 
1952	-4.98361010543566E-02 
1953	-2.88348266578457E-02 
1954	-2.88596172197837E-02 
1955	-5.54792375177802E-02 
1956	-2.52299642868958E-02 
1957	-3.11989371916143E-02 
1958	-2.57732777465983E-02 
1959	 0.015520508482417 
1960	 2.67675785286428E-02 
1961	 3.15946177640787E-02 
1962	 2.52247783142836E-02 
1963	 1.29968812400222E-02 
1964	 1.41146635191866E-02 
1965	 6.82941106180772E-03 
1966	 1.78782060006371E-03 
1967	 1.44541283045307E-04 
1968	 5.9339519608689E-03 
1969	 4.0350937948529E-03 
1970	 5.09987017488744E-04 
1971	 1.43899515741444E-03 
1972	 2.37507084136363E-03 
1973	 1.9390340373348E-03 
1974	 2.72017876990654E-05 
1975	-2.90394884128144E-04 
1976	-5.42272152894033E-04 
1977	-3.57427750415023E-03 
1978	-2.53216853974766E-03 
1979	-1.73556273186672E-03 
1980	 2.27759829494696E-03 
1981	 2.78443686532898E-04 
1982	-1.43265490179401E-03 
1983	-1.49463838250031E-03 
1984	-3.68440444783044E-03 
1985	-2.49255104590773E-03 
1986	 1.04166966816452E-03 
1987	 2.83985786831426E-03 
1988	 3.97707562813382E-03 
1989	 5.60802483883514E-03 
1990	 5.86825922672486E-03 
1991	 2.13436205811282E-03 
1992	 9.47319269575245E-06 
1993	-1.11339354924945E-03 
1994	-2.04558116913171E-03 
1995	-3.95334387728628E-03 
1996	-2.05925535133721E-03 
1997	-4.09058121307197E-05 
1998	 1.29062492917951E-03 
1999	 2.89554105310879E-03 
2000	 2.3958400746727E-03 
2001	 6.74886133729471E-04 
2002	 2.19829623773044E-03 
2003	 3.99995342883274E-03 
2004	 7.16089588649954E-03 
2005	 1.64507890907547E-02 
2006	 1.38566164736313E-02 
2007	 1.32600411827035E-03 
2008	-5.06871537536143E-04 
2009	-2.02383512250428E-03 
2010	-6.01887574018106E-03 
2011	-4.14561676887147E-03 
2012	 7.09099815571078E-03 
2013	 1.02149725581361E-02 
2014	 7.54009213776602E-03 
2015	 3.27433438314675E-03 
2016	 3.36325917087845E-03 
2017	 4.61730734317179E-03 
2018	-5.34067118008608E-04 
2019	 1.67375857142525E-03 
2020	 1.04038637492463E-02 
2021	 8.25668595409315E-03 
2022	 5.56418654019914E-03 
2023	 8.27855436158023E-03 
2024	 7.98939769345643E-03 
2025	 2.2611039198777E-03 
2026	 1.88505549530772E-03 
2027	 5.26748061131076E-03 
2028	 5.44654472420323E-03 
2029	 3.96018248854505E-03 
2030	 2.29308872526036E-03 
2031	 1.56951114744104E-03 
2032	 2.55156111146437E-03 
2033	 2.74141258845046E-03 
2034	 1.95129111306414E-03 
2035	 2.21630439236926E-03 
2036	 2.17621243631721E-03 
2037	 1.39820452940074E-03 
2038	 2.89406762508786E-03 
2039	 3.94567706437904E-03 
2040	 3.82075967674799E-03 
2041	 4.16576807280289E-03 
2042	 6.55108658681337E-03 
2043	 7.05972726378543E-03 
2044	 6.33830743813821E-03 
2045	 6.03786392373005E-03 
2046	 4.86764306956131E-03 
2047	 4.40072286173537E-03 
2048	 4.96969255688203E-03 
2049	 4.61847617868554E-03 
2050	 3.83038634958625E-03 
2051	 2.48022799019461E-03 
2052	 3.87783333745077E-03 
2053	 3.60805550320877E-03 
2054	 3.21917392994148E-03 
2055	 5.05175752866986E-03 
2056	 5.77575412931171E-03 
2057	 5.52450957998873E-03 
2058	 5.85772943891984E-03 
2059	 6.09505572606347E-03 
2060	 5.2825501374083E-03 
2061	 2.88461944654857E-03 
2062	 2.5039124085244E-03 
2063	 1.85809424937847E-03 
2064	 4.42983346758709E-03 
2065	 8.44941438842705E-03 
2066	 7.3467244785687E-03 
2067	 7.20440875418701E-03 
2068	 9.45069251812185E-03 
2069	 7.43858630745369E-03 
2070	 7.95290544656044E-03 
2071	 8.13890867393963E-03 
2072	 5.51028203853827E-03 
2073	 5.60955003913295E-03 
2074	 8.15404625587511E-03 
2075	 7.27182110793351E-03 
2076	 5.86557801075559E-03 
2077	 5.40263198426067E-03 
2078	 3.61413325392675E-03 
2079	 2.22769864114482E-03 
2080	 1.98693018718633E-03 
2081	 9.33856915630799E-04 
2082	-1.95078989592817E-03 
2083	-2.17521486664187E-03 
2084	 5.50306315673643E-06 
2085	 1.13289906049746E-03 
2086	 2.65135216037472E-03 
2087	 5.28223759274119E-03 
2088	 5.69201341155048E-03 
2089	 5.10096441657717E-03 
2090	 6.19724749622777E-03 
2091	 5.26380805047382E-03 
2092	 4.75412082545706E-03 
2093	 4.93417321322319E-03 
2094	 4.87767802273633E-03 
2095	 3.75267128931299E-03 
2096	 3.13380389646704E-03 
2097	 2.55471932773883E-03 
2098	 2.15463320900214E-03 
2099	 1.44373153437495E-03 
2100	 1.98119257019863E-03 
2101	 3.50593859503811E-03 
2102	 4.94656578154588E-03 
2103	 4.08974603446588E-03 
2104	 2.68227367011174E-03 
2105	 2.02871808640946E-03 
2106	 5.85273172638378E-04 
2107	 7.26223149422971E-04 
2108	 3.1080440257231E-03 
2109	 4.71923294766453E-03 
2110	 5.35360743741626E-03 
2111	 5.70488155534723E-03 
2112	 6.45260678185094E-03 
2113	 7.26134544856132E-03 
2114	 8.48950651827789E-03 
2115	 8.40013477713616E-03 
2116	 7.62792434770575E-03 
2117	 7.27058737590437E-03 
2118	 6.15627236176638E-03 
2119	 5.64639774183683E-03 
2120	 5.5356617860845E-03 
2121	 5.83962560819702E-03 
2122	 6.28343571057752E-03 
2123	 6.54133807703898E-03 
2124	 8.07576770955455E-03 
2125	 9.17087081031902E-03 
2126	 7.28733939417682E-03 
2127	 5.73755485308636E-03 
2128	 5.59308226515169E-03 
2129	 4.9635378097706E-03 
2130	 6.36420123744881E-03 
2131	 8.44279649262288E-03 
2132	 7.92201132923141E-03 
2133	 7.12960814043089E-03 
2134	 6.94933893390697E-03 
2135	 7.16558026473421E-03 
2136	 6.4918310570015E-03 
2137	 5.21431247859099E-03 
2138	 4.88553291965399E-03 
2139	 3.9944969159234E-03 
2140	 4.12614797475731E-03 
2141	 6.32691942701655E-03 
2142	 6.68916411845621E-03 
2143	 6.18183441792941E-03 
2144	 6.16118760291198E-03 
2145	 6.46834767376712E-03 
2146	 7.21474242063637E-03 
2147	 8.69799815023331E-03 
2148	 8.43297665784258E-03 
2149	 6.60859974707327E-03 
2150	 5.41188293610541E-03 
2151	 3.66662296631871E-03 
2152	 3.77946415482995E-03 
2153	 4.10891513504202E-03 
2154	 3.73863655347971E-03 
2155	 3.7129718242992E-03 
2156	 2.37767837050941E-03 
2157	 3.20748357975527E-03 
2158	 5.76193956746272E-03 
2159	 5.91498705542829E-03 
2160	 6.87294021449877E-03 
2161	 7.23903129447536E-03 
2162	 4.68015719602865E-03 
2163	 3.97534950139761E-03 
2164	 4.43999890137171E-03 
2165	 4.3858992216808E-03 
2166	 3.92703517012334E-03 
2167	 4.79592388167825E-03 
2168	 7.3776534650674E-03 
2169	 8.50478367533232E-03 
2170	 9.90658285113422E-03 
2171	 9.82646525073047E-03 
2172	 9.65317495477246E-03 
2173	 1.05214796670058E-02 
2174	 9.8822137128295E-03 
2175	 9.5518630743453E-03 
2176	 9.70125152484981E-03 
2177	 7.39789301024137E-03 
2178	 6.21969862833492E-03 
2179	 6.49392270224184E-03 
2180	 6.27406874772446E-03 
2181	 6.24315086997347E-03 
2182	 6.14110241216421E-03 
2183	 5.76170041042171E-03 
2184	 3.1025824096757E-03 
2185	 1.8577517832992E-03 
2186	 1.84298612291776E-03 
2187	 3.82452176115709E-03 
2188	 3.35520257246149E-03 
2189	 2.21314945334736E-03 
2190	 2.62135425261965E-03 
2191	 1.87025097568626E-03 
2192	 2.41535362114125E-03 
2193	 7.7877918136957E-03 
2194	 8.45839199787874E-03 
2195	 4.48933991749839E-03 
2196	 4.32411810538742E-03 
2197	 0.004029523644556 
2198	 3.68217955843857E-03 
2199	 4.39472807786929E-03 
2200	 7.99679496924376E-03 
2201	 1.00257141991047E-02 
2202	 8.39028574096689E-03 
2203	 6.65878859707135E-03 
2204	 6.84602144855839E-03 
2205	 4.45003576149867E-03 
2206	 4.1196447917301E-03 
2207	 6.68785406021025E-03 
2208	 6.92870189776959E-03 
2209	 7.98853138812128E-03 
2210	 8.82724652244005E-03 
2211	 9.31551929350785E-03 
2212	 8.87150376397318E-03 
2213	 6.78164343807726E-03 
2214	 6.69886074820612E-03 
2215	 7.17039610177151E-03 
2216	 5.9901873970654E-03 
2217	 5.26816875113283E-03 
2218	 4.79522953390966E-03 
2219	 5.07582365342346E-03 
2220	 7.23083175091182E-03 
2221	 5.41810241189759E-03 
2222	 3.75836659054371E-04 
2223	-2.12879101171684E-04 
2224	-2.97262612480391E-03 
2225	-2.56496495273732E-03 
2226	 5.5805549765596E-03 
2227	 8.94195248097856E-03 
2228	 9.4085854423234E-03 
2229	 1.06370408220763E-02 
2230	 1.23273964324134E-02 
2231	 1.25687004557961E-02 
2232	 1.28925603591107E-02 
2233	 1.14282264239376E-02 
2234	 7.77692269456071E-03 
2235	 3.32035561218731E-03 
2236	 2.02730942515272E-03 
2237	 7.9472595299744E-04 
2238	 3.40889468851475E-03 
2239	 5.60441599223151E-03 
2240	 4.80195838214787E-03 
2241	 4.41661603941877E-03 
2242	 4.28596166226311E-03 
2243	 7.08028714565627E-03 
2244	 7.68295340176769E-03 
2245	 6.85723984936699E-03 
2246	 7.25397429767544E-03 
2247	 3.38704025243336E-03 
2248	 1.34168397763349E-03 
2249	 5.60895107977191E-03 
2250	 7.57946546276184E-03 
2251	 5.36569620173287E-03 
2252	 5.37746850902112E-03 
2253	 5.37332580896417E-03 
2254	 5.61847547897187E-03 
2255	 8.20876624932046E-03 
2256	 8.03766578357363E-03 
2257	 6.76573959604626E-03 
2258	 5.29138821984531E-03 
2259	 6.51121616692842E-03 
2260	 7.31159445625967E-03 
2261	 9.50663199988811E-03 
2262	 8.90612885024309E-03 
2263	 6.70821293401924E-03 
2264	 5.81674729158473E-03 
2265	 4.73724086186397E-03 
2266	 3.73253939859825E-03 
2267	 1.66692162039995E-03 
2268	 3.50463841508781E-03 
2269	 7.84990882278332E-03 
2270	 0.01059891914414 
2271	 0.017647034394219 
2272	 1.92033888798957E-02 
2273	 1.58177645171411E-02 
2274	 1.33282587209292E-02 
2275	 7.82030373354898E-03 
2276	 6.27205564752044E-03 
2277	 6.16383188145957E-03 
2278	 6.20150608774044E-03 
2279	 8.95362460699645E-03 
2280	 9.73368037640339E-03 
2281	 1.01439653032328E-02 
2282	 9.41727742648165E-03 
2283	 4.97201166028495E-03 
2284	 5.98598985773679E-03 
2285	 6.65770632057298E-03 
2286	 3.44262286875027E-03 
2287	 2.65113693964271E-03 
2288	 4.00831598228952E-03 
2289	 4.1145313082379E-03 
2290	 1.13984768788708E-03 
2291	 1.18161117047533E-03 
2292	-9.31658149254046E-04 
2293	-8.44993757087133E-03 
2294	-7.90466490002257E-03 
2295	-4.32109746161036E-03 
2296	-3.61782329886038E-03 
2297	-2.42830333910455E-03 
2298	-3.01978447002235E-03 
2299	 1.2349827439017E-03 
2300	 4.70542375855539E-03 
2301	 4.48933768645768E-03 
2302	 6.06106949026673E-03 
2303	 4.75625439352445E-03 
2304	 4.46812321404506E-03 
2305	 9.27331204055777E-03 
2306	 1.55286330010672E-02 
2307	 0.017490868366827 
2308	 1.65571166021783E-02 
2309	 1.24442291639942E-02 
2310	 6.84058760395323E-03 
2311	 1.06299487154243E-02 
2312	 1.34718042014028E-02 
2313	 8.38970827207032E-03 
2314	 9.65667305529604E-03 
2315	 9.22032591783048E-03 
2316	-1.58503468251374E-03 
2317	-2.44876026347259E-03 
2318	 6.09035795377383E-04 
2319	-2.16190091525798E-03 
2320	 5.38738179955632E-03 
2321	 1.10739691151521E-02 
2322	 1.42162372650074E-02 
2323	 1.43771594320506E-02 
2324	 2.40862795867701E-03 
2325	-1.05652854608604E-03 
2326	-6.19356689025388E-03 
2327	-0.01672026401429 
2328	-1.59677499338949E-02 
2329	-0.018148819586613 
2330	-1.97870292390376E-02 
2331	-8.99137073218918E-03 
2332	-4.26531263721142E-04 
2333	 9.44885954723757E-03 
2334	 2.18852572363774E-02 
2335	 1.59623457845837E-02 
2336	 1.01905713315105E-02 
2337	 1.58732373019632E-02 
2338	 4.36518893805571E-03 
2339	-9.1168707165454E-03 
2340	-1.49645895651609E-02 
2341	-2.60205432365627E-02 
2342	-0.033483954738928 
2343	-0.028471874404791 
2344	-1.36868200561328E-02 
2345	-2.04837708768283E-02 
2346	-3.23078861917916E-02 
2347	-2.46362720298812E-02 
2348	-2.53405190889595E-02 
2349	-2.44729863599934E-02 
2350	-1.24545197448616E-02 
2351	-4.17880709859995E-03 
2352	-1.86934088028212E-02 
2353	-3.32329824251167E-02 
2354	-2.55370508039992E-02 
2355	-3.15199582823904E-02 
2356	-2.98457466512388E-02 
2357	-2.17889628407225E-02 
2358	-3.06704113334492E-02 
2359	-4.33868006590757E-02 
2360	-4.90027243279643E-02 
2361	-2.67831510066377E-02 
2362	 2.72980595120888E-03 
2363	 9.92183546574377E-03 
2364	-5.0243842187308E-03 
2365	-2.90301605244349E-02 
2366	-4.56694873126957E-02 
2367	-0.044722526053029 
2368	-1.99401521006518E-02 
2369	 5.23380237360413E-03 
2370	 5.47823510019614E-03 
2371	 1.32415510878616E-02 
2372	 2.58318888671193E-02 
2373	 3.39370808802376E-02 
2374	 2.82182193892821E-02 
2375	-4.35860186870753E-03 
2376	-4.40072134652161E-03 
2377	-4.01330922528824E-03 
2378	-3.40028184884254E-02 
2379	-5.48353115835316E-02 
2380	-8.23707055684485E-02 
2381	-0.121824341987255 
2382	-0.127561866927732 
2383	-9.93801746171155E-02 
2384	-0.089253997056441 
2385	-5.15824066023613E-02 
2386	-7.81274600699271E-03 
2387	-1.36516920007735E-02 
2388	-1.25583058060272E-02 
2389	-8.26006668647351E-03 
2390	-7.35938693612033E-02 
2391	-0.116203082166946 
2392	-8.59470483719593E-02 
2393	-8.53414503472098E-02 
2394	-7.51727905138191E-02 
2395	 4.65668219624706E-03 
2396	 4.38035122068544E-02 
2397	 6.08029345307594E-03 
2398	-7.35911625439728E-03 
2399	-0.026203836532274 
2400	-4.85487140154279E-02 
2401	-4.48577423608399E-02 
2402	-2.10604281432914E-02 
2403	-3.10427907618808E-03 
2404	-0.06363138232848 
2405	-9.41567092705932E-02 
2406	-0.111449958107628 
2407	-0.220100654747343 
2408	-0.278810983210165 
2409	-0.247727233922511 
2410	-0.217986828687967 
2411	-0.229078955560112 
2412	-0.233567895027453 
2413	-0.212744240873656 
2414	-0.127111194822946 
2415	-3.90487382964452E-02 
2416	 1.65021464991262E-02 
2417	 0.149675742865611 
2418	 0.105503660712559 
2419	-5.84792134128531E-02 
2420	 2.47149535332375E-02 
2421	-7.60645537769589E-02 
2422	-0.230941072268988 
2423	-0.13530954210399 
2424	-0.103300196080292 
2425	-0.152446518797544 
2426	-0.133744045380005 
2427	-0.23828074025792 
2428	-0.35630844260897 
2429	-0.314334597856411 
2430	-0.265650273263069 
2431	-0.247133933627904 
2432	-0.250953920445337 
2433	-0.355476500419066 
2434	-0.46516499313147 
2435	-0.549949231212358 
2436	-0.440764952706434 
2437	-0.394147376466807 
2438	-0.458851373172415 
2439	-0.464968973935965 
2440	-0.441604843607992 
2441	-2.92583374985927E-03 
2442	 0.300319028127699 
2443	 0.316078553988817 
2444	 0.311247441448333 
2445	 0.261675606200986 
2446	 0.126028575534891 
2447	 0.230635230083578 
2448	 0.246515184508699 
2449	 1.89443183694763E-02 
2450	-0.107412976004133 
2451	 2.25869201504985 
2452	-2.66662082842181 
2453	 0.472323862086589 
2454	 0.682858394061866 
2455	 0.208403833874906 
2456	 0.21452977517403 
2457	 0.122252340536449 
2458	 0.148177112640655 
2459	 2.25089856807314E-02 
2460	-6.86467585426583E-02 
2461	-0.196853540514323 
2462	-0.330389455002027 
2463	 0.319602351622128 
2464	 1.28866802327935 
2465	 1.30683485716683 
2466	 7.97973430757584E-02 
2467	-1.06381262935534 
2468	-0.973614524782246 
2469	-0.216563385906359 
2470	 9.67662700073386E-02 
2471	-0.334178965958856 
2472	 1.28332015032775 
2473	 3.70198772583811 
2474	 3.56905872273152 
2475	 33.9060509617346 
2476	 26.1075038621817 
2477	-0.258499799957382 
2478	-0.447501986414089 
2479	-0.720943191612146 
2480	-1.52515503991503 
2481	 113.010266537549 
2482	-7.41866230721505 
2483	 1.52577982872439 
2484	 0.491785640426272 
2485	-0.229111581686021 
2486	-1.49795654449716 
2487	-1.8139374844129 
2488	 0.375591891218267 
2489	 0.379198001695718 
2490	 0.446650635518616 
2491	-2.14166117064597 
2492	-0.620071328802669 
2493	 8.43172464634693E-02 
2494	 1.03542842864429 
2495	 0.395791510928768 
2496	 3.55503826059662E-03 
2497	-0.246175505981968 
2498	-0.298501656747801 
2499	-0.176084017840443 
2500	-0.889226391875072 
