Wavelength	rt0726close00007.asd
350	 9.69996857767074E-02 
351	 0.097171189217837 
352	 9.63823157824372E-02 
353	 9.61083347215238E-02 
354	 9.68100224260415E-02 
355	 9.59514635075492E-02 
356	 9.59192308788428E-02 
357	 0.096172198535666 
358	 9.56928700103008E-02 
359	 9.54348636265559E-02 
360	 9.55875396680227E-02 
361	 9.58240637728984E-02 
362	 0.095538035873687 
363	 0.094707385294367 
364	 9.45595488912428E-02 
365	 9.51200703579549E-02 
366	 9.44330157212386E-02 
367	 0.09412676976397 
368	 9.40153928841471E-02 
369	 9.37002157782476E-02 
370	 9.37799425036891E-02 
371	 9.36666609307593E-02 
372	 9.33549118933441E-02 
373	 9.31726432462352E-02 
374	 9.30101561135522E-02 
375	 0.093038214186358 
376	 9.30750284436627E-02 
377	 0.092465594065677 
378	 9.21196838477853E-02 
379	 9.24047791746661E-02 
380	 9.30254201050498E-02 
381	 9.21242505817838E-02 
382	 9.18476903852735E-02 
383	 0.092111565780827 
384	 9.18986797252798E-02 
385	 9.20251541131197E-02 
386	 9.20387514113381E-02 
387	 9.18541081813038E-02 
388	 9.18735113128363E-02 
389	 9.17150997880008E-02 
390	 9.15924056983972E-02 
391	 9.16234866376637E-02 
392	 9.14145840077868E-02 
393	 9.13189729892795E-02 
394	 9.13372886073358E-02 
395	 9.13690653136633E-02 
396	 9.15810417617262E-02 
397	 9.16658697773322E-02 
398	 0.091561194663639 
399	 9.14388728896308E-02 
400	 9.15936632017655E-02 
401	 9.15581810577188E-02 
402	 9.12068566373339E-02 
403	 9.14440736222709E-02 
404	 9.14931659322724E-02 
405	 9.13937550977889E-02 
406	 9.14051099220473E-02 
407	 9.11700700232949E-02 
408	 9.11166583501228E-02 
409	 9.12775513479021E-02 
410	 9.12720455078629E-02 
411	 9.11527197271645E-02 
412	 9.11539069504625E-02 
413	 9.13356360142387E-02 
414	 9.12790187951233E-02 
415	 9.10973915505659E-02 
416	 9.10643216559239E-02 
417	 9.13978043500504E-02 
418	 9.15932402571368E-02 
419	 9.14942594785121E-02 
420	 9.12912435156554E-02 
421	 9.14855782473879E-02 
422	 9.17018904369808E-02 
423	 9.18272427986052E-02 
424	 9.18581542498316E-02 
425	 9.19305431230647E-02 
426	 9.19950067586733E-02 
427	 9.21155843220691E-02 
428	 9.23684237687012E-02 
429	 9.25512856603693E-02 
430	 9.26470510792719E-02 
431	 9.27275336847766E-02 
432	 9.29392432812181E-02 
433	 9.30710040227731E-02 
434	 9.32010856967691E-02 
435	 9.34044135584371E-02 
436	 9.35465616747325E-02 
437	 9.37434635753222E-02 
438	 9.39188886609508E-02 
439	 9.39449831587731E-02 
440	 9.42291713299005E-02 
441	 9.44677978834124E-02 
442	 9.45292650915123E-02 
443	 9.46430913131457E-02 
444	 0.094779215955534 
445	 0.094930602987815 
446	 9.50821259667659E-02 
447	 9.51835784909542E-02 
448	 9.53320172703492E-02 
449	 9.54782591664006E-02 
450	 9.54843808419675E-02 
451	 0.095539825104886 
452	 9.56077387181442E-02 
453	 9.56616957799511E-02 
454	 9.57729933417054E-02 
455	 9.58118291739466E-02 
456	 9.58428050108062E-02 
457	 9.59540375877864E-02 
458	 0.095948409067191 
459	 9.59992882618458E-02 
460	 9.60720676031704E-02 
461	 0.095928834090247 
462	 9.60188275388064E-02 
463	 9.60889492572162E-02 
464	 9.59654225655801E-02 
465	 9.60967566083875E-02 
466	 9.61407452247178E-02 
467	 9.61710690878757E-02 
468	 9.63938670152365E-02 
469	 9.64020597564991E-02 
470	 9.63934519225972E-02 
471	 9.64680776784152E-02 
472	 9.65201499205674E-02 
473	 9.66080598425714E-02 
474	 0.096689096878063 
475	 9.67141405325937E-02 
476	 9.66830686020783E-02 
477	 9.67784566456399E-02 
478	 9.69287465914488E-02 
479	 9.69157793992637E-02 
480	 9.69749602005735E-02 
481	 0.097133254319626 
482	 9.73436366263981E-02 
483	 9.74608029706671E-02 
484	 9.76933699996572E-02 
485	 9.79719461860145E-02 
486	 9.81549979805593E-02 
487	 9.83100350723779E-02 
488	 9.85477400139843E-02 
489	 9.87936601191018E-02 
490	 9.88179716228317E-02 
491	 9.90134227634206E-02 
492	 9.92591738072256E-02 
493	 9.94188956817187E-02 
494	 9.95860840729585E-02 
495	 9.98993311132355E-02 
496	 0.100256018260402 
497	 0.100455849055846 
498	 0.100637022329813 
499	 0.100885541353368 
500	 0.101176802422517 
501	 0.101324126494829 
502	 0.101598039953603 
503	 0.10194320546749 
504	 0.102230909666872 
505	 0.102438165648188 
506	 0.102705768036145 
507	 0.103063094159694 
508	 0.103447320596725 
509	 0.103883063335716 
510	 0.104272567484164 
511	 0.10458781188248 
512	 0.105001710234585 
513	 0.105438829116851 
514	 0.105858118434782 
515	 0.106249174790412 
516	 0.106756041632559 
517	 0.107290071457279 
518	 0.107757446592683 
519	 0.108092795578246 
520	 0.108471320764761 
521	 0.108815035452342 
522	 0.109085773308418 
523	 0.109609823915925 
524	 0.109986179768599 
525	 0.110314404119689 
526	 0.110996158004358 
527	 0.111488053385933 
528	 0.111892931928758 
529	 0.112325864331105 
530	 0.112724801525425 
531	 0.113229667354721 
532	 0.113761980054529 
533	 0.114201315513202 
534	 0.114728045537655 
535	 0.11528453929531 
536	 0.115802809543437 
537	 0.1162208086215 
538	 0.116778615325433 
539	 0.117356065687803 
540	 0.117857457480961 
541	 0.118579143891849 
542	 0.119274474080503 
543	 0.119855431501928 
544	 0.120363452568962 
545	 0.121014863434595 
546	 0.121701102095702 
547	 0.12232769085842 
548	 0.122908335344847 
549	 0.123571634946907 
550	 0.124185535240513 
551	 0.124598025953346 
552	 0.125118788501649 
553	 0.125568436953499 
554	 0.125893871573196 
555	 0.126211125478368 
556	 0.126498984704967 
557	 0.126758176376799 
558	 0.127032344017961 
559	 0.127493948405174 
560	 0.128057397725571 
561	 0.12868265177733 
562	 0.129366138953567 
563	 0.130143364959445 
564	 0.130857451414431 
565	 0.131421111824015 
566	 0.131915071529331 
567	 0.132456986775937 
568	 0.132954616111333 
569	 0.133283873082721 
570	 0.133661855392863 
571	 0.133991911046322 
572	 0.134227569664302 
573	 0.134394917427194 
574	 0.134444539077387 
575	 0.134638979987333 
576	 0.135129730307905 
577	 0.135497714206372 
578	 0.135941623666764 
579	 0.136448509496495 
580	 0.136864179193735 
581	 0.137007345490321 
582	 0.137082083961274 
583	 0.137172198871882 
584	 0.137057453484571 
585	 0.136699801544738 
586	 0.13629246962948 
587	 0.13608874684958 
588	 0.136040875366608 
589	 0.136263945117796 
590	 0.136641899875426 
591	 0.136855274161389 
592	 0.13701789005669 
593	 0.137265492076917 
594	 0.137631392849784 
595	 0.137826545067776 
596	 0.138120487024694 
597	 0.13838623339367 
598	 0.1383299877579 
599	 0.138385253124979 
600	 0.138469616002858 
601	 0.138533238922966 
602	 0.138695762402862 
603	 0.138874889215328 
604	 0.139041545531789 
605	 0.139192659211607 
606	 0.139389083698345 
607	 0.139436998513091 
608	 0.139430870199049 
609	 0.139743704609676 
610	 0.139722880057927 
611	 0.139632587650201 
612	 0.139730848303863 
613	 0.139645713251197 
614	 0.139691123912615 
615	 0.139818206682349 
616	 0.139796336830638 
617	 0.139763109867569 
618	 0.139753629964343 
619	 0.139771989864086 
620	 0.139792577923614 
621	 0.139806329350548 
622	 0.139813761311761 
623	 0.13981736984291 
624	 0.139832550205446 
625	 0.13963888266167 
626	 0.139343791028534 
627	 0.139355247694234 
628	 0.139457210977955 
629	 0.139575105575744 
630	 0.139671116411599 
631	 0.139720125246285 
632	 0.139905294429419 
633	 0.140087849279482 
634	 0.140038238274378 
635	 0.140112847472418 
636	 0.140331636697303 
637	 0.140566205462486 
638	 0.140528525822087 
639	 0.140593700099094 
640	 0.140736890757266 
641	 0.140826666018277 
642	 0.140824880358784 
643	 0.14080731846169 
644	 0.140674934717572 
645	 0.140223657657219 
646	 0.140014182357697 
647	 0.140110981775416 
648	 0.140375905367423 
649	 0.140481714258627 
650	 0.140471233601424 
651	 0.140475573716112 
652	 0.140585757226921 
653	 0.140318326308777 
654	 0.140096003490549 
655	 0.140133545092952 
656	 0.140250195904395 
657	 0.140182505850255 
658	 0.139986906968454 
659	 0.139781082169144 
660	 0.139669675749162 
661	 0.139482773479799 
662	 0.139229102673966 
663	 0.139032633222977 
664	 0.138909998513047 
665	 0.138745237044717 
666	 0.138499183643354 
667	 0.138292107258794 
668	 0.138274069576696 
669	 0.138269783666394 
670	 0.13809556795469 
671	 0.138125995013987 
672	 0.138210834749018 
673	 0.138320752508632 
674	 0.138551355227076 
675	 0.13872527209108 
676	 0.138881528601624 
677	 0.139081653592018 
678	 0.139323734764465 
679	 0.139674115099411 
680	 0.13999631716655 
681	 0.14013709961316 
682	 0.140520886864735 
683	 0.140948968311518 
684	 0.141159100615589 
685	 0.140860346411552 
686	 0.140872031512283 
687	 0.141302909358378 
688	 0.141888107296148 
689	 0.14244422995397 
690	 0.142928399014847 
691	 0.143184168029451 
692	 0.143074481716061 
693	 0.143469248016441 
694	 0.144190708631506 
695	 0.144855440968056 
696	 0.145165277674129 
697	 0.145082009535389 
698	 0.144822668060352 
699	 0.14468616470187 
700	 0.144744125020237 
701	 0.145034202556708 
702	 0.145366417417673 
703	 0.145423209541911 
704	 0.145293269900797 
705	 0.145255576817389 
706	 0.145417234046609 
707	 0.145478314460394 
708	 0.145359186989748 
709	 0.145127489487565 
710	 0.144913461659164 
711	 0.14478844187938 
712	 0.144486903533956 
713	 0.143857047507078 
714	 0.142869389699421 
715	 0.141597927141263 
716	 0.140128616399147 
717	 0.138828664814747 
718	 0.138294697801873 
719	 0.138406338594509 
720	 0.13865236991049 
721	 0.138575649132479 
722	 0.137713603308274 
723	 0.136669220321334 
724	 0.135903060705902 
725	 0.135215489121767 
726	 0.134538758011784 
727	 0.133805383679081 
728	 0.132960135580787 
729	 0.131859440457862 
730	 0.131166600234444 
731	 0.130821862124967 
732	 0.130385578375685 
733	 0.12970769375611 
734	 0.128970046551443 
735	 0.12833689241215 
736	 0.127925302610525 
737	 0.127763021462077 
738	 0.127765038125834 
739	 0.127825543913738 
740	 0.127859646938992 
741	 0.127990772983632 
742	 0.128186400803102 
743	 0.128332566761029 
744	 0.128374098733783 
745	 0.128408427479649 
746	 0.12848431820439 
747	 0.128562931187435 
748	 0.128658253402821 
749	 0.128786549275339 
750	 0.12892391372513 
751	 0.128909948902938 
752	 0.128964225076402 
753	 0.129058217601433 
754	 0.129054665544779 
755	 0.129196001786804 
756	 0.129105730877918 
757	 0.128589274005279 
758	 0.127542298559122 
759	 0.125821330538309 
760	 0.124090078155719 
761	 0.124072846609908 
762	 0.124140788070195 
763	 0.124791563922962 
764	 0.126038115703684 
765	 0.127582045591173 
766	 0.128629846237893 
767	 0.129258903601422 
768	 0.129694542026221 
769	 0.130243270663393 
770	 0.130540570371316 
771	 0.13068356025648 
772	 0.13083270182718 
773	 0.131062124016556 
774	 0.131207600737669 
775	 0.131329472940377 
776	 0.131546476487593 
777	 0.131661650690232 
778	 0.131822357371933 
779	 0.132059100442362 
780	 0.132262922164045 
781	 0.132420747309853 
782	 0.132550802160369 
783	 0.132656851229681 
784	 0.132687345157225 
785	 0.132732560964275 
786	 0.132727828558163 
787	 0.132616642823893 
788	 0.132660714797057 
789	 0.132880930570143 
790	 0.133245256240954 
791	 0.133673064376811 
792	 0.13399770624993 
793	 0.134169247371386 
794	 0.134207559071808 
795	 0.134193186206473 
796	 0.134316160707013 
797	 0.134498124988018 
798	 0.134632073903415 
799	 0.134829531161719 
800	 0.134753248027719 
801	 0.134605331245321 
802	 0.134822499086276 
803	 0.135053939374122 
804	 0.135401737540603 
805	 0.135690810740051 
806	 0.135450011612198 
807	 0.135195749731306 
808	 0.134983452246681 
809	 0.134689892039505 
810	 0.133941638824379 
811	 0.133369628796427 
812	 0.132739865017937 
813	 0.131618353784166 
814	 0.130764371836478 
815	 0.130320391269721 
816	 0.130150409847202 
817	 0.129968846491944 
818	 0.130369956411488 
819	 0.130377917028469 
820	 0.129742933691954 
821	 0.129201723506453 
822	 0.128224257046217 
823	 0.127344799124987 
824	 0.126861553212393 
825	 0.125912848309713 
826	 0.124779501265109 
827	 0.123503108538062 
828	 0.122179463486719 
829	 0.121050773591645 
830	 0.119953557035443 
831	 0.118938009603617 
832	 0.118221228520669 
833	 0.117541541583027 
834	 0.117091798667671 
835	 0.116862674330197 
836	 0.116541386731445 
837	 0.11645469507913 
838	 0.11616867108949 
839	 0.115553877418125 
840	 0.11569649915772 
841	 0.115528034595903 
842	 0.115136771941968 
843	 0.114956019227569 
844	 0.114860627524532 
845	 0.114716596272244 
846	 0.114454434659811 
847	 0.114084057354966 
848	 0.113853465105786 
849	 0.113442334115832 
850	 0.112949796221343 
851	 0.11301767646829 
852	 0.11262007687772 
853	 0.112254697362347 
854	 0.112278150333626 
855	 0.112047241062691 
856	 0.111782353913897 
857	 0.111705328339741 
858	 0.111816272198293 
859	 0.111312085037318 
860	 0.111041190840946 
861	 0.111022018224848 
862	 0.110844576616315 
863	 0.110428363987845 
864	 0.110161101555653 
865	 0.110027238314022 
866	 0.109651287100823 
867	 0.109300267087054 
868	 0.109083151333219 
869	 0.108892406940956 
870	 0.108398365691374 
871	 0.108019881877097 
872	 0.107737170844022 
873	 0.107479850145859 
874	 0.107318602651421 
875	 0.106644248678449 
876	 0.105999135441517 
877	 0.105921303137984 
878	 0.105560671098381 
879	 0.105150840986828 
880	 0.104714913783573 
881	 0.104224340996322 
882	 0.103923176638107 
883	 0.103422282260089 
884	 0.102786185868339 
885	 0.102420872981614 
886	 0.102373912439419 
887	 0.10176856552608 
888	 0.100844144707525 
889	 0.101037513618036 
890	 0.100461303326892 
891	 9.96288354565791E-02 
892	 9.90341380803845E-02 
893	 9.83131534315219E-02 
894	 9.74199134698402E-02 
895	 9.64700863720246E-02 
896	 9.56232358673951E-02 
897	 9.49330110857107E-02 
898	 9.43369608349824E-02 
899	 0.093723690284015 
900	 0.093115613695857 
901	 9.29682371559675E-02 
902	 9.29841062232269E-02 
903	 0.093017598637865 
904	 0.092913132433256 
905	 9.20591046540264E-02 
906	 0.091564675321926 
907	 9.12080184173037E-02 
908	 0.08999645539601 
909	 8.93132401117427E-02 
910	 8.89035932800358E-02 
911	 8.84040542696931E-02 
912	 8.75510670471827E-02 
913	 8.64241790269502E-02 
914	 8.55137282052525E-02 
915	 8.50048490312157E-02 
916	 8.46023082783161E-02 
917	 8.35445225974254E-02 
918	 8.21339861377786E-02 
919	 8.11790291262337E-02 
920	 8.17643971723125E-02 
921	 8.14321808519964E-02 
922	 8.00746484813425E-02 
923	 7.83587024960985E-02 
924	 7.75553813814394E-02 
925	 7.64092364515058E-02 
926	 7.48223884612251E-02 
927	 0.07321434106581 
928	 7.25488772389146E-02 
929	 7.17341992259473E-02 
930	 7.12227342174813E-02 
931	 7.13922916478646E-02 
932	 0.066416561860289 
933	 6.27409519134158E-02 
934	 6.15797639554637E-02 
935	 5.96348049904305E-02 
936	 5.41831597364775E-02 
937	 5.48869412534009E-02 
938	 5.86660631746298E-02 
939	 5.92938598353056E-02 
940	 5.42629975990805E-02 
941	 0.052561376223798 
942	 5.40354184877798E-02 
943	 5.32464175595157E-02 
944	 4.49118451439634E-02 
945	 4.30230570255857E-02 
946	 4.65456373425731E-02 
947	 4.58104115094011E-02 
948	 4.53014359442305E-02 
949	 4.44790049754133E-02 
950	 0.043388841044455 
951	 4.24817932759989E-02 
952	 4.17748268174319E-02 
953	 4.07987280593478E-02 
954	 4.05826309778276E-02 
955	 4.23302433245141E-02 
956	 4.22759543999534E-02 
957	 4.03345060040739E-02 
958	 3.84910304513722E-02 
959	 3.91023470222685E-02 
960	 3.94090233905001E-02 
961	 3.92561419274445E-02 
962	 3.96095227420681E-02 
963	 4.13491891087634E-02 
964	 4.12362251165994E-02 
965	 0.039916875360072 
966	 3.95250272226427E-02 
967	 4.19513096292615E-02 
968	 4.17722154480347E-02 
969	 4.15853534382674E-02 
970	 0.041645582975406 
971	 4.01962434189271E-02 
972	 0.041879004831297 
973	 4.26551187598705E-02 
974	 4.16535162336021E-02 
975	 4.17212068056788E-02 
976	 4.10026255306011E-02 
977	 4.06718768229194E-02 
978	 4.16081379075709E-02 
979	 0.043520949388575 
980	 4.21887139431858E-02 
981	 4.13218329427109E-02 
982	 4.18409376569948E-02 
983	 4.17817963723819E-02 
984	 4.08956583184619E-02 
985	 4.14432995496846E-02 
986	 4.32406130914238E-02 
987	 0.043933212073337 
988	 4.14316209512808E-02 
989	 4.20135157945604E-02 
990	 4.54952246510051E-02 
991	 4.64286096163314E-02 
992	 4.33392349186823E-02 
993	 4.23567609262249E-02 
994	 4.39127368724248E-02 
995	 4.43512727968356E-02 
996	 4.52671424434457E-02 
997	 4.67610703277953E-02 
998	 0.046952425671908 
999	 0.044272789542103 
1000	 4.48519843710925E-02 
1001	 4.50895822756763E-02 
1002	 0.044995926009185 
1003	 4.51497517467012E-02 
1004	 4.50511489828348E-02 
1005	 4.52276590741991E-02 
1006	 4.56397905083326E-02 
1007	 4.61179376964329E-02 
1008	 4.64959248962929E-02 
1009	 4.71546153972252E-02 
1010	 4.76622019385209E-02 
1011	 4.79501251008731E-02 
1012	 4.77930970788805E-02 
1013	 4.77377821332688E-02 
1014	 4.80183906428882E-02 
1015	 4.82629816323271E-02 
1016	 4.87479032539077E-02 
1017	 4.99368144882766E-02 
1018	 0.050499982320623 
1019	 5.10160121349698E-02 
1020	 5.11755587529005E-02 
1021	 5.07744385701467E-02 
1022	 5.06203736192145E-02 
1023	 5.04986563123732E-02 
1024	 5.08029067241288E-02 
1025	 5.17694659264772E-02 
1026	 5.24801879305632E-02 
1027	 5.31505957296511E-02 
1028	 5.39807212173554E-02 
1029	 5.44022901640422E-02 
1030	 5.44503577767665E-02 
1031	 5.48811640565955E-02 
1032	 5.51979233816455E-02 
1033	 5.57387715474233E-02 
1034	 5.65388983052987E-02 
1035	 0.057327573323102 
1036	 5.84271698412101E-02 
1037	 5.90572471537786E-02 
1038	 5.93507018316833E-02 
1039	 6.00083122416247E-02 
1040	 6.01278900884681E-02 
1041	 0.060443417970957 
1042	 6.10200153373678E-02 
1043	 6.19513560022557E-02 
1044	 6.25501444937109E-02 
1045	 6.31676521349341E-02 
1046	 6.38069588156122E-02 
1047	 6.44532838670605E-02 
1048	 6.49103969497999E-02 
1049	 6.52957659231896E-02 
1050	 6.57126791905213E-02 
1051	 6.59027847822306E-02 
1052	 0.066235437134985 
1053	 6.67501149505598E-02 
1054	 6.71990500435978E-02 
1055	 6.75198838076743E-02 
1056	 6.79710934315521E-02 
1057	 6.84906322188316E-02 
1058	 6.91848097365057E-02 
1059	 6.95960642863211E-02 
1060	 7.00524565412829E-02 
1061	 7.02606887739872E-02 
1062	 7.00842267844445E-02 
1063	 0.070211478771331 
1064	 7.03099398457661E-02 
1065	 7.05287021273081E-02 
1066	 7.09895145353054E-02 
1067	 7.12807789664762E-02 
1068	 7.17159080860188E-02 
1069	 7.18389350616695E-02 
1070	 7.15000516939821E-02 
1071	 7.14870043305422E-02 
1072	 0.071562183763867 
1073	 7.15651402638448E-02 
1074	 7.14203914345472E-02 
1075	 7.15296244765279E-02 
1076	 0.071312803170002 
1077	 7.05300379675898E-02 
1078	 7.02374004759057E-02 
1079	 6.99978793706701E-02 
1080	 6.99132027849318E-02 
1081	 7.04677698349116E-02 
1082	 7.02711863197319E-02 
1083	 6.96607488494338E-02 
1084	 6.93294581822551E-02 
1085	 6.83650105397057E-02 
1086	 6.78977872962337E-02 
1087	 6.84461441359327E-02 
1088	 6.82735638419971E-02 
1089	 6.76765000923632E-02 
1090	 6.73685816901522E-02 
1091	 6.66838469556556E-02 
1092	 6.51585419524282E-02 
1093	 6.46513450659134E-02 
1094	 6.47183954306585E-02 
1095	 6.42903811173641E-02 
1096	 6.40522664217994E-02 
1097	 6.37562008753646E-02 
1098	 0.063021604071122 
1099	 6.26042593584235E-02 
1100	 6.27438933051539E-02 
1101	 6.24812364486492E-02 
1102	 6.20096200168016E-02 
1103	 6.14552570188881E-02 
1104	 6.06423360733103E-02 
1105	 0.059712253359038 
1106	 5.95284629111152E-02 
1107	 5.97115704389202E-02 
1108	 5.86169176874016E-02 
1109	 0.057532187688761 
1110	 5.73860527963373E-02 
1111	 5.68914790650983E-02 
1112	 5.64388427318398E-02 
1113	 5.85239775275744E-02 
1114	 5.86108403330365E-02 
1115	 5.52081449270008E-02 
1116	 0.05391913003427 
1117	 5.37262342411645E-02 
1118	 5.30674541990884E-02 
1119	 5.36934465919079E-02 
1120	 5.43506326712221E-02 
1121	 5.66248297218944E-02 
1122	 5.50064705523202E-02 
1123	 5.36071463926067E-02 
1124	 5.51987434868336E-02 
1125	 0.05775817041194 
1126	 5.67777130017497E-02 
1127	 5.32665979704978E-02 
1128	 5.15046895541415E-02 
1129	 4.84283392938906E-02 
1130	 4.09127711743719E-02 
1131	 4.15518410791877E-02 
1132	 4.82686830732866E-02 
1133	 4.75442556531815E-02 
1134	 0.045235332421239 
1135	 4.56470156981106E-02 
1136	 4.44556617020237E-02 
1137	 4.33039382063458E-02 
1138	 4.45601784170428E-02 
1139	 4.51928878582217E-02 
1140	 4.10201382167339E-02 
1141	 3.73357571066787E-02 
1142	 3.75310385964324E-02 
1143	 3.88666959250711E-02 
1144	 4.11110195504869E-02 
1145	 4.20741965892223E-02 
1146	 3.86199688877141E-02 
1147	 3.58986197909303E-02 
1148	 3.62345826744717E-02 
1149	 3.70840559168432E-02 
1150	 0.037759516215063 
1151	 4.11392914639496E-02 
1152	 4.06520088604182E-02 
1153	 3.73514357368353E-02 
1154	 3.67411382377331E-02 
1155	 3.63709874725433E-02 
1156	 3.64008195737365E-02 
1157	 0.036596284970866 
1158	 3.58584171054643E-02 
1159	 3.47139114587455E-02 
1160	 3.43577318969921E-02 
1161	 3.44455602973775E-02 
1162	 0.034894097345062 
1163	 3.55789454083556E-02 
1164	 3.53058182902896E-02 
1165	 3.44653913307929E-02 
1166	 3.39789410437599E-02 
1167	 0.033677152251037 
1168	 3.37096421341525E-02 
1169	 3.36663083189688E-02 
1170	 3.34634895458239E-02 
1171	 3.36332064793438E-02 
1172	 3.41148397332169E-02 
1173	 3.39875246854675E-02 
1174	 3.37547404128601E-02 
1175	 3.36912993477643E-02 
1176	 0.033660357998003 
1177	 3.34123555218873E-02 
1178	 3.32239367005052E-02 
1179	 3.35048095243633E-02 
1180	 0.033687411910147 
1181	 3.32707945853923E-02 
1182	 3.30774045982638E-02 
1183	 3.35568610348409E-02 
1184	 3.36527741883065E-02 
1185	 3.33815051060318E-02 
1186	 3.35887426825892E-02 
1187	 3.34323712485082E-02 
1188	 3.30708626580165E-02 
1189	 3.34778411743055E-02 
1190	 3.37721356614463E-02 
1191	 3.35186255826251E-02 
1192	 3.35236787198647E-02 
1193	 3.35158521017937E-02 
1194	 3.35847937836688E-02 
1195	 3.33716967926597E-02 
1196	 3.32390248005222E-02 
1197	 3.35773434811606E-02 
1198	 3.33865200225939E-02 
1199	 3.28111339433008E-02 
1200	 3.30281431371415E-02 
1201	 3.33286749647221E-02 
1202	 3.29563381097179E-02 
1203	 3.29350615518728E-02 
1204	 3.34434755045288E-02 
1205	 3.31799253031433E-02 
1206	 3.29518680305854E-02 
1207	 3.36439011070759E-02 
1208	 3.37817729762176E-02 
1209	 3.31919161902537E-02 
1210	 3.31595317332336E-02 
1211	 3.37236826311683E-02 
1212	 0.034095364866146 
1213	 3.43866036586445E-02 
1214	 3.44852521086429E-02 
1215	 3.44297865946292E-02 
1216	 3.37284339247624E-02 
1217	 3.34234233920344E-02 
1218	 3.36140968604517E-02 
1219	 0.033939292592443 
1220	 3.38851742323506E-02 
1221	 0.033513989715442 
1222	 3.36120986972243E-02 
1223	 3.39251121591685E-02 
1224	 3.40610693562548E-02 
1225	 3.37424780657872E-02 
1226	 0.03340019256358 
1227	 3.37252572389688E-02 
1228	 3.40855899450529E-02 
1229	 3.42602878294866E-02 
1230	 3.43127084053692E-02 
1231	 3.40098524444007E-02 
1232	 3.35851166677332E-02 
1233	 3.36659829681491E-02 
1234	 0.034144080034896 
1235	 3.42528854461504E-02 
1236	 3.38931051958378E-02 
1237	 3.40198714528427E-02 
1238	 3.43847905324635E-02 
1239	 3.44237391092563E-02 
1240	 3.43270056845909E-02 
1241	 0.0344135502789 
1242	 3.43193543510795E-02 
1243	 3.41939400432819E-02 
1244	 3.42863953990267E-02 
1245	 3.43722858688709E-02 
1246	 3.43261565810274E-02 
1247	 0.034195749761953 
1248	 3.42225880661813E-02 
1249	 3.45111101011538E-02 
1250	 3.44990361077719E-02 
1251	 3.42368255959087E-02 
1252	 3.44010745071579E-02 
1253	 3.46030542346007E-02 
1254	 3.44833463668364E-02 
1255	 3.44545015798658E-02 
1256	 3.45112534231572E-02 
1257	 3.44299291572592E-02 
1258	 0.034421700169139 
1259	 3.47362960250144E-02 
1260	 3.48542450296223E-02 
1261	 3.48262858156606E-02 
1262	 3.47930882254368E-02 
1263	 3.46607226326811E-02 
1264	 3.46291789729945E-02 
1265	 0.034687369272058 
1266	 3.46686698408853E-02 
1267	 3.49245615944898E-02 
1268	 3.51329767315645E-02 
1269	 3.49672108797054E-02 
1270	 3.48199486695057E-02 
1271	 3.49753218613069E-02 
1272	 0.035113518691133 
1273	 3.49202969583008E-02 
1274	 3.49047378970461E-02 
1275	 0.034709922276845 
1276	 3.42803345707311E-02 
1277	 3.45641452838624E-02 
1278	 3.48726290359167E-02 
1279	 3.49324809497636E-02 
1280	 3.49449172767327E-02 
1281	 3.47963685339364E-02 
1282	 3.41564985667966E-02 
1283	 3.41446257631141E-02 
1284	 3.45579764930682E-02 
1285	 3.44670922968904E-02 
1286	 3.43394410660593E-02 
1287	 3.43630583916216E-02 
1288	 3.39760170333482E-02 
1289	 3.38712517216143E-02 
1290	 3.40433772654074E-02 
1291	 3.46321330530796E-02 
1292	 3.46023809953162E-02 
1293	 3.41961877493749E-02 
1294	 3.40281179845934E-02 
1295	 3.37099010967478E-02 
1296	 3.38721193719505E-02 
1297	 3.42207174560956E-02 
1298	 3.40110966828975E-02 
1299	 3.37584412664816E-02 
1300	 3.33064179932679E-02 
1301	 3.29748056776011E-02 
1302	 3.31974208740223E-02 
1303	 3.32463349262621E-02 
1304	 3.29532114892384E-02 
1305	 0.032944327823724 
1306	 3.29464016253932E-02 
1307	 3.32773122225333E-02 
1308	 3.31278834955097E-02 
1309	 3.26711467369321E-02 
1310	 3.25256809654547E-02 
1311	 3.22081564766095E-02 
1312	 3.20708826516827E-02 
1313	 3.25072837791132E-02 
1314	 3.23612330692422E-02 
1315	 3.16114784550696E-02 
1316	 3.13416154283169E-02 
1317	 3.13441250610906E-02 
1318	 3.11630061798681E-02 
1319	 3.08420467459428E-02 
1320	 3.08116118799682E-02 
1321	 3.12959720647342E-02 
1322	 3.08372333415951E-02 
1323	 2.92635860473905E-02 
1324	 2.87482927602087E-02 
1325	 2.87231823320986E-02 
1326	 2.81107778920429E-02 
1327	 2.86258710365604E-02 
1328	 2.95603858330174E-02 
1329	 2.88626628843901E-02 
1330	 2.83518250717576E-02 
1331	 2.83376918089969E-02 
1332	 2.80052466705576E-02 
1333	 2.81571548334114E-02 
1334	 0.028306060617745 
1335	 2.83241309711366E-02 
1336	 2.81524869449501E-02 
1337	 2.79121860576154E-02 
1338	 2.74567391304871E-02 
1339	 0.027249869839161 
1340	 2.73741865529269E-02 
1341	 2.72622275145179E-02 
1342	 2.58635868467873E-02 
1343	 2.68443374362152E-02 
1344	 3.16535927217722E-02 
1345	 3.15869184607983E-02 
1346	 2.76306665480229E-02 
1347	 3.06468441736533E-02 
1348	 3.71359527614601E-02 
1349	 3.73028395618205E-02 
1350	 4.07930876038927E-02 
1351	 5.38295118140457E-02 
1352	 5.74215194494052E-02 
1353	 5.71039879079759E-02 
1354	 8.22245103495212E-02 
1355	 0.157189853879668 
1356	 0.146080010995454 
1357	 7.19526481167735E-02 
1358	 0.130803264733781 
1359	 0.251736862624928 
1360	 0.316608840060313 
1361	 0.533284749496407 
1362	 0.859763315430351 
1363	 0.698399733302224 
1364	 0.410512275816418 
1365	 0.510704430298151 
1366	 0.979739005201296 
1367	 1.47668979237623 
1368	 1.62805096053828 
1369	 0.907980413288749 
1370	 1.01025992192725 
1371	 1.60696916365558 
1372	 1.31297174321459 
1373	 1.00541825459661 
1374	 1.1218292714082 
1375	 0.715939204782361 
1376	 0.648974529138538 
1377	 2.02961093186115 
1378	 2.13184184552521 
1379	 0.397736307991675 
1380	 0.199360051672588 
1381	 0.243613524679352 
1382	 0.302060723451843 
1383	 1.22265546432749 
1384	 1.23443686637446 
1385	 0.492683033985021 
1386	 0.456060849186269 
1387	 0.816110444328838 
1388	 0.558024082899127 
1389	 0.174863478991501 
1390	 0.2797609652412 
1391	 0.39800854343003 
1392	 0.367911105160782 
1393	 0.493843403464922 
1394	 1.32351187691524 
1395	 1.72834778506092 
1396	-9.42344950561868E-02 
1397	-0.206970167019258 
1398	 0.333843732428027 
1399	 0.514559980915503 
1400	 0.815936551355592 
1401	 1.12613139251105 
1402	 0.86637426792489 
1403	 0.520607744461887 
1404	 0.277054108385185 
1405	 0.190798506798702 
1406	 0.563143368029793 
1407	 0.25019502846744 
1408	 2.02228862841364E-02 
1409	 6.24412545762689E-02 
1410	 7.19763694526177E-02 
1411	 8.15833956617366E-02 
1412	 0.250596513555708 
1413	 0.239821318193165 
1414	 0.107848494351315 
1415	 7.73675828779683E-02 
1416	 7.39391174530681E-02 
1417	 7.37164009655314E-02 
1418	 9.41782275439721E-02 
1419	 6.91422158658046E-02 
1420	 2.45880827684165E-02 
1421	 2.23145026935511E-02 
1422	 2.99999987207986E-02 
1423	 2.69691636185836E-02 
1424	 3.01452994560126E-02 
1425	 3.37939870507329E-02 
1426	 0.031535227095867 
1427	 0.025735239718545 
1428	 2.47486366732466E-02 
1429	 2.41475829897361E-02 
1430	 1.60769266042561E-02 
1431	 1.41725033370323E-02 
1432	 1.39977429879394E-02 
1433	 1.45076536723337E-02 
1434	 2.91869175237589E-02 
1435	 2.81349988293974E-02 
1436	 1.43207629177932E-02 
1437	 3.85368097542438E-03 
1438	 2.38104499656052E-02 
1439	 3.09203553646035E-02 
1440	 2.60968604076765E-02 
1441	 2.76667650746726E-02 
1442	 2.16598570985159E-02 
1443	 6.53781365117541E-03 
1444	-4.00234161707638E-05 
1445	 7.87007745543766E-03 
1446	 1.26671974652311E-02 
1447	 1.09184463832332E-02 
1448	 1.10580687897792E-02 
1449	 1.25792403859224E-02 
1450	 1.30522052585246E-02 
1451	 9.61462958237329E-03 
1452	 6.29209639709683E-03 
1453	 6.30879575901722E-03 
1454	 6.84362232457328E-03 
1455	 7.41146706193322E-03 
1456	 5.10239583585431E-03 
1457	 2.15295908210461E-03 
1458	 3.34208130310122E-03 
1459	 4.24099451047645E-03 
1460	 3.58991758630629E-03 
1461	 5.20109166885265E-03 
1462	 7.77791567081349E-03 
1463	 8.76797029309951E-03 
1464	 9.24753154990664E-03 
1465	 1.44639248087997E-02 
1466	 1.52319580884275E-02 
1467	 8.91684201003378E-03 
1468	 6.24246831395165E-03 
1469	 4.72692865304984E-03 
1470	 4.0687732345151E-03 
1471	 4.83441708107813E-03 
1472	 3.41426645414917E-03 
1473	 1.6235746601295E-03 
1474	 1.78666071006424E-03 
1475	 2.42690833808192E-03 
1476	 7.27291175526629E-04 
1477	-1.99175464525041E-03 
1478	-8.97990791502775E-04 
1479	 4.52588233645241E-04 
1480	 4.31571426477103E-04 
1481	 2.99253700549083E-03 
1482	 4.33491244778727E-03 
1483	 3.64455971285425E-03 
1484	 2.59111293101057E-03 
1485	 2.43672781910358E-03 
1486	 2.01012677206896E-03 
1487	-8.53539878920252E-04 
1488	-1.01879414965496E-03 
1489	 8.76907435112728E-04 
1490	 1.34309714414859E-03 
1491	 2.50419127522766E-03 
1492	 2.61174589486504E-03 
1493	 9.8382838363554E-04 
1494	 8.9315122109825E-04 
1495	 1.55453585611423E-03 
1496	 1.4262111828102E-03 
1497	 1.52543520490324E-03 
1498	 1.83949562548651E-03 
1499	 1.78722820079107E-03 
1500	 1.66571585108338E-03 
1501	 0.001714864695676 
1502	 1.84794369678497E-03 
1503	 1.7953219923792E-03 
1504	 1.79153658313199E-03 
1505	 1.96571014541984E-03 
1506	 2.27996423650789E-03 
1507	 2.70206778617662E-03 
1508	 2.68279662719265E-03 
1509	 2.06375057489788E-03 
1510	 2.21401951634902E-03 
1511	 2.82820207764234E-03 
1512	 2.62320298923928E-03 
1513	 2.45818081463597E-03 
1514	 2.65482368982219E-03 
1515	 2.64370729214095E-03 
1516	 2.44234814942998E-03 
1517	 2.01630341579617E-03 
1518	 2.18692450550165E-03 
1519	 2.58264132006609E-03 
1520	 2.20336041794016E-03 
1521	 2.24198076586913E-03 
1522	 2.62643484255177E-03 
1523	 2.25140914567911E-03 
1524	 2.05709926766528E-03 
1525	 2.57856223660796E-03 
1526	 2.87435415515674E-03 
1527	 2.5636594904212E-03 
1528	 2.46732596130551E-03 
1529	 2.4845559268332E-03 
1530	 2.12647756852413E-03 
1531	 2.50709386285812E-03 
1532	 3.22878683608413E-03 
1533	 3.24113085484361E-03 
1534	 3.05581159864379E-03 
1535	 3.22611739097129E-03 
1536	 3.52274421720321E-03 
1537	 3.61598151844351E-03 
1538	 3.72543474215927E-03 
1539	 3.57842745887949E-03 
1540	 3.35807427052699E-03 
1541	 3.3531659426702E-03 
1542	 3.2776404299488E-03 
1543	 3.4118440311753E-03 
1544	 3.58869429901731E-03 
1545	 3.35623298473078E-03 
1546	 3.30214185683104E-03 
1547	 3.58574482163521E-03 
1548	 3.55319497284668E-03 
1549	 3.42453663030737E-03 
1550	 3.70102936157236E-03 
1551	 4.06600325663605E-03 
1552	 4.25599365922018E-03 
1553	 0.004392835289862 
1554	 4.2842691867429E-03 
1555	 4.08004679937225E-03 
1556	 4.06432151793859E-03 
1557	 4.09092150828788E-03 
1558	 4.40318291155582E-03 
1559	 4.8439199400613E-03 
1560	 4.69851622053499E-03 
1561	 4.59960481350576E-03 
1562	 5.03915574330937E-03 
1563	 5.39045889375657E-03 
1564	 5.75857134654533E-03 
1565	 6.02707441025625E-03 
1566	 5.70094990700967E-03 
1567	 5.12974266338903E-03 
1568	 5.05359704770517E-03 
1569	 5.56542773876999E-03 
1570	 5.86639048364003E-03 
1571	 5.46793319866309E-03 
1572	 5.39274662215147E-03 
1573	 5.87513746218338E-03 
1574	 5.78458758288083E-03 
1575	 5.81709297929031E-03 
1576	 0.00648168105488 
1577	 6.69128094469087E-03 
1578	 6.50924198816053E-03 
1579	 6.84710002462489E-03 
1580	 7.02273521326021E-03 
1581	 6.40055944091335E-03 
1582	 6.11881678108994E-03 
1583	 0.006432794572596 
1584	 6.66380532747278E-03 
1585	 6.52740239977967E-03 
1586	 6.54031378815799E-03 
1587	 7.00395002417515E-03 
1588	 6.94709248981575E-03 
1589	 6.62277575493977E-03 
1590	 6.79695417748204E-03 
1591	 7.02847562667181E-03 
1592	 6.91458772228484E-03 
1593	 6.91930553736544E-03 
1594	 7.63655963012395E-03 
1595	 7.91018749372425E-03 
1596	 7.77268844918932E-03 
1597	 8.31000634556381E-03 
1598	 8.10298667141244E-03 
1599	 7.44561004830343E-03 
1600	 7.91701248623577E-03 
1601	 8.39941189314746E-03 
1602	 7.98437446920591E-03 
1603	 7.51970630907577E-03 
1604	 7.60175879279856E-03 
1605	 7.89449660614078E-03 
1606	 8.37131657975178E-03 
1607	 8.93227227659531E-03 
1608	 9.04194820381392E-03 
1609	 8.66265067982215E-03 
1610	 8.46025693234079E-03 
1611	 9.00394007077679E-03 
1612	 9.03527257507093E-03 
1613	 8.11588218232871E-03 
1614	 8.18634446603111E-03 
1615	 8.84649149052659E-03 
1616	 8.68024901116943E-03 
1617	 8.76552445311733E-03 
1618	 8.99320514641194E-03 
1619	 8.53086403989669E-03 
1620	 8.5553802931637E-03 
1621	 8.95978323544993E-03 
1622	 8.94399360213401E-03 
1623	 9.01856742767786E-03 
1624	 9.12903355317141E-03 
1625	 8.98292183972767E-03 
1626	 8.89858834981063E-03 
1627	 8.90710058810075E-03 
1628	 8.68532229041993E-03 
1629	 8.84270902312152E-03 
1630	 9.22783719613608E-03 
1631	 9.05811227530359E-03 
1632	 9.08049808433386E-03 
1633	 9.32777049271552E-03 
1634	 9.23066770075843E-03 
1635	 9.25981793114454E-03 
1636	 9.70460986606039E-03 
1637	 0.010075018395475 
1638	 0.010017671551348 
1639	 9.76892537629888E-03 
1640	 9.70800967390894E-03 
1641	 9.57773897533128E-03 
1642	 9.45056107884194E-03 
1643	 9.94150230428896E-03 
1644	 9.93320016048434E-03 
1645	 9.54065495144719E-03 
1646	 1.01280626249573E-02 
1647	 0.010455046477493 
1648	 1.00864586409918E-02 
1649	 9.7918183663866E-03 
1650	 9.50867099281166E-03 
1651	 9.58864009770707E-03 
1652	 9.99041620939045E-03 
1653	 0.010375960030965 
1654	 1.05695906840563E-02 
1655	 1.03068057140217E-02 
1656	 1.00941351922631E-02 
1657	 9.89173827084336E-03 
1658	 9.93323396686061E-03 
1659	 1.02539275069461E-02 
1660	 1.02554233728367E-02 
1661	 1.01154988465548E-02 
1662	 1.01652025596482E-02 
1663	 9.97069308500644E-03 
1664	 1.00643475913838E-02 
1665	 1.07743353901323E-02 
1666	 1.09209618134144E-02 
1667	 1.06541721961327E-02 
1668	 0.010254748610692 
1669	 1.00536469715371E-02 
1670	 1.00404729890616E-02 
1671	 0.010749107963497 
1672	 1.13879662115828E-02 
1673	 1.06865549788893E-02 
1674	 9.99651448251223E-03 
1675	 1.05149420652826E-02 
1676	 0.010774184651706 
1677	 1.08334883290265E-02 
1678	 1.16055273350802E-02 
1679	 1.11542435561485E-02 
1680	 9.90590056235781E-03 
1681	 1.01642059279669E-02 
1682	 1.04425272612915E-02 
1683	 9.9569226277301E-03 
1684	 1.03453591064814E-02 
1685	 1.06641766121642E-02 
1686	 9.90350412836001E-03 
1687	 9.75695664820397E-03 
1688	 0.010160431135021 
1689	 1.04038305589292E-02 
1690	 1.14117077660778E-02 
1691	 1.20408304626555E-02 
1692	 1.15462303344032E-02 
1693	 0.01102898794672 
1694	 1.05975124873705E-02 
1695	 1.04962856261503E-02 
1696	 1.08972959918594E-02 
1697	 1.11329633586617E-02 
1698	 1.08672538060402E-02 
1699	 0.010703486383788 
1700	 0.010704917663953 
1701	 0.010731937037992 
1702	 1.11027271741156E-02 
1703	 1.09211298274771E-02 
1704	 1.04123056375897E-02 
1705	 1.05976730082807E-02 
1706	 1.04563255029004E-02 
1707	 0.010572951696283 
1708	 1.12218614798188E-02 
1709	 1.09602497498739E-02 
1710	 0.010729811181399 
1711	 1.09480151610439E-02 
1712	 1.07011215624904E-02 
1713	 1.06157549675327E-02 
1714	 1.06660999517155E-02 
1715	 1.05606890180742E-02 
1716	 1.04986477568024E-02 
1717	 1.04496650654888E-02 
1718	 9.99507289721873E-03 
1719	 1.02855763898183E-02 
1720	 1.05200355620073E-02 
1721	 9.91579897755397E-03 
1722	 9.91509730688673E-03 
1723	 1.05863477495106E-02 
1724	 1.08905863871002E-02 
1725	 1.07546538066964E-02 
1726	 1.04694602018229E-02 
1727	 1.00587499105323E-02 
1728	 9.67122025125946E-03 
1729	 9.92316054690331E-03 
1730	 1.05299894316785E-02 
1731	 0.010123890291105 
1732	 9.46416097639737E-03 
1733	 9.8623324940701E-03 
1734	 9.95516599903066E-03 
1735	 9.48889571994349E-03 
1736	 9.58681775371925E-03 
1737	 9.98185007045825E-03 
1738	 1.04913228082369E-02 
1739	 1.07261052128052E-02 
1740	 9.62814471292658E-03 
1741	 8.49881808826718E-03 
1742	 8.24935910106387E-03 
1743	 8.03358103015933E-03 
1744	 8.83018293629427E-03 
1745	 9.94931568501521E-03 
1746	 8.97544393104577E-03 
1747	 8.83217730768152E-03 
1748	 9.55371424970264E-03 
1749	 9.21448252476727E-03 
1750	 8.03354278380882E-03 
1751	 8.45784392372815E-03 
1752	 9.72384147399844E-03 
1753	 9.39601112011053E-03 
1754	 9.37524341787748E-03 
1755	 9.02319771488415E-03 
1756	 6.43874316997955E-03 
1757	 5.91857031776682E-03 
1758	 6.2002302047139E-03 
1759	 5.17837450045683E-03 
1760	 6.51775949267249E-03 
1761	 8.27410740922748E-03 
1762	 8.10188296116735E-03 
1763	 7.9893929916165E-03 
1764	 7.22118541706384E-03 
1765	 6.24951928210703E-03 
1766	 6.01884484216364E-03 
1767	 6.9613838560133E-03 
1768	 8.37200094558278E-03 
1769	 8.39487702598647E-03 
1770	 8.19860433438259E-03 
1771	 7.57705774017088E-03 
1772	 5.99685019672601E-03 
1773	 6.6220556023436E-03 
1774	 7.98633316473994E-03 
1775	 9.01633471578413E-03 
1776	 8.99435541091682E-03 
1777	 6.14958074004099E-03 
1778	 5.59280961005108E-03 
1779	 5.83646147842908E-03 
1780	 5.74053366768759E-03 
1781	 7.94493035702995E-03 
1782	 8.21442078525621E-03 
1783	 6.2295409601925E-03 
1784	 6.56962227328066E-03 
1785	 8.46970609213349E-03 
1786	 7.54930380530167E-03 
1787	 5.55716489686013E-03 
1788	 5.31175952189871E-03 
1789	 2.20122134116549E-03 
1790	 6.84909287984892E-03 
1791	 1.16371537244644E-02 
1792	 9.08551759006331E-03 
1793	 9.87567327917879E-03 
1794	 9.07352404320261E-03 
1795	 3.07499902438598E-03 
1796	 6.00325498549674E-03 
1797	 8.13476665703271E-03 
1798	-6.2180215761857E-04 
1799	-1.21347298297611E-03 
1800	-6.83066396888422E-03 
1801	-6.90528821144765E-03 
1802	 1.47648547441079E-02 
1803	 2.48031276751247E-02 
1804	 3.22057220263582E-02 
1805	 0.041573846512375 
1806	 2.94772678031979E-02 
1807	 3.35637696798262E-02 
1808	 5.73590255756841E-02 
1809	 6.91640077709154E-02 
1810	 6.66865199266805E-02 
1811	 0.114381080385119 
1812	 0.254817465203946 
1813	 0.256224319966142 
1814	 0.162994763059531 
1815	 0.146468973729164 
1816	-8.60378038237353E-02 
1817	 0.196367181103833 
1818	 0.377267101810469 
1819	 0.171313888713341 
1820	 0.364262889827515 
1821	 0.101183685263109 
1822	-9.09409905020654E-04 
1823	 9.09749082567691E-02 
1824	 0.170845255190116 
1825	 0.554932607682647 
1826	 0.597434698802487 
1827	 0.286701347448968 
1828	 0.297765506324407 
1829	 0.299931981166159 
1830	 0.375978461361143 
1831	-1.5610884072793 
1832	-2.01706267204273 
1833	-0.209119379940286 
1834	-0.47125918148006 
1835	-1.87313862700947 
1836	-1.77782698336596 
1837	-0.3446710779312 
1838	-0.118875408691575 
1839	 5.65117702710678E-02 
1840	-0.46652504117742 
1841	-5.4638219316607 
1842	-0.973901255532937 
1843	-1.01555836247426 
1844	-2.26552100346013 
1845	-2.43244218243929 
1846	-1.04634420576475 
1847	-2.33733273286079 
1848	 25.754571769594 
1849	 1.50239087395061 
1850	 0.714730544521854 
1851	 0.927534187575764 
1852	 1.19360898330622 
1853	 0.868419145137861 
1854	 0.835700643666561 
1855	 0.316009959644994 
1856	 8.28836519637212E-02 
1857	 0.244588891877016 
1858	 0.429095589419043 
1859	 6.79247646136219 
1860	 0.824441593289882 
1861	-5.50174015650574 
1862	-3.53828041270208 
1863	-2.60114658700877 
1864	-1.65870267959806 
1865	-1.48820404784254 
1866	-1.20341011325372 
1867	-1.06506756352357 
1868	 1.6646461269699 
1869	-2.34040697344355 
1870	-1.4185812265608 
1871	-0.91205520770682 
1872	-1.00284548543477 
1873	-0.799226731096017 
1874	 0.181710164175359 
1875	 0.395616381147627 
1876	 0.27985416990799 
1877	 0.319121140851242 
1878	 0.320777436253032 
1879	 0.320123459661887 
1880	 0.433593861174313 
1881	 1.07014711400069 
1882	 0.810988989250812 
1883	 0.563246206947563 
1884	 0.58611025620052 
1885	 5.13980089033448E-02 
1886	-0.346608587082394 
1887	-0.144953729015979 
1888	-0.232878008244127 
1889	-0.305525309418656 
1890	-0.362844073531522 
1891	-0.125895469570798 
1892	 0.433717601721018 
1893	 9.10710993466335 
1894	-1.02829480230947 
1895	-0.823905127177294 
1896	-0.635351316846719 
1897	 1.81394061054524E-02 
1898	 1.33219018006072 
1899	-6.45938424844659 
1900	-4.56110599256744 
1901	-1.48328456479645 
1902	-1.59052082275873 
1903	-1.44916012610963 
1904	-0.628562202698708 
1905	-0.549492636140083 
1906	-0.215108348667326 
1907	 0.484676018027765 
1908	 2.63753354958647 
1909	-10.2557679601024 
1910	 1.66470698199594 
1911	 0.155529726408349 
1912	 0.745049689626335 
1913	 9.88634572945695E-03 
1914	-1.70913636276492 
1915	-2.64601038085205 
1916	 53.4655196850671 
1917	-3.82685871535954 
1918	-2.76812534982072 
1919	 1.7743613557817 
1920	-14.4795003420533 
1921	 1.0688338391226 
1922	 0.621847909267154 
1923	 1.21605978294709 
1924	 1.12228945209229 
1925	 0.834344732373601 
1926	 0.991686438485115 
1927	 1.92977024344588 
1928	 4.86783951724365 
1929	-5.22968726073048 
1930	-1.36462040500908 
1931	 0.780139520739853 
1932	 0.347755532889096 
1933	 0.545094849793245 
1934	 0.336477220733478 
1935	 0.196320205899506 
1936	 9.08504300616294E-02 
1937	-0.179113863638261 
1938	-0.218323010641068 
1939	-0.198129736454509 
1940	-0.103624365702756 
1941	-6.36902895235128E-02 
1942	-3.37036255906824E-02 
1943	 0.10564378361553 
1944	 0.155919479085853 
1945	 4.37628958048766E-02 
1946	 4.18340485291528E-02 
1947	 4.31226102315155E-02 
1948	-4.78234714488578E-04 
1949	 1.63592185273722E-02 
1950	 1.27083040832931E-02 
1951	-1.32053847045166E-02 
1952	-4.9516194485372E-03 
1953	 2.17863737828019E-02 
1954	 6.32386335757413E-02 
1955	 6.69147773117686E-02 
1956	 3.07509844843328E-02 
1957	 1.58686373161992E-03 
1958	-8.06544170980874E-03 
1959	-1.03584577937053E-02 
1960	 7.09210216828439E-03 
1961	 1.96907487769697E-02 
1962	 1.52450971190981E-02 
1963	 1.92418963760005E-02 
1964	 2.15854854810892E-02 
1965	 1.30724476694774E-02 
1966	 0.011328087941609 
1967	 1.10866518437672E-02 
1968	 0.011330100441859 
1969	 6.96072608636509E-03 
1970	 5.32076313019934E-03 
1971	 3.3564852663217E-03 
1972	-1.40441928005595E-03 
1973	-3.51130020571962E-03 
1974	-2.90600607697737E-03 
1975	-3.31654903958055E-03 
1976	-6.28218291696074E-03 
1977	-6.61859177448032E-03 
1978	-2.17446594372628E-03 
1979	-8.59479299409339E-04 
1980	-2.6087963696446E-05 
1981	 8.43482800697299E-04 
1982	 2.87942343604103E-03 
1983	 1.46521008172074E-03 
1984	-5.32548313791491E-04 
1985	 6.38789946179098E-05 
1986	 1.89735182837513E-03 
1987	 1.52676306324749E-03 
1988	 1.24198304578457E-03 
1989	 1.14914046013967E-03 
1990	-2.38013047141156E-03 
1991	-3.63996062408501E-03 
1992	-4.7640101980414E-04 
1993	-3.45725281837534E-04 
1994	-1.63599583135026E-03 
1995	-4.99192030934682E-03 
1996	-5.86581607143588E-03 
1997	-7.0131032591203E-03 
1998	-5.15967588770056E-03 
1999	 4.13091089431501E-03 
2000	 5.29953555681705E-03 
2001	-4.91279750951275E-03 
2002	-1.02495263273946E-02 
2003	-3.82693589841467E-03 
2004	 2.94805832501085E-03 
2005	 8.33374669773903E-03 
2006	 1.67981093980885E-02 
2007	 1.07548838858142E-02 
2008	-4.45445416869976E-03 
2009	-8.7806856556944E-03 
2010	-4.41165059354618E-03 
2011	-4.49258231669774E-03 
2012	-3.6160358639695E-03 
2013	-6.35567950513829E-04 
2014	-1.29960782197006E-03 
2015	-3.24456565475432E-03 
2016	-2.73400171355682E-03 
2017	 1.06004785214489E-04 
2018	 1.22717507372082E-02 
2019	 1.38357543837408E-02 
2020	 5.63403908320319E-03 
2021	 9.13362869057705E-03 
2022	 6.66656686216801E-03 
2023	 5.60143730985063E-05 
2024	-1.08292757259415E-03 
2025	 1.90009838704418E-03 
2026	 1.28787400053692E-03 
2027	-2.75836436290371E-04 
2028	 8.34674171593646E-04 
2029	-2.601952521037E-04 
2030	-2.84882653627403E-03 
2031	-4.04205313764987E-03 
2032	-3.14123407925583E-03 
2033	-2.60770481928458E-03 
2034	 1.02222417496617E-05 
2035	 7.13170636188788E-04 
2036	-1.20537734630297E-03 
2037	-1.08993518022467E-03 
2038	-1.5691246167092E-03 
2039	-2.35202374899234E-03 
2040	-3.71441502213656E-03 
2041	-3.01638593564886E-03 
2042	-1.27876400458402E-03 
2043	-7.91127661678583E-04 
2044	 9.90543515684163E-04 
2045	 1.76376396700726E-03 
2046	-2.93626605884757E-04 
2047	-2.42415173504488E-03 
2048	-3.12765031719457E-03 
2049	-1.52670981050877E-03 
2050	-9.72965449441649E-04 
2051	-3.20172750514874E-04 
2052	 1.10879236065141E-03 
2053	 2.39073868580227E-03 
2054	 3.57243252544159E-03 
2055	 2.40951310001883E-03 
2056	 2.50833609360399E-03 
2057	 1.24425484262888E-03 
2058	 1.0109509518331E-03 
2059	 2.78587162945017E-03 
2060	 3.94135798610132E-03 
2061	 4.87779850220851E-03 
2062	 5.80912958650924E-03 
2063	 5.55697381168759E-03 
2064	 3.31810290809165E-03 
2065	 6.22534460353538E-04 
2066	-1.45416186162354E-03 
2067	-6.5296394839633E-04 
2068	 5.8347622517607E-04 
2069	 2.1789849878938E-03 
2070	 3.47332196150297E-03 
2071	 2.77421698458266E-03 
2072	 1.7056258818781E-03 
2073	 1.50619264257862E-03 
2074	 2.23523560900755E-03 
2075	 1.9941849031606E-03 
2076	 1.47648674041808E-03 
2077	 1.16116467517169E-03 
2078	-3.26145571582583E-04 
2079	-7.27971427939976E-05 
2080	 1.33807137295273E-03 
2081	 2.17627353600501E-03 
2082	 3.68960848452098E-03 
2083	 4.28786621162142E-03 
2084	 2.72855213126833E-03 
2085	 3.22383702528894E-03 
2086	 3.13057243881636E-03 
2087	 3.10839393023966E-03 
2088	 3.49889813075966E-03 
2089	 1.71011628425613E-03 
2090	 7.75951187242769E-04 
2091	 1.02120281156359E-03 
2092	 1.45217358869335E-03 
2093	 3.23822168851072E-03 
2094	 3.5405675457873E-03 
2095	 3.25927294305201E-03 
2096	 3.08464274168955E-03 
2097	 2.19375994835739E-03 
2098	 1.6133547561992E-03 
2099	 5.48767723939842E-04 
2100	 1.87287673249855E-03 
2101	 3.16698156426969E-03 
2102	 2.87489753311149E-03 
2103	 4.24045783508308E-03 
2104	 4.38992758688248E-03 
2105	 2.59158059753412E-03 
2106	 3.29094351522493E-03 
2107	 4.36465788992012E-03 
2108	 3.58549011227177E-03 
2109	 3.00278081946996E-03 
2110	 2.15692681296105E-03 
2111	 4.60528143650304E-04 
2112	-6.57395656214101E-04 
2113	-8.05427978842868E-04 
2114	 1.09212414748379E-04 
2115	 7.84126070267182E-05 
2116	 6.44748688345519E-04 
2117	 9.2406043620548E-04 
2118	 6.29197692216915E-04 
2119	 5.66543087037963E-04 
2120	 1.02357098571384E-03 
2121	 4.70684828404337E-04 
2122	-5.40324641852399E-04 
2123	-3.68661707282244E-04 
2124	 1.37622983308364E-03 
2125	 3.09574660324223E-03 
2126	 3.62115269412873E-03 
2127	 3.11186080417254E-03 
2128	 1.5566329489734E-03 
2129	 2.11061404147776E-04 
2130	-1.36948867061447E-04 
2131	-8.49995036821616E-04 
2132	-6.70865210280468E-04 
2133	 5.58090405631462E-04 
2134	 1.10007051920665E-03 
2135	 2.83958940535662E-03 
2136	 3.14100264299959E-03 
2137	 1.52550752328303E-03 
2138	 1.13773756882493E-03 
2139	 8.66816509754593E-04 
2140	 1.01644502089026E-03 
2141	 2.43519686733834E-03 
2142	 2.69927101988769E-03 
2143	 2.5334376319835E-03 
2144	 2.3407686321861E-03 
2145	 1.51841580774111E-03 
2146	-3.86380873439045E-04 
2147	-1.22212044504375E-03 
2148	-4.6868906271022E-04 
2149	-6.37077574206993E-04 
2150	-1.0828092796834E-03 
2151	 4.44766698630275E-05 
2152	 2.03859448434026E-04 
2153	-2.62376018340937E-04 
2154	 1.66847597514802E-03 
2155	 2.44993326579792E-03 
2156	 1.63123845255522E-03 
2157	 1.27377714763291E-03 
2158	 8.31039009559139E-04 
2159	-2.36097911490113E-05 
2160	-1.68796112983727E-03 
2161	-1.65627694148776E-03 
2162	-6.37841417862779E-04 
2163	 2.00132581620943E-04 
2164	 1.95251590362502E-03 
2165	 3.03800823617069E-03 
2166	 3.90697479411128E-03 
2167	 3.73071265410976E-03 
2168	 2.83173391589894E-03 
2169	 2.70749514474152E-03 
2170	 2.10159214418212E-03 
2171	 1.48816058341653E-03 
2172	 1.59706978855685E-03 
2173	 9.97411927459022E-04 
2174	 3.98373169578206E-04 
2175	 1.65714314133623E-03 
2176	 1.24409477951272E-03 
2177	 6.28464002250446E-04 
2178	-3.22608180391017E-05 
2179	-2.53578162136587E-03 
2180	-1.4449031978479E-03 
2181	 1.75393471545531E-03 
2182	 3.25787895612648E-03 
2183	 3.09771769390566E-03 
2184	 9.25772627399197E-04 
2185	-1.21043862364264E-03 
2186	-1.25940056196313E-03 
2187	-1.16938101329786E-04 
2188	 8.92792731477965E-04 
2189	 4.36511184690745E-03 
2190	 5.70931842582742E-03 
2191	 5.78053964875233E-03 
2192	 0.005082681002936 
2193	 3.78496331587581E-03 
2194	 2.05184421749825E-03 
2195	-2.63333949879936E-03 
2196	-3.01083612575718E-03 
2197	-1.3284795700077E-03 
2198	-5.70765360047169E-04 
2199	 2.20266544753023E-03 
2200	 5.68277407389182E-03 
2201	 4.39882006878797E-03 
2202	 2.99837395698754E-03 
2203	 1.35557602249795E-03 
2204	-7.60282703677419E-04 
2205	 8.9731923027912E-05 
2206	 2.59102385963082E-03 
2207	 4.8629148224237E-03 
2208	 4.52140524677396E-03 
2209	 1.68249459858947E-03 
2210	-1.01269056296086E-03 
2211	-7.37955199130204E-04 
2212	 4.82705639189484E-04 
2213	-7.17724656417188E-04 
2214	 1.12212986321075E-03 
2215	 3.05558528280978E-03 
2216	 1.93324805439823E-03 
2217	 9.4039248806668E-04 
2218	-6.82624793006086E-04 
2219	-1.62153538398072E-03 
2220	-3.0720202218494E-03 
2221	-2.77316878750362E-03 
2222	-1.02898685285453E-03 
2223	 7.25552249846701E-04 
2224	 3.80389456164805E-03 
2225	 3.70845133328802E-03 
2226	 2.93313078242591E-03 
2227	 2.7941499634356E-03 
2228	 3.02879971079386E-04 
2229	-1.37962023556121E-03 
2230	-3.03885472969384E-03 
2231	-2.48194246997981E-03 
2232	-5.19771681554532E-04 
2233	 2.18497608512375E-04 
2234	 2.7434190943954E-03 
2235	 4.57086575782982E-03 
2236	 1.05876732538528E-03 
2237	-9.62951472728746E-04 
2238	 3.03151452190644E-04 
2239	-2.91078066774894E-04 
2240	 7.7280883597826E-04 
2241	 2.25865482195088E-03 
2242	 4.34753623653149E-04 
2243	 1.78292511050288E-04 
2244	 8.59690006678931E-04 
2245	 6.1740478037321E-04 
2246	-5.98379851004899E-04 
2247	-3.84854741933878E-03 
2248	-4.82591169772993E-03 
2249	 1.0246425900163E-03 
2250	 6.34384909061876E-03 
2251	 7.68110392960992E-03 
2252	 7.10131399627424E-03 
2253	 2.55759789435552E-03 
2254	 1.22378053410054E-03 
2255	 4.61041397230907E-03 
2256	 7.34499544455665E-03 
2257	 1.06444575267456E-02 
2258	 1.15112001996902E-02 
2259	 7.04723330741683E-03 
2260	 4.0920745662436E-03 
2261	 1.1722048988761E-04 
2262	-2.43282493882754E-03 
2263	-6.46569075502276E-03 
2264	-5.90813727792293E-03 
2265	-1.3451224858515E-03 
2266	-1.7880206950467E-03 
2267	-1.28081769790981E-03 
2268	-6.45822795895806E-04 
2269	-4.3316718260265E-03 
2270	-3.49536020637587E-03 
2271	 2.2507537913613E-03 
2272	 2.46724476652772E-03 
2273	-8.62008575764336E-04 
2274	 6.54251224329863E-04 
2275	 3.89138793477452E-03 
2276	 5.35677361362812E-03 
2277	 1.03404905865493E-02 
2278	 1.22516408948423E-02 
2279	 9.31911785931239E-03 
2280	 5.96359318943318E-03 
2281	 1.34174696685831E-03 
2282	-1.70234146120288E-04 
2283	-4.10060880649413E-03 
2284	-4.24744719373313E-03 
2285	-3.08722759330508E-03 
2286	-1.94075370722472E-03 
2287	 2.95865016652402E-03 
2288	 6.27860226748387E-03 
2289	 9.72938860933227E-03 
2290	 9.91795432257215E-03 
2291	 3.57582179942929E-03 
2292	 5.62439361809775E-04 
2293	 6.93076002229745E-04 
2294	 1.40187331983721E-03 
2295	 3.10660159006594E-03 
2296	 2.21088417482135E-03 
2297	-9.26107852048318E-04 
2298	-3.39569880906842E-03 
2299	-5.38163183961337E-03 
2300	-5.01262246189915E-03 
2301	-1.76420068307241E-03 
2302	 8.76290019079001E-04 
2303	 4.26506617469126E-03 
2304	 2.70063167042991E-03 
2305	-3.51197571641922E-03 
2306	-1.96604835971358E-03 
2307	 1.81467931296602E-03 
2308	 7.96614103845116E-04 
2309	 1.57442130887293E-03 
2310	 2.92814449986683E-03 
2311	 3.83218910544259E-03 
2312	 2.97433467012532E-03 
2313	-1.33550183840513E-03 
2314	 8.53354760224039E-04 
2315	 4.89681587777773E-03 
2316	 6.44991518103068E-03 
2317	 1.05155837581938E-02 
2318	 8.17141432248162E-03 
2319	-1.27546647628661E-03 
2320	-2.97106114832857E-03 
2321	-7.9949657984999E-04 
2322	-1.59235958733472E-03 
2323	 2.7097761573178E-03 
2324	 2.74713086355695E-03 
2325	 2.26681003430235E-03 
2326	 9.13964978879965E-03 
2327	 1.04178190144604E-02 
2328	 0.01137633642421 
2329	 1.44238513742218E-02 
2330	 7.52133350695355E-03 
2331	-2.72202524016652E-03 
2332	 9.83428529181611E-04 
2333	 7.89627386819763E-03 
2334	 5.34548840524689E-03 
2335	 7.3326172673882E-03 
2336	 9.81132108427744E-03 
2337	 1.70003053703789E-03 
2338	-5.04197325275448E-03 
2339	-8.73771697175007E-03 
2340	-2.51285319679308E-02 
2341	-4.09194636866161E-02 
2342	-3.20242456914878E-02 
2343	-1.27081094350884E-02 
2344	 1.4142482035464E-03 
2345	 7.78188228963006E-03 
2346	-1.3558626985077E-03 
2347	-1.85055034757572E-02 
2348	-2.51125679228937E-02 
2349	-1.52786971726277E-02 
2350	 3.57471621796005E-03 
2351	 2.60980269678025E-02 
2352	 2.44938558050165E-02 
2353	-7.12424772188455E-04 
2354	-8.51189391823139E-03 
2355	-1.18957735022514E-03 
2356	 6.90284200878611E-03 
2357	 9.85876625668512E-03 
2358	 0.018996180869304 
2359	 1.60724228743669E-02 
2360	-6.75578126155271E-04 
2361	 1.35738004336902E-02 
2362	 2.35399149677246E-02 
2363	 7.66177491750256E-03 
2364	-5.57146608105174E-04 
2365	-5.09453951257727E-03 
2366	-6.14372872865731E-03 
2367	 1.84513054745686E-03 
2368	 1.12658566431314E-02 
2369	-1.66348701978445E-02 
2370	-6.39744364532453E-02 
2371	-7.12588975952239E-02 
2372	-8.44219568363207E-02 
2373	-7.32341540454777E-02 
2374	-3.36951783140185E-02 
2375	-4.00992353562379E-02 
2376	-0.041379303957735 
2377	-3.35244380701206E-02 
2378	-4.95257025947537E-02 
2379	-3.55091527406424E-02 
2380	-4.84222513493582E-03 
2381	 2.99003040546133E-02 
2382	 8.45086763600135E-02 
2383	 4.59200456267134E-02 
2384	-2.70272274561057E-02 
2385	-6.30281791514159E-02 
2386	-0.10928962333348 
2387	-0.1184730961395 
2388	-6.63163714853482E-02 
2389	-8.47930996543945E-02 
2390	-0.105319912154584 
2391	-6.83308113868439E-02 
2392	-0.107507981949654 
2393	-6.78564675233338E-02 
2394	-1.39042769818498E-02 
2395	-9.41649866809835E-02 
2396	-9.63938278956648E-02 
2397	-8.29464935533152E-02 
2398	-0.145836297944828 
2399	-0.115771579178785 
2400	-0.036841732856094 
2401	 2.07665480354738E-04 
2402	-8.49020064224905E-03 
2403	 1.78109903226556E-02 
2404	 4.68607426792031E-03 
2405	-6.80256664428972E-02 
2406	-2.75055634010211E-02 
2407	 1.49857971891882E-02 
2408	 4.46708043515542E-02 
2409	 4.13609734365233E-02 
2410	 9.37347386977825E-03 
2411	-4.44813692257187E-02 
2412	-0.149469733887854 
2413	-0.187162674622599 
2414	-0.180714530182677 
2415	-2.38974436766816E-03 
2416	 0.154719691889384 
2417	 0.133733812086125 
2418	 0.174847800219846 
2419	 0.158453841630471 
2420	-7.87414487932387E-02 
2421	-0.176700562934892 
2422	-0.29868878095913 
2423	-0.538847841486314 
2424	-0.58118107693646 
2425	-0.399699175089892 
2426	-0.236892181541495 
2427	-0.112095328627897 
2428	 3.39024673195427E-02 
2429	-7.40835252806451E-05 
2430	 3.2875812153755E-03 
2431	 0.113565440086361 
2432	 6.35890640081409E-05 
2433	-0.116974231078346 
2434	-0.22193829129167 
2435	-0.530839046924593 
2436	-0.459018138668042 
2437	-0.356377357016649 
2438	-0.297026250875088 
2439	-0.151510339890768 
2440	-0.204391518924734 
2441	-0.247756098607619 
2442	-0.202465239924 
2443	-0.135902796420923 
2444	-2.91202335083352E-02 
2445	 7.31708639852658E-02 
2446	 8.81636263513795E-02 
2447	-8.95853467769965E-02 
2448	-0.103254491088521 
2449	-6.33153730169996E-02 
2450	-0.346180715280023 
2451	-19.5593448492473 
2452	-10.3540161026296 
2453	-2.20839842877186 
2454	-0.330094168109175 
2455	 1.14392392806377 
2456	 1.2309100726608 
2457	 0.904516435380293 
2458	 0.424939344977181 
2459	 0.132493469499049 
2460	 4.73236686170905E-02 
2461	-0.306566840609789 
2462	-0.180092647408317 
2463	-0.278466840800534 
2464	-1.83332316540204 
2465	-2.52883237339429 
2466	-1.44195540154543 
2467	-2.26850744206493 
2468	-1.93181941510535 
2469	-1.04190600764296 
2470	-1.72530878707792 
2471	 5.86608063024481 
2472	 3.55310882770133 
2473	 3.27865114923737 
2474	 0.916178340904244 
2475	-10.0865439404801 
2476	-17.9650691919269 
2477	-0.470949338166643 
2478	-0.132366853352014 
2479	 0.665589361128759 
2480	 2.98335959363405 
2481	 86.6337307767525 
2482	-2.68347556477586 
2483	 0.715566615131903 
2484	-0.132006896604178 
2485	 0.164665546230155 
2486	 1.57586418971667 
2487	 5.63382407901565 
2488	-3.06758109080673 
2489	 25.933035624592 
2490	 1.71407415061559 
2491	-1.3294533143822 
2492	-1.65639014518323 
2493	-4.82587194036209 
2494	-1.96987926027558 
2495	-1.37074755778519 
2496	-0.676182847249475 
2497	-7.50484315186698E-02 
2498	-0.237399072161011 
2499	-0.171834540995984 
2500	-1.22553870641651 
