Wavelength	rt0726sus_algea00009.asd
350	 0.062463090347341 
351	 6.27836233615433E-02 
352	 6.20330970813245E-02 
353	 6.18923095766839E-02 
354	 0.062968645035558 
355	 6.25960589669317E-02 
356	 6.21672937595116E-02 
357	 6.22411640733896E-02 
358	 6.27563288244812E-02 
359	 6.21189502221601E-02 
360	 6.21543200688075E-02 
361	 6.27971579554833E-02 
362	 6.27428167827774E-02 
363	 0.06265423599162 
364	 0.062721323574221 
365	 6.27917147105142E-02 
366	 6.22756408592153E-02 
367	 6.22534472827323E-02 
368	 6.23938664760696E-02 
369	 0.062248337677328 
370	 6.23958739551247E-02 
371	 6.22467575602186E-02 
372	 6.19506905558683E-02 
373	 6.19979075571781E-02 
374	 6.16571022578123E-02 
375	 6.18764320290865E-02 
376	 6.25108931485165E-02 
377	 6.17889235851714E-02 
378	 6.18306161927894E-02 
379	 0.062210891405137 
380	 6.22330017589082E-02 
381	 6.23676715501411E-02 
382	 6.21861774641964E-02 
383	 6.17412824242373E-02 
384	 6.13806374373171E-02 
385	 6.16399663965195E-02 
386	 6.18710662648723E-02 
387	 0.06187354031956 
388	 6.20389953317073E-02 
389	 6.19988076627463E-02 
390	 6.19218727386871E-02 
391	 6.19211179688843E-02 
392	 0.061698244609304 
393	 6.16663250727436E-02 
394	 6.17143859940655E-02 
395	 6.16133479969326E-02 
396	 6.15944499956647E-02 
397	 6.18431947394834E-02 
398	 6.21802144529459E-02 
399	 6.21703035695523E-02 
400	 6.22998689207512E-02 
401	 6.22577248935668E-02 
402	 0.061966064170477 
403	 6.21405181299162E-02 
404	 6.22566863079958E-02 
405	 0.062187327845141 
406	 6.20120371581182E-02 
407	 6.20772979859302E-02 
408	 6.21394607337832E-02 
409	 6.21149173332371E-02 
410	 6.21161157882788E-02 
411	 6.22695652286489E-02 
412	 6.23521365908739E-02 
413	 6.22391178658983E-02 
414	 6.21790297353201E-02 
415	 6.20728754662455E-02 
416	 6.21292036125042E-02 
417	 6.25285833840595E-02 
418	 6.25684405070208E-02 
419	 6.25395200573658E-02 
420	 6.25652700837069E-02 
421	 6.25213835563805E-02 
422	 6.28462742986205E-02 
423	 6.31303470144178E-02 
424	 6.30747180822535E-02 
425	 6.31879769792186E-02 
426	 6.31954812137127E-02 
427	 6.32250816401306E-02 
428	 6.35162437227156E-02 
429	 6.36752233972215E-02 
430	 6.37921803517649E-02 
431	 6.39726543104129E-02 
432	 6.42813541037456E-02 
433	 6.44763398915082E-02 
434	 6.46412429771621E-02 
435	 6.48622488558934E-02 
436	 0.064998682700919 
437	 6.51647229755318E-02 
438	 6.53097866742854E-02 
439	 6.53437094968589E-02 
440	 6.56808024594219E-02 
441	 6.59385396996332E-02 
442	 6.59916606746449E-02 
443	 6.62151513319841E-02 
444	 6.63950845103584E-02 
445	 6.65173117630694E-02 
446	 6.66294953914367E-02 
447	 6.68014573481765E-02 
448	 6.70403760222209E-02 
449	 6.72359116712489E-02 
450	 6.72226507765335E-02 
451	 6.72368863650004E-02 
452	 6.73277956609967E-02 
453	 6.74784258860903E-02 
454	 6.76081143606162E-02 
455	 6.76752960479512E-02 
456	 6.77616018314354E-02 
457	 6.79353445753735E-02 
458	 6.79258718497572E-02 
459	 6.79274837891205E-02 
460	 6.80013232132586E-02 
461	 6.80513121473922E-02 
462	 6.80664401812017E-02 
463	 6.80778643897313E-02 
464	 6.81270462953345E-02 
465	 6.82705332381779E-02 
466	 0.06830123093052 
467	 6.83179207742019E-02 
468	 6.85132711349443E-02 
469	 6.85380697594885E-02 
470	 6.85469486934788E-02 
471	 6.86342731801658E-02 
472	 6.87506831337537E-02 
473	 6.88995291222759E-02 
474	 6.90019638551847E-02 
475	 6.90180633612193E-02 
476	 6.91000549672965E-02 
477	 6.92490071425743E-02 
478	 6.93984309682176E-02 
479	 6.94550069225958E-02 
480	 6.95617445748006E-02 
481	 6.97332362042329E-02 
482	 6.99088139616961E-02 
483	 6.99014341295057E-02 
484	 6.99794036565616E-02 
485	 0.070146909302243 
486	 7.03199530214151E-02 
487	 7.05134752256487E-02 
488	 7.08658790426116E-02 
489	 7.12287925749344E-02 
490	 7.12135401724136E-02 
491	 7.13839312124958E-02 
492	 0.071657903394319 
493	 7.18924940111154E-02 
494	 7.21351849527595E-02 
495	 7.25131515611348E-02 
496	 7.28812812107113E-02 
497	 7.30216450805445E-02 
498	 7.33722018571323E-02 
499	 0.073754465513936 
500	 7.40584373281176E-02 
501	 0.074376233366627 
502	 7.47994810208565E-02 
503	 7.52580873351249E-02 
504	 7.56530741369243E-02 
505	 7.59798286835825E-02 
506	 7.63303568294443E-02 
507	 7.67068864547332E-02 
508	 7.70514047908787E-02 
509	 7.75781500839367E-02 
510	 7.80722314766202E-02 
511	 7.84219681809025E-02 
512	 7.89288984394546E-02 
513	 7.93432760431494E-02 
514	 7.97256296683064E-02 
515	 8.02336448119457E-02 
516	 8.07080870663238E-02 
517	 8.12288405453782E-02 
518	 0.081803027634549 
519	 8.23287386039452E-02 
520	 0.082810841698642 
521	 8.32826134523658E-02 
522	 8.37853686492156E-02 
523	 8.43612875893808E-02 
524	 8.48475783571196E-02 
525	 8.53004595090026E-02 
526	 8.59138306096645E-02 
527	 8.65096661012808E-02 
528	 8.70652407960451E-02 
529	 8.75881625689098E-02 
530	 0.088096602904623 
531	 8.86101155779892E-02 
532	 8.91599439614269E-02 
533	 8.97626091313467E-02 
534	 9.03556010236261E-02 
535	 9.08989377875705E-02 
536	 9.14165807633054E-02 
537	 9.19957764238329E-02 
538	 9.25911900482471E-02 
539	 9.31571470275495E-02 
540	 9.36847094678332E-02 
541	 9.42741742194366E-02 
542	 9.49415545224806E-02 
543	 9.55833265776077E-02 
544	 0.096055703336154 
545	 9.65914144925256E-02 
546	 9.71950186064392E-02 
547	 9.78135673973203E-02 
548	 9.83492857095781E-02 
549	 9.88642726116863E-02 
550	 9.93790441801286E-02 
551	 0.099906548399372 
552	 0.100482632503992 
553	 0.10106151010286 
554	 0.101610548802382 
555	 0.102114384979514 
556	 0.102586500885148 
557	 0.103037593428077 
558	 0.103478098154176 
559	 0.103937881826067 
560	 0.104379466888146 
561	 0.104765309430729 
562	 0.105082062091378 
563	 0.10552314443588 
564	 0.105983297172855 
565	 0.10636674557357 
566	 0.106672112478791 
567	 0.106963815324163 
568	 0.107293056181203 
569	 0.107665251629318 
570	 0.107883679619953 
571	 0.108107350672462 
572	 0.10839058133118 
573	 0.108649743717571 
574	 0.108799875389154 
575	 0.108966618264139 
576	 0.109228750610432 
577	 0.109352369606705 
578	 0.109447132986023 
579	 0.109541623893092 
580	 0.109622785160249 
581	 0.109787694006791 
582	 0.109875711735248 
583	 0.109837939404132 
584	 0.109877602490923 
585	 0.109986903387078 
586	 0.110096329585224 
587	 0.11012977030665 
588	 0.110164294851232 
589	 0.110241426045769 
590	 0.110343479561937 
591	 0.110401913250069 
592	 0.110416227499413 
593	 0.110463487458628 
594	 0.110559115190822 
595	 0.110485487928666 
596	 0.11041006458682 
597	 0.110315871436741 
598	 0.110106077279599 
599	 0.109981312129599 
600	 0.109874099448894 
601	 0.109752374791402 
602	 0.109704111551176 
603	 0.109676521355078 
604	 0.109601729345043 
605	 0.109461234286299 
606	 0.109517549847744 
607	 0.109495731271842 
608	 0.109386328514703 
609	 0.10946512262149 
610	 0.109416570775443 
611	 0.109281760501528 
612	 0.109152911547383 
613	 0.109031796793115 
614	 0.108954638024194 
615	 0.108940549188855 
616	 0.108972008753522 
617	 0.108825830098917 
618	 0.108767485500948 
619	 0.108858178921628 
620	 0.108745638885794 
621	 0.108709337166822 
622	 0.108725499522725 
623	 0.10869904949304 
624	 0.108683905696871 
625	 0.108642600916718 
626	 0.108606313666881 
627	 0.10866335669443 
628	 0.108629503630105 
629	 0.108579245371462 
630	 0.10857253849117 
631	 0.10848857236949 
632	 0.108444469059864 
633	 0.108385049901423 
634	 0.108205036084384 
635	 0.10807391487372 
636	 0.108083637344175 
637	 0.108140451991934 
638	 0.10790101338166 
639	 0.107741883230861 
640	 0.10767036255089 
641	 0.107597903383108 
642	 0.107513925450637 
643	 0.107470096622162 
644	 0.10739947001512 
645	 0.107157880135248 
646	 0.107039118892703 
647	 0.1069409465776 
648	 0.106759526160306 
649	 0.106557574429108 
650	 0.106353461188258 
651	 0.106142179100199 
652	 0.105917658865088 
653	 0.105704281037311 
654	 0.105421025661416 
655	 0.105047313016721 
656	 0.10470496749488 
657	 0.104311375068188 
658	 0.103820857944501 
659	 0.103234883774467 
660	 0.102726901331218 
661	 0.10220102100539 
662	 0.101638263138037 
663	 0.101086147739229 
664	 0.100638299941726 
665	 0.100208838609616 
666	 9.97502024276831E-02 
667	 0.099330431725625 
668	 9.90548594588127E-02 
669	 9.88093648901983E-02 
670	 9.84793135896133E-02 
671	 9.83264566475289E-02 
672	 9.83712450896471E-02 
673	 9.84999008321992E-02 
674	 9.85095219732159E-02 
675	 9.87322882168771E-02 
676	 9.89952446835173E-02 
677	 9.91802967230449E-02 
678	 9.95425155194821E-02 
679	 0.100040975435764 
680	 0.100566162142001 
681	 0.101030405896377 
682	 0.101753339967514 
683	 0.102648901901188 
684	 0.103609343267855 
685	 0.104641874225742 
686	 0.105998427832177 
687	 0.10730469022264 
688	 0.108191857171318 
689	 0.109295251314594 
690	 0.110495316888165 
691	 0.11167559838476 
692	 0.112744639219534 
693	 0.113868151954584 
694	 0.114788511744942 
695	 0.115415627191327 
696	 0.116057594215477 
697	 0.116778004888391 
698	 0.117520909572004 
699	 0.118133900952778 
700	 0.118578382367117 
701	 0.118998125751214 
702	 0.119334077488614 
703	 0.119405918453624 
704	 0.119604152342088 
705	 0.119800890436138 
706	 0.119872946951094 
707	 0.119905699043142 
708	 0.119861806077145 
709	 0.119691944537418 
710	 0.119388531443573 
711	 0.119192689234994 
712	 0.11891104356644 
713	 0.11853372987765 
714	 0.11826005270264 
715	 0.118091072794368 
716	 0.117869354330311 
717	 0.11742538363102 
718	 0.11687610566 
719	 0.115815262291582 
720	 0.114806752655193 
721	 0.114269826251409 
722	 0.113668961824726 
723	 0.112962990631678 
724	 0.112174730990479 
725	 0.11117269271937 
726	 0.110162935516951 
727	 0.109046005010273 
728	 0.10771345772409 
729	 0.106209597862469 
730	 0.104476102025453 
731	 0.102735504738096 
732	 0.101217422540102 
733	 0.100105953992723 
734	 9.91189336354388E-02 
735	 9.81737559973018E-02 
736	 9.74558666009256E-02 
737	 9.69078925580267E-02 
738	 9.64498742483529E-02 
739	 9.60445045583721E-02 
740	 9.57690276380225E-02 
741	 9.55810276449987E-02 
742	 9.55117600204067E-02 
743	 9.55918825872176E-02 
744	 9.55658919642156E-02 
745	 9.55548685764478E-02 
746	 9.56100194973992E-02 
747	 9.56366003646114E-02 
748	 9.55873107275044E-02 
749	 9.56168066400259E-02 
750	 9.58065617164295E-02 
751	 9.58213387265662E-02 
752	 9.59133800081482E-02 
753	 9.60201719360331E-02 
754	 9.59558646622981E-02 
755	 9.60327477997384E-02 
756	 9.61712649131547E-02 
757	 9.63849142542728E-02 
758	 0.097018451155033 
759	 9.77401979705473E-02 
760	 9.82215141399772E-02 
761	 9.81428337253952E-02 
762	 9.80338269409413E-02 
763	 0.097659750554913 
764	 9.73167938900424E-02 
765	 9.72583083119249E-02 
766	 9.71552945579671E-02 
767	 9.71857449065374E-02 
768	 9.73738197329373E-02 
769	 9.75908947173727E-02 
770	 9.77296634402097E-02 
771	 9.78052155528471E-02 
772	 9.79048626123513E-02 
773	 9.82398389872382E-02 
774	 9.84890587275568E-02 
775	 9.86436539377645E-02 
776	 9.88276571605985E-02 
777	 9.89951462939268E-02 
778	 9.93450993085735E-02 
779	 9.97695618174341E-02 
780	 9.98761621691228E-02 
781	 0.100088087057962 
782	 0.100427492672343 
783	 0.100807648858138 
784	 0.10106417657612 
785	 0.101423188683335 
786	 0.101837794947718 
787	 0.102180484919426 
788	 0.102479236444393 
789	 0.102813822179271 
790	 0.103200795379358 
791	 0.103590300289777 
792	 0.10379279340906 
793	 0.104098160391523 
794	 0.104577914495527 
795	 0.104833371603942 
796	 0.105087604003063 
797	 0.10541918569004 
798	 0.105820825438661 
799	 0.106106610069965 
800	 0.106281508041618 
801	 0.106450372636151 
802	 0.106731893545542 
803	 0.106873381990722 
804	 0.106990327449617 
805	 0.107104312256844 
806	 0.10710656723542 
807	 0.107139217389631 
808	 0.107151505380481 
809	 0.107113899794278 
810	 0.107153339210079 
811	 0.107234108075591 
812	 0.107209168907554 
813	 0.106941254987993 
814	 0.106738201905833 
815	 0.106639903644934 
816	 0.106372597982115 
817	 0.105604973968148 
818	 0.105403015361462 
819	 0.105047695453022 
820	 0.104269320001088 
821	 0.103563711806493 
822	 0.102375393841884 
823	 0.101236920155157 
824	 0.100462648252091 
825	 9.91461189436705E-02 
826	 9.77893959511291E-02 
827	 9.63423456895569E-02 
828	 9.47033534360266E-02 
829	 9.30654526340272E-02 
830	 9.16306888491112E-02 
831	 9.04623502903496E-02 
832	 8.95207710994149E-02 
833	 8.84449845102551E-02 
834	 8.76999939755778E-02 
835	 8.73148827637846E-02 
836	 8.66706243994392E-02 
837	 8.62983179796264E-02 
838	 8.58287739494357E-02 
839	 8.51142510979743E-02 
840	 8.50836789971202E-02 
841	 8.48912074499095E-02 
842	 8.44926149734699E-02 
843	 8.41344330648744E-02 
844	 8.39010230964104E-02 
845	 8.36501350770774E-02 
846	 8.33847336961241E-02 
847	 8.31898232212064E-02 
848	 8.28845391714285E-02 
849	 8.24534977229317E-02 
850	 8.20991904957663E-02 
851	 8.22075713434746E-02 
852	 8.18286973645756E-02 
853	 8.13473691172409E-02 
854	 0.081189526786185 
855	 8.12166742164118E-02 
856	 8.10166075586327E-02 
857	 8.07736170794611E-02 
858	 0.080668066462758 
859	 8.01771065628019E-02 
860	 0.079973242349628 
861	 0.080001610426635 
862	 0.07983956150057 
863	 7.94081751965452E-02 
864	 7.90416854942127E-02 
865	 7.88664308411275E-02 
866	 7.87599062055071E-02 
867	 7.85566055849439E-02 
868	 7.82667575782562E-02 
869	 7.79600803442038E-02 
870	 7.77341129111213E-02 
871	 7.74547131182132E-02 
872	 7.71650545895338E-02 
873	 7.69111016797876E-02 
874	 7.66688713573778E-02 
875	 7.62139314984205E-02 
876	 7.58024793290633E-02 
877	 7.56572460022586E-02 
878	 7.53187045271685E-02 
879	 7.49524924336378E-02 
880	 7.44882306824359E-02 
881	 7.38600788974766E-02 
882	 7.36216972624318E-02 
883	 7.33252772733339E-02 
884	 7.29216224766097E-02 
885	 7.26799397354537E-02 
886	 0.07250016947257 
887	 7.21917284288035E-02 
888	 7.17615628360419E-02 
889	 7.14497364634669E-02 
890	 7.13523797838934E-02 
891	 7.12414250495854E-02 
892	 7.10354983796269E-02 
893	 7.10477620840568E-02 
894	 7.06238885402764E-02 
895	 7.01586707635606E-02 
896	 7.00327551125387E-02 
897	 6.94722404170621E-02 
898	 6.94310789282249E-02 
899	 6.92023531970934E-02 
900	 6.82474895649507E-02 
901	 0.068618631236647 
902	 6.82349661419011E-02 
903	 6.75907067868829E-02 
904	 6.77447235872195E-02 
905	 6.72561072645003E-02 
906	 0.067025994832449 
907	 6.68231019577064E-02 
908	 6.58330992186721E-02 
909	 6.57544311489553E-02 
910	 6.59241102151869E-02 
911	 6.56787026642172E-02 
912	 6.47651395861216E-02 
913	 6.43332416628716E-02 
914	 0.063998276397077 
915	 0.063288590328308 
916	 6.19906835709883E-02 
917	 6.06027909100581E-02 
918	 5.96605826820531E-02 
919	 5.93798904226521E-02 
920	 5.95669014689228E-02 
921	 5.91261775659026E-02 
922	 5.82088768411754E-02 
923	 5.74135312901753E-02 
924	 5.77368762044103E-02 
925	 5.64143842316256E-02 
926	 5.48030486407512E-02 
927	 5.48052222113849E-02 
928	 5.49616811593826E-02 
929	 5.49554123493152E-02 
930	 5.51629026232033E-02 
931	 5.57325136350703E-02 
932	 5.21511840524293E-02 
933	 5.03776541391337E-02 
934	 5.00595759518012E-02 
935	 4.78232124546321E-02 
936	 4.67871740217528E-02 
937	 4.82101093179978E-02 
938	 5.06866161046918E-02 
939	 5.17538277505337E-02 
940	 4.74685139265861E-02 
941	 4.59229343116263E-02 
942	 4.72826441136509E-02 
943	 4.72614221118279E-02 
944	 4.22549954722478E-02 
945	 4.28770907187111E-02 
946	 4.59138606482048E-02 
947	 4.23589162543091E-02 
948	 4.44381695678985E-02 
949	 4.51236598954044E-02 
950	 4.29598951636266E-02 
951	 4.09918764124463E-02 
952	 0.04200349949249 
953	 4.14039264683465E-02 
954	 3.94842635443144E-02 
955	 3.97098568428519E-02 
956	 0.040659409973755 
957	 4.00486995800792E-02 
958	 0.038395458568562 
959	 3.79444256997324E-02 
960	 3.82859636579098E-02 
961	 3.98456811516122E-02 
962	 4.09056729473912E-02 
963	 3.91050963132237E-02 
964	 3.71884457979958E-02 
965	 3.63865926869377E-02 
966	 3.71878686162785E-02 
967	 3.92432362462383E-02 
968	 3.96905175630941E-02 
969	 3.92939256137755E-02 
970	 3.78849900348274E-02 
971	 0.034954475174043 
972	 0.036843052379541 
973	 0.039562728311316 
974	 3.93633647652656E-02 
975	 3.52562750654489E-02 
976	 3.47356791011597E-02 
977	 3.61104129914714E-02 
978	 0.03781119840161 
979	 3.92443913732747E-02 
980	 3.74610372839929E-02 
981	 3.55918063823945E-02 
982	 3.55422777676449E-02 
983	 3.70150894725274E-02 
984	 3.63425766855435E-02 
985	 3.67400847205614E-02 
986	 3.75515830992767E-02 
987	 3.55623949713897E-02 
988	 3.56443328089051E-02 
989	 3.67260585600943E-02 
990	 3.76242235571018E-02 
991	 3.76383113858485E-02 
992	 3.67651521605335E-02 
993	 3.56705774570384E-02 
994	 3.50519122976894E-02 
995	 3.54572060458468E-02 
996	 3.73149074345981E-02 
997	 3.73248663067039E-02 
998	 0.035956963667556 
999	 3.59389519764975E-02 
1000	 3.71156614216227E-02 
1001	 4.52608856771723E-02 
1002	 4.49141781226215E-02 
1003	 4.49833378620694E-02 
1004	 4.52005445840083E-02 
1005	 4.53911247992708E-02 
1006	 4.58093054717682E-02 
1007	 4.60981218139003E-02 
1008	 4.63891265267027E-02 
1009	 4.66725455315421E-02 
1010	 4.71253183679841E-02 
1011	 4.78339442890152E-02 
1012	 4.85627854677988E-02 
1013	 4.90731093124206E-02 
1014	 4.94788908550442E-02 
1015	 4.96832713858304E-02 
1016	 5.01730287362354E-02 
1017	 5.03889713304162E-02 
1018	 5.11838387907785E-02 
1019	 5.29084381905278E-02 
1020	 5.36839731058936E-02 
1021	 5.42400125227403E-02 
1022	 5.47798299177906E-02 
1023	 5.47193413290149E-02 
1024	 5.48273604021291E-02 
1025	 0.055651080726318 
1026	 0.05645743591334 
1027	 5.70353170190201E-02 
1028	 0.05755669468248 
1029	 5.81805638522114E-02 
1030	 5.86411945857776E-02 
1031	 0.059261854746257 
1032	 6.03278916691466E-02 
1033	 6.09165894936008E-02 
1034	 6.10953411981522E-02 
1035	 6.16187608960772E-02 
1036	 6.20289504611802E-02 
1037	 6.25161115802095E-02 
1038	 6.33625607850767E-02 
1039	 6.39705482464263E-02 
1040	 6.43067821569717E-02 
1041	 6.51038539139899E-02 
1042	 6.57014199603076E-02 
1043	 6.64800467784478E-02 
1044	 0.066752331315786 
1045	 6.67092351813603E-02 
1046	 6.68777223096264E-02 
1047	 6.67973979688849E-02 
1048	 6.68696746933575E-02 
1049	 6.70304123558368E-02 
1050	 6.73648421612392E-02 
1051	 6.79663608947232E-02 
1052	 6.81866075516681E-02 
1053	 6.82805165720311E-02 
1054	 6.85813102794418E-02 
1055	 6.86263090519112E-02 
1056	 6.87881415341359E-02 
1057	 6.90928527211525E-02 
1058	 6.99607376161062E-02 
1059	 7.00751230923914E-02 
1060	 7.00269771640822E-02 
1061	 6.95874892070389E-02 
1062	 6.83198880138822E-02 
1063	 6.79806228879364E-02 
1064	 6.75727824088871E-02 
1065	 6.76180963666393E-02 
1066	 6.87053954211396E-02 
1067	 6.90683970821975E-02 
1068	 6.95272467593645E-02 
1069	 6.94496939245958E-02 
1070	 0.068649574742327 
1071	 6.81718225400404E-02 
1072	 6.71562136030791E-02 
1073	 6.67065346159335E-02 
1074	 6.66207187518692E-02 
1075	 6.71623301788456E-02 
1076	 6.70926353436046E-02 
1077	 6.72356737073961E-02 
1078	 0.066996421620601 
1079	 0.066036613095913 
1080	 6.57828315410584E-02 
1081	 6.58312274703422E-02 
1082	 6.57887885652467E-02 
1083	 6.62019111333993E-02 
1084	 6.61548380817603E-02 
1085	 6.56953960793102E-02 
1086	 6.54140945534711E-02 
1087	 6.47941226629253E-02 
1088	 6.45832820011604E-02 
1089	 6.49648652714613E-02 
1090	 6.50493744328736E-02 
1091	 6.47419294159903E-02 
1092	 6.42893150377247E-02 
1093	 6.40435192834785E-02 
1094	 6.32376417227937E-02 
1095	 6.30997833930003E-02 
1096	 6.38316104918076E-02 
1097	 6.37810084009889E-02 
1098	 6.31681695904228E-02 
1099	 6.32248006898845E-02 
1100	 0.063638111221451 
1101	 6.36344512430611E-02 
1102	 6.38663057088175E-02 
1103	 6.40019093581395E-02 
1104	 6.36057551123916E-02 
1105	 6.31200959816062E-02 
1106	 6.40434046219525E-02 
1107	 6.48201135475904E-02 
1108	 6.44302327797661E-02 
1109	 0.063879560803434 
1110	 6.35670934323497E-02 
1111	 6.19946153529781E-02 
1112	 6.21383498690276E-02 
1113	 6.43333264313714E-02 
1114	 6.51162061482167E-02 
1115	 6.61445834313317E-02 
1116	 6.63829519018832E-02 
1117	 6.47673547308466E-02 
1118	 6.47423253734482E-02 
1119	 6.40299580174546E-02 
1120	 6.52833636977481E-02 
1121	 0.072161428600862 
1122	 7.57801959160351E-02 
1123	 7.00353253042809E-02 
1124	 6.80512257004132E-02 
1125	 6.79876817084403E-02 
1126	 0.067279374388354 
1127	 7.20615942812944E-02 
1128	 7.76080927847108E-02 
1129	 7.54064059650907E-02 
1130	 6.06375219934137E-02 
1131	 6.08698080466299E-02 
1132	 6.73487114856409E-02 
1133	 0.068307762693065 
1134	 7.19722720807731E-02 
1135	 7.24265753607952E-02 
1136	 6.80143908505485E-02 
1137	 6.69740965855825E-02 
1138	 6.65127471983565E-02 
1139	 6.82498913800468E-02 
1140	 7.08240351815992E-02 
1141	 6.81246665724994E-02 
1142	 6.47722346588945E-02 
1143	 6.54297209034776E-02 
1144	 6.24268880267298E-02 
1145	 0.06118672433206 
1146	 6.74029798130141E-02 
1147	 6.65689835438774E-02 
1148	 6.56201243953657E-02 
1149	 6.82654562926279E-02 
1150	 6.74894600761427E-02 
1151	 6.27774105128724E-02 
1152	 6.25752721278387E-02 
1153	 6.40035908866957E-02 
1154	 6.35739572614557E-02 
1155	 6.36168255557944E-02 
1156	 6.34005365882237E-02 
1157	 6.15763169107026E-02 
1158	 6.07236371961308E-02 
1159	 6.10953829890978E-02 
1160	 0.061272438368519 
1161	 6.08814576621804E-02 
1162	 6.09440059934046E-02 
1163	 6.08206852524466E-02 
1164	 6.03308956382493E-02 
1165	 0.060100406617371 
1166	 6.05602341934025E-02 
1167	 6.02410553847238E-02 
1168	 5.97310094471592E-02 
1169	 6.01316381336936E-02 
1170	 5.98910908933234E-02 
1171	 5.95278252176546E-02 
1172	 0.059184653868593 
1173	 5.89212880637416E-02 
1174	 5.84285950877651E-02 
1175	 5.78517774480657E-02 
1176	 5.76219786247293E-02 
1177	 5.75524656020629E-02 
1178	 5.78877217343163E-02 
1179	 5.80742879082918E-02 
1180	 5.78882166992234E-02 
1181	 5.73979581070004E-02 
1182	 5.66306262234628E-02 
1183	 0.056375089367715 
1184	 5.68820757322312E-02 
1185	 5.66755886719473E-02 
1186	 5.60026010613648E-02 
1187	 5.57243125626022E-02 
1188	 5.53923084516738E-02 
1189	 5.52091118623609E-02 
1190	 5.53945134334668E-02 
1191	 5.53233834092502E-02 
1192	 5.48163611100514E-02 
1193	 5.35964306265276E-02 
1194	 5.30310790261782E-02 
1195	 5.31729734950231E-02 
1196	 5.28762166884722E-02 
1197	 5.25317114779002E-02 
1198	 5.21767810580191E-02 
1199	 5.15747143124378E-02 
1200	 5.09655396211959E-02 
1201	 5.04711709430371E-02 
1202	 5.03125813353775E-02 
1203	 5.01177453038115E-02 
1204	 4.94785169459305E-02 
1205	 4.89828487477461E-02 
1206	 4.87199619619213E-02 
1207	 4.84238287414357E-02 
1208	 4.79300011098236E-02 
1209	 4.74773518908253E-02 
1210	 4.72974332412937E-02 
1211	 0.046826866426912 
1212	 4.64746530260176E-02 
1213	 0.046584283916188 
1214	 4.64199104967292E-02 
1215	 4.61292563043787E-02 
1216	 4.58917989998629E-02 
1217	 4.55770039502325E-02 
1218	 4.47872451445197E-02 
1219	 4.44556698174082E-02 
1220	 4.43242225420615E-02 
1221	 4.39473045594488E-02 
1222	 4.37801025193087E-02 
1223	 4.34810134093271E-02 
1224	 4.29183520697586E-02 
1225	 4.25659818922121E-02 
1226	 4.23428463624879E-02 
1227	 4.21641077943169E-02 
1228	 4.20173384794246E-02 
1229	 4.16553514987785E-02 
1230	 4.14765934057417E-02 
1231	 4.14265673053589E-02 
1232	 4.11212509437757E-02 
1233	 4.10593225374643E-02 
1234	 4.10695972389723E-02 
1235	 4.09620625253611E-02 
1236	 4.08872028476757E-02 
1237	 4.06747230878304E-02 
1238	 0.040284682701891 
1239	 3.99851893761207E-02 
1240	 3.99082685249577E-02 
1241	 3.98759884823108E-02 
1242	 3.97033702711314E-02 
1243	 3.95454679099755E-02 
1244	 0.039465335140575 
1245	 3.93656970774105E-02 
1246	 3.94289534759995E-02 
1247	 3.96737985806089E-02 
1248	 3.95373592196331E-02 
1249	 3.90284053991181E-02 
1250	 3.91685958416082E-02 
1251	 3.96036795327896E-02 
1252	 3.95288017722882E-02 
1253	 3.94727144912223E-02 
1254	 3.96586796850656E-02 
1255	 3.96465548258605E-02 
1256	 3.96652576148935E-02 
1257	 4.00210492888579E-02 
1258	 4.02783038103708E-02 
1259	 4.03414954390379E-02 
1260	 4.04175286120105E-02 
1261	 4.05112122887406E-02 
1262	 4.06677630846279E-02 
1263	 0.040819748578338 
1264	 4.09399622679748E-02 
1265	 4.09540624789338E-02 
1266	 4.12838460784553E-02 
1267	 4.12750696199045E-02 
1268	 4.08514132109326E-02 
1269	 4.08843878732885E-02 
1270	 4.09463198308224E-02 
1271	 4.05276295573486E-02 
1272	 4.03529691931139E-02 
1273	 4.04447892207033E-02 
1274	 4.02091257802877E-02 
1275	 3.99585652614845E-02 
1276	 3.97706271925533E-02 
1277	 3.95014190973262E-02 
1278	 3.90542341139314E-02 
1279	 3.86647452868138E-02 
1280	 3.83378993775472E-02 
1281	 3.80853324623267E-02 
1282	 3.76894064163567E-02 
1283	 3.73524141387258E-02 
1284	 3.70726026977262E-02 
1285	 3.70120606615225E-02 
1286	 3.70740537513339E-02 
1287	 0.036864235485822 
1288	 3.68538393792026E-02 
1289	 3.67412098921495E-02 
1290	 3.63256759957208E-02 
1291	 3.57463905291048E-02 
1292	 3.57993137244767E-02 
1293	 3.59344060230882E-02 
1294	 3.58429417768919E-02 
1295	 0.035794472551067 
1296	 3.57323164130407E-02 
1297	 3.57519881841989E-02 
1298	 3.54464605430696E-02 
1299	 3.52552457050996E-02 
1300	 3.55336053728186E-02 
1301	 3.56581948762003E-02 
1302	 3.56712625150498E-02 
1303	 3.54438156692368E-02 
1304	 3.49716191811103E-02 
1305	 3.49153142156125E-02 
1306	 3.47710111313966E-02 
1307	 0.035025210822558 
1308	 3.51166162531603E-02 
1309	 3.51187599055208E-02 
1310	 3.49039986265182E-02 
1311	 3.47582117392162E-02 
1312	 3.47564264403607E-02 
1313	 3.44320765922741E-02 
1314	 3.41494303950597E-02 
1315	 0.033955152981076 
1316	 3.40701212485712E-02 
1317	 3.44614780727973E-02 
1318	 3.44316288817229E-02 
1319	 3.45334627735503E-02 
1320	 3.45894850896603E-02 
1321	 3.42913588056184E-02 
1322	 3.37934939952169E-02 
1323	 3.39697889769133E-02 
1324	 3.45285658114098E-02 
1325	 3.42478141814287E-02 
1326	 3.40150430664946E-02 
1327	 3.44653897722905E-02 
1328	 3.40789324212445E-02 
1329	 3.28437043940211E-02 
1330	 3.25736743165623E-02 
1331	 3.28508035743702E-02 
1332	 3.30267422294723E-02 
1333	 3.39022098850859E-02 
1334	 3.39391806286161E-02 
1335	 3.39980271383445E-02 
1336	 3.24692213187776E-02 
1337	 3.24049245343264E-02 
1338	 3.37345759440045E-02 
1339	 3.37887512137478E-02 
1340	 3.26706626651546E-02 
1341	 3.28056252774611E-02 
1342	 3.42403695392837E-02 
1343	 3.42009567733842E-02 
1344	 0.032899326722243 
1345	 3.37800626732229E-02 
1346	 3.64320940360237E-02 
1347	 0.03597633435054 
1348	 3.53652420702893E-02 
1349	 3.69495413654254E-02 
1350	 2.84022890554674E-02 
1351	 2.42414240340506E-02 
1352	 4.98845335294685E-02 
1353	 6.80809353736596E-02 
1354	 8.24675224468552E-02 
1355	 7.40485563214844E-02 
1356	 5.89189332447982E-02 
1357	 2.48991882449341E-02 
1358	-2.05570611133813E-02 
1359	-8.53531840394362E-03 
1360	 8.12774920544947E-02 
1361	 5.61970010874843E-02 
1362	-0.138549996352836 
1363	-0.185286811345219 
1364	-0.125704421349445 
1365	-0.122835526875963 
1366	-0.182256626595146 
1367	-0.146617899650704 
1368	-4.00143393883333E-02 
1369	-3.55946503017974E-02 
1370	-7.95743473601778E-02 
1371	 3.5442027426769E-03 
1372	-8.27187063776073E-02 
1373	-0.411880693435435 
1374	-0.55498329647325 
1375	-0.593211704722778 
1376	-0.56827856129181 
1377	-0.690327498583853 
1378	-0.646036678719477 
1379	-3.71748541894872E-02 
1380	-0.056921536530746 
1381	-0.534027510671624 
1382	-0.439544177127299 
1383	-0.200163247753366 
1384	-0.223834277713118 
1385	 1.78985636505608E-02 
1386	 8.16012983343318E-02 
1387	-0.395272643575701 
1388	-0.453355004831973 
1389	-0.130076867177051 
1390	-0.177988731904163 
1391	-0.552008472592728 
1392	-0.453864731335505 
1393	-0.268751008565782 
1394	-0.305370126525749 
1395	-0.360772946248607 
1396	-0.054398625205779 
1397	-0.103295675822895 
1398	-0.381063481508252 
1399	-0.18032471889316 
1400	 0.142348638100034 
1401	-0.128302906826835 
1402	-0.16080370081499 
1403	 5.83720435077042E-02 
1404	 1.19532395956138E-02 
1405	 5.81435029322588E-02 
1406	 0.714621888471644 
1407	 0.537319102490963 
1408	 2.63104833024395E-02 
1409	-0.034707303365488 
1410	-8.19542895957855E-02 
1411	-9.57225646083214E-02 
1412	-8.19093887471368E-02 
1413	-7.71628123347911E-02 
1414	-8.07562723199012E-02 
1415	-6.05307402008908E-02 
1416	-2.68243218633781E-02 
1417	-4.2366324962584E-03 
1418	 2.79078936846151E-02 
1419	 3.55133672235336E-02 
1420	 0.030547439891992 
1421	 3.75569467030649E-02 
1422	 3.28856876566837E-02 
1423	 3.99825661131915E-02 
1424	 7.14461967842059E-02 
1425	 6.59480218133257E-02 
1426	 3.76248981097542E-02 
1427	 3.62832629766521E-02 
1428	 4.05754349929113E-02 
1429	 3.14704473969626E-02 
1430	 1.96449452057158E-02 
1431	 2.31512136715548E-02 
1432	 2.80869271919436E-02 
1433	 2.10507615211277E-02 
1434	 2.35051837423594E-02 
1435	 2.68656153143413E-02 
1436	 1.50582826509683E-02 
1437	 6.59298653471515E-03 
1438	 3.50213558386053E-02 
1439	 3.90571987199182E-02 
1440	 2.55871741188572E-02 
1441	 2.81123740631999E-02 
1442	 3.57774711374266E-02 
1443	 3.67369646710548E-02 
1444	 3.57596012330981E-02 
1445	 3.66646875412325E-02 
1446	 2.97040442483894E-02 
1447	 0.019370623610713 
1448	 0.019775573896442 
1449	 2.32771653046725E-02 
1450	 2.26208844124259E-02 
1451	 0.022814449263297 
1452	 2.47121196757092E-02 
1453	 2.33019568252104E-02 
1454	 0.023142435484306 
1455	 2.34758551341499E-02 
1456	 2.40323129150577E-02 
1457	 2.42996119464858E-02 
1458	 2.40693160515353E-02 
1459	 0.023680057934706 
1460	 2.35558779093923E-02 
1461	 0.023643793224336 
1462	 2.34622468177061E-02 
1463	 2.29841576736735E-02 
1464	 2.30628219734154E-02 
1465	 2.25290189215524E-02 
1466	 2.26267702800565E-02 
1467	 2.47676922249978E-02 
1468	 2.51083307497353E-02 
1469	 2.41594633424162E-02 
1470	 0.025024422792112 
1471	 0.026237818578783 
1472	 2.59621736696043E-02 
1473	 2.62401693914528E-02 
1474	 2.53392234111571E-02 
1475	 2.19248472893802E-02 
1476	 2.17021014412928E-02 
1477	 2.32267690452129E-02 
1478	 2.33414013638794E-02 
1479	 2.37909833117725E-02 
1480	 2.39891146518047E-02 
1481	 2.37340573565546E-02 
1482	 2.37824843098529E-02 
1483	 2.40238288647583E-02 
1484	 2.38496393978615E-02 
1485	 0.023097057831744 
1486	 2.29278779333081E-02 
1487	 2.35820999090891E-02 
1488	 2.32141834572066E-02 
1489	 2.29970135342303E-02 
1490	 2.23097753040341E-02 
1491	 1.98642573894172E-02 
1492	 1.94351303593577E-02 
1493	 0.020448895753112 
1494	 2.03517021787925E-02 
1495	 1.99750242269475E-02 
1496	 2.02894321815731E-02 
1497	 2.06336791233776E-02 
1498	 2.06994349582321E-02 
1499	 2.12715995939795E-02 
1500	 2.16044544340718E-02 
1501	 0.021812499427392 
1502	 2.14155439842169E-02 
1503	 2.00067953436385E-02 
1504	 2.00570462166595E-02 
1505	 2.09754230368839E-02 
1506	 2.07693926064258E-02 
1507	 2.05415572736194E-02 
1508	 2.11345179579858E-02 
1509	 2.12494678308723E-02 
1510	 2.06551399800683E-02 
1511	 2.03159660317636E-02 
1512	 2.01702481473162E-02 
1513	 1.96131109549028E-02 
1514	 1.93195514538348E-02 
1515	 1.95856504866812E-02 
1516	 1.99134557316063E-02 
1517	 2.02424004327441E-02 
1518	 0.020307021005939 
1519	 2.02961687674054E-02 
1520	 0.020439258583126 
1521	 2.04363366026346E-02 
1522	 2.02712866654899E-02 
1523	 2.00989767294704E-02 
1524	 2.03142258496043E-02 
1525	 2.07663172756029E-02 
1526	 2.07583804940945E-02 
1527	 2.06644098920539E-02 
1528	 2.09380470585651E-02 
1529	 2.11902053063068E-02 
1530	 2.12346622353349E-02 
1531	 2.12203593431548E-02 
1532	 0.02132221818271 
1533	 2.14168507994702E-02 
1534	 2.12016598872941E-02 
1535	 2.12418926514116E-02 
1536	 2.15450099500647E-02 
1537	 2.12901648217457E-02 
1538	 0.020952218623084 
1539	 2.11026628089024E-02 
1540	 2.13021886812038E-02 
1541	 2.11160438072104E-02 
1542	 2.09661714895606E-02 
1543	 2.07280088060808E-02 
1544	 2.01921325427741E-02 
1545	 2.01936343754549E-02 
1546	 2.02999461496324E-02 
1547	 2.03318967159153E-02 
1548	 2.06901196627908E-02 
1549	 2.09601228372474E-02 
1550	 0.021291987412838 
1551	 2.11898102903484E-02 
1552	 2.06130730045506E-02 
1553	 2.06643169862224E-02 
1554	 2.11288365798284E-02 
1555	 2.13461770733447E-02 
1556	 2.14918088203872E-02 
1557	 2.14820028604016E-02 
1558	 2.08475937156748E-02 
1559	 2.02227615278822E-02 
1560	 2.03483231648978E-02 
1561	 2.06581930389287E-02 
1562	 2.07006538025557E-02 
1563	 2.06655446865099E-02 
1564	 2.07232168180253E-02 
1565	 2.10181974071681E-02 
1566	 2.08639206242027E-02 
1567	 2.02513612402842E-02 
1568	 2.05180304282081E-02 
1569	 0.020946585397762 
1570	 2.07570505156094E-02 
1571	 2.12179244555063E-02 
1572	 2.15449677798207E-02 
1573	 2.07008742917716E-02 
1574	 0.020423060697848 
1575	 0.020956957948339 
1576	 2.10042600676833E-02 
1577	 2.03911967614602E-02 
1578	 2.00170791825325E-02 
1579	 2.01253986416072E-02 
1580	 2.02555158057715E-02 
1581	 2.10730641490925E-02 
1582	 2.14997834678854E-02 
1583	 2.07260344075861E-02 
1584	 2.03656485881717E-02 
1585	 0.020051394034937 
1586	 1.99166841890821E-02 
1587	 2.06089351185165E-02 
1588	 2.09152784145156E-02 
1589	 2.10768898413629E-02 
1590	 2.11926985759431E-02 
1591	 2.08099821438754E-02 
1592	 2.07462624957377E-02 
1593	 2.10079335993658E-02 
1594	 0.021250131443231 
1595	 0.021792000278233 
1596	 2.20450535144005E-02 
1597	 2.17282879006119E-02 
1598	 2.15008861787472E-02 
1599	 2.12432583418972E-02 
1600	 2.12748292745929E-02 
1601	 2.17482347832942E-02 
1602	 2.18259881503887E-02 
1603	 2.14472625466742E-02 
1604	 2.12542142277617E-02 
1605	 2.13968132509571E-02 
1606	 2.16110314259938E-02 
1607	 2.17545428672666E-02 
1608	 2.17490232472282E-02 
1609	 2.15255699677194E-02 
1610	 2.12095485952493E-02 
1611	 2.13353561510707E-02 
1612	 2.15484615821004E-02 
1613	 2.11488261258796E-02 
1614	 2.09496321548871E-02 
1615	 2.15126310230666E-02 
1616	 2.16031104415897E-02 
1617	 2.11796741857532E-02 
1618	 2.14338319108762E-02 
1619	 0.021433410092842 
1620	 2.09577002085446E-02 
1621	 2.12845416519439E-02 
1622	 0.021447071025698 
1623	 2.10566942584655E-02 
1624	 2.14836621506198E-02 
1625	 2.20218810668479E-02 
1626	 2.18432217217606E-02 
1627	 2.15739661979866E-02 
1628	 2.13326625222056E-02 
1629	 2.10649374756164E-02 
1630	 2.09347165717827E-02 
1631	 2.10804410724218E-02 
1632	 2.15549223739616E-02 
1633	 2.20022789905662E-02 
1634	 2.19251992437365E-02 
1635	 0.021692039429838 
1636	 2.12707494515144E-02 
1637	 0.020829947090456 
1638	 2.10298816363746E-02 
1639	 2.10744584698559E-02 
1640	 2.09985438038852E-02 
1641	 2.12313229782954E-02 
1642	 0.021356051587147 
1643	 2.14991857229482E-02 
1644	 2.18399251623663E-02 
1645	 2.20236950685144E-02 
1646	 2.19583099181534E-02 
1647	 2.19106285583839E-02 
1648	 2.17053853410797E-02 
1649	 2.13085515831335E-02 
1650	 2.07084789679846E-02 
1651	 2.04641083101528E-02 
1652	 2.10133765923759E-02 
1653	 2.11565780482954E-02 
1654	 2.10985930647974E-02 
1655	 2.10560239062906E-02 
1656	 0.021233007628016 
1657	 2.15652630104295E-02 
1658	 0.02151567922169 
1659	 2.13496197346044E-02 
1660	 2.13301328245063E-02 
1661	 2.08609150903502E-02 
1662	 2.07858317540376E-02 
1663	 2.15740281142618E-02 
1664	 2.17741626991159E-02 
1665	 0.02120174559732 
1666	 2.13373685172171E-02 
1667	 2.21082305944202E-02 
1668	 0.021428874045394 
1669	 2.14374518854777E-02 
1670	 2.19442868187008E-02 
1671	 2.14066702541633E-02 
1672	 2.13193074962799E-02 
1673	 2.17718444394373E-02 
1674	 2.12351488417008E-02 
1675	 2.09942501728339E-02 
1676	 2.14621109795402E-02 
1677	 2.14841979243876E-02 
1678	 2.13351939023884E-02 
1679	 2.16705276702581E-02 
1680	 2.20056781157305E-02 
1681	 2.16524604162982E-02 
1682	 2.13922753529527E-02 
1683	 2.12775777812409E-02 
1684	 2.07493148528535E-02 
1685	 2.08848285444809E-02 
1686	 0.021746658523313 
1687	 2.19601326276323E-02 
1688	 0.02143679002512 
1689	 0.021178038269939 
1690	 2.16490178541092E-02 
1691	 2.22006186169337E-02 
1692	 2.25284722002263E-02 
1693	 2.26574954054735E-02 
1694	 2.21298886842151E-02 
1695	 2.12244438909184E-02 
1696	 2.11298630252893E-02 
1697	 2.18539707131115E-02 
1698	 0.021941547662489 
1699	 0.021137569700225 
1700	 2.04594749517459E-02 
1701	 2.09484433982728E-02 
1702	 2.16075168830727E-02 
1703	 2.11598981131461E-02 
1704	 2.15923734051284E-02 
1705	 2.18548742182117E-02 
1706	 0.020377070985973 
1707	 0.020644899935854 
1708	 2.19239668552981E-02 
1709	 2.14920962647198E-02 
1710	 2.14207899700577E-02 
1711	 2.21944685261842E-02 
1712	 0.022010472594157 
1713	 0.021240165527033 
1714	 2.13401705351131E-02 
1715	 0.021693383498655 
1716	 2.21646736264794E-02 
1717	 2.26239511202008E-02 
1718	 2.24610240011771E-02 
1719	 2.23463558524274E-02 
1720	 2.23914110403848E-02 
1721	 2.24910072379427E-02 
1722	 2.22444333234386E-02 
1723	 2.23447596335902E-02 
1724	 2.25494053914253E-02 
1725	 2.19192542994507E-02 
1726	 2.19773986161487E-02 
1727	 2.21024127981506E-02 
1728	 2.15958514411912E-02 
1729	 2.17424096596899E-02 
1730	 2.16936317229305E-02 
1731	 2.16106891057682E-02 
1732	 2.15069003698841E-02 
1733	 0.021247023166705 
1734	 2.14256626135242E-02 
1735	 0.021243998935653 
1736	 2.14318253590231E-02 
1737	 0.021514295891635 
1738	 2.12739836930132E-02 
1739	 2.17033364577444E-02 
1740	 2.19392718808611E-02 
1741	 2.25509828066826E-02 
1742	 2.30779346742979E-02 
1743	 0.022542179140252 
1744	 2.24117098035016E-02 
1745	 2.21250315318791E-02 
1746	 2.28013038146809E-02 
1747	 2.28589641671723E-02 
1748	 2.19351094631733E-02 
1749	 0.021795346078568 
1750	 2.19679396215057E-02 
1751	 2.17836031082756E-02 
1752	 2.15908740167336E-02 
1753	 2.20635765366223E-02 
1754	 2.29764357701335E-02 
1755	 2.25569978592663E-02 
1756	 2.22715517739986E-02 
1757	 0.02241558772273 
1758	 2.05355396042869E-02 
1759	 2.09111824065555E-02 
1760	 2.19720015854062E-02 
1761	 2.15820114247691E-02 
1762	 2.28226026534326E-02 
1763	 0.023145539131593 
1764	 2.09635139985854E-02 
1765	 2.00095051118244E-02 
1766	 0.01993962122184 
1767	 2.05548233870719E-02 
1768	 2.23937143277719E-02 
1769	 2.25639694710939E-02 
1770	 2.28656111101205E-02 
1771	 2.37563476011504E-02 
1772	 2.27741105751208E-02 
1773	 2.32927530252435E-02 
1774	 2.26539150739417E-02 
1775	 2.03134821982075E-02 
1776	 2.04613718343306E-02 
1777	 2.25175091832691E-02 
1778	 2.25960095849259E-02 
1779	 2.23400786776047E-02 
1780	 2.28895849127967E-02 
1781	 2.30454877522373E-02 
1782	 2.29313625662093E-02 
1783	 2.46809377330324E-02 
1784	 2.48329931402792E-02 
1785	 2.10000293521039E-02 
1786	 1.94745427637078E-02 
1787	 1.89383934843619E-02 
1788	 1.98085143898152E-02 
1789	 2.42954344151717E-02 
1790	 2.92744824799918E-02 
1791	 2.69549534140527E-02 
1792	 2.01549825649107E-02 
1793	 1.22023135936653E-02 
1794	 0.01344358589153 
1795	 1.68210013252828E-02 
1796	 1.92171811675012E-02 
1797	 2.44964866316981E-02 
1798	 1.75212438520787E-02 
1799	 2.01036594108349E-02 
1800	 0.041200522982439 
1801	 0.044812363833652 
1802	 2.77802502347491E-02 
1803	 1.68863526301687E-02 
1804	-1.83196504132864E-02 
1805	-3.36787723121984E-02 
1806	-2.86192862298777E-03 
1807	-3.6679287599312E-03 
1808	-2.45541886428419E-02 
1809	-3.00648310503042E-02 
1810	-6.93941980190699E-02 
1811	-4.74025072751142E-02 
1812	 0.168139694078533 
1813	 0.221171055677951 
1814	 0.166240924464849 
1815	 7.13553498519611E-02 
1816	-0.273095865420459 
1817	-0.385841189959881 
1818	-0.391925985527032 
1819	-0.101343835312069 
1820	 0.24458157920521 
1821	 0.309461231738202 
1822	 0.379297098078598 
1823	-0.256241226429209 
1824	-0.646294053748202 
1825	-0.186422241324364 
1826	 0.025866375464505 
1827	 0.19360768984714 
1828	 0.204926178893276 
1829	-6.14196788443021E-03 
1830	-7.73368318833235E-02 
1831	 1.92650652390445 
1832	 3.18432948803132 
1833	-9.38468822175182 
1834	-4.55447210667381 
1835	-4.17594135864593 
1836	-2.51229532319254 
1837	-0.759304555325843 
1838	-0.463591993465491 
1839	-0.329967890269697 
1840	 0.253483304966875 
1841	 13.6577700595685 
1842	-0.403086489925694 
1843	-0.364119504818029 
1844	-1.11128118479695 
1845	-0.72269622509103 
1846	-3.07122862766436 
1847	-3.16079628564514 
1848	 23.3758555762757 
1849	 1.0224033595671 
1850	-0.408454420836369 
1851	-0.533152816989729 
1852	-2.53138972507113 
1853	-3.9866495225942 
1854	-3.49359660377686 
1855	-2.22119266835947 
1856	-2.19678021075316 
1857	-0.801149057322537 
1858	-5.16146349925213E-02 
1859	 10.8613001578115 
1860	-1.53256370534782 
1861	 6.17442234593803 
1862	 4.6537009386629 
1863	 0.16782712892635 
1864	-0.289641153549034 
1865	-0.110001495974804 
1866	 0.680752674182315 
1867	 1.19354126427614 
1868	 18.7613735401917 
1869	-7.58453648138013 
1870	-2.06481708186651 
1871	-0.354121675447663 
1872	 0.049640580666427 
1873	-0.412566199420273 
1874	-2.00002934642753 
1875	 1.10718352063448 
1876	 0.725081207986748 
1877	 0.337534211976799 
1878	 0.356964353366489 
1879	 0.778517398653262 
1880	 0.834710151856398 
1881	 1.07569881746171 
1882	 0.639253756549225 
1883	 0.397843008149719 
1884	 0.109678753966322 
1885	 5.72487023309783E-02 
1886	 0.258945623651126 
1887	 0.192139553889831 
1888	-0.166072155797235 
1889	-0.217255362027926 
1890	-9.03161322011718E-02 
1891	-0.299811771668622 
1892	-0.861207704204678 
1893	-6.44246160499509 
1894	-2.61155922831698E-03 
1895	 0.203899196094461 
1896	 0.236130983971429 
1897	 0.137092188445451 
1898	 2.99810648141454 
1899	 20.0880048745542 
1900	 9.80220287450193 
1901	 1.32254381451182 
1902	 0.680813092324072 
1903	 0.35738113673043 
1904	-0.197927823702264 
1905	-0.675320805131837 
1906	-0.779300502111903 
1907	-0.909407344833292 
1908	-2.34874345900139 
1909	 2.5714890310921 
1910	-0.931186963830862 
1911	-0.503427544180291 
1912	 3.39399379129008E-02 
1913	 0.879313824065743 
1914	 0.938434667322062 
1915	 1.81025638815419 
1916	-53.6174962758029 
1917	 4.08884085389941 
1918	 4.23102982943698 
1919	 17.8156961194584 
1920	-63.9182169569088 
1921	-3.43281372022626 
1922	-1.41548545360332 
1923	-0.975031525868087 
1924	-0.50227592310343 
1925	 0.293340420294953 
1926	 0.79154686169623 
1927	 2.48015077662961 
1928	 5.51353191722326 
1929	-4.39446270909029 
1930	-0.778563902629691 
1931	-0.870672628459394 
1932	-0.476288382288067 
1933	-0.094534589075693 
1934	 7.62288672017026E-02 
1935	 6.31243679257053E-02 
1936	 0.156872090029925 
1937	 4.98288702583265E-02 
1938	 0.210290615504677 
1939	 0.209426656851709 
1940	 0.192462774273472 
1941	 3.39575049066833E-02 
1942	 6.58767488736691E-02 
1943	-0.154327326103688 
1944	-0.297349176711192 
1945	-0.166274705974835 
1946	-0.140627973791417 
1947	-0.128947783017661 
1948	-2.93313632330603E-02 
1949	 1.09639272936132E-02 
1950	-3.07486470904438E-02 
1951	-5.63321268618397E-02 
1952	-4.98349354294979E-02 
1953	-5.01001842799572E-02 
1954	-4.79766834754815E-02 
1955	-9.67644960922191E-03 
1956	 3.33644564426764E-02 
1957	 4.80007458056807E-02 
1958	 4.84265798252189E-02 
1959	 3.61311722518486E-02 
1960	 2.58221334989993E-02 
1961	 0.027223171919246 
1962	 0.013257767677651 
1963	 8.01995705254936E-03 
1964	 2.68225634417402E-02 
1965	 3.60492029555375E-02 
1966	 3.98325964297829E-02 
1967	 4.47707221586564E-02 
1968	 0.049473416659676 
1969	 4.51627481666146E-02 
1970	 4.16816872610727E-02 
1971	 4.23362276692761E-02 
1972	 4.16110499687743E-02 
1973	 3.95451031902687E-02 
1974	 4.05719025939615E-02 
1975	 3.75274225750938E-02 
1976	 3.55501710419476E-02 
1977	 3.65086442195759E-02 
1978	 3.25315305206729E-02 
1979	 3.08306622167661E-02 
1980	 2.97788761138712E-02 
1981	 3.06052297911711E-02 
1982	 3.17808210746648E-02 
1983	 3.35001384249918E-02 
1984	 3.54253580356788E-02 
1985	 0.036146556343745 
1986	 3.28500484543399E-02 
1987	 3.03624307014647E-02 
1988	 0.030813675377109 
1989	 3.08690472759281E-02 
1990	 3.16417840105551E-02 
1991	 3.35635355884737E-02 
1992	 0.034111449642573 
1993	 3.30195048842153E-02 
1994	 3.22581736913449E-02 
1995	 3.17396706927059E-02 
1996	 3.03649816069918E-02 
1997	 2.88830383578642E-02 
1998	 3.20066237357064E-02 
1999	 3.50859142945817E-02 
2000	 3.79576548782391E-02 
2001	 4.02937040350594E-02 
2002	 3.90194717978625E-02 
2003	 3.74550463990258E-02 
2004	 3.85720327296736E-02 
2005	 3.68869553714141E-02 
2006	 2.96422408284722E-02 
2007	 2.23637174220809E-02 
2008	 1.73075311865856E-02 
2009	 1.95749015541408E-02 
2010	 3.74717255767709E-02 
2011	 4.00279338242518E-02 
2012	 3.89391575048851E-02 
2013	 3.69372173328728E-02 
2014	 0.037124239104913 
2015	 3.55299267118681E-02 
2016	 3.61474100249361E-02 
2017	 0.039624099119001 
2018	 4.00364347667635E-02 
2019	 3.25804091014771E-02 
2020	 2.56094600582259E-02 
2021	 2.38363291409974E-02 
2022	 2.10331799202325E-02 
2023	 1.86110928502624E-02 
2024	 2.02463199917692E-02 
2025	 2.77711175266573E-02 
2026	 2.96292396821927E-02 
2027	 3.05872721701003E-02 
2028	 3.20422721678231E-02 
2029	 2.97543270012626E-02 
2030	 2.81264076506616E-02 
2031	 2.97983627298261E-02 
2032	 3.00613214119109E-02 
2033	 2.94609437658591E-02 
2034	 2.94276192779919E-02 
2035	 0.027994715194046 
2036	 2.57570486999262E-02 
2037	 2.43596024900371E-02 
2038	 2.50698933573487E-02 
2039	 2.51515119740369E-02 
2040	 2.45320452801108E-02 
2041	 2.48115571827642E-02 
2042	 2.62530202273353E-02 
2043	 2.59630410812442E-02 
2044	 2.48358502795578E-02 
2045	 2.44092259393706E-02 
2046	 2.36985572605562E-02 
2047	 2.36156343559407E-02 
2048	 2.34270684973271E-02 
2049	 2.40328999078643E-02 
2050	 2.20945547696828E-02 
2051	 2.04284673489873E-02 
2052	 2.13176070208177E-02 
2053	 2.04964583644402E-02 
2054	 1.93112815510677E-02 
2055	 2.09803320653298E-02 
2056	 2.21123386343953E-02 
2057	 2.29930566853579E-02 
2058	 2.24764153595498E-02 
2059	 2.16238976212135E-02 
2060	 2.18403483260999E-02 
2061	 2.03683673126064E-02 
2062	 2.09896693235016E-02 
2063	 2.62103759493813E-02 
2064	 2.71744093857981E-02 
2065	 2.42747745263153E-02 
2066	 2.30098258718842E-02 
2067	 2.00216462968176E-02 
2068	 1.89365729200724E-02 
2069	 2.05501332225296E-02 
2070	 0.020918484113722 
2071	 1.95308688930435E-02 
2072	 1.95337699145875E-02 
2073	 2.03045416431041E-02 
2074	 2.22605656097156E-02 
2075	 2.17673036267318E-02 
2076	 2.01168927283852E-02 
2077	 2.06665444066028E-02 
2078	 2.05967056125401E-02 
2079	 2.10424211796592E-02 
2080	 2.32901900464339E-02 
2081	 2.63451137863178E-02 
2082	 2.61763571281112E-02 
2083	 0.025366821944511 
2084	 2.57621575864857E-02 
2085	 2.53853364320408E-02 
2086	 0.024529004811371 
2087	 2.51609510900594E-02 
2088	 2.72327693386649E-02 
2089	 2.73168114576556E-02 
2090	 2.69982306915385E-02 
2091	 2.88077459585081E-02 
2092	 2.81193598656106E-02 
2093	 2.47077785789585E-02 
2094	 2.36605346234475E-02 
2095	 2.24587186897766E-02 
2096	 2.18527030233581E-02 
2097	 0.023178091315342 
2098	 2.33885436451352E-02 
2099	 2.36648411502345E-02 
2100	 2.27400749378717E-02 
2101	 0.021198761775436 
2102	 2.06225550285644E-02 
2103	 2.04911554268033E-02 
2104	 2.00570404844581E-02 
2105	 2.01155497149124E-02 
2106	 2.14135870553891E-02 
2107	 2.29656701377164E-02 
2108	 2.40306063784696E-02 
2109	 2.47349994320916E-02 
2110	 2.52002470195738E-02 
2111	 2.42597500861442E-02 
2112	 2.23870900707983E-02 
2113	 2.18480493118777E-02 
2114	 2.18607915337533E-02 
2115	 2.09739152392533E-02 
2116	 2.04884766660355E-02 
2117	 2.06623468716835E-02 
2118	 1.96979844286801E-02 
2119	 2.03063905604078E-02 
2120	 2.28505664959642E-02 
2121	 2.45312741121285E-02 
2122	 2.51189172446133E-02 
2123	 2.58426165262435E-02 
2124	 2.59718455985838E-02 
2125	 2.55047257611703E-02 
2126	 2.61709478351434E-02 
2127	 2.66586369928539E-02 
2128	 2.68600934494337E-02 
2129	 2.53961097688131E-02 
2130	 2.24857625816893E-02 
2131	 2.14756965228655E-02 
2132	 2.07547527098241E-02 
2133	 2.03367169735801E-02 
2134	 2.08363798414062E-02 
2135	 2.31989220306787E-02 
2136	 0.023247271327679 
2137	 2.28435950376993E-02 
2138	 0.023108489515131 
2139	 2.20919316585643E-02 
2140	 2.20546237299194E-02 
2141	 2.31686015977709E-02 
2142	 2.31540079257504E-02 
2143	 2.21360973734924E-02 
2144	 2.32576614518793E-02 
2145	 2.29246487259221E-02 
2146	 2.34212116654751E-02 
2147	 2.46201769575871E-02 
2148	 0.02395250313361 
2149	 2.38251341967469E-02 
2150	 2.36479186475006E-02 
2151	 2.17763721935955E-02 
2152	 2.08227309991479E-02 
2153	 1.94786966625792E-02 
2154	 1.78715935564258E-02 
2155	 0.018125272164463 
2156	 1.78910426234186E-02 
2157	 1.76433392593751E-02 
2158	 1.69475231989375E-02 
2159	 1.78801226416719E-02 
2160	 1.98756990440263E-02 
2161	 2.10664087907399E-02 
2162	 2.39686875570875E-02 
2163	 2.45312182710967E-02 
2164	 0.022455086623495 
2165	 2.24437931624062E-02 
2166	 2.25474661352231E-02 
2167	 2.23579059992713E-02 
2168	 2.40261570434828E-02 
2169	 2.33568242849064E-02 
2170	 2.02765897957106E-02 
2171	 1.81147960065028E-02 
2172	 1.85813198834752E-02 
2173	 1.93125578467641E-02 
2174	 2.08989301764487E-02 
2175	 0.023132973176442 
2176	 0.022646730402467 
2177	 2.10059109910305E-02 
2178	 2.12499863979489E-02 
2179	 2.22267137568562E-02 
2180	 2.19957312063444E-02 
2181	 2.27124015248069E-02 
2182	 2.32772968251499E-02 
2183	 2.16673048417718E-02 
2184	 2.24582633529817E-02 
2185	 2.44095140881004E-02 
2186	 0.02408720647684 
2187	 2.20938635411673E-02 
2188	 2.12294005898898E-02 
2189	 1.96620656465378E-02 
2190	 0.018580131262073 
2191	 1.83792119646018E-02 
2192	 1.85905445585509E-02 
2193	 1.88357395284783E-02 
2194	 1.85921078739549E-02 
2195	 1.79911610890561E-02 
2196	 1.81341569756701E-02 
2197	 1.84760897667389E-02 
2198	 1.89196623202539E-02 
2199	 1.97652670391855E-02 
2200	 2.24385468674751E-02 
2201	 2.17722322422201E-02 
2202	 2.06864978009445E-02 
2203	 0.021571767789268 
2204	 2.09154464019956E-02 
2205	 2.19852667042508E-02 
2206	 2.43345334218995E-02 
2207	 0.022793477795762 
2208	 1.88972635144851E-02 
2209	 1.51938358522707E-02 
2210	 1.32408150729649E-02 
2211	 1.31886869998351E-02 
2212	 1.41113656176187E-02 
2213	 1.74117296484038E-02 
2214	 2.00535375868423E-02 
2215	 2.14777853758378E-02 
2216	 2.37425096945256E-02 
2217	 2.41679972233073E-02 
2218	 2.35223888480723E-02 
2219	 2.24122975141977E-02 
2220	 0.018825801957471 
2221	 1.86463654266575E-02 
2222	 2.08794829678655E-02 
2223	 0.019836360502794 
2224	 1.79241268209336E-02 
2225	 1.74375556964272E-02 
2226	 1.49870643945695E-02 
2227	 1.48983359151079E-02 
2228	 1.89556721200119E-02 
2229	 2.02605827316586E-02 
2230	 2.01864515240641E-02 
2231	 2.11725766986732E-02 
2232	 2.13687833316943E-02 
2233	 2.12751250857877E-02 
2234	 2.21352289521452E-02 
2235	 2.18196580227013E-02 
2236	 1.91729941229993E-02 
2237	 2.16549264112566E-02 
2238	 2.46613406755898E-02 
2239	 2.47776370916835E-02 
2240	 0.023311476155766 
2241	 2.20407661091536E-02 
2242	 2.19205246976708E-02 
2243	 2.06042652876466E-02 
2244	 2.17639064082481E-02 
2245	 2.49762598755737E-02 
2246	 2.16578320033427E-02 
2247	 1.81306826989617E-02 
2248	 2.09220213997267E-02 
2249	 2.03161859025825E-02 
2250	 1.76475596440204E-02 
2251	 1.89928642580854E-02 
2252	 1.51936815613519E-02 
2253	 9.78004976885258E-03 
2254	 1.16572564997791E-02 
2255	 1.47111536634879E-02 
2256	 1.84902027576531E-02 
2257	 0.02287542117768 
2258	 2.58686218970112E-02 
2259	 2.55200762415979E-02 
2260	 0.023026632519139 
2261	 1.52730964993036E-02 
2262	 1.36004428915693E-02 
2263	 1.27223830937307E-02 
2264	 1.29451474047519E-02 
2265	 1.94077316483057E-02 
2266	 2.12393314769116E-02 
2267	 1.65112694216026E-02 
2268	 1.71990398904309E-02 
2269	 0.023041196466406 
2270	 0.022730534814345 
2271	 1.96084374180049E-02 
2272	 2.14687666529919E-02 
2273	 2.29676535178182E-02 
2274	 2.33501961730754E-02 
2275	 0.028294622938974 
2276	 0.029866209025634 
2277	 2.60217112083088E-02 
2278	 2.52395782427399E-02 
2279	 2.77287140745207E-02 
2280	 2.60960058775393E-02 
2281	 2.39445254142924E-02 
2282	 1.76918475675703E-02 
2283	 8.84813206856168E-03 
2284	 6.74661285289599E-03 
2285	 1.15138481569211E-02 
2286	 1.45050104594749E-02 
2287	 1.59726487856123E-02 
2288	 1.96966462606293E-02 
2289	 1.78895365845921E-02 
2290	 1.44686405174268E-02 
2291	 1.72227650903429E-02 
2292	 1.61792997329494E-02 
2293	 1.12214983375945E-02 
2294	 1.22516800076814E-02 
2295	 1.24630953105053E-02 
2296	 1.39915711220573E-02 
2297	 2.43181663563838E-02 
2298	 2.73542529051384E-02 
2299	 2.44794179671429E-02 
2300	 2.73887278672809E-02 
2301	 2.59474169251615E-02 
2302	 0.022145715641249 
2303	 2.43244702170532E-02 
2304	 2.27523321461715E-02 
2305	 2.19349901399067E-02 
2306	 2.42519683653391E-02 
2307	 1.93821904997663E-02 
2308	 1.79160343746776E-02 
2309	 1.70899945293542E-02 
2310	 1.54944313922422E-02 
2311	 1.57017994197395E-02 
2312	 8.20575795827978E-03 
2313	 4.90320360985775E-03 
2314	 8.12893815862239E-03 
2315	 1.48658273515627E-02 
2316	 2.48600346121344E-02 
2317	 2.45219263755281E-02 
2318	 1.76758848903315E-02 
2319	 1.26441481811313E-02 
2320	 7.42912053693155E-03 
2321	 3.71569576070705E-03 
2322	 5.14064391462786E-04 
2323	 4.19865714155119E-03 
2324	 4.74628646533338E-03 
2325	 1.93656026344625E-03 
2326	 5.75013022420743E-03 
2327	-5.28498022711325E-04 
2328	-7.69524898652615E-03 
2329	-5.89262011846808E-03 
2330	 1.54668147098328E-04 
2331	 1.44264759069999E-03 
2332	-2.73331737858241E-03 
2333	-3.06581690265433E-03 
2334	-4.05943355428555E-03 
2335	-2.44387341848421E-03 
2336	-2.11349288367617E-03 
2337	-1.18119599460084E-03 
2338	 3.77362613230446E-03 
2339	-6.56497210465983E-04 
2340	 5.9349081094129E-03 
2341	 1.29293151764531E-02 
2342	-2.95512991070964E-03 
2343	-6.00903011613896E-03 
2344	-8.750432994437E-05 
2345	 4.70641461704226E-03 
2346	 0.016157661366318 
2347	 1.89280984496626E-02 
2348	 7.83325570107361E-03 
2349	 7.65563419561305E-03 
2350	 9.42521826376084E-03 
2351	 6.83819962286694E-04 
2352	 1.27818150225445E-03 
2353	-0.007691934331638 
2354	-1.13280602754629E-02 
2355	-1.75498694433758E-04 
2356	 1.42983469172369E-02 
2357	 3.66064815627667E-02 
2358	 4.03553511656525E-02 
2359	 3.75437172129527E-02 
2360	 4.99571044401275E-02 
2361	 5.50938775359616E-02 
2362	 3.35926653131767E-02 
2363	 9.26969676524396E-03 
2364	 3.6486627886602E-03 
2365	-0.016119835805863 
2366	-3.25620207002327E-02 
2367	-2.35487878635695E-02 
2368	-0.033790408610277 
2369	-5.25025634180301E-02 
2370	-5.45685043667202E-02 
2371	-0.041957086073182 
2372	-3.02727196337919E-02 
2373	-2.79352702786385E-02 
2374	-8.17673834935732E-03 
2375	 9.33135415450267E-03 
2376	 2.74929392933775E-02 
2377	 0.02316768451903 
2378	-1.24177014700475E-03 
2379	-6.47445176139848E-03 
2380	-5.64677327825323E-02 
2381	-7.85651470326598E-02 
2382	-4.50489486228158E-02 
2383	-4.88531635688915E-02 
2384	-0.071474942981163 
2385	-7.15374859804955E-02 
2386	-1.05418707579949E-02 
2387	 2.69614354342995E-02 
2388	 6.88896727046461E-02 
2389	 0.125257603755679 
2390	 8.97723255233451E-02 
2391	 5.46853882792398E-02 
2392	 4.86857496463273E-02 
2393	 1.87515927672505E-02 
2394	 0.027481163633906 
2395	 4.79905714065782E-02 
2396	 6.02584319241239E-02 
2397	 8.67437925932409E-02 
2398	 4.35945263949007E-02 
2399	-6.15126634477447E-02 
2400	-9.55522899661982E-02 
2401	-9.83808955410655E-02 
2402	-9.59320348015169E-02 
2403	-3.11672151062993E-02 
2404	-2.05980880689206E-02 
2405	-8.96260145633905E-02 
2406	-0.10311162440964 
2407	-5.42513025684422E-02 
2408	-1.77187348561469E-03 
2409	-5.03263971562898E-02 
2410	-3.40860742153436E-02 
2411	 7.33788675391512E-02 
2412	 9.79112655995057E-02 
2413	 0.188950149156505 
2414	 0.185153741910076 
2415	-3.76044012909372E-02 
2416	-0.122426512451875 
2417	-0.13842565915526 
2418	-8.21081370802047E-02 
2419	 7.40038763793166E-02 
2420	 0.034814134170483 
2421	-7.29278423088099E-04 
2422	-6.78057533329521E-02 
2423	-0.179988543434698 
2424	-0.194731611747298 
2425	-0.379065831685508 
2426	-0.382732311824685 
2427	-0.14925281501945 
2428	-0.162624603988478 
2429	-0.076819988703281 
2430	 4.94605207142709E-02 
2431	-3.73996461453219E-02 
2432	-8.66996653834316E-02 
2433	-1.38557757579133E-02 
2434	 8.33634401349654E-03 
2435	 0.048657689094504 
2436	 0.102162196701146 
2437	 3.93811157707521E-02 
2438	-5.48503088759866E-02 
2439	-5.56179139095643E-02 
2440	 0.076179789442298 
2441	 0.255855763134532 
2442	 0.243647865826221 
2443	 0.162598178699834 
2444	 6.52504931339343E-03 
2445	-0.164031321450164 
2446	-0.221073841010168 
2447	-0.178614370527799 
2448	-0.104545525156168 
2449	 0.190395936018378 
2450	 0.225343854792227 
2451	-4.82366596968213 
2452	-5.65419961800814 
2453	-0.581865585565762 
2454	 0.408360116881199 
2455	 0.453351171497199 
2456	 0.381475564662106 
2457	 0.274866263026271 
2458	-0.231388660107992 
2459	-0.312546498066921 
2460	-0.146197972418328 
2461	-0.384711192715864 
2462	-0.375350823185734 
2463	-6.78175861774839E-02 
2464	-1.22965998446327 
2465	-3.09238037328866 
2466	-1.03898208579369 
2467	-1.58190200939817 
2468	-1.31451533687108 
2469	-0.683721987957882 
2470	-2.33657493563081 
2471	 7.51238215327738 
2472	 4.18934785665835 
2473	 4.87878932352501 
2474	 2.80491429302723 
2475	 2.64877624904328 
2476	-29.4615489746357 
2477	-0.955630173377917 
2478	 5.96537919088309E-02 
2479	 1.2170016398059 
2480	 5.28028681275457 
2481	 164.239828822491 
2482	-0.323737975322152 
2483	-0.260043070316951 
2484	-0.215528259511847 
2485	 0.805711865971517 
2486	 1.5700861187217 
2487	 2.9549223524169 
2488	-1.62833951117993 
2489	 13.801990418279 
2490	 2.83438176304421 
2491	 4.08431705071101 
2492	 1.73425407968824 
2493	 4.42616235251001 
2494	 1.91397254451579 
2495	 0.578917851790234 
2496	-0.374078694026391 
2497	-0.35567448467863 
2498	 0.822332672735601 
2499	-1.87315277144643 
2500	-2.11533038292885 
