Wavelength	rt0726sus_algea00000.asd
350	 5.61613909337754E-02 
351	 5.69047967603082E-02 
352	 5.55844177611393E-02 
353	 5.49021783544798E-02 
354	 5.61395764419095E-02 
355	 5.58499099032439E-02 
356	 5.55086210355387E-02 
357	 5.56341622861275E-02 
358	 5.61714702367848E-02 
359	 5.58649404148462E-02 
360	 5.56378791201888E-02 
361	 5.57980588319328E-02 
362	 5.60951987745399E-02 
363	 0.055665602955521 
364	 5.56498837485193E-02 
365	 5.61260978417794E-02 
366	 5.52130360926278E-02 
367	 0.055256568128937 
368	 5.55117732612529E-02 
369	 5.50662301223943E-02 
370	 5.54527572691715E-02 
371	 5.54307270061975E-02 
372	 5.52516023614545E-02 
373	 5.58075256987626E-02 
374	 5.53280495144441E-02 
375	 5.52249565118546E-02 
376	 5.55844657139285E-02 
377	 5.43369354185646E-02 
378	 5.48298374130182E-02 
379	 0.055752262802396 
380	 5.54958073004044E-02 
381	 5.50536647884321E-02 
382	 5.51736954507144E-02 
383	 0.055431303004154 
384	 0.05504206300654 
385	 5.52580005373243E-02 
386	 5.52147207451778E-02 
387	 5.48378665115954E-02 
388	 5.50509792603245E-02 
389	 0.054970664298547 
390	 5.50264223228266E-02 
391	 5.54052650076005E-02 
392	 5.50663638959913E-02 
393	 5.51868520352198E-02 
394	 0.05542092801964 
395	 5.51167752635778E-02 
396	 5.51851619314499E-02 
397	 5.51772885551519E-02 
398	 5.51208529865261E-02 
399	 5.54672086997282E-02 
400	 5.56172230367372E-02 
401	 5.54238757880211E-02 
402	 5.51039310685123E-02 
403	 5.55399276181159E-02 
404	 5.56766016523652E-02 
405	 5.55154682845886E-02 
406	 0.055455579655042 
407	 5.57246978350753E-02 
408	 5.57057687078399E-02 
409	 5.54553792771084E-02 
410	 5.56862300189452E-02 
411	 5.58282197836584E-02 
412	 5.58485733507265E-02 
413	 5.58188606472229E-02 
414	 5.58087648578218E-02 
415	 5.57815261746721E-02 
416	 5.58411126283718E-02 
417	 5.60808878424559E-02 
418	 5.62133983603567E-02 
419	 5.62375520367892E-02 
420	 0.056221277261097 
421	 5.62805730384459E-02 
422	 5.66199295208013E-02 
423	 5.68344983922047E-02 
424	 0.056716982420945 
425	 5.69654501200758E-02 
426	 5.71370732499573E-02 
427	 5.72472981661339E-02 
428	 5.74879850723953E-02 
429	 5.76423941546617E-02 
430	 5.77791452606456E-02 
431	 5.79270616437587E-02 
432	 5.80387307044593E-02 
433	 5.82980465710944E-02 
434	 5.85571632188018E-02 
435	 5.87087026484503E-02 
436	 5.90030590447113E-02 
437	 5.91823038879501E-02 
438	 5.93208437609706E-02 
439	 5.96379899220862E-02 
440	 5.99283954930819E-02 
441	 6.00563026097283E-02 
442	 6.00908598253782E-02 
443	 6.03838433713984E-02 
444	 6.06087043915026E-02 
445	 0.060811069475272 
446	 6.10641344180392E-02 
447	 6.11285279111936E-02 
448	 6.12889994935081E-02 
449	 6.15185646518766E-02 
450	 6.15734566578549E-02 
451	 6.16122960157222E-02 
452	 6.17540567580603E-02 
453	 6.20084711337048E-02 
454	 6.21904555826406E-02 
455	 6.22715359653045E-02 
456	 6.23045613274511E-02 
457	 6.23621536719506E-02 
458	 6.23896359891113E-02 
459	 6.24624989903894E-02 
460	 6.25669075558661E-02 
461	 6.25987423407226E-02 
462	 6.26133663294539E-02 
463	 6.27146456268641E-02 
464	 6.29135761363204E-02 
465	 6.29487608079466E-02 
466	 6.29361351783915E-02 
467	 6.30184015810459E-02 
468	 6.32814201232232E-02 
469	 6.32670221551408E-02 
470	 6.33331229510551E-02 
471	 6.35664400931296E-02 
472	 6.35948341462228E-02 
473	 6.37635758784209E-02 
474	 6.39778251349921E-02 
475	 6.40762230782025E-02 
476	 6.40675507579134E-02 
477	 6.41333621394096E-02 
478	 6.42878439252532E-02 
479	 0.064429989941192 
480	 0.064592248956075 
481	 6.47816316723326E-02 
482	 6.49724100189943E-02 
483	 6.50646431301576E-02 
484	 6.52746235402186E-02 
485	 6.55433769260649E-02 
486	 6.57342039901929E-02 
487	 6.59041521251314E-02 
488	 6.61335790793445E-02 
489	 6.63995783159752E-02 
490	 6.65891834650645E-02 
491	 6.68488933646934E-02 
492	 6.71371482071481E-02 
493	 6.74043015827261E-02 
494	 0.06767332008331 
495	 6.80636578242127E-02 
496	 6.84681404481245E-02 
497	 6.87101231931019E-02 
498	 6.90987437392365E-02 
499	 6.94409262032596E-02 
500	 6.97149628038307E-02 
501	 7.02398739999271E-02 
502	 7.07194766325022E-02 
503	 7.11415153145423E-02 
504	 7.15666347803195E-02 
505	 7.19923009230157E-02 
506	 7.23853774902267E-02 
507	 0.072770613578557 
508	 7.32157943292616E-02 
509	 7.37013382917675E-02 
510	 7.42111871954031E-02 
511	 7.47284659200346E-02 
512	 7.52447105881648E-02 
513	 7.56995552150101E-02 
514	 7.61543413251468E-02 
515	 0.076707187813979 
516	 7.73080418021057E-02 
517	 7.78727053008244E-02 
518	 7.83963909855388E-02 
519	 7.89756336750469E-02 
520	 7.95019098539199E-02 
521	 8.00247933364371E-02 
522	 8.06112506800482E-02 
523	 0.081257260738368 
524	 8.18604138568948E-02 
525	 8.24119258504426E-02 
526	 8.29827433377624E-02 
527	 8.36942866336099E-02 
528	 8.43778234681747E-02 
529	 8.49504897487824E-02 
530	 8.55859817539424E-02 
531	 0.086155130178615 
532	 0.086727182418539 
533	 8.74073981022095E-02 
534	 8.80699923402846E-02 
535	 8.87389560037471E-02 
536	 8.94167125849293E-02 
537	 9.00676681929568E-02 
538	 9.07994061282505E-02 
539	 0.091532238947545 
540	 9.21970118158765E-02 
541	 9.29065350647433E-02 
542	 9.36688631832062E-02 
543	 0.094394916614584 
544	 9.49709947805495E-02 
545	 9.56734541686262E-02 
546	 9.64071412877568E-02 
547	 9.70966062789068E-02 
548	 9.78079047924363E-02 
549	 9.84701248703376E-02 
550	 0.099100385969385 
551	 9.97486100827497E-02 
552	 0.100438254320352 
553	 0.101143337853303 
554	 0.101833164389953 
555	 0.102472525098022 
556	 0.103118828329297 
557	 0.103734142391126 
558	 0.104299512779369 
559	 0.104962641701641 
560	 0.105576017246312 
561	 0.106107102879316 
562	 0.106611135843807 
563	 0.107191714320597 
564	 0.10776894652273 
565	 0.108276722898544 
566	 0.108720216657225 
567	 0.109199120719442 
568	 0.109656741494674 
569	 0.109999363514576 
570	 0.110287545376051 
571	 0.110668751482223 
572	 0.111123727553971 
573	 0.111453810628022 
574	 0.111697327112525 
575	 0.111989636063081 
576	 0.11238416269272 
577	 0.112598971755426 
578	 0.112795849764112 
579	 0.11300686150398 
580	 0.113187136091627 
581	 0.113355623728238 
582	 0.113584574775118 
583	 0.113867058858814 
584	 0.114036830746217 
585	 0.11422597214593 
586	 0.114492587470158 
587	 0.114829880521347 
588	 0.114998814441882 
589	 0.115121652748518 
590	 0.115262737920561 
591	 0.115401140146982 
592	 0.115500463100432 
593	 0.115599471333973 
594	 0.115703050233436 
595	 0.115664132369142 
596	 0.115690491385045 
597	 0.115710935495836 
598	 0.115535491158178 
599	 0.115481737479735 
600	 0.11546655926065 
601	 0.115422068643999 
602	 0.115386732271766 
603	 0.11548376501706 
604	 0.115561430527886 
605	 0.115463181672458 
606	 0.115507315912232 
607	 0.115549455434482 
608	 0.115543616472249 
609	 0.115563758237342 
610	 0.115517525782075 
611	 0.115482283209666 
612	 0.115496371861808 
613	 0.115360923799312 
614	 0.115358000196075 
615	 0.115427656302782 
616	 0.115339930069015 
617	 0.115242225688064 
618	 0.115205257136069 
619	 0.115245185220566 
620	 0.115312431135271 
621	 0.115369009649821 
622	 0.115375695453373 
623	 0.115329277588701 
624	 0.115369208312059 
625	 0.115438299314162 
626	 0.115511237646851 
627	 0.115596843758075 
628	 0.115622461202048 
629	 0.115600035528229 
630	 0.11554826923255 
631	 0.115431367378899 
632	 0.115463972476405 
633	 0.115483265429839 
634	 0.115224859004021 
635	 0.115155015174628 
636	 0.115265525656454 
637	 0.115363335641531 
638	 0.11505721171893 
639	 0.115041698562417 
640	 0.115159147757905 
641	 0.115094183501017 
642	 0.114983047055938 
643	 0.115056343471718 
644	 0.115172959264549 
645	 0.114928428519989 
646	 0.114943015879785 
647	 0.115028194837579 
648	 0.114943493597585 
649	 0.114673666326284 
650	 0.114455145784791 
651	 0.114338805971725 
652	 0.114261562176819 
653	 0.113965818209857 
654	 0.113611324971229 
655	 0.113291491704687 
656	 0.113004914363269 
657	 0.112531427048921 
658	 0.111963830506221 
659	 0.111412477383569 
660	 0.110916617816331 
661	 0.110361711863853 
662	 0.109726864534081 
663	 0.109082776613757 
664	 0.108645946478503 
665	 0.108216915759758 
666	 0.107689013510629 
667	 0.107214905295743 
668	 0.107025170129662 
669	 0.106839453296 
670	 0.106383992572227 
671	 0.106336299552961 
672	 0.106429925619629 
673	 0.106530273593171 
674	 0.106675308134303 
675	 0.106983561552293 
676	 0.107276946815361 
677	 0.107479331543652 
678	 0.107902873328723 
679	 0.108455545957543 
680	 0.109027700312773 
681	 0.109563205381861 
682	 0.110471661892023 
683	 0.111461069264557 
684	 0.112402709226993 
685	 0.113567143904288 
686	 0.115161733304037 
687	 0.116708913853425 
688	 0.117706962831645 
689	 0.118722728951568 
690	 0.119928485784846 
691	 0.121187898662007 
692	 0.122228473373127 
693	 0.123471132498201 
694	 0.124515218726817 
695	 0.12514467942588 
696	 0.125659780759228 
697	 0.126378637701417 
698	 0.127122264693107 
699	 0.127586352490797 
700	 0.128083913123268 
701	 0.128504397712824 
702	 0.128803347876295 
703	 0.12901608945748 
704	 0.129144224887869 
705	 0.129251776596817 
706	 0.129341114529646 
707	 0.129263753470757 
708	 0.129259526326458 
709	 0.129164894889604 
710	 0.128789029074354 
711	 0.128679149053774 
712	 0.128454684469096 
713	 0.128081201085366 
714	 0.127930291894771 
715	 0.127882563368838 
716	 0.127821908005799 
717	 0.127600492824925 
718	 0.127184969771256 
719	 0.126032074878375 
720	 0.124822366116724 
721	 0.124141948666386 
722	 0.123630641285547 
723	 0.123043086900137 
724	 0.122302946191606 
725	 0.121397318061485 
726	 0.120259228373095 
727	 0.118990333812872 
728	 0.11764269041193 
729	 0.11598999889223 
730	 0.11412922356336 
731	 0.112240399648924 
732	 0.110459638915572 
733	 0.109137446636618 
734	 0.108072932045884 
735	 0.107129054495977 
736	 0.10626322863555 
737	 0.10566149006787 
738	 0.105196590398825 
739	 0.104766564040503 
740	 0.104559101838898 
741	 0.104367683372151 
742	 0.104212504244667 
743	 0.104210497953626 
744	 0.10423830587453 
745	 0.104245967977244 
746	 0.104245173940841 
747	 0.10431771853999 
748	 0.104424047462605 
749	 0.104521772955927 
750	 0.104585784041935 
751	 0.104649803676777 
752	 0.104739249594466 
753	 0.104836134936247 
754	 0.104909818117342 
755	 0.105044114911601 
756	 0.105135621100126 
757	 0.10524313807129 
758	 0.105816547530953 
759	 0.107073852729623 
760	 0.108322554914087 
761	 0.108016528785925 
762	 0.107964298354898 
763	 0.107657776200368 
764	 0.107219494393025 
765	 0.106890191991162 
766	 0.106689965113397 
767	 0.106692849711705 
768	 0.106842659636625 
769	 0.10696177052737 
770	 0.107087913661685 
771	 0.107308557314816 
772	 0.107622370588845 
773	 0.107749705457817 
774	 0.10796471503564 
775	 0.108277604461997 
776	 0.108580568940063 
777	 0.108792719548438 
778	 0.109149756169985 
779	 0.109572207938805 
780	 0.109680863914795 
781	 0.109939894477585 
782	 0.110332923692641 
783	 0.11074914635856 
784	 0.111068153068684 
785	 0.111495810930738 
786	 0.11195899978283 
787	 0.11232962779078 
788	 0.112780865683288 
789	 0.113225588638191 
790	 0.113643269787314 
791	 0.114067360791706 
792	 0.11430810617691 
793	 0.114588945158511 
794	 0.114998110548317 
795	 0.115302079858527 
796	 0.115670700040575 
797	 0.116012092469121 
798	 0.116258080008185 
799	 0.116619339263607 
800	 0.116971090917844 
801	 0.117220377040328 
802	 0.117336837255619 
803	 0.11751649294779 
804	 0.117651666422464 
805	 0.117704632263707 
806	 0.117741781818279 
807	 0.117719518884142 
808	 0.117752645478121 
809	 0.117890223687571 
810	 0.117939165094418 
811	 0.117971974311234 
812	 0.117981813575953 
813	 0.117925742878003 
814	 0.117750781633968 
815	 0.117555315942425 
816	 0.117289118716911 
817	 0.116797268982857 
818	 0.116170728352729 
819	 0.115382505841247 
820	 0.114557025469026 
821	 0.114082329356068 
822	 0.112862202742396 
823	 0.111363620828763 
824	 0.110178438722987 
825	 0.109003266346742 
826	 0.107476170121496 
827	 0.105662427214275 
828	 0.1038934521775 
829	 0.102097809083142 
830	 0.100291018541307 
831	 9.87256628454539E-02 
832	 9.77633067002568E-02 
833	 9.66872189367128E-02 
834	 9.56817714984275E-02 
835	 9.48376060760883E-02 
836	 9.39936936735981E-02 
837	 0.093560382295032 
838	 9.31229809951221E-02 
839	 0.092445554626502 
840	 9.22391622337642E-02 
841	 9.18436919716117E-02 
842	 9.12459583763108E-02 
843	 0.090712510143462 
844	 9.05759407388796E-02 
845	 9.02800682581699E-02 
846	 8.98232832713803E-02 
847	 8.95814996543049E-02 
848	 8.94445754593872E-02 
849	 8.89908708204745E-02 
850	 8.83347280399397E-02 
851	 8.82460679661894E-02 
852	 8.78833494496054E-02 
853	 8.75957819536117E-02 
854	 8.75320829042345E-02 
855	 8.68826552064728E-02 
856	 0.086556293783185 
857	 8.65196385433558E-02 
858	 8.64463422247572E-02 
859	 8.59850422963084E-02 
860	 0.085653336347231 
861	 0.085484333150545 
862	 8.52459578793519E-02 
863	 8.48309804745303E-02 
864	 8.46208183495284E-02 
865	 8.45502917133487E-02 
866	 8.41571714328592E-02 
867	 8.36403416792484E-02 
868	 8.32805852172368E-02 
869	 8.30674454082757E-02 
870	 0.082624014185067 
871	 8.22058058015389E-02 
872	 8.19351776043256E-02 
873	 8.17145498419349E-02 
874	 8.10152527339463E-02 
875	 8.05520444576424E-02 
876	 8.02735280307359E-02 
877	 7.99185084358573E-02 
878	 7.94402233326075E-02 
879	 7.89281308781721E-02 
880	 7.84662198534354E-02 
881	 7.80729285972557E-02 
882	 7.74491849085707E-02 
883	 7.69773279073737E-02 
884	 7.66589367220109E-02 
885	 0.0762137520092 
886	 7.58408383741635E-02 
887	 7.52620178397483E-02 
888	 7.46425095614167E-02 
889	 7.46091201724848E-02 
890	 7.40867950258843E-02 
891	 7.36061832767588E-02 
892	 7.36156524179492E-02 
893	 0.073845056316675 
894	 7.35022518084949E-02 
895	 0.073132434483253 
896	 7.32135008896665E-02 
897	 7.25773023515658E-02 
898	 0.072006845492203 
899	 7.15580700830346E-02 
900	 7.11174424830321E-02 
901	 7.10464972020814E-02 
902	 7.01978600749291E-02 
903	 6.93116577179527E-02 
904	 6.94048634348384E-02 
905	 6.91266889642473E-02 
906	 6.85623686035958E-02 
907	 6.80103452573485E-02 
908	 6.78085460539041E-02 
909	 6.73285217129648E-02 
910	 6.70131863544176E-02 
911	 6.68345954297314E-02 
912	 0.066262938005991 
913	 6.50692837528758E-02 
914	 6.37989281099777E-02 
915	 6.27413974024455E-02 
916	 6.17137664258837E-02 
917	 6.03077533616731E-02 
918	 5.87158739371313E-02 
919	 5.74464654080411E-02 
920	 5.71987912205115E-02 
921	 0.056687748190375 
922	 0.055730938466942 
923	 5.45772132690173E-02 
924	 5.39126418720288E-02 
925	 5.24815590517748E-02 
926	 5.11147737900388E-02 
927	 5.07337531333372E-02 
928	 4.98247085676245E-02 
929	 0.050496728144595 
930	 0.052223187629563 
931	 5.22226902589042E-02 
932	 4.65847526042468E-02 
933	 4.59407178107378E-02 
934	 4.92966354130677E-02 
935	 4.80563941629555E-02 
936	 4.06478671822045E-02 
937	 3.96703551309283E-02 
938	 0.04157088432974 
939	 3.98110680816455E-02 
940	 3.71330567672621E-02 
941	 3.70155295992081E-02 
942	 3.87731713519366E-02 
943	 3.91542192178056E-02 
944	 0.034206378465202 
945	 3.45544885843844E-02 
946	 3.75199105819239E-02 
947	 3.42584004334518E-02 
948	 3.35216042446699E-02 
949	 3.37365671058767E-02 
950	 0.033336858169068 
951	 3.17620926962222E-02 
952	 3.18228211640971E-02 
953	 3.08467314118952E-02 
954	 2.98562592393079E-02 
955	 3.14916208091636E-02 
956	 3.04684778549483E-02 
957	 0.029550144735654 
958	 2.85621280325537E-02 
959	 2.60246931885793E-02 
960	 2.96696488007527E-02 
961	 3.03542074968688E-02 
962	 2.83334791517838E-02 
963	 0.030084203315501 
964	 0.030039687714512 
965	 2.81635725310932E-02 
966	 2.65966467434074E-02 
967	 2.78147157876325E-02 
968	 2.82079063535665E-02 
969	 2.77964347750476E-02 
970	 2.69543238685322E-02 
971	 2.61644596916931E-02 
972	 2.67713377863557E-02 
973	 2.81082455022272E-02 
974	 2.85814590186751E-02 
975	 2.65764871793936E-02 
976	 2.48262919872466E-02 
977	 2.55907249718071E-02 
978	 2.79090532762828E-02 
979	 2.85277959602902E-02 
980	 2.77396441711994E-02 
981	 2.60974660614289E-02 
982	 2.50444314301567E-02 
983	 2.59261596503399E-02 
984	 2.52092620442694E-02 
985	 2.50511729850933E-02 
986	 2.56153363374211E-02 
987	 0.025262189240129 
988	 2.43501688105657E-02 
989	 2.53808382624388E-02 
990	 2.72270362293454E-02 
991	 2.66259788662198E-02 
992	 2.62483596519618E-02 
993	 2.54863441963242E-02 
994	 2.44535888911276E-02 
995	 2.40489985716504E-02 
996	 2.57287029323441E-02 
997	 2.64315155581964E-02 
998	 2.56205132804149E-02 
999	 2.47913853432908E-02 
1000	 2.52206907579273E-02 
1001	 2.65741729275961E-02 
1002	 2.64971151872227E-02 
1003	 0.026366891698463 
1004	 0.025767738399447 
1005	 2.56164502418459E-02 
1006	 2.57046271854992E-02 
1007	 2.58392518483232E-02 
1008	 2.63519273950273E-02 
1009	 2.65178111984361E-02 
1010	 2.64197469252097E-02 
1011	 2.65827129901909E-02 
1012	 2.63743362184814E-02 
1013	 0.026256997763201 
1014	 2.62611431674527E-02 
1015	 2.62992986590569E-02 
1016	 2.65225977775353E-02 
1017	 2.69668073175784E-02 
1018	 0.027267796183169 
1019	 2.79221768712513E-02 
1020	 0.02806387844556 
1021	 2.78522307524682E-02 
1022	 0.027628860954637 
1023	 2.74051599825606E-02 
1024	 0.026922122575587 
1025	 2.69566934956916E-02 
1026	 2.75456120922814E-02 
1027	 2.78765520244712E-02 
1028	 2.83667790240838E-02 
1029	 2.88439343516283E-02 
1030	 0.029297595452408 
1031	 2.96391412398905E-02 
1032	 0.030135872229586 
1033	 3.04144182277563E-02 
1034	 3.02143517757481E-02 
1035	 0.030573336827431 
1036	 3.11589790218974E-02 
1037	 3.16929958857002E-02 
1038	 0.032781724902655 
1039	 0.033307763290626 
1040	 3.35030574988584E-02 
1041	 3.38496975050879E-02 
1042	 3.39680792395606E-02 
1043	 3.38195867838782E-02 
1044	 0.033907807720663 
1045	 3.37705214151945E-02 
1046	 3.41755040874174E-02 
1047	 3.50778357947141E-02 
1048	 3.55097434971535E-02 
1049	 3.61957921620311E-02 
1050	 3.65180354429818E-02 
1051	 3.60569508565417E-02 
1052	 3.62689396359267E-02 
1053	 3.67552866509831E-02 
1054	 3.72484235175003E-02 
1055	 3.82723411814487E-02 
1056	 3.89192821627461E-02 
1057	 3.94142412039251E-02 
1058	 3.98262873070621E-02 
1059	 3.99470134651978E-02 
1060	 3.97545837764468E-02 
1061	 3.96236160312034E-02 
1062	 3.89010350129385E-02 
1063	 3.91532616673918E-02 
1064	 4.01475275960618E-02 
1065	 0.040469700206267 
1066	 4.12338039152337E-02 
1067	 4.14497921031291E-02 
1068	 4.07026383366862E-02 
1069	 4.04525834048702E-02 
1070	 4.03853319064773E-02 
1071	 0.040260055852514 
1072	 3.99714630231328E-02 
1073	 4.00652726591373E-02 
1074	 4.01668717870869E-02 
1075	 4.04533978719376E-02 
1076	 4.04336592077701E-02 
1077	 4.05228001716374E-02 
1078	 4.03018323315305E-02 
1079	 0.03953438760217 
1080	 3.92936505554862E-02 
1081	 3.92423111122218E-02 
1082	 3.91287521585604E-02 
1083	 3.92446890399192E-02 
1084	 3.91425934808491E-02 
1085	 3.89114099317874E-02 
1086	 3.86807636087241E-02 
1087	 3.83326650606921E-02 
1088	 3.81446972704062E-02 
1089	 0.038302614838905 
1090	 0.037780097638972 
1091	 3.74569120092988E-02 
1092	 3.70856687774895E-02 
1093	 3.67966472016222E-02 
1094	 3.67178560035867E-02 
1095	 3.60742193568675E-02 
1096	 3.47558170735171E-02 
1097	 0.034457593839837 
1098	 3.41038421785001E-02 
1099	 0.034008052830758 
1100	 3.57524891674459E-02 
1101	 3.58889205150542E-02 
1102	 3.42662053104637E-02 
1103	 3.38528911748673E-02 
1104	 3.38035788774326E-02 
1105	 3.29397675443984E-02 
1106	 3.29829918997669E-02 
1107	 3.39459969327587E-02 
1108	 3.29230699754394E-02 
1109	 3.24547196627785E-02 
1110	 0.032315569951304 
1111	 3.17378350079819E-02 
1112	 0.032092369454584 
1113	 3.53495916861363E-02 
1114	 3.53208335696288E-02 
1115	 3.22992735365581E-02 
1116	 3.21432105180246E-02 
1117	 3.08411734515354E-02 
1118	 0.029875762667221 
1119	 3.42572606017262E-02 
1120	 3.69162086732983E-02 
1121	 3.94547975412365E-02 
1122	 3.56077923311224E-02 
1123	 0.030008248418343 
1124	 2.99918177628338E-02 
1125	 2.85304616150823E-02 
1126	 2.69371569616322E-02 
1127	 3.37397881750106E-02 
1128	 3.76623882858932E-02 
1129	 3.59651854407149E-02 
1130	 2.95157785422332E-02 
1131	 2.83587263611808E-02 
1132	 2.60028701156072E-02 
1133	 2.53466498996182E-02 
1134	 2.72391029476623E-02 
1135	 2.72879061646987E-02 
1136	 2.63066340753968E-02 
1137	 2.68032884942327E-02 
1138	 2.83303798729467E-02 
1139	 2.84347674943487E-02 
1140	 0.031026875592549 
1141	 3.09086133572634E-02 
1142	 2.74510812866523E-02 
1143	 2.90828324681184E-02 
1144	 3.05224494600474E-02 
1145	 2.82140490177195E-02 
1146	 0.027269999501688 
1147	 2.80888539246482E-02 
1148	 2.77122021909022E-02 
1149	 2.58585186322257E-02 
1150	 2.57144078646014E-02 
1151	 2.65678643636478E-02 
1152	 2.70321302682588E-02 
1153	 2.87733397534648E-02 
1154	 2.85191773083961E-02 
1155	 0.027605606967303 
1156	 2.63184617729187E-02 
1157	 0.026096071547486 
1158	 2.57640141105281E-02 
1159	 2.63346554353554E-02 
1160	 2.62258373421162E-02 
1161	 0.024709514538658 
1162	 2.44196353654686E-02 
1163	 2.40449985356471E-02 
1164	 2.41101413204733E-02 
1165	 2.51810049125422E-02 
1166	 2.48662240353117E-02 
1167	 2.42522786668663E-02 
1168	 2.44354027676074E-02 
1169	 2.41510917302245E-02 
1170	 2.38278333329568E-02 
1171	 0.023845276878745 
1172	 2.45195583827262E-02 
1173	 2.41675058080004E-02 
1174	 2.31980961342005E-02 
1175	 2.30961368344318E-02 
1176	 2.31818389329086E-02 
1177	 2.26930136016602E-02 
1178	 2.29075892810829E-02 
1179	 2.35509640387057E-02 
1180	 2.31358626324507E-02 
1181	 2.29332745231657E-02 
1182	 0.023702812648141 
1183	 2.36154771422145E-02 
1184	 0.023240164195647 
1185	 2.36652291744199E-02 
1186	 2.36100459346724E-02 
1187	 2.35819819850693E-02 
1188	 0.024003592129086 
1189	 0.023680881934021 
1190	 2.30011478872296E-02 
1191	 2.26662334964427E-02 
1192	 2.25750639998045E-02 
1193	 2.24955417105876E-02 
1194	 2.28922247812264E-02 
1195	 2.33710442170391E-02 
1196	 2.29156250489768E-02 
1197	 2.25595645592792E-02 
1198	 2.28121896227779E-02 
1199	 2.25593413161134E-02 
1200	 2.26908027948076E-02 
1201	 2.31273540251208E-02 
1202	 2.27315687809497E-02 
1203	 2.26586589077957E-02 
1204	 2.31519668697286E-02 
1205	 2.31951602645776E-02 
1206	 2.27664815038729E-02 
1207	 2.24885773213737E-02 
1208	 2.26519422462213E-02 
1209	 2.28573233828787E-02 
1210	 2.29269848893972E-02 
1211	 2.30283514769895E-02 
1212	 2.29355555939297E-02 
1213	 2.24605432263165E-02 
1214	 2.23248117639235E-02 
1215	 2.24963776091964E-02 
1216	 2.26767469867649E-02 
1217	 0.02229076732316 
1218	 2.23850264555281E-02 
1219	 2.24383601798188E-02 
1220	 2.20853226512502E-02 
1221	 2.21701213277358E-02 
1222	 2.24234665959418E-02 
1223	 2.26163078795723E-02 
1224	 2.26168231466745E-02 
1225	 0.022598231642846 
1226	 2.25371792309876E-02 
1227	 2.19030864972437E-02 
1228	 2.18544767800746E-02 
1229	 0.022516268965627 
1230	 2.24470114438351E-02 
1231	 2.20419497190937E-02 
1232	 2.20394774041911E-02 
1233	 2.21135080901567E-02 
1234	 2.22175187445081E-02 
1235	 0.022147881151628 
1236	 2.21901104945551E-02 
1237	 2.22590612316777E-02 
1238	 2.20864749758157E-02 
1239	 2.20071232787751E-02 
1240	 2.19343965044538E-02 
1241	 0.02228343852886 
1242	 0.022449537115871 
1243	 2.20712457664028E-02 
1244	 2.21931032532505E-02 
1245	 2.24962469389045E-02 
1246	 2.20291988188725E-02 
1247	 2.17268884396551E-02 
1248	 2.19216344030678E-02 
1249	 2.19385063237491E-02 
1250	 0.02194562660516 
1251	 2.23955465707958E-02 
1252	 2.28104292788528E-02 
1253	 2.25423779257142E-02 
1254	 0.022394363316854 
1255	 2.24506005404373E-02 
1256	 2.24107451387746E-02 
1257	 2.23299098935243E-02 
1258	 2.23551719520958E-02 
1259	 0.022407648570518 
1260	 2.23773215735691E-02 
1261	 0.02221268649645 
1262	 2.22545060971709E-02 
1263	 2.24623060236836E-02 
1264	 0.022584748478765 
1265	 0.022589985652673 
1266	 2.28159461393822E-02 
1267	 2.27873969369517E-02 
1268	 2.24999698948534E-02 
1269	 2.24337213763875E-02 
1270	 2.25462394217345E-02 
1271	 2.24104858387315E-02 
1272	 2.23050317901846E-02 
1273	 2.25422733077596E-02 
1274	 2.23845379335963E-02 
1275	 2.21987378305587E-02 
1276	 2.24473973609311E-02 
1277	 2.24196349550455E-02 
1278	 2.21788454563008E-02 
1279	 0.022307934421815 
1280	 2.24580907680758E-02 
1281	 0.022400010885116 
1282	 2.22646534789455E-02 
1283	 0.022217896297135 
1284	 2.19581378768961E-02 
1285	 2.18461721274708E-02 
1286	 2.18519438983425E-02 
1287	 2.20530733277184E-02 
1288	 2.25647594582532E-02 
1289	 2.25893960299497E-02 
1290	 2.24276403613293E-02 
1291	 2.25523736561107E-02 
1292	 2.25409701568062E-02 
1293	 2.21526015229937E-02 
1294	 2.22564442510382E-02 
1295	 2.24949064542123E-02 
1296	 2.22991758810283E-02 
1297	 2.23263733226791E-02 
1298	 2.24972062041905E-02 
1299	 2.24612065678687E-02 
1300	 2.23575086127457E-02 
1301	 2.24770021303493E-02 
1302	 2.28359547935243E-02 
1303	 2.28655254440093E-02 
1304	 2.27092731901852E-02 
1305	 0.022708443320721 
1306	 2.25839469545824E-02 
1307	 0.02228958362913 
1308	 2.23959847906287E-02 
1309	 0.022621511664254 
1310	 2.25936377041674E-02 
1311	 2.30981347588861E-02 
1312	 2.31114783631932E-02 
1313	 2.21733945657211E-02 
1314	 2.19766606849597E-02 
1315	 2.22313575726522E-02 
1316	 2.20167001471902E-02 
1317	 2.16194274714616E-02 
1318	 2.19131077922491E-02 
1319	 2.25138161557365E-02 
1320	 0.022607057186382 
1321	 2.27215911997021E-02 
1322	 2.34455633060506E-02 
1323	 2.32895783521762E-02 
1324	 0.022760618715928 
1325	 2.29227882033285E-02 
1326	 2.29203022431084E-02 
1327	 2.25472752763928E-02 
1328	 2.31389317861394E-02 
1329	 2.45035224684505E-02 
1330	 2.49015911346524E-02 
1331	 2.45170358875763E-02 
1332	 2.43814061911661E-02 
1333	 2.41841100643289E-02 
1334	 2.34910191144465E-02 
1335	 0.023521427117581 
1336	 2.49279161242232E-02 
1337	 2.57239297373424E-02 
1338	 2.65258935718716E-02 
1339	 2.67313975101151E-02 
1340	 2.67547684757263E-02 
1341	 2.62155801318419E-02 
1342	 2.39205517034288E-02 
1343	 2.36588813662121E-02 
1344	 2.50043392549703E-02 
1345	 0.025305907633522 
1346	 0.026534749552586 
1347	 2.62076312437796E-02 
1348	 2.30964852947299E-02 
1349	 2.13538324399448E-02 
1350	 1.77943787011193E-02 
1351	 1.51385194930226E-02 
1352	 1.96836064486056E-02 
1353	 1.75647860801977E-02 
1354	 1.20196629316405E-02 
1355	-6.58972664663487E-03 
1356	-1.95442941510987E-02 
1357	-4.14852745336091E-02 
1358	-0.116471119284958 
1359	-0.153747468789887 
1360	-6.30587675990712E-02 
1361	-4.03616376243891E-02 
1362	-0.133411237813039 
1363	 3.85734687753412E-02 
1364	 5.70142944236923E-02 
1365	-8.31925869892719E-02 
1366	-0.149969647129764 
1367	-0.300079139752743 
1368	-0.075107124562014 
1369	 9.77988033756619E-02 
1370	 0.123721626722788 
1371	 0.758677867064936 
1372	 0.761823317272494 
1373	-5.23200499874869E-02 
1374	-0.142966236698084 
1375	-3.18522423826309E-02 
1376	 6.61845381394803E-02 
1377	 0.927916317289767 
1378	 1.00985628981427 
1379	 8.51763386616481E-02 
1380	 0.198486420744697 
1381	 0.463349629302331 
1382	 0.277901352370522 
1383	 0.169359407110778 
1384	 0.240136351262007 
1385	-0.156366222164476 
1386	-0.100384259724264 
1387	 1.15405008082063 
1388	 1.25410906182198 
1389	 0.626796813167856 
1390	 0.507444335839227 
1391	 0.225095968235405 
1392	-0.217378994953766 
1393	-0.105494473182553 
1394	 0.90717534579231 
1395	 2.0791754431019 
1396	 1.19472911093667 
1397	-0.143450099575283 
1398	-0.475332663197017 
1399	-0.166179942472551 
1400	 0.258585948570169 
1401	 0.335806591141286 
1402	 0.269934446062897 
1403	 0.228951667042587 
1404	 0.376950480911716 
1405	 0.296872843318818 
1406	 0.616460687594959 
1407	 0.605501536549663 
1408	 0.273602494365963 
1409	 0.14308705631295 
1410	 2.73166899309146E-02 
1411	 0.10276137591437 
1412	 0.192209924967438 
1413	 0.141273989768231 
1414	 0.171802729743561 
1415	 0.179611690031208 
1416	 9.18153772667786E-02 
1417	 4.76288755769785E-02 
1418	 3.95734589520763E-02 
1419	 6.89860672467831E-02 
1420	 0.111367797321523 
1421	 7.88524340239431E-02 
1422	 3.82451130904058E-02 
1423	 4.31277140834576E-02 
1424	 0.022200002653329 
1425	 1.39109638650349E-02 
1426	 5.78295734445754E-02 
1427	 6.04601427931986E-02 
1428	 1.81729493417993E-02 
1429	 9.61429593555065E-03 
1430	 1.74158394688485E-02 
1431	 1.73266409209835E-02 
1432	 2.03462802325498E-02 
1433	 2.59523461001131E-02 
1434	 3.46849100606864E-02 
1435	 3.34501825951302E-02 
1436	 2.97407317151189E-02 
1437	 2.53016670922941E-02 
1438	 2.11156263660149E-02 
1439	 3.24137431516622E-02 
1440	 3.87781179069775E-02 
1441	 0.033661509718764 
1442	 3.72762202502489E-02 
1443	 3.56467301814215E-02 
1444	 2.91183733147865E-02 
1445	 3.41538813015842E-02 
1446	 3.25747281869841E-02 
1447	 2.16330637252407E-02 
1448	 0.01871855561232 
1449	 2.37805193160135E-02 
1450	 2.72654575680049E-02 
1451	 2.56228128017913E-02 
1452	 2.51094433532942E-02 
1453	 2.52515069917659E-02 
1454	 0.02392978589573 
1455	 2.07067905989965E-02 
1456	 2.03827995894265E-02 
1457	 2.06507763809311E-02 
1458	 2.10794179008767E-02 
1459	 2.26787312041144E-02 
1460	 2.24664081452629E-02 
1461	 0.02175048887801 
1462	 2.16120557313305E-02 
1463	 2.03273699046442E-02 
1464	 2.03438609497907E-02 
1465	 2.21605154418805E-02 
1466	 2.25584371800829E-02 
1467	 2.28237233480794E-02 
1468	 2.21747895412071E-02 
1469	 1.97528726201425E-02 
1470	 1.96879948347413E-02 
1471	 2.00301324352339E-02 
1472	 1.97402110221842E-02 
1473	 2.06371694635727E-02 
1474	 2.18381504529085E-02 
1475	 2.33699188605838E-02 
1476	 2.24467870027411E-02 
1477	 2.11361926959618E-02 
1478	 0.02044235418992 
1479	 1.67767709420161E-02 
1480	 0.016823548268711 
1481	 2.10291152282988E-02 
1482	 2.13664786807469E-02 
1483	 0.020291665691987 
1484	 0.020131599838516 
1485	 1.99010712194545E-02 
1486	 1.88715772324589E-02 
1487	 1.73053057567015E-02 
1488	 0.01678154214846 
1489	 1.61633246260513E-02 
1490	 0.015770335154625 
1491	 1.61333535712928E-02 
1492	 1.64236388671259E-02 
1493	 1.66579226507753E-02 
1494	 1.65922466111812E-02 
1495	 1.64185599307381E-02 
1496	 1.63778607432398E-02 
1497	 1.62852040494701E-02 
1498	 1.59900465280932E-02 
1499	 1.57004270376161E-02 
1500	 1.56844074311594E-02 
1501	 1.56165851139483E-02 
1502	 1.54556392332979E-02 
1503	 1.53041148503611E-02 
1504	 1.52974871808857E-02 
1505	 1.52162541425845E-02 
1506	 1.53962219685408E-02 
1507	 0.015038422403922 
1508	 1.51107845975214E-02 
1509	 1.54343776487467E-02 
1510	 1.54067465854998E-02 
1511	 1.54484517279567E-02 
1512	 1.53152368306402E-02 
1513	 1.50625177566193E-02 
1514	 1.45633148086814E-02 
1515	 1.43814254403688E-02 
1516	 1.49576624072173E-02 
1517	 1.50410704243006E-02 
1518	 1.48673291256051E-02 
1519	 0.01476228980307 
1520	 1.46183571951066E-02 
1521	 1.49264408071944E-02 
1522	 1.53258990790332E-02 
1523	 1.57902482417343E-02 
1524	 1.63932227927679E-02 
1525	 1.65021408007497E-02 
1526	 1.57597873292897E-02 
1527	 1.50006173320885E-02 
1528	 1.50621911718975E-02 
1529	 0.015318942883448 
1530	 1.55910427068404E-02 
1531	 1.56601580618737E-02 
1532	 1.52857726115686E-02 
1533	 1.53150647427559E-02 
1534	 1.53539883420304E-02 
1535	 1.52216135243368E-02 
1536	 1.53682775827901E-02 
1537	 1.51056945904063E-02 
1538	 1.48617368531609E-02 
1539	 1.56741520165547E-02 
1540	 1.60901168905978E-02 
1541	 1.53722998279158E-02 
1542	 1.52951786364962E-02 
1543	 1.56170908574107E-02 
1544	 1.57351147839685E-02 
1545	 1.59780196308601E-02 
1546	 1.60077224695139E-02 
1547	 0.015904086001191 
1548	 0.015237531711237 
1549	 1.45853620568893E-02 
1550	 0.014832813922477 
1551	 1.50119203959919E-02 
1552	 1.50366898213551E-02 
1553	 1.52375833345819E-02 
1554	 0.015292756183043 
1555	 1.54382039431724E-02 
1556	 0.015609481024899 
1557	 0.015550040785305 
1558	 1.55802025596361E-02 
1559	 0.015454585838763 
1560	 1.52973613410711E-02 
1561	 1.55975102567431E-02 
1562	 1.58765901010684E-02 
1563	 1.59938715048839E-02 
1564	 1.57213790133734E-02 
1565	 1.53618361963029E-02 
1566	 1.58317013851265E-02 
1567	 1.61789930325286E-02 
1568	 1.59681300145092E-02 
1569	 0.016293708954131 
1570	 1.66056079280068E-02 
1571	 1.64103538269974E-02 
1572	 1.63613218356119E-02 
1573	 1.63565995070088E-02 
1574	 1.61541903237273E-02 
1575	 1.59281875382599E-02 
1576	 1.62715303082465E-02 
1577	 1.65038213209351E-02 
1578	 1.64227878373458E-02 
1579	 1.66935054983033E-02 
1580	 1.65288974490379E-02 
1581	 1.64894245705579E-02 
1582	 1.67427318019154E-02 
1583	 1.67363558871273E-02 
1584	 1.70741950468649E-02 
1585	 1.72970766252921E-02 
1586	 1.69421159275631E-02 
1587	 1.67039883580066E-02 
1588	 1.68016512505669E-02 
1589	 1.66015771689863E-02 
1590	 1.65882514167837E-02 
1591	 1.72260462824938E-02 
1592	 1.71544862574434E-02 
1593	 1.66832423658802E-02 
1594	 1.70003082449367E-02 
1595	 1.72516165209441E-02 
1596	 1.71278893022415E-02 
1597	 1.72556883759325E-02 
1598	 1.72455648902776E-02 
1599	 1.68125696840315E-02 
1600	 1.67505777184224E-02 
1601	 0.017336839731964 
1602	 1.77369545547542E-02 
1603	 1.76754170993561E-02 
1604	 1.76926521118777E-02 
1605	 1.74712997799438E-02 
1606	 1.73477117998582E-02 
1607	 1.75084322984921E-02 
1608	 0.017364301343183 
1609	 1.73593416162592E-02 
1610	 1.71676359420171E-02 
1611	 1.71615128133574E-02 
1612	 1.76090725881468E-02 
1613	 1.77226163481804E-02 
1614	 1.79594537875943E-02 
1615	 1.81712672427627E-02 
1616	 1.79016513212987E-02 
1617	 1.74959128771021E-02 
1618	 1.74604188905938E-02 
1619	 1.77929312849698E-02 
1620	 1.76152374145983E-02 
1621	 1.72836666652543E-02 
1622	 1.73655174777139E-02 
1623	 1.71469301308716E-02 
1624	 1.69604426114859E-02 
1625	 1.72326657745936E-02 
1626	 1.75582602980831E-02 
1627	 1.75924974494068E-02 
1628	 1.70024949591417E-02 
1629	 0.016996028765896 
1630	 0.017807724903921 
1631	 0.017587297315992 
1632	 1.72313795460265E-02 
1633	 1.78416464041734E-02 
1634	 1.78179154916894E-02 
1635	 1.71408751885375E-02 
1636	 1.76286415156564E-02 
1637	 1.86214175864525E-02 
1638	 1.80044137747471E-02 
1639	 0.017309789439062 
1640	 1.81548609680367E-02 
1641	 1.82615496447143E-02 
1642	 1.74685283305823E-02 
1643	 1.75170659249071E-02 
1644	 1.76032780947647E-02 
1645	 1.71191413641439E-02 
1646	 1.68338000771174E-02 
1647	 1.72475386387252E-02 
1648	 1.75879743270365E-02 
1649	 1.73125926940948E-02 
1650	 1.75669500903839E-02 
1651	 1.81145340804409E-02 
1652	 0.017854451980411 
1653	 1.78933854520669E-02 
1654	 1.79032479704767E-02 
1655	 0.017292247793488 
1656	 1.74170260019615E-02 
1657	 1.83141735602662E-02 
1658	 1.82563863842029E-02 
1659	 1.82919838004668E-02 
1660	 1.82402291317107E-02 
1661	 1.68774569614091E-02 
1662	 1.69162139028549E-02 
1663	 1.83428576784017E-02 
1664	 1.83312464967991E-02 
1665	 0.018153001540557 
1666	 0.018113801911609 
1667	 1.68860431062229E-02 
1668	 1.72514209848663E-02 
1669	 0.017818600988874 
1670	 1.76704971462901E-02 
1671	 1.79784141862975E-02 
1672	 1.82267231693533E-02 
1673	 1.83257216923256E-02 
1674	 1.89165840303442E-02 
1675	 1.90740589971782E-02 
1676	 1.85711167439946E-02 
1677	 1.82810413369164E-02 
1678	 1.80601860306256E-02 
1679	 1.81188576744083E-02 
1680	 1.84249308067552E-02 
1681	 1.79484357056222E-02 
1682	 1.75667028516303E-02 
1683	 0.01769562209203 
1684	 1.72419120713003E-02 
1685	 1.78772046249005E-02 
1686	 1.92796754402135E-02 
1687	 1.86072549451617E-02 
1688	 1.77712085960568E-02 
1689	 1.81633727992305E-02 
1690	 1.80479599267264E-02 
1691	 1.83036475742435E-02 
1692	 1.93121608246228E-02 
1693	 1.90782292024619E-02 
1694	 1.81031658912165E-02 
1695	 1.81861702606889E-02 
1696	 1.87742793553359E-02 
1697	 1.90638272702588E-02 
1698	 1.96538160278956E-02 
1699	 1.96530457156036E-02 
1700	 1.89629683051068E-02 
1701	 1.92697058380587E-02 
1702	 1.96138147375774E-02 
1703	 1.92472625564381E-02 
1704	 0.019043137472936 
1705	 1.87862452958932E-02 
1706	 1.84214590830582E-02 
1707	 1.84997005655075E-02 
1708	 1.87680847223638E-02 
1709	 0.018436408920198 
1710	 1.78542369147397E-02 
1711	 1.81916019007962E-02 
1712	 1.88340135396817E-02 
1713	 1.94791506210361E-02 
1714	 1.96416913389953E-02 
1715	 1.86313512869341E-02 
1716	 1.86435150019762E-02 
1717	 1.88262040214685E-02 
1718	 1.87102094950619E-02 
1719	 1.96467615474784E-02 
1720	 2.00181050121857E-02 
1721	 1.89585023047889E-02 
1722	 1.89164530794026E-02 
1723	 1.91242643699108E-02 
1724	 0.018610488255886 
1725	 1.90552544547895E-02 
1726	 0.019166257982608 
1727	 0.018535999520431 
1728	 1.86804497469113E-02 
1729	 1.90647840646656E-02 
1730	 1.85277630517831E-02 
1731	 1.80581409952393E-02 
1732	 1.89613390955482E-02 
1733	 1.95337629140299E-02 
1734	 1.91343144035624E-02 
1735	 1.89798024532785E-02 
1736	 1.88807142454051E-02 
1737	 1.88047593767365E-02 
1738	 1.93843043956189E-02 
1739	 1.99596581066238E-02 
1740	 0.019494082247477 
1741	 1.84656428798746E-02 
1742	 1.83733263777961E-02 
1743	 1.90514030216996E-02 
1744	 1.89209219793946E-02 
1745	 1.82300195754099E-02 
1746	 1.83205508026537E-02 
1747	 1.85875953978957E-02 
1748	 1.97708970446361E-02 
1749	 1.98382198173343E-02 
1750	 1.88634985995011E-02 
1751	 1.86311950064793E-02 
1752	 1.78170080781335E-02 
1753	 1.81867016368746E-02 
1754	 2.08241294066227E-02 
1755	 2.10381006506573E-02 
1756	 1.99129418101141E-02 
1757	 1.94966673213368E-02 
1758	 1.78086350621683E-02 
1759	 1.77196478649991E-02 
1760	 1.98209441823155E-02 
1761	 2.06289568248763E-02 
1762	 2.10417159484563E-02 
1763	 2.12360461025301E-02 
1764	 1.94954628163784E-02 
1765	 1.72836033954581E-02 
1766	 1.69043187535372E-02 
1767	 0.01881445109133 
1768	 2.15347556569556E-02 
1769	 2.24382892833015E-02 
1770	 2.22132026044591E-02 
1771	 2.07178081660633E-02 
1772	 1.80489528440165E-02 
1773	 1.91627741600231E-02 
1774	 2.20126671431688E-02 
1775	 2.30249930339891E-02 
1776	 2.33843731555887E-02 
1777	 2.17723311910944E-02 
1778	 2.13361439575991E-02 
1779	 2.07662304947381E-02 
1780	 2.08982773047358E-02 
1781	 2.32026943976382E-02 
1782	 0.023853446292919 
1783	 2.43274923685243E-02 
1784	 2.39031762254738E-02 
1785	 2.10719362701847E-02 
1786	 0.019616533030587 
1787	 1.72832539098991E-02 
1788	 1.74464220447971E-02 
1789	 2.12236222351992E-02 
1790	 2.27685945167779E-02 
1791	 2.41374570198003E-02 
1792	 2.73399363247862E-02 
1793	 2.37227180840432E-02 
1794	 1.72697762907698E-02 
1795	 1.96969423594203E-02 
1796	 2.37741022528144E-02 
1797	 2.53984782615335E-02 
1798	 3.87644645802113E-02 
1799	 4.34747464908794E-02 
1800	 2.54576266482423E-02 
1801	 2.23774773357424E-02 
1802	 2.87772194110284E-02 
1803	 2.98103769004372E-02 
1804	 5.62639139248916E-02 
1805	 5.04045700748069E-02 
1806	-3.67946154619499E-02 
1807	-5.05930931612757E-02 
1808	-1.68198578858649E-02 
1809	 1.30949417159953E-02 
1810	 0.240502310072202 
1811	 0.306009304382878 
1812	 4.64406618580252E-02 
1813	-7.53559540272188E-02 
1814	-0.367699922393114 
1815	-0.400460653220025 
1816	-1.72818299509738E-02 
1817	 1.55342369851032E-02 
1818	 3.92450092974642E-02 
1819	 5.75909857358717E-02 
1820	-8.29380705819209E-02 
1821	 0.141396000557524 
1822	 0.168981630337228 
1823	-0.194027405044554 
1824	-0.484857418155144 
1825	-1.23941699574107 
1826	-1.29050166848902 
1827	-0.429493252932862 
1828	-0.283831102969477 
1829	 7.69332106177392E-02 
1830	 0.119799134200193 
1831	-2.26255499005185 
1832	-3.31177223992678 
1833	 7.80564051756141 
1834	 3.33905657792932 
1835	 2.35047648898338 
1836	 1.37228156880317 
1837	 0.558536631320276 
1838	 0.417377790752995 
1839	 0.72296872442183 
1840	 0.576709165909869 
1841	 11.1951380910698 
1842	-1.17038617883629 
1843	-0.955600581827554 
1844	-2.00294832448687 
1845	-2.72868453220883 
1846	 1.58579086935152 
1847	 0.966697060017954 
1848	-3.72428830687767 
1849	-1.71530399612968 
1850	-0.832386216862608 
1851	-0.81394228581867 
1852	-1.84971719801948 
1853	-1.88753065926384 
1854	-1.77982720179831 
1855	-1.28553013214049 
1856	-1.57472729191584 
1857	-1.98436138636709 
1858	-2.34762468997591 
1859	-22.2655021521426 
1860	 3.43228253784116 
1861	-11.8236462475566 
1862	-10.5029907244316 
1863	-3.07302093766263 
1864	-1.7459994902682 
1865	-1.40058460167877 
1866	-0.373708536701991 
1867	-0.12072012519504 
1868	-3.4593412991823 
1869	 1.49909063792945 
1870	 1.46937902607491 
1871	 0.46978014867374 
1872	-0.223632600077033 
1873	 7.09225908320498E-02 
1874	 3.07482466642054 
1875	-1.45647258130974 
1876	-0.841836277411131 
1877	-0.527832392104438 
1878	-0.537680948352267 
1879	-0.698701745529218 
1880	-0.620143637734022 
1881	-0.667437109635849 
1882	-0.508942177367803 
1883	-0.315172972103857 
1884	-6.57563346411808E-02 
1885	-0.18022991451211 
1886	-0.319830921052069 
1887	-0.368040289027852 
1888	-0.382792739693973 
1889	-0.419919722439197 
1890	-0.680692996195702 
1891	-0.844695762627391 
1892	-0.828972663167175 
1893	-4.19279816924781 
1894	-0.197101293061459 
1895	-0.132797623415368 
1896	 0.2324233177184 
1897	 0.109134527988231 
1898	 0.984836360236026 
1899	 16.1073512122656 
1900	 9.28620070151439 
1901	 2.33788678198492 
1902	 2.37340915649155 
1903	 1.8998564772373 
1904	 0.926668718295701 
1905	 1.01459363921872 
1906	 0.971425392058136 
1907	 0.43909164729046 
1908	-0.424203939629838 
1909	-0.255362984271763 
1910	 0.578164774935162 
1911	 0.177351047795558 
1912	 0.699399975134419 
1913	 1.40177434864557 
1914	 1.78696808808079 
1915	 2.59887639667716 
1916	-55.7193759441408 
1917	 3.43690805036978 
1918	 2.80539746426542 
1919	 5.66999649812911 
1920	 3.27456552431283 
1921	-0.307733863216801 
1922	-0.562608791318705 
1923	-0.661199617394343 
1924	-0.599814534370415 
1925	-0.551697182438439 
1926	-0.700022598916371 
1927	-0.887421071353627 
1928	-3.69122066283028 
1929	 5.6416533647048 
1930	 1.78396233842171 
1931	-4.04563363231256 
1932	-0.674159407693884 
1933	 4.56462777891565E-02 
1934	 0.119114100165233 
1935	-0.276758444692516 
1936	-0.117505150042223 
1937	 0.106703110322503 
1938	-1.84641426584168E-02 
1939	-9.98803475161953E-02 
1940	-0.135371861006691 
1941	-0.222706016091622 
1942	-0.346030596376102 
1943	-0.313036719727283 
1944	-0.203703293202862 
1945	-0.107751796295686 
1946	-4.92531488313826E-03 
1947	 2.74617168093017E-02 
1948	 3.44328033024298E-02 
1949	 5.23883941670123E-02 
1950	-0.015164955181619 
1951	-6.20271940409814E-02 
1952	-0.060992440900954 
1953	-2.30730152600041E-02 
1954	-4.27584123595352E-02 
1955	-0.028886965457596 
1956	 1.16329436058254E-02 
1957	-6.36221932051096E-03 
1958	-4.22232072418436E-03 
1959	 8.69715768165727E-04 
1960	-0.017681355256177 
1961	-2.84608027182613E-02 
1962	-2.84067652107647E-02 
1963	-8.23726331117985E-03 
1964	 8.06943167257078E-03 
1965	 4.20142877913573E-03 
1966	 6.42785301273771E-03 
1967	 9.76748412286644E-03 
1968	 6.74025915432938E-03 
1969	 1.16814300661644E-03 
1970	 5.95903427326782E-03 
1971	 7.85044895491381E-03 
1972	 4.08813646014096E-03 
1973	 3.87106703078783E-03 
1974	 9.42547689942202E-03 
1975	 1.15455800770799E-02 
1976	 0.010434262031257 
1977	 1.20980788623744E-02 
1978	 1.05772456053994E-02 
1979	 8.83544644552334E-03 
1980	 5.70617941143975E-03 
1981	 6.21882848475686E-03 
1982	 5.74583337294097E-03 
1983	 3.40220018050898E-03 
1984	 0.003210754637099 
1985	 6.51162721636565E-03 
1986	 7.24983931125466E-03 
1987	 5.97332481884484E-03 
1988	 7.36500186886857E-03 
1989	 8.54236741288482E-03 
1990	 8.19663538298402E-03 
1991	 1.02349672199444E-02 
1992	 1.16427040909523E-02 
1993	 9.90412003080671E-03 
1994	 9.61532861005588E-03 
1995	 1.04777068519315E-02 
1996	 1.03897454779957E-02 
1997	 8.41685189113197E-03 
1998	 9.06406952515119E-03 
1999	 4.6049728880693E-03 
2000	 7.9404653936046E-04 
2001	 2.28681094289899E-03 
2002	 1.60142461120571E-03 
2003	 5.60925885623728E-03 
2004	 8.35027924595264E-03 
2005	-2.66374082875028E-03 
2006	-9.90112951419806E-03 
2007	-6.70125114210674E-03 
2008	-1.06343846876487E-02 
2009	-0.01157099663957 
2010	-1.09366294963369E-03 
2011	 1.80940731295875E-03 
2012	-4.06978156068624E-03 
2013	-1.97303347679345E-03 
2014	-5.04240184902366E-04 
2015	-2.72933902510372E-03 
2016	-2.83566160132425E-03 
2017	-6.99654913837505E-03 
2018	-6.89536959402531E-03 
2019	-1.14729466239867E-03 
2020	-5.35487626724059E-04 
2021	-1.59864821606107E-03 
2022	 1.40819879240374E-03 
2023	 3.78046166980138E-03 
2024	 5.96952498726022E-03 
2025	 1.04749477631271E-02 
2026	 0.01180632106773 
2027	 1.24404687694702E-02 
2028	 1.09008670745234E-02 
2029	 8.55679510086509E-03 
2030	 8.89491349450657E-03 
2031	 1.05542012346458E-02 
2032	 1.11440021712947E-02 
2033	 1.17983733473946E-02 
2034	 1.13263692178044E-02 
2035	 9.3590998888922E-03 
2036	 8.76548397375522E-03 
2037	 9.36774007491197E-03 
2038	 9.78239256361594E-03 
2039	 9.85657181125427E-03 
2040	 1.12142663037832E-02 
2041	 1.05273164133965E-02 
2042	 6.84356851213218E-03 
2043	 5.34821285982206E-03 
2044	 4.44330451741174E-03 
2045	 2.57482764081882E-03 
2046	 2.00041563683464E-03 
2047	 5.34527594500885E-03 
2048	 6.85865448794789E-03 
2049	 8.38492543399238E-03 
2050	 1.07861307337097E-02 
2051	 9.19842170051005E-03 
2052	 6.92435216129584E-03 
2053	 9.19895263291341E-03 
2054	 9.48576680400657E-03 
2055	 8.04800346320769E-03 
2056	 8.43412951657921E-03 
2057	 9.51924638804369E-03 
2058	 8.96458201575708E-03 
2059	 9.78661118283509E-03 
2060	 9.71205377239802E-03 
2061	 8.29635308765146E-03 
2062	 6.26720634515428E-03 
2063	 7.19710582714214E-03 
2064	 5.67559779427797E-03 
2065	 6.01923428806671E-03 
2066	 8.95870429475372E-03 
2067	 8.98430194978104E-03 
2068	 8.66288457676924E-03 
2069	 9.90609941465879E-03 
2070	 1.13124833506969E-02 
2071	 1.18180398926095E-02 
2072	 1.25904205203661E-02 
2073	 1.36462771865782E-02 
2074	 1.46930063334063E-02 
2075	 1.47536948875296E-02 
2076	 0.014912243296464 
2077	 1.52133678763882E-02 
2078	 1.49984611114041E-02 
2079	 1.39607380725907E-02 
2080	 1.28565542968549E-02 
2081	 1.13077622011222E-02 
2082	 9.59720498593813E-03 
2083	 1.03652481276818E-02 
2084	 1.10485990340351E-02 
2085	 1.24118584203796E-02 
2086	 1.47098998074869E-02 
2087	 1.45637199870691E-02 
2088	 1.28435958203443E-02 
2089	 1.14882823158644E-02 
2090	 1.06114756228126E-02 
2091	 8.93172623736326E-03 
2092	 8.55651250502507E-03 
2093	 0.011096518216045 
2094	 1.11627499329502E-02 
2095	 9.41491962433079E-03 
2096	 9.26441156634065E-03 
2097	 8.78328919221263E-03 
2098	 9.25000192827907E-03 
2099	 1.12091003574841E-02 
2100	 1.28241673516158E-02 
2101	 1.23590709060227E-02 
2102	 1.13556066991611E-02 
2103	 1.07403841051546E-02 
2104	 9.87171036944779E-03 
2105	 1.01759679602582E-02 
2106	 1.05934318885722E-02 
2107	 1.08044535186383E-02 
2108	 1.10157600840469E-02 
2109	 1.13552840342383E-02 
2110	 1.06152478119315E-02 
2111	 9.42220246369387E-03 
2112	 1.12743054647691E-02 
2113	 1.17008831274847E-02 
2114	 1.29394664082805E-02 
2115	 1.26920172615674E-02 
2116	 1.03552890796958E-02 
2117	 9.73958081061801E-03 
2118	 9.35904348432065E-03 
2119	 9.86382045015118E-03 
2120	 1.24156874809702E-02 
2121	 1.28758649662453E-02 
2122	 1.32866330500248E-02 
2123	 0.013876193303937 
2124	 0.012561551341105 
2125	 1.28263994774737E-02 
2126	 1.26409745601368E-02 
2127	 1.08647937162575E-02 
2128	 1.22879867650832E-02 
2129	 1.37788848842872E-02 
2130	 1.29592655620163E-02 
2131	 1.27943077349808E-02 
2132	 1.20757926176221E-02 
2133	 1.07067402786434E-02 
2134	 1.05662442588905E-02 
2135	 0.011729151819433 
2136	 1.24291647801894E-02 
2137	 1.38916625074349E-02 
2138	 1.46618019499453E-02 
2139	 1.53848860500166E-02 
2140	 1.60587061938652E-02 
2141	 1.59118716587214E-02 
2142	 1.55840099943496E-02 
2143	 1.50439313591278E-02 
2144	 1.50077610655983E-02 
2145	 1.44249251301763E-02 
2146	 1.35937813644526E-02 
2147	 1.35599651591807E-02 
2148	 1.38880009985108E-02 
2149	 1.27488227707682E-02 
2150	 1.40411198485913E-02 
2151	 0.015575530213299 
2152	 1.43575752465362E-02 
2153	 1.49816935443953E-02 
2154	 1.46570046850273E-02 
2155	 1.18552236087342E-02 
2156	 1.08132708475284E-02 
2157	 1.00286522128045E-02 
2158	 8.60667974980256E-03 
2159	 9.78548970568262E-03 
2160	 1.33073308451875E-02 
2161	 1.52737270244174E-02 
2162	 1.95384205633885E-02 
2163	 1.97239048912545E-02 
2164	 1.65335752916285E-02 
2165	 1.54809181986113E-02 
2166	 0.012747315901963 
2167	 1.16681725490432E-02 
2168	 1.20052215021594E-02 
2169	 1.26084872709163E-02 
2170	 1.33402825969903E-02 
2171	 1.55553175648258E-02 
2172	 1.75347421113123E-02 
2173	 1.93938213489958E-02 
2174	 2.00800731653568E-02 
2175	 1.75129891545688E-02 
2176	 1.57051120379788E-02 
2177	 1.56659039360768E-02 
2178	 0.015446328310297 
2179	 1.52667985431755E-02 
2180	 1.47335350836204E-02 
2181	 1.30526524583284E-02 
2182	 0.01039035756851 
2183	 1.04036888070602E-02 
2184	 1.18831849091162E-02 
2185	 0.011588116528 
2186	 1.16459202664836E-02 
2187	 1.15884588691119E-02 
2188	 1.17436838161266E-02 
2189	 1.29442295373119E-02 
2190	 1.30657727918739E-02 
2191	 1.25733086104018E-02 
2192	 1.26088896857142E-02 
2193	 1.05578757615949E-02 
2194	 1.00060498646469E-02 
2195	 0.011682435648465 
2196	 1.20760707507785E-02 
2197	 1.25593975499489E-02 
2198	 0.013649141575481 
2199	 1.42157640359622E-02 
2200	 1.56905914370856E-02 
2201	 1.70454812977363E-02 
2202	 1.74306912291602E-02 
2203	 1.76719602960044E-02 
2204	 1.54096924009846E-02 
2205	 1.50724694987867E-02 
2206	 1.55205258121558E-02 
2207	 1.42254263409906E-02 
2208	 1.51270293939896E-02 
2209	 1.58043674616622E-02 
2210	 1.57952630332142E-02 
2211	 1.70770473475515E-02 
2212	 1.55393745151255E-02 
2213	 0.013642507624398 
2214	 1.47624189820188E-02 
2215	 1.41544377575846E-02 
2216	 1.32772543427749E-02 
2217	 1.31038959504022E-02 
2218	 1.34006547771099E-02 
2219	 1.27357817691867E-02 
2220	 1.11393185843473E-02 
2221	 1.21032683395935E-02 
2222	 1.34849840552882E-02 
2223	 1.49058064785754E-02 
2224	 2.03295530640179E-02 
2225	 2.13154682828874E-02 
2226	 2.04451722009362E-02 
2227	 1.91845358244769E-02 
2228	 1.31807104104465E-02 
2229	 1.05306468925144E-02 
2230	 8.62897057575729E-03 
2231	 7.17059828255667E-03 
2232	 9.0202724478747E-03 
2233	 9.8773904876503E-03 
2234	 9.98801259192312E-03 
2235	 1.07498835670819E-02 
2236	 1.31047334961375E-02 
2237	 1.24336375025268E-02 
2238	 1.28231565949867E-02 
2239	 1.45734458473835E-02 
2240	 1.71137362261427E-02 
2241	 0.018070605304787 
2242	 1.56988074402694E-02 
2243	 1.40673798642003E-02 
2244	 1.19311933750318E-02 
2245	 1.10907654759244E-02 
2246	 1.53923604661487E-02 
2247	 1.85006404332552E-02 
2248	 1.65784976444735E-02 
2249	 1.20063797090319E-02 
2250	 9.56906839893884E-03 
2251	 1.08454394614881E-02 
2252	 1.11894725413747E-02 
2253	 1.42422693934854E-02 
2254	 1.46323684444767E-02 
2255	 8.82746613425737E-03 
2256	 8.82918792784094E-03 
2257	 1.08083629218352E-02 
2258	 1.08676020966986E-02 
2259	 1.28449544300523E-02 
2260	 1.38104782125187E-02 
2261	 1.38697137032996E-02 
2262	 1.27541699758242E-02 
2263	 1.02422976451006E-02 
2264	 1.09702442801466E-02 
2265	 1.37913746765792E-02 
2266	 1.33270091530427E-02 
2267	 1.28164180351281E-02 
2268	 1.18610737565953E-02 
2269	 6.62993294885655E-03 
2270	 5.91221173921566E-03 
2271	 8.86677317326598E-03 
2272	 1.06286861478586E-02 
2273	 1.25320406903379E-02 
2274	 1.50905654825366E-02 
2275	 2.09503711365731E-02 
2276	 2.19902106540506E-02 
2277	 1.97717202942848E-02 
2278	 1.95265764727566E-02 
2279	 1.66297427673409E-02 
2280	 1.41275153666872E-02 
2281	 1.23508655973227E-02 
2282	 1.42032616092172E-02 
2283	 1.35643487457832E-02 
2284	 1.49740145043776E-02 
2285	 1.91629587015077E-02 
2286	 1.71828146692651E-02 
2287	 1.14271184062691E-02 
2288	 7.96260735221062E-03 
2289	 9.6435737765509E-03 
2290	 1.23015277918032E-02 
2291	 8.83784500327532E-03 
2292	 7.32328788409642E-03 
2293	 8.1027555272774E-03 
2294	 3.05022565731238E-03 
2295	 2.4412088861229E-03 
2296	 3.38081736267978E-03 
2297	-3.34766873065412E-03 
2298	-4.12070918173972E-03 
2299	 4.97057957964984E-03 
2300	 1.09309460546608E-02 
2301	 1.37462699501348E-02 
2302	 1.43287022676331E-02 
2303	 8.98824010534899E-03 
2304	 5.20142758259115E-03 
2305	 2.45529429189279E-03 
2306	-3.36401348774673E-03 
2307	-3.73674895590863E-03 
2308	 1.75681323109249E-03 
2309	 3.62900593845365E-03 
2310	 9.27819681420319E-03 
2311	 1.62000850388479E-02 
2312	 1.25389170231128E-02 
2313	 9.65456742245606E-03 
2314	 1.15456406653996E-02 
2315	 9.90069995863229E-03 
2316	 5.92437282678306E-03 
2317	 5.50957677013392E-04 
2318	-5.94744896640701E-03 
2319	-1.08728693513107E-02 
2320	-1.29947940316838E-02 
2321	-8.0148153890879E-03 
2322	-3.38490851494871E-03 
2323	-1.42479998973945E-02 
2324	-2.55555228028893E-02 
2325	-1.72274536505914E-02 
2326	-1.33475135367096E-02 
2327	-9.20086991255561E-03 
2328	 5.67911222355582E-03 
2329	 5.9859922830501E-03 
2330	 5.5930714081304E-03 
2331	 1.04285055466071E-02 
2332	 6.6516936383315E-03 
2333	 3.42339183066394E-03 
2334	 8.24873854187506E-03 
2335	 1.58449651591703E-02 
2336	 1.78500321372508E-02 
2337	 0.01645239352208 
2338	 1.41066315072816E-02 
2339	 0.010882819981245 
2340	 2.10097103349428E-02 
2341	 2.86105657590732E-02 
2342	 1.66770750944581E-02 
2343	 1.66785251683543E-02 
2344	 1.83772850969576E-02 
2345	 2.15380527721103E-02 
2346	 0.038859231932563 
2347	 3.81422445977744E-02 
2348	 2.42189378639074E-02 
2349	 6.18024739105415E-03 
2350	-1.40994138868473E-02 
2351	-1.21185330867594E-02 
2352	 7.23903360243096E-03 
2353	 2.85081585606064E-02 
2354	 4.89708426356993E-02 
2355	 5.45179686406034E-02 
2356	 4.73038943458032E-02 
2357	 4.09002036978651E-02 
2358	 2.47114696483294E-02 
2359	 1.75844059391784E-02 
2360	 1.29913008607852E-02 
2361	-8.3404751054941E-03 
2362	-1.07436924418232E-02 
2363	-1.71891859187601E-02 
2364	-0.045011461456038 
2365	-5.34910416388578E-02 
2366	-3.57965431367284E-02 
2367	-2.42439525671145E-03 
2368	 2.06018768896935E-02 
2369	 2.70465429052747E-02 
2370	 6.03600956731424E-03 
2371	-0.034118879656508 
2372	-4.71997524910243E-02 
2373	-0.027904821130075 
2374	 5.8177688288006E-03 
2375	 3.76811222385218E-03 
2376	-1.62914155421564E-02 
2377	-3.09642070502063E-02 
2378	-6.61077352662852E-02 
2379	-7.11652879007113E-02 
2380	-3.24806519385483E-02 
2381	-2.66768259426508E-02 
2382	-5.80552562082018E-02 
2383	-6.93673715723465E-02 
2384	-0.074574057375449 
2385	-7.71470106088478E-02 
2386	-3.89400169238467E-02 
2387	-9.97891783512952E-03 
2388	-2.10712393462822E-02 
2389	 8.42607835987405E-03 
2390	 2.63318560458455E-02 
2391	-0.023243422103496 
2392	-4.02005321321499E-02 
2393	-7.78125158418436E-02 
2394	-0.128381140411444 
2395	-9.59541362695452E-02 
2396	-4.74579989980956E-02 
2397	-6.33991487187429E-02 
2398	-5.07595551419144E-02 
2399	-1.34064213299129E-02 
2400	-5.24000296507751E-02 
2401	-2.97497855698067E-02 
2402	 3.61227502698863E-02 
2403	-2.29251838220646E-02 
2404	-6.18312869867509E-02 
2405	-4.41221380652788E-02 
2406	-8.04378002662062E-02 
2407	-0.134863819974996 
2408	-0.135230310382504 
2409	-0.153039592614641 
2410	-0.20878101832028 
2411	-0.233626162728444 
2412	-0.267938366621388 
2413	-0.252499585943195 
2414	-0.25222211541484 
2415	-0.335200355014579 
2416	-0.319069656746745 
2417	-0.338721146079495 
2418	-0.473602772834703 
2419	-0.341784631127166 
2420	-0.119648409515273 
2421	-8.44693426155562E-02 
2422	-8.93788635247104E-03 
2423	 8.95722891979494E-02 
2424	 0.138738769366282 
2425	 0.168238840385707 
2426	 9.73206352099683E-02 
2427	-8.98067758794547E-02 
2428	-0.134379994928475 
2429	-0.11304932049338 
2430	-0.126249626904534 
2431	-7.37235946139392E-02 
2432	-3.57802138160967E-02 
2433	-0.110053018841446 
2434	-0.248295559301179 
2435	-0.263688857398588 
2436	-0.338719244201752 
2437	-0.416186108389905 
2438	-0.291628725116133 
2439	-0.367148236035101 
2440	-0.580425297238158 
2441	-0.440408641204925 
2442	-0.363389512096105 
2443	-0.248108653947203 
2444	-0.100300004614481 
2445	-0.116391405778746 
2446	-0.259506529673582 
2447	-0.369367938545333 
2448	-0.480498897115729 
2449	-0.684808081358108 
2450	-1.34146818977497 
2451	-44.7853858309064 
2452	-21.1571119117645 
2453	-4.11864687432854 
2454	-2.72228278886742 
2455	-2.08699914916604 
2456	-1.06101979164089 
2457	-0.635366668100882 
2458	-0.536960256192116 
2459	-0.304635672963409 
2460	-0.347697253954944 
2461	-0.888524715439498 
2462	-1.26812307962843 
2463	-0.86865557324216 
2464	-1.57555922090065 
2465	-2.42549107628052 
2466	-0.474056094722531 
2467	-0.615749952274816 
2468	-0.855917002281235 
2469	-0.1204057637703 
2470	 0.530544053900919 
2471	 3.05526581059456 
2472	 1.8315021444284 
2473	-2.72764780720865 
2474	-2.07629773592217 
2475	 6.06129890716837 
2476	 15.3804100506181 
2477	 1.40317631884135 
2478	 1.25596027029569 
2479	 0.999827488752966 
2480	 0.16830947352795 
2481	-16.0861261984752 
2482	-0.564008746508125 
2483	 0.411464819153185 
2484	 0.231072278598079 
2485	 0.88005031865228 
2486	 1.30738455284129 
2487	 1.90358404120022 
2488	-1.11828236978977 
2489	 19.593392338182 
2490	 4.6021912220648 
2491	 6.4411641276991 
2492	 2.55430115904257 
2493	 3.26591943971894 
2494	 2.12685082952717 
2495	 1.85436546217056 
2496	 1.63481951377457 
2497	 1.50802595762984 
2498	 1.88365375443296 
2499	-1.61022745902287 
2500	-1.27111199420017 
