Wavelength	rt0726far00000.asd
350	 3.78556922409837E-02 
351	 3.82113685855628E-02 
352	 3.81290564361946E-02 
353	 3.80218029114246E-02 
354	 3.81666210639627E-02 
355	 3.79250072182663E-02 
356	 3.80362494194146E-02 
357	 3.82082183443238E-02 
358	 3.80161168550253E-02 
359	 3.78704912026951E-02 
360	 3.79355949945289E-02 
361	 3.81471329589949E-02 
362	 3.82718887674065E-02 
363	 3.79921161368883E-02 
364	 3.76561178997676E-02 
365	 3.75738057343475E-02 
366	 3.78878466582894E-02 
367	 3.74397949761973E-02 
368	 3.69606164914565E-02 
369	 3.72551332702837E-02 
370	 0.037586303080933 
371	 3.74209617027689E-02 
372	 3.71375440339244E-02 
373	 3.74666796348608E-02 
374	 3.70344442461608E-02 
375	 3.70407085168327E-02 
376	 3.75657158818879E-02 
377	 3.68823958522493E-02 
378	 3.67415252079106E-02 
379	 3.69344326537816E-02 
380	 3.69701458880948E-02 
381	 3.69886282877271E-02 
382	 3.71657068563628E-02 
383	 3.72831424662105E-02 
384	 3.70471244830065E-02 
385	 0.037062495335404 
386	 3.69320003550187E-02 
387	 3.67707632189084E-02 
388	 3.72731510235267E-02 
389	 3.69730596147568E-02 
390	 3.67684297280299E-02 
391	 3.72201289634649E-02 
392	 3.69430164371041E-02 
393	 3.69150131831357E-02 
394	 3.70583583784888E-02 
395	 3.69883735999998E-02 
396	 3.68921306755405E-02 
397	 3.69354381274305E-02 
398	 0.03704427323507 
399	 3.69712449917238E-02 
400	 3.70638896500779E-02 
401	 3.71299862852664E-02 
402	 3.70658459108606E-02 
403	 3.71459494815026E-02 
404	 3.72295841505668E-02 
405	 3.71941345684624E-02 
406	 3.69987345787682E-02 
407	 3.70037513831087E-02 
408	 3.70732000129392E-02 
409	 0.03712724944419 
410	 3.71764522254718E-02 
411	 0.037258263910484 
412	 3.73133086911457E-02 
413	 3.72940564943031E-02 
414	 3.72144833255138E-02 
415	 3.70885421352634E-02 
416	 3.70991498452504E-02 
417	 3.73931479947337E-02 
418	 3.75217552435052E-02 
419	 3.75451078717116E-02 
420	 0.037541649895594 
421	 0.037569443641267 
422	 3.79026644570708E-02 
423	 3.81391842539257E-02 
424	 3.80143653301158E-02 
425	 3.80119567742811E-02 
426	 3.81403798689805E-02 
427	 3.83663530325633E-02 
428	 3.86023345103546E-02 
429	 3.86699989375945E-02 
430	 0.038716319847994 
431	 0.038800768167098 
432	 3.88421216141733E-02 
433	 3.89706473090767E-02 
434	 3.92333960480618E-02 
435	 3.95630978518489E-02 
436	 3.96259508617952E-02 
437	 3.96915901760216E-02 
438	 3.98086488257864E-02 
439	 3.99224061308369E-02 
440	 4.02340718153636E-02 
441	 4.05051420218801E-02 
442	 4.06374672673652E-02 
443	 0.040802677803468 
444	 4.09932126413806E-02 
445	 4.12113934070649E-02 
446	 4.14306575645784E-02 
447	 4.15141542697826E-02 
448	 4.17015976337047E-02 
449	 0.041935264473714 
450	 4.19664145192933E-02 
451	 4.21161144933617E-02 
452	 4.23086908044164E-02 
453	 4.24578406998447E-02 
454	 4.25783818713781E-02 
455	 4.26265393068954E-02 
456	 0.042723553880337 
457	 4.29733201138573E-02 
458	 4.30651568916482E-02 
459	 4.31543992152989E-02 
460	 4.32731348249239E-02 
461	 4.33135150575132E-02 
462	 4.34252517955855E-02 
463	 4.35351991816353E-02 
464	 4.36120306424694E-02 
465	 4.38841240084014E-02 
466	 4.40176311765609E-02 
467	 4.40853108677264E-02 
468	 4.43120058978646E-02 
469	 4.44050542161353E-02 
470	 4.45118581161184E-02 
471	 4.47119182502264E-02 
472	 4.49411568735572E-02 
473	 0.045167138364245 
474	 4.53733101918885E-02 
475	 4.55360654025979E-02 
476	 4.55542859300178E-02 
477	 4.57192155089415E-02 
478	 4.59404285075371E-02 
479	 0.045914756513164 
480	 4.61083186541106E-02 
481	 4.63973146518785E-02 
482	 4.66322490994074E-02 
483	 4.67663389875154E-02 
484	 4.69647940082177E-02 
485	 4.72199224318637E-02 
486	 4.74476545829659E-02 
487	 4.75340912844237E-02 
488	 4.78184020120552E-02 
489	 4.82078421186034E-02 
490	 0.048212275194578 
491	 4.83792703516206E-02 
492	 4.86995842873504E-02 
493	 4.90401201512314E-02 
494	 0.0492292992244 
495	 4.95937589736213E-02 
496	 5.00094036997615E-02 
497	 0.050188061267353 
498	 5.05629571645471E-02 
499	 5.09312513068228E-02 
500	 5.12066359010376E-02 
501	 5.15794838587621E-02 
502	 5.20072468292733E-02 
503	 0.052445564713926 
504	 5.28521389285047E-02 
505	 5.32000179689974E-02 
506	 5.35964398034285E-02 
507	 5.40253841418065E-02 
508	 5.43840587584682E-02 
509	 5.48633481571796E-02 
510	 5.52815719421272E-02 
511	 0.05557704627609 
512	 5.61178750969111E-02 
513	 5.66222877024436E-02 
514	 5.70429173479765E-02 
515	 5.74539327362346E-02 
516	 5.80608677075621E-02 
517	 5.86187040492548E-02 
518	 5.90522130662679E-02 
519	 5.95462527517212E-02 
520	 0.059983534462541 
521	 6.04528753297008E-02 
522	 0.061021257465027 
523	 6.15214261585421E-02 
524	 6.19745195951543E-02 
525	 6.24691026212182E-02 
526	 6.31128974232399E-02 
527	 6.36284745808653E-02 
528	 6.41250354743062E-02 
529	 6.46746318437498E-02 
530	 6.51566907193588E-02 
531	 6.57165603813624E-02 
532	 6.63267988074807E-02 
533	 6.69019646766531E-02 
534	 6.74466942797355E-02 
535	 6.80149372671976E-02 
536	 6.86087640091621E-02 
537	 6.91662958401902E-02 
538	 6.98181843778182E-02 
539	 7.04672372079856E-02 
540	 7.10357644932886E-02 
541	 7.16902053648077E-02 
542	 7.23877181531735E-02 
543	 7.30439887670747E-02 
544	 7.35780829897543E-02 
545	 0.074193713989602 
546	 7.48724646941284E-02 
547	 7.55611590713973E-02 
548	 7.61999196798866E-02 
549	 7.68931565875615E-02 
550	 7.75550240124459E-02 
551	 0.078100396840244 
552	 7.88418753532079E-02 
553	 7.95575214653396E-02 
554	 8.01774641702204E-02 
555	 8.08320399291208E-02 
556	 8.14968369987117E-02 
557	 8.21501131091214E-02 
558	 8.27660360421597E-02 
559	 8.33419870482889E-02 
560	 8.38563004606712E-02 
561	 8.43737460940944E-02 
562	 8.49907996388258E-02 
563	 8.55032155514912E-02 
564	 8.59738466114835E-02 
565	 8.64292100777913E-02 
566	 8.67413802947322E-02 
567	 8.71790486121487E-02 
568	 0.087608837954719 
569	 8.78213173173171E-02 
570	 8.81107058169041E-02 
571	 8.83808038776185E-02 
572	 8.86045905720669E-02 
573	 8.88511009683012E-02 
574	 0.089048970279162 
575	 8.92329933612764E-02 
576	 8.94197538827598E-02 
577	 0.089490129030247 
578	 8.95456607116847E-02 
579	 8.96200765475186E-02 
580	 8.96984670119115E-02 
581	 8.97462053367972E-02 
582	 8.97681376496619E-02 
583	 8.97419970470266E-02 
584	 8.95741752439085E-02 
585	 8.94606333283425E-02 
586	 8.93637425914432E-02 
587	 8.91854664056083E-02 
588	 8.90390368789366E-02 
589	 8.88559896053343E-02 
590	 8.86875757138969E-02 
591	 8.86885795797467E-02 
592	 8.84919133850808E-02 
593	 8.82908336093756E-02 
594	 8.82144713342752E-02 
595	 0.087813807190865 
596	 8.74438169334614E-02 
597	 8.70703349315829E-02 
598	 8.64817739920075E-02 
599	 0.086006737968301 
600	 8.55856970351652E-02 
601	 8.52022920774988E-02 
602	 8.50001961114571E-02 
603	 8.48748869936943E-02 
604	 8.46957809392182E-02 
605	 8.44132000331957E-02 
606	 8.44325453768956E-02 
607	 8.43596453464152E-02 
608	 8.41464695009898E-02 
609	 8.41287231304075E-02 
610	 8.40437953610775E-02 
611	 8.39159386507392E-02 
612	 8.37833585170171E-02 
613	 8.35262998644489E-02 
614	 8.34054984899582E-02 
615	 8.33610976687869E-02 
616	 8.31779869083743E-02 
617	 8.30421351663435E-02 
618	 8.29376058511208E-02 
619	 8.28604959943313E-02 
620	 8.28721238733939E-02 
621	 8.28158959143732E-02 
622	 8.27030111401554E-02 
623	 8.25916687564797E-02 
624	 8.24654549070276E-02 
625	 8.23048969191821E-02 
626	 0.082139347174807 
627	 8.20432875220494E-02 
628	 8.20141863987485E-02 
629	 8.19494009350461E-02 
630	 8.18010636536625E-02 
631	 0.081704648992198 
632	 8.16868513393602E-02 
633	 8.16530210498777E-02 
634	 8.14859336490849E-02 
635	 8.13952266245062E-02 
636	 8.14499158087131E-02 
637	 8.15523888245068E-02 
638	 8.13894427922979E-02 
639	 8.14313944783654E-02 
640	 8.15431570422252E-02 
641	 8.15034678054041E-02 
642	 8.15151980923012E-02 
643	 8.15620305526356E-02 
644	 8.15875113300814E-02 
645	 8.15104439474275E-02 
646	 8.13966248539889E-02 
647	 8.13371834487405E-02 
648	 8.13319350741694E-02 
649	 8.11701872686086E-02 
650	 8.08876537221289E-02 
651	 8.05681920035234E-02 
652	 0.080280786597888 
653	 7.97685402894442E-02 
654	 7.91291373999386E-02 
655	 7.84084637615491E-02 
656	 7.76485415791096E-02 
657	 7.67836923588178E-02 
658	 7.59293059909154E-02 
659	 7.51420474262565E-02 
660	 7.43067148780223E-02 
661	 7.34589754082507E-02 
662	 7.26151685333282E-02 
663	 7.18027023392571E-02 
664	 7.11072269964805E-02 
665	 7.04203818339027E-02 
666	 6.96978401903537E-02 
667	 6.90599431247428E-02 
668	 6.86648458013164E-02 
669	 6.83522515803155E-02 
670	 6.79460532372646E-02 
671	 0.067769065641321 
672	 6.77666839250792E-02 
673	 6.78373043253904E-02 
674	 6.78703344783194E-02 
675	 6.81060558303348E-02 
676	 6.84088275983859E-02 
677	 6.86725409972463E-02 
678	 6.90288731139341E-02 
679	 6.96104105118443E-02 
680	 7.02255207823237E-02 
681	 7.06317483146648E-02 
682	 7.13795636326622E-02 
683	 7.22736001239051E-02 
684	 7.31129676164239E-02 
685	 7.38469437226437E-02 
686	 7.48816227634103E-02 
687	 7.59453662187826E-02 
688	 7.66646900370086E-02 
689	 7.73912335586167E-02 
690	 7.82004508803888E-02 
691	 7.89450314787639E-02 
692	 7.93867779883393E-02 
693	 7.99417317547036E-02 
694	 8.03678440148896E-02 
695	 8.05201023596216E-02 
696	 8.05671846915837E-02 
697	 0.080485104769926 
698	 8.03398257781403E-02 
699	 8.01755468365679E-02 
700	 7.97886028243465E-02 
701	 7.93080083421672E-02 
702	 7.88440392118227E-02 
703	 7.84293366733634E-02 
704	 7.77543626382425E-02 
705	 7.70087648616427E-02 
706	 7.63237079560088E-02 
707	 7.54827850915345E-02 
708	 7.45681624865479E-02 
709	 7.35591867017892E-02 
710	 7.24163998943271E-02 
711	 7.11908089171842E-02 
712	 6.98506969076678E-02 
713	 6.84632324093102E-02 
714	 6.71679467585994E-02 
715	 6.59552730135033E-02 
716	 6.45666941073268E-02 
717	 6.28689850426279E-02 
718	 6.11574808648729E-02 
719	 5.93834846173847E-02 
720	 5.79123767279359E-02 
721	 5.67200375300178E-02 
722	 5.52909862869517E-02 
723	 5.36877287594274E-02 
724	 5.21381206719268E-02 
725	 5.05086508982652E-02 
726	 4.87627105069928E-02 
727	 4.69590465530014E-02 
728	 4.51233190506755E-02 
729	 0.043030239118333 
730	 4.09041294680757E-02 
731	 3.88904610353826E-02 
732	 3.70159068411382E-02 
733	 3.57248429959091E-02 
734	 3.46208691783778E-02 
735	 3.35822761460464E-02 
736	 3.28697206947748E-02 
737	 3.22979614832488E-02 
738	 3.17844302338956E-02 
739	 0.031326275601167 
740	 3.10419817227407E-02 
741	 3.08712984385737E-02 
742	 3.07294208602153E-02 
743	 3.05533982978507E-02 
744	 3.05818004017251E-02 
745	 3.05865406472605E-02 
746	 3.05055634578864E-02 
747	 3.05592022683669E-02 
748	 0.030524335277696 
749	 3.05278187708534E-02 
750	 3.06504971506265E-02 
751	 3.05133641654384E-02 
752	 0.030523030565653 
753	 3.06219906435652E-02 
754	 3.05416311135573E-02 
755	 0.030589095252789 
756	 3.05945844571469E-02 
757	 3.05398678131927E-02 
758	 3.07378737532467E-02 
759	 3.11558984248695E-02 
760	 3.15540223778134E-02 
761	 3.14390128957235E-02 
762	 3.12968090592263E-02 
763	 3.10972931158714E-02 
764	 3.09958874757957E-02 
765	 3.10808712203094E-02 
766	 3.11869527884032E-02 
767	 3.12652137185694E-02 
768	 3.13539109462869E-02 
769	 3.15547547981323E-02 
770	 3.17076873321712E-02 
771	 3.18066173457894E-02 
772	 3.19076970211202E-02 
773	 3.21497790140527E-02 
774	 3.23512725088438E-02 
775	 3.25167728327552E-02 
776	 3.27174304998659E-02 
777	 3.28567147239651E-02 
778	 3.30872506016146E-02 
779	 3.33976460436635E-02 
780	 3.36090284357889E-02 
781	 3.38864020388424E-02 
782	 3.41388263688444E-02 
783	 3.43408649238234E-02 
784	 3.47244590321777E-02 
785	 3.50686149975636E-02 
786	 3.53958074214245E-02 
787	 3.57699526120009E-02 
788	 3.59878936143945E-02 
789	 3.62930951089043E-02 
790	 3.67588768284609E-02 
791	 3.72774617094418E-02 
792	 3.75862745637961E-02 
793	 3.78105231515954E-02 
794	 3.80814142823693E-02 
795	 3.84322480879691E-02 
796	 3.87954655968188E-02 
797	 3.91646821298014E-02 
798	 3.95239180620841E-02 
799	 3.96942395373076E-02 
800	 0.039974091131288 
801	 4.03360918269604E-02 
802	 4.05708519101554E-02 
803	 4.06444084201488E-02 
804	 4.08388496543837E-02 
805	 4.10971930047841E-02 
806	 4.09953615301565E-02 
807	 0.040920476147664 
808	 4.09316049622072E-02 
809	 4.09463946452028E-02 
810	 4.06630774673084E-02 
811	 4.06421308838228E-02 
812	 4.06523331576814E-02 
813	 4.02134575754397E-02 
814	 3.96873556357604E-02 
815	 3.94006353060963E-02 
816	 3.92257914706868E-02 
817	 3.87268640546195E-02 
818	 3.83850650343876E-02 
819	 3.77563729247819E-02 
820	 3.68923742558641E-02 
821	 3.65900305397577E-02 
822	 0.035300353412127 
823	 3.39419079249597E-02 
824	 3.32765526566195E-02 
825	 3.20607578630685E-02 
826	 3.08216529450615E-02 
827	 2.95866851021315E-02 
828	 2.83130771267892E-02 
829	 2.70681746314981E-02 
830	 0.025859790817617 
831	 2.48906936417349E-02 
832	 2.44257051337724E-02 
833	 2.36081053564018E-02 
834	 2.29756979241251E-02 
835	 2.27199773539377E-02 
836	 2.23867719650313E-02 
837	 2.21622842811752E-02 
838	 2.18709913437024E-02 
839	 0.02143927857921 
840	 2.12198420206457E-02 
841	 2.10915470652289E-02 
842	 2.09979449049607E-02 
843	 2.08688275117384E-02 
844	 2.04803102316062E-02 
845	 2.02758650726139E-02 
846	 2.03185829882681E-02 
847	 2.03622357247824E-02 
848	 2.01361968267214E-02 
849	 1.98362094914711E-02 
850	 0.019663580787471 
851	 1.97093470574645E-02 
852	 1.93538987148897E-02 
853	 1.91190280774519E-02 
854	 1.92840624230204E-02 
855	 1.90923422723012E-02 
856	 1.89542569710107E-02 
857	 1.89949012349736E-02 
858	 1.91087695303135E-02 
859	 1.86334696174583E-02 
860	 1.85232854453943E-02 
861	 1.86869390330164E-02 
862	 1.85426711795479E-02 
863	 1.81743107490217E-02 
864	 1.81139477227744E-02 
865	 1.82524967260335E-02 
866	 1.79433470444328E-02 
867	 1.77006988528966E-02 
868	 1.76713834817595E-02 
869	 1.76915978495179E-02 
870	 0.017302233907977 
871	 0.017049534508635 
872	 1.70622835627701E-02 
873	 1.72070926099399E-02 
874	 1.70068495715621E-02 
875	 1.66571200064299E-02 
876	 1.65246619948496E-02 
877	 1.67388936893599E-02 
878	 1.64065800164074E-02 
879	 0.01616570554648 
880	 1.60735725485997E-02 
881	 1.59003769126086E-02 
882	 0.015552913026797 
883	 1.54392390646331E-02 
884	 1.54723459020768E-02 
885	 1.52579626199923E-02 
886	 1.54081223524531E-02 
887	 1.50609485308931E-02 
888	 1.44222020013037E-02 
889	 1.49168889826106E-02 
890	 1.49195889826943E-02 
891	 1.48026471638921E-02 
892	 1.49390944400415E-02 
893	 1.50285234395751E-02 
894	 0.015004787239261 
895	 1.48791563913583E-02 
896	 1.46920655211705E-02 
897	 0.014432683943374 
898	 0.014417238760065 
899	 1.45163963835424E-02 
900	 0.014496980910564 
901	 1.44594198202174E-02 
902	 1.41947813984782E-02 
903	 1.39108099457777E-02 
904	 1.38668632384104E-02 
905	 0.013741671151644 
906	 1.39490247154911E-02 
907	 1.41073409468241E-02 
908	 1.35215581790301E-02 
909	 1.38943555714859E-02 
910	 1.44959281176195E-02 
911	 0.01434132821055 
912	 1.28798632740978E-02 
913	 1.30459993665714E-02 
914	 1.37248908117103E-02 
915	 1.38090075836161E-02 
916	 1.30425155044981E-02 
917	 0.012283057864008 
918	 1.19411193905413E-02 
919	 1.22137620163687E-02 
920	 0.013105850977121 
921	 0.012977393116437 
922	 0.012450195731451 
923	 1.23082255731128E-02 
924	 1.26974740717269E-02 
925	 1.25627980966712E-02 
926	 1.20330215078546E-02 
927	 1.17508647464404E-02 
928	 1.27230845206225E-02 
929	 1.29554670536003E-02 
930	 0.012803368721577 
931	 1.34026931277868E-02 
932	 1.06724383987135E-02 
933	 1.13437255258531E-02 
934	 0.012680364594931 
935	 9.5536184362656E-03 
936	 1.11381556889939E-02 
937	 0.012377301485614 
938	 0.013026936710084 
939	 1.37797952307522E-02 
940	 1.18388393241345E-02 
941	 1.15658230500469E-02 
942	 1.28142327930664E-02 
943	 1.28362799786924E-02 
944	 8.75462978248677E-03 
945	 9.39730714227127E-03 
946	 1.32913853683977E-02 
947	 1.30986484194381E-02 
948	 9.49984140892876E-03 
949	 1.09966226959917E-02 
950	 1.36998475104529E-02 
951	 9.1652006976234E-03 
952	 1.16879315057278E-02 
953	 1.27714587065507E-02 
954	 1.15056089766014E-02 
955	 1.23647351179707E-02 
956	 1.05675489113029E-02 
957	 1.04686563773807E-02 
958	 1.14895212540133E-02 
959	 1.02272714211645E-02 
960	 1.20586650259597E-02 
961	 1.26746277509084E-02 
962	 0.011843079906018 
963	 1.22128126300911E-02 
964	 1.10130484311125E-02 
965	 1.06511215882347E-02 
966	 1.12492661428678E-02 
967	 1.12131849189316E-02 
968	 1.14159682786404E-02 
969	 1.11058965444492E-02 
970	 1.03615310764742E-02 
971	 1.00806177851778E-02 
972	 1.09700152656084E-02 
973	 1.16913541761038E-02 
974	 1.14803414190093E-02 
975	 1.05059572598142E-02 
976	 8.95865135761514E-03 
977	 9.28959993303908E-03 
978	 1.11236992588837E-02 
979	 1.17025420071966E-02 
980	 1.09190627975421E-02 
981	 1.02312708102456E-02 
982	 1.03247990345954E-02 
983	 0.010820733096143 
984	 9.97193136493492E-03 
985	 9.45840795352432E-03 
986	 1.00428424365317E-02 
987	 0.011105685006449 
988	 9.92384672710713E-03 
989	 1.05922813125312E-02 
990	 1.25296632872903E-02 
991	 1.19317529082567E-02 
992	 1.18857618333113E-02 
993	 1.00937158458812E-02 
994	 8.32275113974153E-03 
995	 1.01149851150786E-02 
996	 1.04495387254762E-02 
997	 1.08303955565969E-02 
998	 1.06839960311254E-02 
999	 8.87765723082375E-03 
1000	 9.72787263056655E-03 
1001	 1.26356620629408E-02 
1002	 1.27232137452075E-02 
1003	 1.25714006732368E-02 
1004	 0.012027353278173 
1005	 1.16131729546282E-02 
1006	 1.10094638165529E-02 
1007	 1.05892013268643E-02 
1008	 1.06480789442782E-02 
1009	 1.08062874578235E-02 
1010	 1.03967461477023E-02 
1011	 1.03201678038804E-02 
1012	 1.04224264340642E-02 
1013	 1.05915199213674E-02 
1014	 1.07938730237002E-02 
1015	 1.16124789430405E-02 
1016	 1.17296122167938E-02 
1017	 1.12920946952235E-02 
1018	 1.11824101655438E-02 
1019	 0.011081929295227 
1020	 1.09192091228172E-02 
1021	 1.07509025886245E-02 
1022	 1.07213336344854E-02 
1023	 1.03488625756529E-02 
1024	 1.00611689955532E-02 
1025	 1.03208022350312E-02 
1026	 1.00591916999127E-02 
1027	 9.96167523379645E-03 
1028	 9.87634953563406E-03 
1029	 1.00832914916562E-02 
1030	 1.03007897214466E-02 
1031	 1.06602873443539E-02 
1032	 1.16349561031756E-02 
1033	 0.011897237932241 
1034	 1.17414561320113E-02 
1035	 1.17321815625191E-02 
1036	 1.14781622074512E-02 
1037	 0.011329872262003 
1038	 1.10511935888689E-02 
1039	 1.12225508419677E-02 
1040	 1.15804722876237E-02 
1041	 1.13719190932567E-02 
1042	 0.01140930453977 
1043	 1.17483320665497E-02 
1044	 1.15473156555136E-02 
1045	 1.08624246856456E-02 
1046	 1.06762628380775E-02 
1047	 1.02504437871296E-02 
1048	 1.03765530583825E-02 
1049	 1.13204524591908E-02 
1050	 1.15950700035506E-02 
1051	 0.011890024616123 
1052	 1.19708564699157E-02 
1053	 0.011637813865178 
1054	 1.13533727562757E-02 
1055	 0.010863665319172 
1056	 1.05861451957531E-02 
1057	 1.03646165147918E-02 
1058	 1.00373533306032E-02 
1059	 1.00104937135861E-02 
1060	 1.02826461098144E-02 
1061	 1.04525917008668E-02 
1062	 1.07221093497347E-02 
1063	 1.09277220284654E-02 
1064	 1.12605988941952E-02 
1065	 1.13418883378605E-02 
1066	 1.13644990984177E-02 
1067	 1.12204765395486E-02 
1068	 1.06616010864387E-02 
1069	 0.01042889899392 
1070	 1.01474174344134E-02 
1071	 1.00503514123913E-02 
1072	 1.01166937719003E-02 
1073	 1.04262048951401E-02 
1074	 1.06444811541412E-02 
1075	 1.09898282916312E-02 
1076	 1.11033418240651E-02 
1077	 1.12087974453534E-02 
1078	 1.11827837658439E-02 
1079	 1.08853467755192E-02 
1080	 1.08650798503841E-02 
1081	 1.09087326798687E-02 
1082	 0.010909739101759 
1083	 1.12070888894754E-02 
1084	 1.10570679005152E-02 
1085	 1.02082593092654E-02 
1086	 0.010160448099792 
1087	 1.04637971906418E-02 
1088	 1.06026026815031E-02 
1089	 1.15943096325146E-02 
1090	 1.17544176795723E-02 
1091	 1.17675777898496E-02 
1092	 1.12455076080464E-02 
1093	 1.09627751545554E-02 
1094	 1.03824459074081E-02 
1095	 1.02851317433745E-02 
1096	 1.03339322385895E-02 
1097	 1.04202370231348E-02 
1098	 1.10414719973295E-02 
1099	 1.11966352561357E-02 
1100	 1.09808613379295E-02 
1101	 1.09742554149659E-02 
1102	 0.010891257388369 
1103	 1.09214622458521E-02 
1104	 1.10460081506935E-02 
1105	 0.011381820323274 
1106	 1.18216658834386E-02 
1107	 1.18232886549414E-02 
1108	 1.24660116077652E-02 
1109	 0.012382543580618 
1110	 1.22522042555951E-02 
1111	 1.16727467040925E-02 
1112	 1.20903596806226E-02 
1113	 1.30735090832924E-02 
1114	 1.31924121191335E-02 
1115	 1.32993057137122E-02 
1116	 1.35484032839017E-02 
1117	 1.27259703925948E-02 
1118	 1.29178745522538E-02 
1119	 1.54927120651393E-02 
1120	 1.70898410286763E-02 
1121	 1.73790778029013E-02 
1122	 1.75546925219516E-02 
1123	 2.13460311932829E-02 
1124	 0.022150586708714 
1125	 1.66321538034697E-02 
1126	 1.31104167994349E-02 
1127	 0.014747521738919 
1128	 1.78134946333971E-02 
1129	 1.70067961251095E-02 
1130	 1.92312163006611E-02 
1131	 1.85371179856346E-02 
1132	 1.19842956701306E-02 
1133	 1.07790819661004E-02 
1134	 1.35762983141619E-02 
1135	 1.45733822622079E-02 
1136	 1.48608795562443E-02 
1137	 1.49673199866016E-02 
1138	 1.51793816247482E-02 
1139	 1.56170967380503E-02 
1140	 0.015797052339449 
1141	 1.46637344021114E-02 
1142	 1.35571405406185E-02 
1143	 1.42528897104278E-02 
1144	 1.30925492470626E-02 
1145	 1.20494706991915E-02 
1146	 1.42525503088336E-02 
1147	 1.43773757407999E-02 
1148	 1.36373997128068E-02 
1149	 1.51294689785952E-02 
1150	 1.52258535352588E-02 
1151	 1.37801740428649E-02 
1152	 1.28102412802348E-02 
1153	 1.21824569355382E-02 
1154	 1.16863366661424E-02 
1155	 1.06800060301774E-02 
1156	 1.09943479344649E-02 
1157	 1.11793638642403E-02 
1158	 0.011211667425293 
1159	 1.15161081552681E-02 
1160	 1.12148618473537E-02 
1161	 1.17134823826874E-02 
1162	 1.22047082569619E-02 
1163	 1.11847041401495E-02 
1164	 1.02107702649529E-02 
1165	 1.01074999123257E-02 
1166	 1.05856406059558E-02 
1167	 1.14324884616938E-02 
1168	 0.011961092920065 
1169	 1.15209483026031E-02 
1170	 1.07771007597655E-02 
1171	 1.05382729486026E-02 
1172	 0.010458615998979 
1173	 1.05007301790086E-02 
1174	 1.10265166683842E-02 
1175	 1.10845879090385E-02 
1176	 1.07523674640783E-02 
1177	 1.10844876628069E-02 
1178	 1.15072793242532E-02 
1179	 1.15330041734982E-02 
1180	 1.15751775637863E-02 
1181	 1.12927406769791E-02 
1182	 1.09775796028717E-02 
1183	 1.09948904295532E-02 
1184	 1.11161137781812E-02 
1185	 1.13692581879692E-02 
1186	 1.12316198386732E-02 
1187	 1.08170442556386E-02 
1188	 1.07696799473264E-02 
1189	 0.010880683783049 
1190	 1.08348593138253E-02 
1191	 1.08280900968773E-02 
1192	 1.08388530509653E-02 
1193	 0.010807231783819 
1194	 1.03331398255148E-02 
1195	 1.00814020971022E-02 
1196	 1.04903540733544E-02 
1197	 1.06965496583103E-02 
1198	 1.06014975151356E-02 
1199	 1.07736212400929E-02 
1200	 1.08372431093399E-02 
1201	 1.04071904362048E-02 
1202	 1.02908824606138E-02 
1203	 1.07005567810439E-02 
1204	 1.07461020526541E-02 
1205	 0.010898948517801 
1206	 1.13114210440261E-02 
1207	 1.10779884735446E-02 
1208	 1.07047117749729E-02 
1209	 0.01049727908902 
1210	 0.010206996665648 
1211	 1.04552611102818E-02 
1212	 1.08744854373612E-02 
1213	 1.05793873860767E-02 
1214	 0.010415193663475 
1215	 1.01640628225686E-02 
1216	 1.00111718981365E-02 
1217	 9.75906990787699E-03 
1218	 9.97211916952418E-03 
1219	 1.04663865453234E-02 
1220	 1.05957556686178E-02 
1221	 1.04163934798089E-02 
1222	 1.04645769883313E-02 
1223	 1.05147436438664E-02 
1224	 1.02507817740464E-02 
1225	 1.00985403467251E-02 
1226	 1.02861412674151E-02 
1227	 1.03385679069645E-02 
1228	 1.00954021942838E-02 
1229	 1.03169517453212E-02 
1230	 0.010685067438174 
1231	 1.05102075768545E-02 
1232	 1.05759812041559E-02 
1233	 1.09596616945413E-02 
1234	 1.08339785867011E-02 
1235	 1.06541514093952E-02 
1236	 1.04946786190127E-02 
1237	 0.010549123475053 
1238	 1.05746917426826E-02 
1239	 0.010229970576685 
1240	 1.01581055432979E-02 
1241	 1.02593927830749E-02 
1242	 1.00871409950364E-02 
1243	 1.00916589364163E-02 
1244	 1.03221035338606E-02 
1245	 1.02936225881027E-02 
1246	 1.02967541231106E-02 
1247	 1.03559420836521E-02 
1248	 1.03830770699573E-02 
1249	 1.03465328623866E-02 
1250	 9.88781385498679E-03 
1251	 9.68991439961456E-03 
1252	 1.01052256088981E-02 
1253	 1.03895060716398E-02 
1254	 1.04303358378063E-02 
1255	 1.03867707319124E-02 
1256	 1.03966272594337E-02 
1257	 1.00946623867903E-02 
1258	 1.00014084922786E-02 
1259	 1.02341275937922E-02 
1260	 1.03976781174576E-02 
1261	 1.04663549608357E-02 
1262	 1.02677497602285E-02 
1263	 9.88840279876224E-03 
1264	 0.009957135016065 
1265	 1.00530100657794E-02 
1266	 1.01213177093784E-02 
1267	 1.03763942063773E-02 
1268	 1.04357309015954E-02 
1269	 1.02448294570831E-02 
1270	 1.01357266476866E-02 
1271	 1.02440461324844E-02 
1272	 1.03458307480014E-02 
1273	 1.01150071470729E-02 
1274	 9.9725031631514E-03 
1275	 0.010049355326309 
1276	 1.00714890391024E-02 
1277	 1.02608405428146E-02 
1278	 1.03119142352228E-02 
1279	 1.00761018809929E-02 
1280	 9.89464372980718E-03 
1281	 9.94860478226497E-03 
1282	 9.9600301864793E-03 
1283	 9.98056228755052E-03 
1284	 0.010362630904483 
1285	 1.04403664347564E-02 
1286	 1.00181621725193E-02 
1287	 9.97414386549608E-03 
1288	 1.04439239350172E-02 
1289	 1.03696072400833E-02 
1290	 9.94707361518302E-03 
1291	 9.78559728740026E-03 
1292	 9.82368290137955E-03 
1293	 9.79042073906112E-03 
1294	 1.03364059851316E-02 
1295	 1.06925806498093E-02 
1296	 0.01038750050925 
1297	 1.05290991256129E-02 
1298	 1.08241545909168E-02 
1299	 1.06075107234657E-02 
1300	 1.02946639646706E-02 
1301	 1.03087567628859E-02 
1302	 0.010316549723972 
1303	 1.01505332843518E-02 
1304	 1.03680402870376E-02 
1305	 0.010519888632584 
1306	 0.010477474563248 
1307	 1.01473146449581E-02 
1308	 0.010237656935666 
1309	 1.04296306183333E-02 
1310	 1.05112151904998E-02 
1311	 0.010938425589336 
1312	 1.11394206533429E-02 
1313	 1.10587741391441E-02 
1314	 1.08813179508797E-02 
1315	 1.06235738966049E-02 
1316	 0.010444367729468 
1317	 9.51800408434109E-03 
1318	 9.73050763879043E-03 
1319	 1.16728221892904E-02 
1320	 1.18686368570733E-02 
1321	 1.15520856877702E-02 
1322	 1.14368006172913E-02 
1323	 1.04899708737794E-02 
1324	 9.72460409407742E-03 
1325	 1.05403695090254E-02 
1326	 1.19063526904949E-02 
1327	 1.22578589757517E-02 
1328	 1.16313265027413E-02 
1329	 1.20777804602037E-02 
1330	 1.35432917172769E-02 
1331	 1.41110947212498E-02 
1332	 0.013638361954434 
1333	 1.22391282613821E-02 
1334	 1.11743247882372E-02 
1335	 1.12409496029136E-02 
1336	 1.38457822872736E-02 
1337	 1.35664197500198E-02 
1338	 1.17912033520307E-02 
1339	 1.19385262529565E-02 
1340	 1.17535702151825E-02 
1341	 1.12269118288411E-02 
1342	 1.21482559247032E-02 
1343	 1.28180007812817E-02 
1344	 0.012442293132265 
1345	 1.18448243410206E-02 
1346	 1.16179279563154E-02 
1347	 1.28615284200552E-02 
1348	 1.26757446133413E-02 
1349	 1.32415451411038E-02 
1350	 2.33049027837311E-02 
1351	 3.27600629215216E-02 
1352	 3.55534497625297E-02 
1353	 4.28546420740119E-02 
1354	 5.44823114324499E-02 
1355	 8.22304148012122E-02 
1356	 9.30779291206826E-02 
1357	 0.100318235073875 
1358	 0.105571071182787 
1359	 5.50237773807216E-02 
1360	 6.40421733355974E-02 
1361	 0.227813266369475 
1362	 0.332673853308584 
1363	 0.28431710563993 
1364	 0.209697372242779 
1365	 0.20643516577964 
1366	 0.266248192607352 
1367	 0.397948648318239 
1368	 0.482505881919269 
1369	 0.187954629352696 
1370	 0.149597262540594 
1371	 0.26080278042767 
1372	 0.256640569160372 
1373	 0.101540262481494 
1374	 0.256060098619699 
1375	 0.64056865081703 
1376	 0.70954812533608 
1377	 1.02277871746229 
1378	 1.44244790730304 
1379	 1.63189108588867 
1380	 1.17229908129079 
1381	 0.169475749414124 
1382	 0.114735496534878 
1383	 2.36662226191742E-02 
1384	-0.265943180847475 
1385	-9.11402993027662E-02 
1386	 0.25588730473832 
1387	 0.45523228503479 
1388	 0.329403493706399 
1389	 0.325185830509768 
1390	 0.55531758189021 
1391	 0.559430803094217 
1392	 0.638474202859257 
1393	 0.885893858030067 
1394	 1.51509139067665 
1395	 2.00597433551207 
1396	 1.65222754263038 
1397	 0.767666316668183 
1398	 0.77851656108548 
1399	 0.962827537612871 
1400	 0.250148431590922 
1401	 0.282410907426315 
1402	 0.828483515248572 
1403	 0.827944652096203 
1404	 0.502797085625636 
1405	 0.41412724786328 
1406	 0.420011590607973 
1407	 0.244370399001363 
1408	 0.285231983358052 
1409	 0.276145857738159 
1410	 0.189185542983098 
1411	 0.118177546568098 
1412	 0.073275081042339 
1413	 7.55448816969654E-02 
1414	 9.80102220307395E-02 
1415	 0.057099053519165 
1416	-1.50240233337639E-02 
1417	 1.49134210980208E-02 
1418	 8.60412607214185E-02 
1419	 7.23631600680018E-02 
1420	 5.49146234754202E-02 
1421	 7.39524425852062E-02 
1422	 0.096719737822573 
1423	 6.94161362390561E-02 
1424	 2.73773453873868E-02 
1425	 3.57268904869118E-02 
1426	 4.02031360704597E-02 
1427	 2.84286558634758E-02 
1428	 4.31212051616767E-02 
1429	 5.37578271564503E-02 
1430	 3.76585914515209E-02 
1431	 3.14847481519289E-02 
1432	 4.47453160611143E-02 
1433	 5.00340482428569E-02 
1434	 4.54947992841655E-02 
1435	 4.07214430699477E-02 
1436	 3.93328660514285E-02 
1437	 3.94764486956687E-02 
1438	 2.42126394331684E-02 
1439	 7.68837105650317E-03 
1440	 1.38893977878851E-02 
1441	 2.32244443839258E-02 
1442	 2.92002348522141E-02 
1443	 3.42641892337092E-02 
1444	 2.29774196594988E-02 
1445	 1.52775072147898E-02 
1446	 2.06623491797056E-02 
1447	 2.04554904280847E-02 
1448	 2.00919638477639E-02 
1449	 2.16782755537867E-02 
1450	 1.90915435372355E-02 
1451	 1.95381739237423E-02 
1452	 1.77954086523046E-02 
1453	 1.11863359332289E-02 
1454	 1.16369497833505E-02 
1455	 1.46340839765835E-02 
1456	 1.35796464366547E-02 
1457	 1.29680995660929E-02 
1458	 1.40051579479549E-02 
1459	 1.31805867108577E-02 
1460	 1.22542016511901E-02 
1461	 1.37266707716952E-02 
1462	 1.46950211726821E-02 
1463	 1.38300354214453E-02 
1464	 1.29802772454492E-02 
1465	 0.013173586704813 
1466	 1.40793890416594E-02 
1467	 1.36950638962694E-02 
1468	 1.32175682696128E-02 
1469	 1.58568013572684E-02 
1470	 1.66609745229106E-02 
1471	 1.41626477718536E-02 
1472	 1.22701490084503E-02 
1473	 1.12870184666802E-02 
1474	 1.03331674254025E-02 
1475	 7.98079352385945E-03 
1476	 8.00208579610697E-03 
1477	 9.14309339568923E-03 
1478	 1.05444741072802E-02 
1479	 1.50015731826689E-02 
1480	 1.45459905506192E-02 
1481	 1.08397867130526E-02 
1482	 1.02116434659748E-02 
1483	 9.29079855784932E-03 
1484	 7.73372103753244E-03 
1485	 6.66264642404207E-03 
1486	 7.64974953125737E-03 
1487	 9.51100273568717E-03 
1488	 8.90011917913669E-03 
1489	 8.40725464377901E-03 
1490	 8.58036196597435E-03 
1491	 7.31084216190116E-03 
1492	 6.47091266566346E-03 
1493	 7.17808880447117E-03 
1494	 7.35140813178353E-03 
1495	 6.23416895017778E-03 
1496	 6.08752406826092E-03 
1497	 7.07925801869791E-03 
1498	 7.11992978223032E-03 
1499	 6.57606998586918E-03 
1500	 6.53740718665641E-03 
1501	 6.54968053720794E-03 
1502	 6.56766568062683E-03 
1503	 7.07098755260969E-03 
1504	 6.90500354873888E-03 
1505	 5.90410630483089E-03 
1506	 5.62766278880947E-03 
1507	 6.08384943173162E-03 
1508	 6.58628770905878E-03 
1509	 7.1445202107344E-03 
1510	 7.1224386313518E-03 
1511	 6.42592771407703E-03 
1512	 6.45677457643836E-03 
1513	 6.92072995086388E-03 
1514	 6.97073476258463E-03 
1515	 6.87937217463164E-03 
1516	 6.67632787962137E-03 
1517	 6.31275193166312E-03 
1518	 5.99254456286001E-03 
1519	 5.88191648221718E-03 
1520	 6.13498806548753E-03 
1521	 6.36733021684349E-03 
1522	 6.56162900502567E-03 
1523	 6.61633566723375E-03 
1524	 6.03240815717764E-03 
1525	 5.61526756614225E-03 
1526	 5.71772367611886E-03 
1527	 5.23874414406138E-03 
1528	 5.02291656045473E-03 
1529	 5.80981549265536E-03 
1530	 5.9801142720734E-03 
1531	 5.89164107125792E-03 
1532	 6.14824036215193E-03 
1533	 6.13306183647106E-03 
1534	 6.17679783956006E-03 
1535	 6.35775560494711E-03 
1536	 6.5587269938892E-03 
1537	 6.33331993048918E-03 
1538	 5.91935042172925E-03 
1539	 6.09235811230457E-03 
1540	 6.42969999821004E-03 
1541	 6.50864616142051E-03 
1542	 6.50586068923369E-03 
1543	 6.46364472811134E-03 
1544	 6.41370228975234E-03 
1545	 6.49904245539997E-03 
1546	 6.37045820803741E-03 
1547	 6.09439065017908E-03 
1548	 5.90610183621407E-03 
1549	 5.85061737445433E-03 
1550	 6.21433143810619E-03 
1551	 6.70678612195121E-03 
1552	 6.83321069028139E-03 
1553	 6.30816229404192E-03 
1554	 5.74133087557087E-03 
1555	 6.11953769263284E-03 
1556	 6.65417857040064E-03 
1557	 6.81428427471985E-03 
1558	 7.08560489008335E-03 
1559	 6.80262123616774E-03 
1560	 6.29980365750452E-03 
1561	 6.28989851044714E-03 
1562	 6.54999882765656E-03 
1563	 7.04347558441592E-03 
1564	 6.90895612059548E-03 
1565	 6.41931162747115E-03 
1566	 6.51909123085098E-03 
1567	 7.00123661571183E-03 
1568	 7.41806990770823E-03 
1569	 7.5644312155232E-03 
1570	 7.91142278225276E-03 
1571	 7.67514137897281E-03 
1572	 6.68822437997948E-03 
1573	 0.006557984683278 
1574	 6.73716851521513E-03 
1575	 6.71324985303464E-03 
1576	 7.33868589589333E-03 
1577	 7.72981860867328E-03 
1578	 7.27742371386611E-03 
1579	 6.8521348306058E-03 
1580	 6.62819957766515E-03 
1581	 6.62676455959686E-03 
1582	 6.72773794731543E-03 
1583	 6.83357194219292E-03 
1584	 7.21479176438621E-03 
1585	 7.31588841181829E-03 
1586	 7.20471935571792E-03 
1587	 7.13607416483975E-03 
1588	 6.84864009270901E-03 
1589	 6.84061095569675E-03 
1590	 7.13268330859018E-03 
1591	 7.14799244987086E-03 
1592	 7.06092364819013E-03 
1593	 7.28373731105323E-03 
1594	 7.29081012872611E-03 
1595	 6.96759021934889E-03 
1596	 6.82662495688328E-03 
1597	 6.91107395728239E-03 
1598	 7.25277847915838E-03 
1599	 7.41818063170372E-03 
1600	 7.44306649085133E-03 
1601	 7.38472435826258E-03 
1602	 7.46232911777087E-03 
1603	 8.15855313344119E-03 
1604	 8.07425323884317E-03 
1605	 7.46873433542469E-03 
1606	 7.58451033747172E-03 
1607	 7.69415757322413E-03 
1608	 7.59167661258319E-03 
1609	 7.6606392646039E-03 
1610	 7.56207812280309E-03 
1611	 7.1125496173363E-03 
1612	 6.92281551769677E-03 
1613	 6.97944862476823E-03 
1614	 7.1265109015542E-03 
1615	 7.22682905744966E-03 
1616	 7.41275672631469E-03 
1617	 8.3592164814071E-03 
1618	 8.6892861075797E-03 
1619	 7.68917553722554E-03 
1620	 7.31288298292644E-03 
1621	 7.33629787940023E-03 
1622	 6.86599433600327E-03 
1623	 7.03028626817993E-03 
1624	 7.49959955987617E-03 
1625	 7.34602822844591E-03 
1626	 7.37198536266764E-03 
1627	 7.76376111110044E-03 
1628	 7.91429885666065E-03 
1629	 7.97866029566788E-03 
1630	 7.9259292588294E-03 
1631	 7.78456795141932E-03 
1632	 7.75332779775978E-03 
1633	 0.00789379074948 
1634	 8.1246196800944E-03 
1635	 7.81723508338627E-03 
1636	 7.57461243460878E-03 
1637	 8.16280401909494E-03 
1638	 8.02206936142721E-03 
1639	 7.17475652090412E-03 
1640	 7.41138812066568E-03 
1641	 7.7064023741394E-03 
1642	 7.4598899938607E-03 
1643	 7.70669028058911E-03 
1644	 7.77812933095245E-03 
1645	 7.39555608366387E-03 
1646	 7.26718481277377E-03 
1647	 7.65457168554018E-03 
1648	 8.30335036833274E-03 
1649	 8.10776249854095E-03 
1650	 7.4129683598858E-03 
1651	 7.40991602053539E-03 
1652	 7.53733017928705E-03 
1653	 7.33806441884263E-03 
1654	 7.47878118734493E-03 
1655	 7.42924639260763E-03 
1656	 7.22375285899465E-03 
1657	 7.2055713461772E-03 
1658	 7.52035310106175E-03 
1659	 7.81660302979257E-03 
1660	 7.86888274480138E-03 
1661	 8.21381714102527E-03 
1662	 8.35332330413855E-03 
1663	 7.89730556872797E-03 
1664	 7.78787700028995E-03 
1665	 8.29331411038089E-03 
1666	 8.46221816602535E-03 
1667	 8.1575821770914E-03 
1668	 7.91223925037921E-03 
1669	 8.15516891996002E-03 
1670	 8.13057272557652E-03 
1671	 8.00090708875778E-03 
1672	 8.14243598180934E-03 
1673	 8.20549733943308E-03 
1674	 8.17440430344121E-03 
1675	 8.15936409539879E-03 
1676	 7.94785699370509E-03 
1677	 8.1832873272862E-03 
1678	 8.72316535242725E-03 
1679	 8.5825252421182E-03 
1680	 8.57316508193769E-03 
1681	 8.61597417346243E-03 
1682	 7.92817872619856E-03 
1683	 7.83894628984658E-03 
1684	 8.48419616190343E-03 
1685	 8.58070292742264E-03 
1686	 8.51720072352945E-03 
1687	 8.46800378731814E-03 
1688	 8.34698686157703E-03 
1689	 8.46244148696854E-03 
1690	 8.33948062442816E-03 
1691	 8.28010268084833E-03 
1692	 8.57550565503596E-03 
1693	 8.50160021110528E-03 
1694	 8.19155736269262E-03 
1695	 8.42245527659952E-03 
1696	 8.71002736867202E-03 
1697	 8.61217633797013E-03 
1698	 9.05718937776715E-03 
1699	 9.32544027854077E-03 
1700	 8.70820094857391E-03 
1701	 8.15402807299292E-03 
1702	 7.52987008304598E-03 
1703	 7.63804108518947E-03 
1704	 8.27499419490907E-03 
1705	 8.30052328803447E-03 
1706	 8.59353648008013E-03 
1707	 8.48206966423939E-03 
1708	 8.01540502733295E-03 
1709	 7.8838072532563E-03 
1710	 7.71858758380913E-03 
1711	 8.47284927481734E-03 
1712	 9.42624943275166E-03 
1713	 1.01545199033835E-02 
1714	 1.03048474411829E-02 
1715	 8.84605093572599E-03 
1716	 8.91089223880165E-03 
1717	 9.84560219962485E-03 
1718	 9.45914920925509E-03 
1719	 9.83197068672275E-03 
1720	 1.05609927510075E-02 
1721	 9.54043778106489E-03 
1722	 9.35532678897091E-03 
1723	 9.7836393569814E-03 
1724	 9.14651817948159E-03 
1725	 8.82048978969324E-03 
1726	 8.56264735359378E-03 
1727	 8.24474814078187E-03 
1728	 8.52650662497039E-03 
1729	 8.78020537497587E-03 
1730	 8.79821661966112E-03 
1731	 9.11888146957696E-03 
1732	 9.03578370791387E-03 
1733	 8.29715750998251E-03 
1734	 8.42029312409797E-03 
1735	 8.86716969974822E-03 
1736	 8.82158789336816E-03 
1737	 9.08556992944362E-03 
1738	 8.98669019621136E-03 
1739	 8.46149471743867E-03 
1740	 9.00071418095792E-03 
1741	 9.4292652010052E-03 
1742	 8.88969015641248E-03 
1743	 8.85355047078876E-03 
1744	 8.89418833152962E-03 
1745	 8.99483634643092E-03 
1746	 1.00608737978711E-02 
1747	 1.02643031088699E-02 
1748	 9.10536012216001E-03 
1749	 8.70567146246891E-03 
1750	 8.94817923028583E-03 
1751	 8.74225678303166E-03 
1752	 7.77905747502956E-03 
1753	 8.28838729228804E-03 
1754	 9.95939456645011E-03 
1755	 1.01580602531903E-02 
1756	 1.09420344752735E-02 
1757	 1.00885681099063E-02 
1758	 8.11333043011632E-03 
1759	 8.63771065744878E-03 
1760	 9.9194695925972E-03 
1761	 9.9837430714547E-03 
1762	 1.08646582920643E-02 
1763	 1.08939156718242E-02 
1764	 9.56334115095523E-03 
1765	 9.75791550129192E-03 
1766	 9.69169237828264E-03 
1767	 9.37690487741867E-03 
1768	 0.010143070762727 
1769	 9.15907914861432E-03 
1770	 8.36885510860899E-03 
1771	 9.68654119850431E-03 
1772	 9.58896706199031E-03 
1773	 1.01447753110667E-02 
1774	 1.24110217492371E-02 
1775	 1.07612710427196E-02 
1776	 1.05065916750303E-02 
1777	 1.04547928316467E-02 
1778	 1.04020511314304E-02 
1779	 1.12757348571355E-02 
1780	 0.012926259795288 
1781	 1.68329236210535E-02 
1782	 1.59180123926825E-02 
1783	 0.010962517748374 
1784	 1.02492004976874E-02 
1785	 8.02173814514529E-03 
1786	 8.21602584503095E-03 
1787	 1.52587331900297E-02 
1788	 1.64184258680147E-02 
1789	 1.23007862978484E-02 
1790	 1.40567934862226E-02 
1791	 1.44844072523153E-02 
1792	 1.40134350856713E-02 
1793	 1.35315970870596E-02 
1794	 1.53250529784737E-02 
1795	 0.021956121814821 
1796	 2.75091200673787E-02 
1797	 3.05897889167873E-02 
1798	 2.83098471974169E-02 
1799	 1.94366066270216E-02 
1800	 2.08171389524338E-02 
1801	 0.019880989617009 
1802	 1.19310875258398E-02 
1803	 1.08576360808074E-02 
1804	 1.55295728589713E-02 
1805	 2.56303662170488E-02 
1806	 0.070004172006123 
1807	 9.17512782982749E-02 
1808	 7.94207938197197E-02 
1809	 8.61310431008414E-02 
1810	 8.87147315636917E-02 
1811	 6.57746010096737E-02 
1812	 2.09149771832045E-02 
1813	 4.82198274464386E-02 
1814	 4.71394699256225E-02 
1815	 0.160080800855139 
1816	 0.465688626253192 
1817	 0.548184837660001 
1818	 0.562772302360007 
1819	 0.343683419641036 
1820	-0.04194298678834 
1821	 3.13217069526852E-02 
1822	 5.68927492349058E-02 
1823	 0.702981154410256 
1824	 1.32773263230637 
1825	 1.88742857606939 
1826	 1.56383376480814 
1827	 0.549091839137869 
1828	 0.460212913936017 
1829	 0.368339878558691 
1830	 0.34571438377644 
1831	 2.90930995384424 
1832	 3.95788654234574 
1833	-2.66095316228541 
1834	-0.761927407030202 
1835	-1.53128818723451 
1836	-1.26800544638461 
1837	-0.778043079678498 
1838	-0.879047467381093 
1839	-1.36007515547869 
1840	-1.91524361818797 
1841	-26.9874061899787 
1842	 1.2012801719412 
1843	 0.894792585542776 
1844	 1.49582438926351 
1845	 1.66214734569324 
1846	-3.16722621519439 
1847	-1.68725700277914 
1848	-15.3892164767773 
1849	-2.75593914039435 
1850	-1.24440313508754 
1851	-0.692180262198021 
1852	 1.52200639408394 
1853	 2.85507799647668 
1854	 2.86968515764592 
1855	 1.10352317079358 
1856	 1.26423385025487 
1857	 1.02689013061396 
1858	 1.46963463040242 
1859	 28.5031092167449 
1860	-6.258559387406 
1861	 18.8866306081314 
1862	 12.3608985460944 
1863	 3.08749213148919 
1864	 1.40393138040156 
1865	 1.18317036318792 
1866	 1.59909670523987 
1867	 2.16595402219232 
1868	 17.8683672880015 
1869	-6.36791569542048 
1870	-1.98969150203484 
1871	-1.27151391130614 
1872	-0.972125683901559 
1873	-2.19742275327648 
1874	-6.68430643307247 
1875	 1.36683816716546 
1876	 0.624889999468424 
1877	 0.298458845034239 
1878	 0.202854107486697 
1879	 0.243041382706271 
1880	 0.307443501053285 
1881	 0.531636712918564 
1882	 0.623274520870155 
1883	 0.605866195340025 
1884	 0.623897693340006 
1885	 0.301860142977902 
1886	-1.20177973911435E-02 
1887	 0.28125005233636 
1888	 0.476107966292203 
1889	 0.539817981697561 
1890	 0.949967528289669 
1891	 1.27405808565538 
1892	 1.06429456111567 
1893	 3.36085594903206 
1894	-0.57792980722046 
1895	-0.414018055551306 
1896	 0.117275539980864 
1897	 0.407799536812829 
1898	 2.71355527881093 
1899	 18.488581203173 
1900	 8.32688496825183 
1901	-0.43315142515973 
1902	-0.651025454132541 
1903	 0.249922295739593 
1904	 0.153502187115027 
1905	-2.53574160593542E-02 
1906	 0.445979173958839 
1907	 0.804141434772734 
1908	 8.58950680068692E-02 
1909	 10.7639439839246 
1910	-3.41792695315968 
1911	-1.11562896262485 
1912	-1.08356685044185 
1913	-0.660327196141107 
1914	 0.70607289887148 
1915	 1.00930644753329 
1916	 6.65155070787199 
1917	-0.862383901845278 
1918	-0.514569321600411 
1919	-5.76664468145959 
1920	 13.8049364974355 
1921	 0.658238555592689 
1922	 0.821553264733037 
1923	-9.55384934953061E-02 
1924	-0.254198811741585 
1925	 8.79155949387698E-02 
1926	 0.233649076735121 
1927	 0.549185512480583 
1928	 2.09898254350642 
1929	-4.01374070277059 
1930	-2.19515231038413 
1931	 3.6698656916162 
1932	 0.683108439791593 
1933	 0.770241306945727 
1934	 4.92881906979405E-03 
1935	-0.479879539511708 
1936	-0.224262993405588 
1937	-0.15107928107911 
1938	-7.96557376226401E-02 
1939	-4.54304483636187E-02 
1940	 8.40308793892608E-02 
1941	 4.28719058419246E-02 
1942	 0.042516869649636 
1943	 0.100139845579541 
1944	 0.155878747870969 
1945	 0.126453129357552 
1946	 0.125325228495516 
1947	 0.136698549316051 
1948	 0.117701481419315 
1949	 0.106512996966181 
1950	 7.89269822231284E-02 
1951	 6.28698722914773E-02 
1952	 5.31883091725216E-02 
1953	 0.042807973324387 
1954	 8.17789998380403E-02 
1955	 0.115964583636791 
1956	 7.47831689839053E-02 
1957	 5.05521211668593E-02 
1958	 3.17484032700127E-02 
1959	-0.0075802901476 
1960	-1.70342088764806E-02 
1961	-0.012084650127 
1962	-1.24721732134932E-02 
1963	-2.30874101103156E-03 
1964	 4.82731333526663E-03 
1965	 2.76129645233045E-03 
1966	 5.57913478086584E-03 
1967	 9.59358705992219E-03 
1968	 9.23958976617299E-03 
1969	 1.05609450758857E-02 
1970	 0.014871055748555 
1971	 1.61226999117412E-02 
1972	 2.20486296467941E-02 
1973	 2.09949284967953E-02 
1974	 1.55758406428998E-02 
1975	 1.25907869978352E-02 
1976	 4.89006065803442E-03 
1977	 8.2520610557583E-04 
1978	 2.26657179369515E-03 
1979	 3.88548279521661E-03 
1980	 6.8954250891084E-03 
1981	 9.73511058038854E-03 
1982	 1.10023546155378E-02 
1983	 1.07646410417456E-02 
1984	 8.35708388233634E-03 
1985	 4.63225635756867E-03 
1986	 4.26514318082248E-03 
1987	 5.39426561681997E-03 
1988	 3.3803586280436E-03 
1989	 4.91750872226296E-03 
1990	 7.48178586152745E-03 
1991	 4.36691128491157E-03 
1992	 3.72131926586727E-03 
1993	 4.48674842562849E-03 
1994	 4.18211535500738E-03 
1995	 8.32507767414522E-04 
1996	 2.81832672749233E-03 
1997	 6.10817724752871E-03 
1998	 5.88474603389934E-03 
1999	 7.60762389783944E-03 
2000	 9.48605798784914E-03 
2001	 1.02196424654772E-02 
2002	 1.03357160381337E-02 
2003	 4.83518025264535E-03 
2004	-5.2456949568575E-03 
2005	-1.00834701956053E-02 
2006	-6.94819600378191E-03 
2007	-3.03123609155962E-03 
2008	 1.27746818375079E-04 
2009	 1.58292568725426E-04 
2010	-8.26905783067887E-03 
2011	-1.21741132289049E-02 
2012	-1.89053187270034E-02 
2013	-1.34972816427854E-02 
2014	-3.50966942747232E-03 
2015	 3.21851532898908E-03 
2016	 4.83617539651186E-03 
2017	 8.98786267129474E-03 
2018	 6.68756985757798E-03 
2019	-5.54183401397521E-05 
2020	 1.1189260861315E-03 
2021	 4.00115955467555E-04 
2022	-2.10311672471202E-03 
2023	 8.92720904904279E-04 
2024	 2.75112623663406E-03 
2025	 5.15992543229033E-03 
2026	 5.78538050282136E-03 
2027	 6.1116680809936E-03 
2028	 6.92278800891052E-03 
2029	 5.80374892098367E-03 
2030	 4.37950110318819E-03 
2031	 5.16819486196077E-03 
2032	 5.37237771115971E-03 
2033	 5.25003033848102E-03 
2034	 5.7564482471251E-03 
2035	 4.96701053726094E-03 
2036	 2.82294662697485E-03 
2037	 3.81399906964859E-03 
2038	 5.41838417077942E-03 
2039	 5.2992950591778E-03 
2040	 5.53940552703409E-03 
2041	 5.7141576386924E-03 
2042	 2.72665978741294E-03 
2043	 2.42899564392056E-03 
2044	 4.41482229818842E-03 
2045	 6.07542316132583E-03 
2046	 5.76217014339818E-03 
2047	 6.58805033821915E-03 
2048	 5.88543505578695E-03 
2049	 3.45118181362506E-03 
2050	 2.94531126815306E-03 
2051	 1.67220630387698E-03 
2052	-3.42210326734071E-04 
2053	 1.3432215020738E-03 
2054	 4.69756683102372E-03 
2055	 7.4063221517822E-03 
2056	 7.86929452296445E-03 
2057	 6.34364736146658E-03 
2058	 5.82453399612313E-03 
2059	 3.33560925212289E-03 
2060	 3.20200074116443E-03 
2061	 4.80666396050123E-03 
2062	 8.39747979152623E-03 
2063	 8.9651616592651E-03 
2064	 6.09267449052847E-03 
2065	 7.85255170631033E-03 
2066	 7.6432317879278E-03 
2067	 6.56941348203055E-03 
2068	 7.90743632601367E-03 
2069	 7.19042805403722E-03 
2070	 7.3377898991352E-03 
2071	 8.35530448767575E-03 
2072	 8.59793763147997E-03 
2073	 8.70853803560383E-03 
2074	 7.52087835262922E-03 
2075	 7.78137395723561E-03 
2076	 9.75042870312304E-03 
2077	 9.67005528561159E-03 
2078	 8.83399629092592E-03 
2079	 8.08266114372031E-03 
2080	 6.05345395213943E-03 
2081	 4.49311787169394E-03 
2082	 5.99985579180419E-03 
2083	 7.64890996104021E-03 
2084	 8.25844626357099E-03 
2085	 9.74869504899361E-03 
2086	 8.59776472649157E-03 
2087	 6.32621912030714E-03 
2088	 5.60325688578458E-03 
2089	 2.9072266233337E-03 
2090	 1.30450782372589E-03 
2091	 1.36754826875855E-03 
2092	 1.47569151973951E-03 
2093	 3.03325043993929E-03 
2094	 3.69855244914239E-03 
2095	 4.12213445490644E-03 
2096	 4.47210610042184E-03 
2097	 3.93159781125807E-03 
2098	 3.99946548471883E-03 
2099	 4.40802639448492E-03 
2100	 5.72916768521533E-03 
2101	 5.3573068562688E-03 
2102	 4.17602600306921E-03 
2103	 4.13266776754732E-03 
2104	 3.61882837349388E-03 
2105	 2.9915413830108E-03 
2106	 4.34294737833998E-03 
2107	 5.2313359095025E-03 
2108	 4.60014973033177E-03 
2109	 4.88064430255483E-03 
2110	 5.23955256963764E-03 
2111	 3.19775256120603E-03 
2112	 1.80320137796432E-03 
2113	 1.98416125681742E-03 
2114	 2.99748752055538E-03 
2115	 3.21010377247004E-03 
2116	 5.07043719144775E-03 
2117	 6.24691914729624E-03 
2118	 6.41334743016649E-03 
2119	 6.68650583503525E-03 
2120	 7.92170932002782E-03 
2121	 7.29380766179224E-03 
2122	 5.87454100693319E-03 
2123	 6.08965215341814E-03 
2124	 7.31757954483671E-03 
2125	 8.15061080243662E-03 
2126	 8.22125537235347E-03 
2127	 7.8520997532889E-03 
2128	 7.70653331076713E-03 
2129	 8.67810801917858E-03 
2130	 8.83203794558717E-03 
2131	 7.59771263737593E-03 
2132	 8.5891275548823E-03 
2133	 7.95284380537806E-03 
2134	 7.03462305271749E-03 
2135	 7.15535377484875E-03 
2136	 7.40192912230555E-03 
2137	 5.47774276253444E-03 
2138	 5.5873902702989E-03 
2139	 8.23527787386343E-03 
2140	 8.62261217309223E-03 
2141	 7.93067361537626E-03 
2142	 8.11609142512885E-03 
2143	 8.20225973848006E-03 
2144	 8.57779709643731E-03 
2145	 7.49621299464912E-03 
2146	 6.45311254105675E-03 
2147	 7.50584764831474E-03 
2148	 8.54402842915825E-03 
2149	 8.54805983125989E-03 
2150	 9.45412339659491E-03 
2151	 8.95124676996746E-03 
2152	 5.6848037257056E-03 
2153	 6.0372430293783E-03 
2154	 9.0968954426526E-03 
2155	 1.04392727905347E-02 
2156	 1.11140975984538E-02 
2157	 1.08245324051254E-02 
2158	 8.59840220164338E-03 
2159	 8.18609897070179E-03 
2160	 7.41973618762734E-03 
2161	 8.23232070608067E-03 
2162	 1.16000515205074E-02 
2163	 1.18874103528606E-02 
2164	 1.11610999938206E-02 
2165	 1.11492847160109E-02 
2166	 9.37731587508977E-03 
2167	 9.45789082406206E-03 
2168	 1.19192974458402E-02 
2169	 0.012306778093513 
2170	 1.22422045817381E-02 
2171	 1.16806125852645E-02 
2172	 9.86771326091762E-03 
2173	 8.95429823633631E-03 
2174	 8.99995147806583E-03 
2175	 9.59310370431761E-03 
2176	 9.42295171974245E-03 
2177	 9.31550918279652E-03 
2178	 9.53117892197652E-03 
2179	 8.78178903782965E-03 
2180	 8.66960849029632E-03 
2181	 7.15068930013301E-03 
2182	 4.6573734610083E-03 
2183	 4.68675082532209E-03 
2184	 3.35893335819732E-03 
2185	 3.08394352944905E-03 
2186	 3.8785839695342E-03 
2187	 5.30683438460459E-03 
2188	 5.60851634495825E-03 
2189	 6.97452421985485E-03 
2190	 7.64729432265071E-03 
2191	 6.23649184504919E-03 
2192	 7.55076883364427E-03 
2193	 0.011867670251563 
2194	 1.33534153966406E-02 
2195	 1.48451363137124E-02 
2196	 1.48632648871426E-02 
2197	 1.16171600500822E-02 
2198	 1.02605458066072E-02 
2199	 9.36658231003189E-03 
2200	 9.03275315463027E-03 
2201	 7.2387834299541E-03 
2202	 5.81773036978881E-03 
2203	 4.8540376137384E-03 
2204	 4.93462152617723E-03 
2205	 6.97062323647337E-03 
2206	 7.3421279318864E-03 
2207	 8.79361005132356E-03 
2208	 9.28963600415121E-03 
2209	 5.80359132358224E-03 
2210	 4.49675047766129E-03 
2211	 4.41784449532487E-03 
2212	 2.78602802937179E-03 
2213	 3.80605797048361E-03 
2214	 6.73328475185382E-03 
2215	 9.87648190124471E-03 
2216	 1.20556032820858E-02 
2217	 1.18085245973377E-02 
2218	 1.03770712636307E-02 
2219	 9.79526639765324E-03 
2220	 4.84093015813557E-03 
2221	 4.74219308195989E-03 
2222	 9.83938102817256E-03 
2223	 1.09615737899481E-02 
2224	 1.28755452237251E-02 
2225	 1.30297680851171E-02 
2226	 8.99609592845443E-03 
2227	 8.19704309333689E-03 
2228	 8.22991038952779E-03 
2229	 8.54231926611807E-03 
2230	 1.25043483662069E-02 
2231	 1.20623836514973E-02 
2232	 8.21851279429269E-03 
2233	 5.82084344106215E-03 
2234	 1.59798449808381E-03 
2235	-1.7708780716157E-03 
2236	-1.74823931557267E-03 
2237	-3.81731415920239E-04 
2238	 1.13953581732433E-03 
2239	 3.01969151873903E-03 
2240	 2.93771723366513E-03 
2241	 4.42902775149948E-03 
2242	 7.21737831058673E-03 
2243	 0.008478218657285 
2244	 0.010667940604423 
2245	 1.10205443558688E-02 
2246	 9.60150180687344E-03 
2247	 6.80981015733062E-03 
2248	 3.35600169108312E-03 
2249	 2.18090277337499E-03 
2250	 1.30947603971899E-03 
2251	 3.78070309436701E-03 
2252	 9.47113346972991E-03 
2253	 1.23930754969395E-02 
2254	 1.22866643688761E-02 
2255	 1.06629013085198E-02 
2256	 8.48688998854365E-03 
2257	 7.8078198354114E-03 
2258	 7.32385411150592E-03 
2259	 7.90851641182219E-03 
2260	 8.04336949244903E-03 
2261	 5.43536552955967E-03 
2262	 7.03063403334929E-03 
2263	 0.013523585520609 
2264	 1.56642560969031E-02 
2265	 1.89619907593463E-02 
2266	 1.83568885543515E-02 
2267	 1.17511763422055E-02 
2268	 8.22809491623763E-03 
2269	 4.94320338388061E-03 
2270	 2.89954110757306E-03 
2271	 1.24909737345697E-03 
2272	 6.4531806021282E-04 
2273	 4.11248252755663E-04 
2274	 1.87183740228231E-03 
2275	 6.08190955585761E-03 
2276	 9.37327316471781E-03 
2277	 1.48262202658206E-02 
2278	 1.62778735929736E-02 
2279	 1.42184839363844E-02 
2280	 1.38571122745733E-02 
2281	 1.17881473974522E-02 
2282	 1.15217009056568E-02 
2283	 1.32347134838786E-02 
2284	 1.46671462038145E-02 
2285	 1.30802699036674E-02 
2286	 1.03918852674297E-02 
2287	 8.18482851609956E-03 
2288	 9.10630068368069E-03 
2289	 1.10158015929079E-02 
2290	 1.07009280955268E-02 
2291	 9.42640683973993E-03 
2292	 5.53579751299271E-03 
2293	 4.11957960020403E-03 
2294	 3.00509340426194E-03 
2295	-7.0352736427678E-04 
2296	 1.68174787342964E-03 
2297	 4.81306081584547E-03 
2298	 6.24917499535679E-03 
2299	 7.65182964564197E-03 
2300	 1.44334439244995E-03 
2301	-4.3114250281519E-03 
2302	-5.50273446491425E-03 
2303	-5.38497528121755E-03 
2304	 2.16130362310777E-04 
2305	 0.002633609174034 
2306	 3.53071591295897E-04 
2307	-3.98139057956507E-03 
2308	-6.01409893862943E-03 
2309	-3.84426840510633E-03 
2310	-7.06145658123641E-03 
2311	-5.96616327431192E-03 
2312	-5.01009114898619E-03 
2313	-7.14154714518732E-03 
2314	-5.33921984590967E-04 
2315	 7.63505413732433E-04 
2316	-1.60576614171973E-03 
2317	 5.91271402740009E-03 
2318	 6.6349708212748E-03 
2319	 4.1061093640681E-03 
2320	 1.38316798367117E-02 
2321	 9.01471383240838E-03 
2322	-2.60018910003708E-03 
2323	 3.48738422913022E-04 
2324	 6.66981396286974E-04 
2325	-1.02020760365015E-03 
2326	 4.05613444354164E-03 
2327	 0.016287438527856 
2328	 2.29757266323132E-02 
2329	 2.54740105836823E-02 
2330	 2.33828539578926E-02 
2331	 6.16525293546102E-03 
2332	-5.40553666545704E-03 
2333	 3.65594616038524E-04 
2334	 7.40666287262836E-03 
2335	 7.88696113504397E-03 
2336	 8.06331112897998E-03 
2337	 3.33105407246612E-03 
2338	-4.45249657271145E-03 
2339	-5.26708259944462E-03 
2340	 2.05302705790713E-04 
2341	 6.43882372539186E-03 
2342	 2.80023346505972E-03 
2343	 7.20724237547944E-03 
2344	 1.59448249755578E-02 
2345	 1.26698232984152E-02 
2346	 2.22214395102266E-02 
2347	 0.029401355040995 
2348	 0.010647989205719 
2349	 4.0075627927169E-03 
2350	 6.69513668170347E-03 
2351	-8.40206850045432E-03 
2352	-4.34655503250393E-03 
2353	 0.014549600358661 
2354	 1.32420489128622E-02 
2355	 2.08520167018168E-02 
2356	 3.60679042777495E-02 
2357	 3.32731896421236E-02 
2358	 3.46754523758757E-02 
2359	 4.34054358200576E-02 
2360	 3.38490122846886E-02 
2361	 0.017950332886794 
2362	 0.014974036301968 
2363	 8.11313839312973E-03 
2364	 8.41974641328249E-03 
2365	 2.05222389817021E-02 
2366	 1.12094490159563E-02 
2367	 1.09084649404745E-02 
2368	 2.65726239487796E-02 
2369	 0.0242433385881 
2370	 2.58766673439272E-02 
2371	 5.34099792474617E-02 
2372	 7.88976238471522E-02 
2373	 8.30906148017786E-02 
2374	 0.100757770337197 
2375	 0.080733831683575 
2376	 2.88523392601492E-02 
2377	 2.20020530037128E-02 
2378	 1.00978262868348E-02 
2379	-1.01383649915829E-02 
2380	-4.96596746388346E-03 
2381	-3.3189405839863E-03 
2382	-2.05848286301337E-02 
2383	 1.36712517086172E-03 
2384	 7.56662131656444E-03 
2385	-6.10095610152283E-02 
2386	-6.60688315674691E-02 
2387	-0.063332937409735 
2388	-0.118018657388545 
2389	-8.93726181036488E-02 
2390	-5.82990861636567E-02 
2391	-0.090836685391993 
2392	-3.69610017289094E-02 
2393	 3.79217171525622E-02 
2394	 3.45809391424018E-02 
2395	 2.71083551616262E-02 
2396	 1.79908326512953E-02 
2397	-2.83180585522221E-02 
2398	-6.66303414507693E-02 
2399	-7.48689285127059E-02 
2400	-5.60541059071666E-02 
2401	-3.54700027805807E-02 
2402	 6.8071267269874E-03 
2403	 4.47181521236645E-02 
2404	-1.28134422477359E-03 
2405	-6.24145025615162E-02 
2406	-0.116634965799372 
2407	-0.122440093044547 
2408	-0.125683628228203 
2409	-0.123238558302113 
2410	-2.75453888345704E-02 
2411	 2.13417152738161E-02 
2412	 4.53583732251576E-02 
2413	 4.85811701914019E-02 
2414	 9.02646520569429E-03 
2415	-2.78597423709007E-02 
2416	-4.84931487690804E-02 
2417	 3.84951466300373E-02 
2418	 0.130590976867178 
2419	 0.190028554464049 
2420	 0.228733258846744 
2421	 0.150785904256099 
2422	 0.151942010421115 
2423	 0.103943360248095 
2424	 0.021964074190278 
2425	 3.87801462773287E-02 
2426	-0.14072658474563 
2427	-0.243437043465556 
2428	-0.123377951583983 
2429	-7.87419201994457E-02 
2430	-2.60034732716247E-02 
2431	 0.140755784914329 
2432	 0.161664845975778 
2433	 0.158495004297238 
2434	 0.20742343538921 
2435	 6.76771767502312E-02 
2436	 4.92280782355021E-02 
2437	 4.44243996932265E-02 
2438	 1.40277087039637E-03 
2439	 0.101902367984659 
2440	 0.149223707177652 
2441	 0.184548373803095 
2442	 0.297572244190455 
2443	 0.325228381601833 
2444	 0.232618927779237 
2445	 2.64521025695022E-02 
2446	-0.223464251744548 
2447	-0.365208845016632 
2448	-0.475935925355775 
2449	-0.510122527712286 
2450	-0.464556060656109 
2451	 4.65749545584057 
2452	 1.36246063003933 
2453	 0.772279055299837 
2454	 0.842210376606438 
2455	-0.127570953452919 
2456	-0.129833918420377 
2457	-9.55744751887373E-02 
2458	-0.295680824544005 
2459	 8.10916801258707E-02 
2460	 0.249884747969346 
2461	 0.325061812199294 
2462	 0.677087902107956 
2463	 0.156429014882809 
2464	-1.20797387318248 
2465	-1.60913137384571 
2466	-0.254443325930859 
2467	 0.384531298231071 
2468	 0.388667160072939 
2469	 0.300063673326376 
2470	 0.271784915992355 
2471	 2.09686023350699 
2472	-0.559437693807654 
2473	-1.64738230778456 
2474	-1.30304201611258 
2475	-16.1532230618696 
2476	-12.7881196660952 
2477	-0.589753023084636 
2478	-0.273982361170827 
2479	 0.159355597433861 
2480	 0.685486108611508 
2481	 44.3706588794257 
2482	-0.78589024047321 
2483	-0.197201642574577 
2484	 0.155927738783418 
2485	 0.934026273557481 
2486	 1.93725703766945 
2487	 4.82825070078079 
2488	-0.690613390707435 
2489	-1.55875719763874 
2490	-0.13323045468341 
2491	 0.889883421632259 
2492	 0.900992323744194 
2493	 2.02240931329768 
2494	 0.250317063204207 
2495	-0.662813984502735 
2496	-0.26623708016888 
2497	-0.220392135165997 
2498	-0.425416642054803 
2499	 0.131581138827787 
2500	 0.87062563599112 
