Wavelength	rt0726sus_algea00002.asd
350	 7.61896706427103E-02 
351	 7.64016008695904E-02 
352	 7.56522271110502E-02 
353	 7.55458114793415E-02 
354	 7.65942903972591E-02 
355	 7.62778798087551E-02 
356	 0.075535903281304 
357	 7.55244439864286E-02 
358	 7.66446593413374E-02 
359	 7.58586656622069E-02 
360	 7.55096006368089E-02 
361	 7.59400491786573E-02 
362	 7.60257748361604E-02 
363	 7.56085981431024E-02 
364	 7.57678448491053E-02 
365	 7.64133291602613E-02 
366	 7.54888420705499E-02 
367	 7.53432654620838E-02 
368	 7.55552809191718E-02 
369	 7.54141884032913E-02 
370	 7.60007044170557E-02 
371	 7.57711478223462E-02 
372	 0.075216185483997 
373	 7.57477856707306E-02 
374	 7.54571221602726E-02 
375	 7.53795222888315E-02 
376	 7.56782060688627E-02 
377	 7.49771718058866E-02 
378	 7.49723567429764E-02 
379	 7.52747337115101E-02 
380	 7.52590550731355E-02 
381	 7.51698376164294E-02 
382	 7.52623210861006E-02 
383	 7.54061542082128E-02 
384	 7.53272929779752E-02 
385	 7.51996054953527E-02 
386	 0.075322108311742 
387	 7.55520356939597E-02 
388	 0.075298842007116 
389	 7.51459143850925E-02 
390	 0.075290657857191 
391	 7.55466633498063E-02 
392	 7.49571340259547E-02 
393	 7.50356809598043E-02 
394	 7.54108657757291E-02 
395	 7.52185180667932E-02 
396	 7.49940931180659E-02 
397	 7.51364599161591E-02 
398	 0.075449941250329 
399	 7.53111270092073E-02 
400	 7.54793363328663E-02 
401	 0.07543490155013 
402	 7.50086781340262E-02 
403	 7.52463984832058E-02 
404	 7.54069033523076E-02 
405	 7.52822589713161E-02 
406	 7.49650385573375E-02 
407	 7.50206208179378E-02 
408	 7.51598024185936E-02 
409	 7.51864049465384E-02 
410	 7.50723788974058E-02 
411	 7.52035337373383E-02 
412	 7.52259283876974E-02 
413	 7.49859982526528E-02 
414	 7.51473048824527E-02 
415	 0.075119001562927 
416	 7.50563134509358E-02 
417	 7.53153014485603E-02 
418	 7.55425414551348E-02 
419	 7.55819712320224E-02 
420	 7.55014422629313E-02 
421	 0.075581486735379 
422	 7.58362422989504E-02 
423	 7.60620678565072E-02 
424	 7.61034172016814E-02 
425	 7.60313170420952E-02 
426	 7.62429062096621E-02 
427	 0.076560490706951 
428	 0.07660961445438 
429	 7.68791735936439E-02 
430	 0.077049637686379 
431	 7.70955998648919E-02 
432	 7.74098300593399E-02 
433	 7.75967499211956E-02 
434	 7.77497893563639E-02 
435	 7.79848933750295E-02 
436	 7.81574204031869E-02 
437	 7.83131742096714E-02 
438	 7.84594208710741E-02 
439	 7.86048870185726E-02 
440	 7.89760656880068E-02 
441	 0.0792379301357 
442	 7.92912826044634E-02 
443	 7.94641975658237E-02 
444	 0.079622123086071 
445	 7.98131106106376E-02 
446	 8.00671572319555E-02 
447	 0.080178250964665 
448	 8.02734985135641E-02 
449	 0.080383206700379 
450	 0.080462915469148 
451	 0.08050689074376 
452	 8.06681267159984E-02 
453	 8.09615064055162E-02 
454	 8.10929865310551E-02 
455	 0.08104747268986 
456	 8.10429103652309E-02 
457	 8.12818168271941E-02 
458	 8.13661405685712E-02 
459	 8.13840131771026E-02 
460	 8.13982395710058E-02 
461	 8.14204197072062E-02 
462	 8.14483116617732E-02 
463	 8.14855203208845E-02 
464	 8.15432868604236E-02 
465	 8.16662710183802E-02 
466	 8.16827406311842E-02 
467	 8.17152791151277E-02 
468	 8.19579781576323E-02 
469	 8.19596509793729E-02 
470	 8.19443793765088E-02 
471	 0.082055784935006 
472	 8.22455467675899E-02 
473	 8.23311226137075E-02 
474	 8.23713373890893E-02 
475	 8.24598320068131E-02 
476	 0.082549157236282 
477	 8.26748825180944E-02 
478	 8.28007046642436E-02 
479	 8.28568366523672E-02 
480	 8.29672494028581E-02 
481	 8.31482507046447E-02 
482	 8.33610132982658E-02 
483	 8.34812343400649E-02 
484	 8.36692869436315E-02 
485	 0.083889144235201 
486	 8.40528831373564E-02 
487	 0.084205461422538 
488	 8.44502992060777E-02 
489	 8.47434192188257E-02 
490	 8.49124990426507E-02 
491	 8.51681884135198E-02 
492	 8.54479110736619E-02 
493	 8.56982591052243E-02 
494	 8.60370571334019E-02 
495	 8.64760262639724E-02 
496	 8.68787069424305E-02 
497	 8.70843240218521E-02 
498	 8.74037222124324E-02 
499	 8.78151110518665E-02 
500	 8.82555529359491E-02 
501	 8.86570557895273E-02 
502	 8.91038452254244E-02 
503	 0.089571455688291 
504	 9.00130622547013E-02 
505	 9.04160607057719E-02 
506	 9.08458533612415E-02 
507	 9.12829607826765E-02 
508	 9.16564318013058E-02 
509	 9.22170799088171E-02 
510	 9.27693377603165E-02 
511	 9.31973712388307E-02 
512	 9.37438953745976E-02 
513	 9.43056955173675E-02 
514	 9.48154926451777E-02 
515	 9.52620390712492E-02 
516	 9.59717364115468E-02 
517	 9.66455692682527E-02 
518	 9.71827125755318E-02 
519	 9.77971800862953E-02 
520	 9.83378046177462E-02 
521	 0.098903094585825 
522	 9.95800804103169E-02 
523	 0.100220116349227 
524	 0.100820873806781 
525	 0.101398443349774 
526	 0.101990398435746 
527	 0.102681132796706 
528	 0.103341308007942 
529	 0.103926381322375 
530	 0.104627926952224 
531	 0.105277448210717 
532	 0.105929956112629 
533	 0.106675315301439 
534	 0.107303533740399 
535	 0.107983494338385 
536	 0.108754384531718 
537	 0.109480248400941 
538	 0.110167321720039 
539	 0.110872535034152 
540	 0.111626379758446 
541	 0.112312054419219 
542	 0.113089633853199 
543	 0.113854379625368 
544	 0.114388050315011 
545	 0.115113478129022 
546	 0.115859380354715 
547	 0.116506708013111 
548	 0.117190404826803 
549	 0.117868262321168 
550	 0.118511807843974 
551	 0.119119711755815 
552	 0.119815694200811 
553	 0.120496763414409 
554	 0.121137399271571 
555	 0.121807240370069 
556	 0.122376774192804 
557	 0.122936066453651 
558	 0.123559606493345 
559	 0.12411636077883 
560	 0.124631492546876 
561	 0.125151682407479 
562	 0.125731241540344 
563	 0.126312931155156 
564	 0.126846467791913 
565	 0.1273026172004 
566	 0.127680454629608 
567	 0.128110401485869 
568	 0.128528103950366 
569	 0.128820209788944 
570	 0.129057982117359 
571	 0.129366039536787 
572	 0.129730317315976 
573	 0.129988194854922 
574	 0.130176179353121 
575	 0.130416523523146 
576	 0.130743336329288 
577	 0.13083781736214 
578	 0.130967533495562 
579	 0.131169241526462 
580	 0.131339773616543 
581	 0.131521257442892 
582	 0.131741213941112 
583	 0.131961171914062 
584	 0.132011320174347 
585	 0.132140684983711 
586	 0.132356503415189 
587	 0.132572978610498 
588	 0.132722974365283 
589	 0.132805366875709 
590	 0.132835663938006 
591	 0.132846435539353 
592	 0.132935638243964 
593	 0.133078792990192 
594	 0.133186856385032 
595	 0.133063632650437 
596	 0.132989128861018 
597	 0.13294314541644 
598	 0.132757105478446 
599	 0.132613266308407 
600	 0.132557329013588 
601	 0.132560733352384 
602	 0.132497445848121 
603	 0.132481845588179 
604	 0.132470602572863 
605	 0.132410404912858 
606	 0.132477287485067 
607	 0.13243134101324 
608	 0.132306639118585 
609	 0.132419958179515 
610	 0.132351316750248 
611	 0.132242094453132 
612	 0.132221565977009 
613	 0.131997848881546 
614	 0.1319546725329 
615	 0.132026015908812 
616	 0.131920808476529 
617	 0.131840102646805 
618	 0.1317832173236 
619	 0.131753578834581 
620	 0.131803058455508 
621	 0.13181334600686 
622	 0.131771278427851 
623	 0.131710131752977 
624	 0.131678762562393 
625	 0.131746172208388 
626	 0.131837844727948 
627	 0.13175766359439 
628	 0.131712871621577 
629	 0.131683842070966 
630	 0.131637139673458 
631	 0.131625822878796 
632	 0.131623331265796 
633	 0.131552123349102 
634	 0.131348917994197 
635	 0.131241721818563 
636	 0.131216749258519 
637	 0.131181793387404 
638	 0.13096716687091 
639	 0.13086644803126 
640	 0.130783305932449 
641	 0.130599159226717 
642	 0.130606177334127 
643	 0.130548496471126 
644	 0.13037491255658 
645	 0.130212818219087 
646	 0.130112350561957 
647	 0.129980627324148 
648	 0.129758792320184 
649	 0.129516345414559 
650	 0.129352238115003 
651	 0.129219380438149 
652	 0.12902318076377 
653	 0.128762446358239 
654	 0.128503205346781 
655	 0.128204477334233 
656	 0.127722326458405 
657	 0.12720697237203 
658	 0.126703609536227 
659	 0.12618441030662 
660	 0.125542295786195 
661	 0.124902880595877 
662	 0.124272845316033 
663	 0.123613650139979 
664	 0.123109734396469 
665	 0.122626666427051 
666	 0.122080477472412 
667	 0.121552242585912 
668	 0.121221074754206 
669	 0.120966366336913 
670	 0.120648401745686 
671	 0.120593680470939 
672	 0.120553527219259 
673	 0.120513228554818 
674	 0.120691821745794 
675	 0.120998851603602 
676	 0.121313833927002 
677	 0.121573789613892 
678	 0.121836811100567 
679	 0.122391395822212 
680	 0.123094310986757 
681	 0.123682641492881 
682	 0.124630107990126 
683	 0.125670523178604 
684	 0.126706608300687 
685	 0.128066285773245 
686	 0.129658284850386 
687	 0.131186599065029 
688	 0.132380432867194 
689	 0.133588933131626 
690	 0.134949346601293 
691	 0.136356442687336 
692	 0.137597770212755 
693	 0.138948060636078 
694	 0.140070652824137 
695	 0.140811380621674 
696	 0.141484621810685 
697	 0.142352760317497 
698	 0.14328765515316 
699	 0.143986793373225 
700	 0.144415772646114 
701	 0.144898948008927 
702	 0.145412490338999 
703	 0.145677967438873 
704	 0.145919485833152 
705	 0.1461246177534 
706	 0.146262158179322 
707	 0.146359316398653 
708	 0.146413300523869 
709	 0.146317108237484 
710	 0.146002143955656 
711	 0.145820126116199 
712	 0.145573294461293 
713	 0.14521581074501 
714	 0.144893606803578 
715	 0.14491551177595 
716	 0.144928018738399 
717	 0.144512558348012 
718	 0.144119233396772 
719	 0.143102941244328 
720	 0.141908441268695 
721	 0.141007493861907 
722	 0.140442692582161 
723	 0.139842665480751 
724	 0.139021249291826 
725	 0.137927483885547 
726	 0.136752820696825 
727	 0.135536199291386 
728	 0.134205590898603 
729	 0.132453193986513 
730	 0.130519775478345 
731	 0.128599892403549 
732	 0.126774128762781 
733	 0.125355509661208 
734	 0.124204818488938 
735	 0.123221548531607 
736	 0.122357641243174 
737	 0.121741447310256 
738	 0.121260753580473 
739	 0.120821632850897 
740	 0.120527499673815 
741	 0.120325581706565 
742	 0.120203570126825 
743	 0.120166023315754 
744	 0.120205750589551 
745	 0.120252334406527 
746	 0.120278328903913 
747	 0.120321447032767 
748	 0.120359012727132 
749	 0.120415253446822 
750	 0.12050157108687 
751	 0.120544092927534 
752	 0.120674563131236 
753	 0.120789663862284 
754	 0.120717128978784 
755	 0.120853096168731 
756	 0.120937717236472 
757	 0.120972446662721 
758	 0.12156365170774 
759	 0.122839954772812 
760	 0.123996923876489 
761	 0.123522343212583 
762	 0.123452125721015 
763	 0.123131025827366 
764	 0.122704905984745 
765	 0.122466987351464 
766	 0.122443129214681 
767	 0.122475358581208 
768	 0.122534521769121 
769	 0.122696070203029 
770	 0.122965245012144 
771	 0.123203408713357 
772	 0.123343267992762 
773	 0.123581360015986 
774	 0.123879246619193 
775	 0.12414498742442 
776	 0.124308192381754 
777	 0.124568973271998 
778	 0.124893958264982 
779	 0.125238005508511 
780	 0.12556590155526 
781	 0.125879615649177 
782	 0.126226902847298 
783	 0.126611455172222 
784	 0.126906651414809 
785	 0.127362964942034 
786	 0.12788108911652 
787	 0.128275193405791 
788	 0.128658579813894 
789	 0.129075990261469 
790	 0.12952397534819 
791	 0.129949397408735 
792	 0.130127964159591 
793	 0.130416574452888 
794	 0.130949012890953 
795	 0.13136132816279 
796	 0.131725259484488 
797	 0.132130031337031 
798	 0.132599342060883 
799	 0.132847285220855 
800	 0.133012645699197 
801	 0.133210235138078 
802	 0.133498535680867 
803	 0.133643792071988 
804	 0.133763956175166 
805	 0.133889893487544 
806	 0.133925118682191 
807	 0.133849828385869 
808	 0.133870396278101 
809	 0.134045672033537 
810	 0.133925250406804 
811	 0.133916518052804 
812	 0.1339867358055 
813	 0.133920701157137 
814	 0.133662377139336 
815	 0.133323688486844 
816	 0.132849523150272 
817	 0.132127000977806 
818	 0.13183435871573 
819	 0.131332555627096 
820	 0.130427851835702 
821	 0.129635225346963 
822	 0.12839610040797 
823	 0.127068937410187 
824	 0.125959985738421 
825	 0.124570723663204 
826	 0.123059896686046 
827	 0.121256144409523 
828	 0.119136848784364 
829	 0.117441657294632 
830	 0.115726461631704 
831	 0.11408021224294 
832	 0.112974091055889 
833	 0.111645198779713 
834	 0.110561829163651 
835	 0.109906805082492 
836	 0.109327915717004 
837	 0.108814868363265 
838	 0.108197460176584 
839	 0.107488860519116 
840	 0.107241822770173 
841	 0.106873673015621 
842	 0.106423239590493 
843	 0.106079327708031 
844	 0.105541515400441 
845	 0.105203447982523 
846	 0.105046738955922 
847	 0.104773171324981 
848	 0.104494475623738 
849	 0.1040519886212 
850	 0.103596509548959 
851	 0.103628968404385 
852	 0.102980085973248 
853	 0.102467810280563 
854	 0.102596371501803 
855	 0.102299221063673 
856	 0.101925513271435 
857	 0.101638875005057 
858	 0.101473645607022 
859	 0.101159798949479 
860	 0.100978749282082 
861	 0.100770308055953 
862	 0.100267011753772 
863	 0.100033110949494 
864	 9.98068163373681E-02 
865	 9.95219001803397E-02 
866	 9.93149493666287E-02 
867	 9.89589924844234E-02 
868	 9.85705293616797E-02 
869	 9.82099090267278E-02 
870	 9.78068961404694E-02 
871	 0.097523037457933 
872	 9.72629278411324E-02 
873	 9.69217755485582E-02 
874	 9.65234411961174E-02 
875	 9.57642431277478E-02 
876	 9.51234531169975E-02 
877	 9.49885365298977E-02 
878	 9.45249318272101E-02 
879	 9.40383506762389E-02 
880	 9.35721595245043E-02 
881	 9.30471157424073E-02 
882	 0.092409645755664 
883	 9.20155096273629E-02 
884	 0.091671579068015 
885	 9.09265004705606E-02 
886	 9.10004253453363E-02 
887	 9.06010505970204E-02 
888	 8.96742286703926E-02 
889	 8.97348460048109E-02 
890	 0.08927374072746 
891	 8.89798264423485E-02 
892	 8.91335242164616E-02 
893	 8.85267799521112E-02 
894	 0.088146875983818 
895	 8.81596418070916E-02 
896	 8.82250968596493E-02 
897	 8.72827437041438E-02 
898	 8.65833843222693E-02 
899	 8.63123319785621E-02 
900	 8.61020515767796E-02 
901	 8.53801487170826E-02 
902	 8.48812365004466E-02 
903	 8.47190005520578E-02 
904	 8.46406027552455E-02 
905	 8.39498039343153E-02 
906	 8.34599535305533E-02 
907	 8.31729472698945E-02 
908	 8.25622830299358E-02 
909	 8.22098820788087E-02 
910	 8.20822960158145E-02 
911	 8.16218569071897E-02 
912	 8.01721036354245E-02 
913	 7.99199201220784E-02 
914	 7.94814922739758E-02 
915	 7.81540324308669E-02 
916	 7.66219466969277E-02 
917	 0.075449648321569 
918	 7.44496461323869E-02 
919	 7.35704356500127E-02 
920	 7.30916812007787E-02 
921	 7.28135932555802E-02 
922	 7.16564121262733E-02 
923	 6.95943600207389E-02 
924	 6.91479608148893E-02 
925	 6.82744989867632E-02 
926	 0.067092274009113 
927	 6.61754196695002E-02 
928	 6.52051824090339E-02 
929	 6.51949909603884E-02 
930	 6.61125300589373E-02 
931	 6.66120477837244E-02 
932	 6.26518308836314E-02 
933	 6.42791877583724E-02 
934	 6.73304307343472E-02 
935	 6.22209236783909E-02 
936	 5.52182891213666E-02 
937	 5.49749342561754E-02 
938	 5.88357715853318E-02 
939	 0.060609692437841 
940	 0.05493639688476 
941	 5.29334589964446E-02 
942	 5.46505950713016E-02 
943	 5.43697151246184E-02 
944	 5.00715184734561E-02 
945	 4.89130705191132E-02 
946	 5.12372800919855E-02 
947	 5.26690485834404E-02 
948	 5.19177478242615E-02 
949	 5.24615251747407E-02 
950	 5.15395367466644E-02 
951	 4.53401247150329E-02 
952	 4.87220814663949E-02 
953	 4.99850568942711E-02 
954	 4.79393001643164E-02 
955	 4.90307738828823E-02 
956	 4.95670884244595E-02 
957	 0.049819953444738 
958	 4.82843712591885E-02 
959	 4.38136369597093E-02 
960	 4.71365476902991E-02 
961	 4.88438891258035E-02 
962	 0.047042953047834 
963	 4.62818365955413E-02 
964	 4.66916689028532E-02 
965	 4.51504037729173E-02 
966	 4.33127239681842E-02 
967	 4.52576868787686E-02 
968	 4.54994187133059E-02 
969	 4.55197705144431E-02 
970	 4.53997039505806E-02 
971	 4.39119688675245E-02 
972	 4.38718444844123E-02 
973	 4.54165097860925E-02 
974	 4.66117094651958E-02 
975	 4.46413103760477E-02 
976	 4.32191509743684E-02 
977	 0.04306284581914 
978	 0.043975803788461 
979	 4.51092530376681E-02 
980	 4.46502484091796E-02 
981	 4.36851744349128E-02 
982	 4.31108539447363E-02 
983	 4.31041333748192E-02 
984	 4.21243412286361E-02 
985	 4.22508630959613E-02 
986	 4.35085227326173E-02 
987	 4.39466350508618E-02 
988	 4.14891328581265E-02 
989	 4.25935915051034E-02 
990	 4.56292254502247E-02 
991	 4.38412779777276E-02 
992	 0.043206216951357 
993	 0.04297871098464 
994	 4.26729559943275E-02 
995	 4.25837132109808E-02 
996	 4.45557856609136E-02 
997	 4.49838895095785E-02 
998	 4.34247683529355E-02 
999	 4.20009288169216E-02 
1000	 0.042918135144172 
1001	 4.14995699587495E-02 
1002	 4.19422957394275E-02 
1003	 4.20907393937372E-02 
1004	 4.22375442850317E-02 
1005	 4.23038971363164E-02 
1006	 4.21167132605346E-02 
1007	 0.042076020728036 
1008	 4.21817052252563E-02 
1009	 4.19535476023794E-02 
1010	 4.20106436669928E-02 
1011	 4.24301383386528E-02 
1012	 4.27462363006574E-02 
1013	 4.33969514151001E-02 
1014	 4.36590259205642E-02 
1015	 4.37693766693654E-02 
1016	 4.38195066041261E-02 
1017	 4.35577656228365E-02 
1018	 4.34634348213774E-02 
1019	 0.043297037877236 
1020	 4.33948358634633E-02 
1021	 4.35123812904672E-02 
1022	 0.044127940222281 
1023	 4.42596829448181E-02 
1024	 4.42867745601276E-02 
1025	 0.044389489814007 
1026	 0.044197665371227 
1027	 4.44935978482332E-02 
1028	 4.53314598586889E-02 
1029	 4.56783269557519E-02 
1030	 0.045941839734464 
1031	 4.62701782309554E-02 
1032	 4.65632743263114E-02 
1033	 0.046761417429584 
1034	 4.69203503164478E-02 
1035	 4.70730517400997E-02 
1036	 4.67431218088326E-02 
1037	 4.70587804276545E-02 
1038	 4.79648711516414E-02 
1039	 0.048656340175067 
1040	 4.93203593361976E-02 
1041	 4.97617675605346E-02 
1042	 4.98922172143418E-02 
1043	 4.93182603201483E-02 
1044	 4.93776740262093E-02 
1045	 4.94798762099828E-02 
1046	 4.97886512303329E-02 
1047	 5.03847943227522E-02 
1048	 0.050888689821849 
1049	 5.17441362353411E-02 
1050	 5.20669785463773E-02 
1051	 5.20051224243193E-02 
1052	 5.21594895581898E-02 
1053	 5.20360198966144E-02 
1054	 5.20938944697699E-02 
1055	 5.22225232317764E-02 
1056	 5.25939668349082E-02 
1057	 5.31122834702595E-02 
1058	 5.38142285670411E-02 
1059	 5.42971151459859E-02 
1060	 5.50867372939589E-02 
1061	 0.055391175583119 
1062	 5.54397951338658E-02 
1063	 5.52359865681501E-02 
1064	 5.43022068669967E-02 
1065	 5.43045242457056E-02 
1066	 5.44378520904924E-02 
1067	 5.47123340720275E-02 
1068	 5.63141683695854E-02 
1069	 5.66471519460627E-02 
1070	 5.58314446908844E-02 
1071	 5.56445235644738E-02 
1072	 0.055032710462371 
1073	 5.48667274644333E-02 
1074	 5.47932372917238E-02 
1075	 5.54029740903158E-02 
1076	 0.05537756224651 
1077	 5.50085104782766E-02 
1078	 0.054872880045095 
1079	 5.46988335127507E-02 
1080	 5.45931419015878E-02 
1081	 5.47965077458019E-02 
1082	 5.45368501385619E-02 
1083	 5.36729552264927E-02 
1084	 5.35136996474747E-02 
1085	 5.38206253837511E-02 
1086	 0.053553253771173 
1087	 5.34089195549424E-02 
1088	 5.32437830336182E-02 
1089	 5.23471933953608E-02 
1090	 5.16850610863357E-02 
1091	 5.15591940585157E-02 
1092	 5.22317871715531E-02 
1093	 5.20473322936628E-02 
1094	 5.16800198109086E-02 
1095	 5.14355446624106E-02 
1096	 5.07989562524139E-02 
1097	 5.05417698459518E-02 
1098	 5.06195334257174E-02 
1099	 5.07030812295344E-02 
1100	 5.10726026694956E-02 
1101	 5.09363613536886E-02 
1102	 5.09481420806182E-02 
1103	 5.05611569915711E-02 
1104	 4.93037035118724E-02 
1105	 0.047903101453451 
1106	 4.86156559615535E-02 
1107	 4.88641963418615E-02 
1108	 0.048422495302418 
1109	 4.94579521154132E-02 
1110	 4.96588547077532E-02 
1111	 4.79304773819839E-02 
1112	 4.80264797537254E-02 
1113	 5.04388226011429E-02 
1114	 0.051262071379943 
1115	 5.17859400720524E-02 
1116	 5.18224252482161E-02 
1117	 5.00647777355772E-02 
1118	 4.94791809427579E-02 
1119	 0.04871586914786 
1120	 4.89089208322439E-02 
1121	 5.34215983478153E-02 
1122	 5.27483045276005E-02 
1123	 4.74845679556504E-02 
1124	 5.12605380025851E-02 
1125	 5.42328451226402E-02 
1126	 4.90614201244052E-02 
1127	 5.02254657512019E-02 
1128	 5.00717233515834E-02 
1129	 0.048882499094845 
1130	 4.77231651777723E-02 
1131	 4.73941194654023E-02 
1132	 4.58744824697417E-02 
1133	 4.47870393598939E-02 
1134	 4.35199469051717E-02 
1135	 4.31707543631948E-02 
1136	 4.43931670527123E-02 
1137	 0.044553369677648 
1138	 4.48583034564816E-02 
1139	 4.36977085202565E-02 
1140	 4.43875178544074E-02 
1141	 4.44795669767964E-02 
1142	 4.37668588318496E-02 
1143	 4.55651429673924E-02 
1144	 4.71975510984764E-02 
1145	 4.56873054332676E-02 
1146	 4.41664596611978E-02 
1147	 0.044759624760441 
1148	 4.31405450852507E-02 
1149	 4.16883685658003E-02 
1150	 4.21794378281456E-02 
1151	 4.55491950725198E-02 
1152	 4.45959858542012E-02 
1153	 4.20264941232132E-02 
1154	 0.041792695005139 
1155	 4.11974737373458E-02 
1156	 0.040660575946147 
1157	 4.18096306083361E-02 
1158	 4.26695296658208E-02 
1159	 4.21214741693826E-02 
1160	 0.041409270496252 
1161	 4.05444827433672E-02 
1162	 3.98157084278708E-02 
1163	 3.94148059278072E-02 
1164	 0.039471615425197 
1165	 3.99865372646968E-02 
1166	 3.97271878712504E-02 
1167	 3.90257033193075E-02 
1168	 3.89139195943493E-02 
1169	 3.84871657110194E-02 
1170	 3.83861148084783E-02 
1171	 3.85539406336974E-02 
1172	 3.93578412452658E-02 
1173	 0.039177110325515 
1174	 3.85474510482326E-02 
1175	 3.84968949679243E-02 
1176	 3.82877560491096E-02 
1177	 3.83023584220488E-02 
1178	 3.88995826935425E-02 
1179	 3.89734182142207E-02 
1180	 3.86050332562066E-02 
1181	 0.038448458105538 
1182	 3.83251469634155E-02 
1183	 3.83966903334174E-02 
1184	 0.038396345829946 
1185	 3.81632515258986E-02 
1186	 0.03809553221834 
1187	 3.82230072741342E-02 
1188	 3.85387257013507E-02 
1189	 3.85919918465298E-02 
1190	 3.83557269635669E-02 
1191	 3.82282801493488E-02 
1192	 3.81314199207579E-02 
1193	 0.037931946251906 
1194	 3.81180885871275E-02 
1195	 3.84136973389096E-02 
1196	 3.81903442569831E-02 
1197	 3.79135675410243E-02 
1198	 3.78737005343692E-02 
1199	 3.80473533690284E-02 
1200	 3.81704461904303E-02 
1201	 3.79528997914698E-02 
1202	 3.76221424720659E-02 
1203	 3.74396311068444E-02 
1204	 3.77022434845706E-02 
1205	 3.80759774183464E-02 
1206	 3.81047760893467E-02 
1207	 3.80424319160255E-02 
1208	 3.79452595390541E-02 
1209	 3.79736315147103E-02 
1210	 3.81982447550787E-02 
1211	 3.80921852618838E-02 
1212	 3.77915961761481E-02 
1213	 3.76599767300825E-02 
1214	 3.75296904130101E-02 
1215	 3.75242113213093E-02 
1216	 3.76616854578037E-02 
1217	 3.74878153841081E-02 
1218	 3.70776298035329E-02 
1219	 3.73422614579504E-02 
1220	 3.78671738433341E-02 
1221	 3.79770701638587E-02 
1222	 3.81590631413666E-02 
1223	 3.82011839406008E-02 
1224	 3.76592364882779E-02 
1225	 3.74497406113652E-02 
1226	 3.77473729696584E-02 
1227	 3.77331678056038E-02 
1228	 3.76470095989539E-02 
1229	 3.76340919597318E-02 
1230	 3.73783000697725E-02 
1231	 3.71551518087251E-02 
1232	 3.70191502272227E-02 
1233	 3.70987277578809E-02 
1234	 3.74355948583743E-02 
1235	 3.75350642574739E-02 
1236	 3.76057601551922E-02 
1237	 3.76259835119531E-02 
1238	 0.037530148486066 
1239	 3.72804400119803E-02 
1240	 3.73444996418956E-02 
1241	 3.75408574728502E-02 
1242	 3.76088690231426E-02 
1243	 3.76475379813509E-02 
1244	 3.75718118968477E-02 
1245	 3.74401216649775E-02 
1246	 3.73697768134602E-02 
1247	 3.73386182351926E-02 
1248	 3.75650885991722E-02 
1249	 3.78922654438201E-02 
1250	 3.77221539866222E-02 
1251	 3.74819917221951E-02 
1252	 3.77151407325116E-02 
1253	 3.79256632985523E-02 
1254	 3.79229292352655E-02 
1255	 0.037937522940095 
1256	 3.79763091167705E-02 
1257	 3.74674286560646E-02 
1258	 3.73488753915027E-02 
1259	 3.77489234916488E-02 
1260	 3.78696771129476E-02 
1261	 3.78754389583056E-02 
1262	 3.78517440936046E-02 
1263	 3.76777815981839E-02 
1264	 3.77781632911812E-02 
1265	 3.80506931279707E-02 
1266	 0.037891956779181 
1267	 3.79247503369173E-02 
1268	 3.82764853379119E-02 
1269	 3.80046541958302E-02 
1270	 3.78054384083667E-02 
1271	 3.83049289487542E-02 
1272	 3.84581971234803E-02 
1273	 3.81574872416826E-02 
1274	 3.77295503597397E-02 
1275	 3.73454413353144E-02 
1276	 3.73876078196466E-02 
1277	 3.76216279434564E-02 
1278	 3.79492129712132E-02 
1279	 0.038121970486698 
1280	 3.75974341851137E-02 
1281	 3.74429173365238E-02 
1282	 3.76992655141403E-02 
1283	 0.037756779475678 
1284	 3.74613532044699E-02 
1285	 3.73946788894976E-02 
1286	 3.76239688737431E-02 
1287	 3.76065010266727E-02 
1288	 3.74317121457111E-02 
1289	 3.75273999518587E-02 
1290	 3.77983386699181E-02 
1291	 3.76058852348848E-02 
1292	 0.037621506932653 
1293	 3.80873702571542E-02 
1294	 3.82834600362453E-02 
1295	 3.80904249188549E-02 
1296	 3.76915674291742E-02 
1297	 3.75229373991877E-02 
1298	 3.79690856435398E-02 
1299	 3.79614784480369E-02 
1300	 3.75437619031696E-02 
1301	 3.76837616063143E-02 
1302	 3.77810461317399E-02 
1303	 3.76194156658594E-02 
1304	 3.82884742242553E-02 
1305	 3.88864921220769E-02 
1306	 3.86838545485352E-02 
1307	 3.73370395460836E-02 
1308	 3.72833145406774E-02 
1309	 3.74007100750578E-02 
1310	 0.037298729440174 
1311	 3.79069478488553E-02 
1312	 3.82290567475999E-02 
1313	 3.80902155309386E-02 
1314	 0.037814895862234 
1315	 3.77828467423655E-02 
1316	 3.76650649666151E-02 
1317	 3.63679055156524E-02 
1318	 3.62323241295517E-02 
1319	 3.76724340295345E-02 
1320	 3.79571711985552E-02 
1321	 3.77271645153954E-02 
1322	 0.038193007700802 
1323	 3.86943779709128E-02 
1324	 3.83079644472203E-02 
1325	 3.78724675498994E-02 
1326	 3.81829223504065E-02 
1327	 3.85219776985047E-02 
1328	 3.85220871561328E-02 
1329	 3.96860624800019E-02 
1330	 4.05591284480396E-02 
1331	 3.95612326430264E-02 
1332	 3.88680601087642E-02 
1333	 0.038120907522408 
1334	 3.75273059551872E-02 
1335	 3.77821532109571E-02 
1336	 3.97196357525712E-02 
1337	 3.97509225107708E-02 
1338	 3.88097699529873E-02 
1339	 3.92987253326577E-02 
1340	 0.040232324862909 
1341	 3.99057475185211E-02 
1342	 3.96584600797194E-02 
1343	 4.00426485326409E-02 
1344	 3.91964183082674E-02 
1345	 3.80000512465232E-02 
1346	 3.83173588556885E-02 
1347	 0.038508004019967 
1348	 3.46447192404683E-02 
1349	 3.27125855075831E-02 
1350	 3.84644060396698E-02 
1351	 0.041897055827495 
1352	 4.04047118990875E-02 
1353	 3.94130076721328E-02 
1354	 2.55304698073714E-02 
1355	 4.29298521316959E-02 
1356	 3.90931041459039E-02 
1357	 8.17247810025804E-02 
1358	 0.118535336805556 
1359	 1.25582338240839E-02 
1360	 1.48258075307765E-02 
1361	 0.184367345029187 
1362	 0.226447394957688 
1363	 0.232384982528613 
1364	 0.150376390459871 
1365	 0.204972285097802 
1366	 0.428450658415727 
1367	 0.578340453920712 
1368	 0.683623062233118 
1369	 0.182348757624302 
1370	 8.19862914532192E-02 
1371	 6.28592874431504E-02 
1372	 6.60242212414154E-02 
1373	-3.24660243433726E-02 
1374	-2.13251667223854E-02 
1375	 0.257020406985787 
1376	 0.263683394542808 
1377	-0.1501679752931 
1378	-6.80490507323916E-02 
1379	 0.57021118459398 
1380	 0.429077762776584 
1381	 5.01492452123616E-02 
1382	 0.183286559850741 
1383	-7.17187837026202E-03 
1384	-8.93642608389693E-02 
1385	 0.489604127752456 
1386	 0.701698248814191 
1387	 0.578132006134642 
1388	 0.499838335792213 
1389	 0.38377681190086 
1390	 0.352500959474345 
1391	 5.57947977432195E-02 
1392	 0.136436447997061 
1393	 0.621034890472383 
1394	 1.45604750912659 
1395	 2.20571821265086 
1396	 1.32511265700691 
1397	 0.49314953992223 
1398	 0.263777344395314 
1399	 0.199380357695164 
1400	 0.357338386435156 
1401	 0.225579008754677 
1402	 3.53189377407742E-02 
1403	 0.292051448213991 
1404	 0.580245635542097 
1405	 0.432444541409839 
1406	-0.151517244276827 
1407	 8.44824956910963E-02 
1408	 0.266596172293278 
1409	 0.195970003396707 
1410	 0.271626063493757 
1411	 0.223584796534436 
1412	-0.139477381773097 
1413	-0.115870052199684 
1414	 0.148785121788319 
1415	 0.137766540236665 
1416	 9.07971254705725E-02 
1417	 0.0777115525794 
1418	-2.00558326210178E-02 
1419	-2.61076430683658E-02 
1420	 3.24881409654496E-02 
1421	 4.06314824935372E-02 
1422	 4.82790143924044E-02 
1423	 4.80633302691768E-02 
1424	 2.98462403385496E-02 
1425	 3.11583794646681E-02 
1426	 4.47239639186567E-02 
1427	 0.039744512734715 
1428	 2.88849942397853E-02 
1429	 2.91881288068452E-02 
1430	 2.92490901838732E-02 
1431	 2.41432240755189E-02 
1432	 1.55845014191749E-02 
1433	 2.09951596742349E-02 
1434	 3.36929493480474E-02 
1435	 3.67365486620781E-02 
1436	 4.31344648389292E-02 
1437	 5.69877232989171E-02 
1438	 5.77110619401046E-02 
1439	 4.84562578754078E-02 
1440	 4.50091069338224E-02 
1441	 0.048859085530861 
1442	 5.14925369469343E-02 
1443	 0.044483883969711 
1444	 4.28036179926853E-02 
1445	 4.33503708809981E-02 
1446	 4.03688036814792E-02 
1447	 3.75204222456132E-02 
1448	 3.16986789122997E-02 
1449	 0.029559390179697 
1450	 0.032917637112812 
1451	 3.36861707054084E-02 
1452	 3.11255472281824E-02 
1453	 3.14520959770043E-02 
1454	 3.35409178155298E-02 
1455	 3.45198389218217E-02 
1456	 3.26838276991661E-02 
1457	 3.18272598667578E-02 
1458	 3.39895205836006E-02 
1459	 3.49111887461741E-02 
1460	 3.37326412957457E-02 
1461	 0.035598534611342 
1462	 3.62415177491437E-02 
1463	 0.031244731534488 
1464	 2.95595720186155E-02 
1465	 3.27476182547378E-02 
1466	 3.50086199954742E-02 
1467	 3.62832194495914E-02 
1468	 0.034292627804465 
1469	 3.21958722917506E-02 
1470	 3.26657361333416E-02 
1471	 2.98068982973032E-02 
1472	 2.76210757318984E-02 
1473	 2.99706698256341E-02 
1474	 3.07587809858821E-02 
1475	 2.76370559717538E-02 
1476	 2.71476274737374E-02 
1477	 3.06669689521267E-02 
1478	 3.10553892565159E-02 
1479	 2.95849347339789E-02 
1480	 2.89178097942447E-02 
1481	 2.73378584066884E-02 
1482	 2.70737810806703E-02 
1483	 2.76435683159245E-02 
1484	 2.75899792065758E-02 
1485	 2.85040036068435E-02 
1486	 0.028640386906389 
1487	 2.73615859473892E-02 
1488	 2.71255899636736E-02 
1489	 2.72963600436643E-02 
1490	 2.76023376197714E-02 
1491	 2.85366456765677E-02 
1492	 0.028489186126852 
1493	 2.79296225821188E-02 
1494	 2.79825940980847E-02 
1495	 2.82601551534938E-02 
1496	 2.78626836270239E-02 
1497	 2.69793167448674E-02 
1498	 2.69352557856029E-02 
1499	 2.69626336573703E-02 
1500	 2.68433267912873E-02 
1501	 2.75169774594192E-02 
1502	 2.77843898408003E-02 
1503	 2.71494376313449E-02 
1504	 2.70202386700367E-02 
1505	 2.75796723017361E-02 
1506	 2.74682325705293E-02 
1507	 2.71977627223389E-02 
1508	 2.70810398772825E-02 
1509	 2.72635804919293E-02 
1510	 2.73702827313432E-02 
1511	 2.65174521354179E-02 
1512	 0.026567510458777 
1513	 2.75348747225674E-02 
1514	 2.76174705508139E-02 
1515	 2.78711411416671E-02 
1516	 2.83391945460449E-02 
1517	 2.78016068562014E-02 
1518	 0.027077419235889 
1519	 2.68317593146336E-02 
1520	 0.027064135250987 
1521	 2.71681792236731E-02 
1522	 2.69198189825341E-02 
1523	 2.71681250313204E-02 
1524	 2.76327412395414E-02 
1525	 2.78670854173269E-02 
1526	 2.78292060808593E-02 
1527	 2.74277999188506E-02 
1528	 2.71353666730343E-02 
1529	 2.69802173054059E-02 
1530	 2.69579728214362E-02 
1531	 2.74125735595419E-02 
1532	 2.75841998495479E-02 
1533	 2.74890493034577E-02 
1534	 2.78604278727575E-02 
1535	 2.76931180422647E-02 
1536	 2.74336808960011E-02 
1537	 0.027829131617086 
1538	 2.76336182170301E-02 
1539	 2.74938779289021E-02 
1540	 2.77614836176872E-02 
1541	 2.78764882593098E-02 
1542	 2.79822466823861E-02 
1543	 2.74553464289126E-02 
1544	 0.027355455693268 
1545	 2.81975223340632E-02 
1546	 2.83407690167648E-02 
1547	 2.84184181398763E-02 
1548	 2.91039800561412E-02 
1549	 2.90327874934823E-02 
1550	 2.84008184730443E-02 
1551	 2.82529262338489E-02 
1552	 2.85176051496113E-02 
1553	 2.86290422259761E-02 
1554	 2.84622179890185E-02 
1555	 2.89040024311191E-02 
1556	 2.93991309278633E-02 
1557	 2.89476514865578E-02 
1558	 2.88422503636101E-02 
1559	 2.91676015599517E-02 
1560	 2.89793792203777E-02 
1561	 2.89748283243735E-02 
1562	 2.92324670957408E-02 
1563	 2.93262036436063E-02 
1564	 2.92822316570269E-02 
1565	 2.94941801720976E-02 
1566	 3.00325935135789E-02 
1567	 3.00912903742598E-02 
1568	 2.99389324678354E-02 
1569	 2.99986645884304E-02 
1570	 3.00254523659509E-02 
1571	 3.03626650285751E-02 
1572	 3.08034339341583E-02 
1573	 3.07134992803354E-02 
1574	 3.06815492705855E-02 
1575	 3.06875844632585E-02 
1576	 3.02432473343329E-02 
1577	 3.01322077938864E-02 
1578	 3.05120570441614E-02 
1579	 3.04745814382472E-02 
1580	 3.03862551152733E-02 
1581	 3.10817029383794E-02 
1582	 3.12316081536389E-02 
1583	 3.06084652525918E-02 
1584	 0.030831694558425 
1585	 3.12298019198204E-02 
1586	 3.08246732758103E-02 
1587	 3.06947895572461E-02 
1588	 3.11214933781535E-02 
1589	 3.11140995951846E-02 
1590	 3.09122442700676E-02 
1591	 3.09473203162749E-02 
1592	 3.11320747840076E-02 
1593	 3.13009294305784E-02 
1594	 3.09913745941163E-02 
1595	 3.07851686360063E-02 
1596	 3.09947314115093E-02 
1597	 0.031095640040596 
1598	 3.10885249730584E-02 
1599	 3.11564026710488E-02 
1600	 3.12089649164657E-02 
1601	 3.11144687803593E-02 
1602	 3.13916229646432E-02 
1603	 3.18996444589469E-02 
1604	 3.16571545519184E-02 
1605	 3.11573714797843E-02 
1606	 3.12821037821532E-02 
1607	 3.18676409857997E-02 
1608	 0.032468558285936 
1609	 3.20080718290004E-02 
1610	 3.10825533819679E-02 
1611	 3.10328487271645E-02 
1612	 3.10951521336501E-02 
1613	 3.15916394343889E-02 
1614	 3.22194588251858E-02 
1615	 3.18170343598933E-02 
1616	 3.17178698049267E-02 
1617	 3.19714819798241E-02 
1618	 3.20244372485834E-02 
1619	 3.23774737841286E-02 
1620	 0.03232865205197 
1621	 3.22348876420805E-02 
1622	 3.26885588466825E-02 
1623	 3.28018260492253E-02 
1624	 3.24408835767568E-02 
1625	 0.032096828267011 
1626	 3.18946311706483E-02 
1627	 3.20586857504297E-02 
1628	 3.23067062549173E-02 
1629	 3.23226768601626E-02 
1630	 3.23853803735967E-02 
1631	 0.032274533055455 
1632	 3.20262371161721E-02 
1633	 3.18394020578054E-02 
1634	 3.18452721187531E-02 
1635	 3.23157130390102E-02 
1636	 3.27211155004858E-02 
1637	 3.25540551062607E-02 
1638	 3.24011708466546E-02 
1639	 3.24709583591327E-02 
1640	 3.23134531022135E-02 
1641	 3.22652849164265E-02 
1642	 0.032620955539798 
1643	 3.29328677378938E-02 
1644	 3.26497649577837E-02 
1645	 3.25778124020618E-02 
1646	 3.32780897004828E-02 
1647	 3.29280743945022E-02 
1648	 3.22033305536636E-02 
1649	 3.29862289721917E-02 
1650	 0.033267524744487 
1651	 3.27226201392891E-02 
1652	 3.30951238215389E-02 
1653	 3.32829765978982E-02 
1654	 3.31228142612671E-02 
1655	 3.32449729740596E-02 
1656	 0.033253051164577 
1657	 3.26526652321265E-02 
1658	 3.26136858014026E-02 
1659	 3.32771267184836E-02 
1660	 3.34514876597813E-02 
1661	 3.34352508362187E-02 
1662	 3.34259867687085E-02 
1663	 3.31348020623812E-02 
1664	 3.32159493153263E-02 
1665	 3.35178949116385E-02 
1666	 3.33315672806222E-02 
1667	 3.32423735887586E-02 
1668	 3.32198450556379E-02 
1669	 3.28621386988321E-02 
1670	 3.33174330273056E-02 
1671	 3.37433373379163E-02 
1672	 3.37951424785095E-02 
1673	 3.39775309675584E-02 
1674	 3.36560672682737E-02 
1675	 3.29518937330878E-02 
1676	 3.30858290248041E-02 
1677	 3.35280258194134E-02 
1678	 0.033304252478202 
1679	 3.30298447188602E-02 
1680	 0.032882628511962 
1681	 3.25690699196738E-02 
1682	 3.24276498510086E-02 
1683	 3.28123000589143E-02 
1684	 3.35384226361872E-02 
1685	 3.41717452493812E-02 
1686	 3.43338689254892E-02 
1687	 3.36873898760568E-02 
1688	 3.25665530780495E-02 
1689	 3.21188734666415E-02 
1690	 3.29371930210618E-02 
1691	 3.39479408870018E-02 
1692	 3.45506316622819E-02 
1693	 3.41956767692957E-02 
1694	 3.27781238715204E-02 
1695	 3.27528553167467E-02 
1696	 3.36558222005477E-02 
1697	 3.33802611198553E-02 
1698	 3.33860110811934E-02 
1699	 3.40676001704068E-02 
1700	 3.34614558105053E-02 
1701	 3.28301798684743E-02 
1702	 3.44835770355845E-02 
1703	 3.49230706982492E-02 
1704	 3.32834950711675E-02 
1705	 3.34581381770693E-02 
1706	 3.35922892788226E-02 
1707	 3.33640959296968E-02 
1708	 3.49482238809716E-02 
1709	 3.55706546320596E-02 
1710	 3.45950869832541E-02 
1711	 3.38831873797976E-02 
1712	 3.36070848088708E-02 
1713	 3.41716147711244E-02 
1714	 3.43404046569469E-02 
1715	 3.30536832650683E-02 
1716	 0.032760734658916 
1717	 3.40881860767736E-02 
1718	 3.38918027989714E-02 
1719	 3.41663605548097E-02 
1720	 3.48958234611265E-02 
1721	 3.31161683716197E-02 
1722	 3.22526321372111E-02 
1723	 3.31165801451865E-02 
1724	 3.33564411958551E-02 
1725	 3.43557711433095E-02 
1726	 3.48903756705013E-02 
1727	 3.36751563828516E-02 
1728	 3.32586875995291E-02 
1729	 3.34512253687652E-02 
1730	 3.36501904187605E-02 
1731	 3.44654991936531E-02 
1732	 3.40762874458572E-02 
1733	 3.31217782623115E-02 
1734	 3.42409884897815E-02 
1735	 3.47409145573564E-02 
1736	 3.36380200405414E-02 
1737	 3.43634996148547E-02 
1738	 0.034089233104346 
1739	 3.18963090447095E-02 
1740	 0.032644410225218 
1741	 0.033816855096594 
1742	 3.25991012919541E-02 
1743	 3.28982878613745E-02 
1744	 3.44420641210811E-02 
1745	 3.38327341558549E-02 
1746	 3.27803195330841E-02 
1747	 3.26755442134532E-02 
1748	 0.031436797581527 
1749	 3.15334879972938E-02 
1750	 3.40080250037099E-02 
1751	 3.43120518669242E-02 
1752	 3.32543050181795E-02 
1753	 3.35188590252941E-02 
1754	 3.41487332197905E-02 
1755	 3.39269857478836E-02 
1756	 3.35143978449705E-02 
1757	 3.48365008538585E-02 
1758	 3.48049356916892E-02 
1759	 3.42933234171729E-02 
1760	 3.55736778097395E-02 
1761	 3.49734760151725E-02 
1762	 3.29463299123417E-02 
1763	 3.34386510293624E-02 
1764	 0.034341207248155 
1765	 3.40799469363448E-02 
1766	 3.44596443449589E-02 
1767	 3.50739206377875E-02 
1768	 3.47216123464003E-02 
1769	 3.34652914953672E-02 
1770	 3.28062680220847E-02 
1771	 3.37188201744364E-02 
1772	 3.41758477700191E-02 
1773	 0.033609407959629 
1774	 3.44359470875887E-02 
1775	 3.53594619634644E-02 
1776	 3.49316391250361E-02 
1777	 3.51604140852704E-02 
1778	 0.03510302715447 
1779	 3.19948595448555E-02 
1780	 3.17511701215639E-02 
1781	 0.034842959221567 
1782	 3.49968014444777E-02 
1783	 3.40351943203868E-02 
1784	 3.48200101569847E-02 
1785	 3.57804237272553E-02 
1786	 0.036322712201902 
1787	 3.79921960248059E-02 
1788	 3.75676797930306E-02 
1789	 3.35103981799401E-02 
1790	 3.54170484076345E-02 
1791	 4.04460956139349E-02 
1792	 3.98466292834951E-02 
1793	 3.60473537574343E-02 
1794	 3.11545906833555E-02 
1795	 2.48108371122558E-02 
1796	 2.93576375326852E-02 
1797	 3.66421287981416E-02 
1798	 3.97496782240277E-02 
1799	 4.19459257979864E-02 
1800	 4.85863632490057E-02 
1801	 5.06009821438652E-02 
1802	 4.92745703733573E-02 
1803	 4.76297479474672E-02 
1804	 2.25016763394954E-02 
1805	 1.39982391065717E-02 
1806	 0.031597324452851 
1807	 3.01298999410667E-02 
1808	 4.19573717367896E-02 
1809	 5.70391269886546E-02 
1810	 4.17009526574146E-02 
1811	 6.30739714665994E-02 
1812	 0.152518899508124 
1813	 0.153418613588048 
1814	 9.05329000897191E-02 
1815	 1.63781195239687E-02 
1816	-0.156618123806464 
1817	 5.06542329489119E-02 
1818	 0.196107224364859 
1819	 0.470583955716056 
1820	 0.348193589491918 
1821	 0.416569600035174 
1822	 0.365185820689173 
1823	 0.690823676267323 
1824	 0.857586073662151 
1825	-0.745434556791571 
1826	-0.84288112296066 
1827	 0.235634586548648 
1828	 0.298684566181215 
1829	 0.473973190573581 
1830	 0.553468005350561 
1831	 1.06474807730423 
1832	 1.48537554548382 
1833	-1.13811549535057 
1834	-0.773875261978811 
1835	-2.95186253963533 
1836	-2.80063832586051 
1837	-1.67650084799449 
1838	-1.66552656345942 
1839	-1.65571172937465 
1840	-1.56702133957 
1841	-25.2857580364343 
1842	 1.20864580991114 
1843	 1.17893478382205 
1844	 4.20399938052271 
1845	 5.98758174955093 
1846	-6.33770780435607 
1847	-5.95528786679703 
1848	 41.7659542455605 
1849	 3.2432850281068 
1850	 1.30284087161787 
1851	 1.42554151858065 
1852	 2.55939611100074 
1853	 0.696365876727159 
1854	-9.17744880189219E-02 
1855	-0.216915510038344 
1856	-0.316075493905977 
1857	 4.68496819167682E-02 
1858	-0.125889740229967 
1859	-9.87131094816102 
1860	 2.26110379334429 
1861	-5.88785724710361 
1862	-5.17618655958269 
1863	-1.24863523598713 
1864	-0.533579508070059 
1865	-0.118583884541967 
1866	 0.769377194581803 
1867	 0.803214362091667 
1868	-0.645288415499122 
1869	 0.131133564766907 
1870	 0.606313551143059 
1871	 0.5458057789541 
1872	-4.70827654237731E-02 
1873	-0.235084514377878 
1874	 2.74573039482375 
1875	-1.32572119212131 
1876	-0.583942878715249 
1877	-1.83030308731349E-02 
1878	 0.150358168929836 
1879	 0.602234982103137 
1880	 0.862189825110244 
1881	 1.38465267786783 
1882	 0.977695120531843 
1883	 1.04557906681199 
1884	 1.23405019879335 
1885	 0.692118104621216 
1886	 0.602648909077683 
1887	 0.791545722977226 
1888	 0.517577361990462 
1889	 0.543564012745636 
1890	 1.06652691599566 
1891	 1.55125529719003 
1892	 2.09261266613181 
1893	 18.0300103690829 
1894	-1.87732783645457 
1895	-1.50316959494483 
1896	-1.2928567567551 
1897	-0.895827041929932 
1898	-0.187228243284324 
1899	 11.7984473509132 
1900	 6.76621890193264 
1901	-0.598048376620048 
1902	-0.525358118892474 
1903	-0.260862730568039 
1904	 0.125476632722071 
1905	 0.535351777725672 
1906	 0.796240576780768 
1907	 0.334888102690859 
1908	-1.06629053345134 
1909	 4.24985037778643 
1910	 6.32825206881378E-02 
1911	-5.92041586178221E-03 
1912	-1.19903605037005 
1913	-1.71454805387135 
1914	-1.39649985598565 
1915	-1.8338198159364 
1916	 39.4369715239216 
1917	 0.122180449674086 
1918	 0.189714540927196 
1919	-9.21200032860644 
1920	 47.8554993531695 
1921	 2.26780505982079 
1922	 0.688742305980141 
1923	-0.181727060325914 
1924	-0.228499457215018 
1925	 8.94115142821112E-02 
1926	 0.148901408092402 
1927	 0.525297713020054 
1928	 0.491242427650227 
1929	-0.842751477364974 
1930	-6.80502786018877E-02 
1931	 0.752043605079447 
1932	 0.751974298122905 
1933	 1.02191318401705 
1934	 1.17987321935416 
1935	 1.08724103535043 
1936	 0.807557518635938 
1937	 0.320805398098194 
1938	 5.73545318166273E-02 
1939	 1.35066863067526E-02 
1940	 7.38505098898597E-02 
1941	 0.176399744123905 
1942	 0.170222564041057 
1943	 9.84032384748032E-02 
1944	 2.78639264665044E-02 
1945	-1.53070311607153E-03 
1946	-1.28845269410523E-02 
1947	 0.021610539508525 
1948	-1.1062484538142E-03 
1949	-0.033592551007448 
1950	 2.82898128759981E-03 
1951	 3.79574415389863E-02 
1952	 7.20327849027814E-02 
1953	 0.132179814111517 
1954	 0.182274881770954 
1955	 0.202018856446349 
1956	 0.172323895752538 
1957	 9.19149889240822E-02 
1958	 3.98349296283292E-02 
1959	 1.47704514678678E-02 
1960	 1.00156893519004E-03 
1961	 1.36304015387477E-02 
1962	 2.99987458383031E-02 
1963	 2.50837057790491E-02 
1964	 2.13815483385361E-02 
1965	 2.43731155185354E-02 
1966	 2.50418568883502E-02 
1967	 2.34608646654369E-02 
1968	 2.43647099832011E-02 
1969	 2.27827627194071E-02 
1970	 2.16441904031935E-02 
1971	 2.51381161586594E-02 
1972	 2.71760174799975E-02 
1973	 2.76070602084637E-02 
1974	 2.79340009393204E-02 
1975	 2.46200202288832E-02 
1976	 2.18949732543959E-02 
1977	 2.00429456982004E-02 
1978	 1.76405420811261E-02 
1979	 1.77417427812901E-02 
1980	 1.95345667021369E-02 
1981	 1.84887919525321E-02 
1982	 1.90659391529752E-02 
1983	 2.26602122369716E-02 
1984	 2.10945146565427E-02 
1985	 2.08319882493775E-02 
1986	 2.17963222883796E-02 
1987	 1.73723105483147E-02 
1988	 1.65929852759755E-02 
1989	 1.81043893855726E-02 
1990	 0.017174000225745 
1991	 2.02926862178861E-02 
1992	 2.42343848795954E-02 
1993	 2.61967407633536E-02 
1994	 2.69138324140544E-02 
1995	 2.70854822118668E-02 
1996	 2.54520942647944E-02 
1997	 2.46500817459426E-02 
1998	 2.25952985405853E-02 
1999	 2.00834109437027E-02 
2000	 2.45093384532486E-02 
2001	 0.023900375409449 
2002	 1.45485559117183E-02 
2003	 9.5732744130696E-03 
2004	 4.06005035970361E-03 
2005	-7.10290006031246E-04 
2006	 3.08591389268629E-03 
2007	 1.08799919512614E-02 
2008	 1.72901309346986E-02 
2009	 2.10408828007865E-02 
2010	 2.26681815055201E-02 
2011	 2.24752382143442E-02 
2012	 1.74960672721781E-02 
2013	 2.17202977362048E-02 
2014	 1.78874016163713E-02 
2015	 1.98378006670282E-02 
2016	 3.28990606514524E-02 
2017	 3.40274819145694E-02 
2018	 3.49895109577895E-02 
2019	 3.34387451733278E-02 
2020	 2.78374107862272E-02 
2021	 2.56705794247104E-02 
2022	 2.11173287874279E-02 
2023	 1.95127262426235E-02 
2024	 1.93331907972602E-02 
2025	 1.86522850463743E-02 
2026	 1.78220287750183E-02 
2027	 1.77877857062681E-02 
2028	 2.02300957139615E-02 
2029	 2.09189263912263E-02 
2030	 2.01267958909906E-02 
2031	 2.03927253909891E-02 
2032	 2.07453888606064E-02 
2033	 1.98882473329428E-02 
2034	 2.13507545800936E-02 
2035	 2.32970873178372E-02 
2036	 2.24720310888618E-02 
2037	 2.13934492293135E-02 
2038	 2.00951737949053E-02 
2039	 0.019685258609715 
2040	 2.03672967718625E-02 
2041	 2.00247919598684E-02 
2042	 1.91903684044167E-02 
2043	 0.018403572240299 
2044	 1.63368175755978E-02 
2045	 1.58847770146706E-02 
2046	 1.63552535849793E-02 
2047	 1.83493857123328E-02 
2048	 1.98901669192642E-02 
2049	 1.86415359630248E-02 
2050	 1.79339262941695E-02 
2051	 1.89709721418779E-02 
2052	 0.019190923229117 
2053	 2.11649316656084E-02 
2054	 2.35420544699451E-02 
2055	 2.29582959402291E-02 
2056	 2.24761323182955E-02 
2057	 2.26647081945291E-02 
2058	 2.18226896455217E-02 
2059	 1.71258159506979E-02 
2060	 1.59719270899051E-02 
2061	 1.69024862427922E-02 
2062	 1.61968821441416E-02 
2063	 1.87888305361597E-02 
2064	 2.44267606816961E-02 
2065	 2.51852895048148E-02 
2066	 2.46171301692695E-02 
2067	 2.22673593297849E-02 
2068	 2.05458341635526E-02 
2069	 2.18612708189631E-02 
2070	 2.37716220967162E-02 
2071	 2.48252633200132E-02 
2072	 2.46113370685308E-02 
2073	 2.44612928730324E-02 
2074	 2.32824466343487E-02 
2075	 2.34534142283384E-02 
2076	 2.37967143888509E-02 
2077	 2.44928058425898E-02 
2078	 2.69247019396833E-02 
2079	 2.78129847527213E-02 
2080	 2.81258021644708E-02 
2081	 2.80278863854519E-02 
2082	 2.77827473458593E-02 
2083	 2.59617527816817E-02 
2084	 0.026654017370819 
2085	 2.74803029318558E-02 
2086	 2.68599817745576E-02 
2087	 2.81606914872207E-02 
2088	 2.70941926556644E-02 
2089	 2.53584954576499E-02 
2090	 2.60814682735763E-02 
2091	 2.48421865300103E-02 
2092	 2.36930780820579E-02 
2093	 2.20509502474282E-02 
2094	 2.17749368355532E-02 
2095	 2.15493311766118E-02 
2096	 2.16575173367846E-02 
2097	 2.29645895491312E-02 
2098	 2.39894868134241E-02 
2099	 0.025113195894389 
2100	 2.50953937935092E-02 
2101	 0.026861186413595 
2102	 2.80859488997862E-02 
2103	 2.76136743076028E-02 
2104	 2.81034629779186E-02 
2105	 2.60220896534789E-02 
2106	 2.30546855320041E-02 
2107	 2.34168294409162E-02 
2108	 2.21575446884081E-02 
2109	 2.15747980350385E-02 
2110	 2.38629819872062E-02 
2111	 2.25314448297008E-02 
2112	 2.20641542848935E-02 
2113	 0.022499932122741 
2114	 2.35862116619567E-02 
2115	 2.37749318787323E-02 
2116	 2.49976409536487E-02 
2117	 2.56645448475278E-02 
2118	 2.51009126154244E-02 
2119	 2.55554435144295E-02 
2120	 2.73235712958986E-02 
2121	 2.68948487041222E-02 
2122	 2.58175349399543E-02 
2123	 2.65438263725301E-02 
2124	 0.027198955302327 
2125	 2.63977476135224E-02 
2126	 2.56579303040675E-02 
2127	 2.58357453565012E-02 
2128	 2.53035411267934E-02 
2129	 0.025475003778906 
2130	 2.65383436449605E-02 
2131	 2.63927158636299E-02 
2132	 2.68801161909609E-02 
2133	 2.83866788822474E-02 
2134	 2.89831984991951E-02 
2135	 2.99816846809291E-02 
2136	 3.04806603590007E-02 
2137	 3.05727504392844E-02 
2138	 2.97695839546404E-02 
2139	 2.77929200358548E-02 
2140	 2.66537164091715E-02 
2141	 2.45577715434064E-02 
2142	 2.38310607589065E-02 
2143	 2.35580305215169E-02 
2144	 2.57496761342831E-02 
2145	 2.74550685792749E-02 
2146	 2.66858345299959E-02 
2147	 2.72248521206246E-02 
2148	 2.95286338824459E-02 
2149	 2.95830999989899E-02 
2150	 0.030256124506065 
2151	 3.05308263121349E-02 
2152	 2.86516545182726E-02 
2153	 2.80018781933684E-02 
2154	 2.84787538135803E-02 
2155	 2.97572942377945E-02 
2156	 3.00449180041686E-02 
2157	 2.93265787267137E-02 
2158	 2.77426126629996E-02 
2159	 0.027159144540746 
2160	 2.53275425363539E-02 
2161	 2.48632843275741E-02 
2162	 2.74567500756177E-02 
2163	 2.67753946765901E-02 
2164	 2.31045479414554E-02 
2165	 2.25305307200748E-02 
2166	 2.21051639125653E-02 
2167	 2.20744397655846E-02 
2168	 2.45002075350109E-02 
2169	 2.57512547262641E-02 
2170	 2.64751605166692E-02 
2171	 2.63237848069907E-02 
2172	 0.026166927193841 
2173	 2.73845605784412E-02 
2174	 2.94622945408416E-02 
2175	 2.95920646520003E-02 
2176	 0.028575328785065 
2177	 2.80745574615207E-02 
2178	 2.77370168990292E-02 
2179	 2.79073783070051E-02 
2180	 2.91307352692728E-02 
2181	 2.94694377374663E-02 
2182	 2.85122058215567E-02 
2183	 2.90235362226607E-02 
2184	 2.95057467747903E-02 
2185	 3.05201481539405E-02 
2186	 3.09972718910542E-02 
2187	 3.11461006646518E-02 
2188	 2.96003921254881E-02 
2189	 2.65643355512396E-02 
2190	 2.54546429131652E-02 
2191	 2.39697867473149E-02 
2192	 2.32595287425625E-02 
2193	 2.42321862898717E-02 
2194	 2.47553478006967E-02 
2195	 2.47575247579708E-02 
2196	 2.46783691306252E-02 
2197	 2.48468357497304E-02 
2198	 2.63491472883745E-02 
2199	 0.029741166792462 
2200	 2.95627742634006E-02 
2201	 2.90605869622917E-02 
2202	 0.028819995814515 
2203	 2.70374624422824E-02 
2204	 2.79630255249735E-02 
2205	 3.14219568337408E-02 
2206	 3.19905604331846E-02 
2207	 2.89232230773332E-02 
2208	 2.68114812979003E-02 
2209	 2.78270070210532E-02 
2210	 2.98482607060221E-02 
2211	 2.94350788536037E-02 
2212	 2.78573165796027E-02 
2213	 2.64632843795044E-02 
2214	 2.37932488639203E-02 
2215	 2.41903102692564E-02 
2216	 2.71995100830848E-02 
2217	 2.77725258377678E-02 
2218	 0.026975910754963 
2219	 2.71293348779556E-02 
2220	 2.63099468206672E-02 
2221	 2.68527146586218E-02 
2222	 2.82911500679186E-02 
2223	 2.99668108811769E-02 
2224	 0.033487363560167 
2225	 3.50746496561151E-02 
2226	 3.58988249726027E-02 
2227	 3.62608927360102E-02 
2228	 0.034175885491361 
2229	 3.46071337383872E-02 
2230	 3.79831679252277E-02 
2231	 3.84990397727508E-02 
2232	 0.038919094502235 
2233	 3.80808637477333E-02 
2234	 3.38516097501501E-02 
2235	 3.12638821432306E-02 
2236	 3.21687860942047E-02 
2237	 3.26692183440985E-02 
2238	 3.39871112894301E-02 
2239	 3.40117715696875E-02 
2240	 3.13749740343288E-02 
2241	 2.85835113999888E-02 
2242	 2.85316240913796E-02 
2243	 2.97729959801861E-02 
2244	 2.80575024420057E-02 
2245	 3.05652012521756E-02 
2246	 3.55574362911104E-02 
2247	 3.71398247365814E-02 
2248	 4.13887002288168E-02 
2249	 4.24165681568356E-02 
2250	 3.65691102433673E-02 
2251	 3.23378072769457E-02 
2252	 3.10891010206821E-02 
2253	 3.12371358571118E-02 
2254	 3.21820773429411E-02 
2255	 3.14541598655701E-02 
2256	 3.00105715560668E-02 
2257	 2.67034561588139E-02 
2258	 2.49357997530577E-02 
2259	 2.60922933961758E-02 
2260	 2.58580465881399E-02 
2261	 2.54889616831121E-02 
2262	 2.69271449879312E-02 
2263	 2.99559467578784E-02 
2264	 3.04295610864666E-02 
2265	 2.97344931057412E-02 
2266	 3.10444843191637E-02 
2267	 3.15046252507417E-02 
2268	 3.17809536523346E-02 
2269	 3.46802942833528E-02 
2270	 3.52510728514208E-02 
2271	 3.31018613574803E-02 
2272	 3.31800464361934E-02 
2273	 3.47218700218937E-02 
2274	 3.64780379883957E-02 
2275	 3.98858956883344E-02 
2276	 3.90597274368596E-02 
2277	 3.37792001204321E-02 
2278	 3.24282530794658E-02 
2279	 3.35889645701529E-02 
2280	 3.11148697794356E-02 
2281	 2.80923981959012E-02 
2282	 2.67334922792358E-02 
2283	 2.35211966033022E-02 
2284	 1.65949113927437E-02 
2285	 1.62382600789751E-02 
2286	 1.87060939378832E-02 
2287	 1.57525707428373E-02 
2288	 1.46617171408733E-02 
2289	 0.019767808196976 
2290	 2.36444167600073E-02 
2291	 2.32881692032517E-02 
2292	 2.51308927643058E-02 
2293	 2.54536134880432E-02 
2294	 2.31872856960214E-02 
2295	 2.57394082756764E-02 
2296	 2.51182971131338E-02 
2297	 2.27570326021077E-02 
2298	 2.38614047099756E-02 
2299	 0.021624370359956 
2300	 0.02246623651641 
2301	 2.36298104895729E-02 
2302	 0.015899379100882 
2303	 0.012506312347417 
2304	 1.60566400843329E-02 
2305	 1.52886247354066E-02 
2306	 1.17251934714445E-02 
2307	 1.23185951820135E-02 
2308	 1.51592320426602E-02 
2309	 1.23022213458559E-02 
2310	 1.23197910010987E-02 
2311	 2.05350145328099E-02 
2312	 2.23721491634378E-02 
2313	 2.53771579901266E-02 
2314	 3.27278197824214E-02 
2315	 0.032730087232252 
2316	 3.36852011993845E-02 
2317	 0.031901904099976 
2318	 2.80031931251403E-02 
2319	 3.14732309230178E-02 
2320	 2.87747116812379E-02 
2321	 2.04589997415083E-02 
2322	 2.31450752120703E-02 
2323	 0.026983273731637 
2324	 2.67393389408759E-02 
2325	 3.23588465949671E-02 
2326	 3.29306932466801E-02 
2327	 2.41545996677286E-02 
2328	 2.02719315064575E-02 
2329	 2.89143311715673E-02 
2330	 3.96209504194318E-02 
2331	 4.55005969747272E-02 
2332	 4.47417253993793E-02 
2333	 3.24541974199319E-02 
2334	 2.20450518011331E-02 
2335	 1.90096970463558E-02 
2336	 2.28086587399542E-02 
2337	 3.05901389982396E-02 
2338	 3.25909684515058E-02 
2339	 3.37252586962903E-02 
2340	 3.53008002492515E-02 
2341	 3.38487368141932E-02 
2342	 2.93270025663922E-02 
2343	 3.92201216467955E-02 
2344	 4.56494048960124E-02 
2345	 3.15590108235405E-02 
2346	 3.87894733249034E-02 
2347	 3.80605489969412E-02 
2348	 2.53471298051303E-02 
2349	 4.30406291866705E-02 
2350	 4.75542382613393E-02 
2351	 3.70159579505242E-02 
2352	 2.97166447081194E-02 
2353	 1.23524346743803E-02 
2354	 2.58118822779744E-03 
2355	 3.06270112095871E-03 
2356	-3.27336856305395E-04 
2357	 5.70215768290229E-04 
2358	 8.64927875515369E-03 
2359	 2.05099694724315E-02 
2360	 3.27288770202091E-02 
2361	 4.99474725469016E-02 
2362	 6.38627771343773E-02 
2363	 5.49754536874212E-02 
2364	 4.93143685843749E-02 
2365	 3.58185781032341E-02 
2366	 1.35029141346509E-02 
2367	 7.08698812411119E-03 
2368	-1.32144335683562E-03 
2369	 1.34251398199566E-02 
2370	 2.98702635337297E-02 
2371	 3.26388159482359E-02 
2372	 4.79062195366654E-02 
2373	 3.47114693335416E-02 
2374	-1.22832084528782E-03 
2375	-3.34382815639143E-04 
2376	 2.50417115542938E-02 
2377	 3.34536211457598E-02 
2378	 4.95857719219302E-02 
2379	 3.60568843927015E-02 
2380	 2.47718448395761E-03 
2381	-2.1902833020375E-05 
2382	-9.04478846950066E-03 
2383	 0.039523899875283 
2384	 5.14370570604491E-02 
2385	 1.70942044512484E-02 
2386	 3.93632598401417E-02 
2387	 2.89592147481868E-02 
2388	 3.38796516064021E-02 
2389	 5.02772374874443E-02 
2390	 2.92795491697308E-02 
2391	 3.68540492642056E-02 
2392	 2.73616914117886E-02 
2393	 1.48403520214736E-02 
2394	 7.08008728116406E-03 
2395	-8.93201847771714E-03 
2396	-3.44080682226462E-02 
2397	-3.01140699893655E-02 
2398	 7.70143578982988E-03 
2399	-3.42587460780833E-03 
2400	 1.40091652446163E-03 
2401	 2.66572209920587E-02 
2402	 6.37405287054944E-03 
2403	 1.05228908989561E-02 
2404	 5.20936536440383E-02 
2405	 2.87858707685672E-02 
2406	-2.57522446801427E-02 
2407	 1.17902544612614E-02 
2408	 8.24715102912597E-02 
2409	 0.110937461276643 
2410	 0.213541078419192 
2411	 0.340392785866648 
2412	 0.239058295239172 
2413	 9.14015385204204E-02 
2414	 1.43213657235879E-02 
2415	-0.071967584644582 
2416	-8.41183148915473E-02 
2417	 7.66275320906504E-02 
2418	 0.216631555179424 
2419	 0.127988458290031 
2420	 8.62790985607245E-02 
2421	-5.89939809771559E-03 
2422	-8.65261173983852E-02 
2423	-5.97063459307042E-02 
2424	-0.172078149927921 
2425	-0.288978016905163 
2426	-0.316147957278032 
2427	-0.224057582717683 
2428	-0.168608488165012 
2429	-0.10561097644344 
2430	-5.3813366729442E-03 
2431	-1.93137876167957E-02 
2432	 0.053621342856936 
2433	 3.00157131488676E-02 
2434	-6.70914854300494E-02 
2435	 0.117753997877021 
2436	 0.153251333117234 
2437	 0.166019405498753 
2438	 0.241895201125387 
2439	 0.13897662355804 
2440	 0.107524248727796 
2441	 0.109179408408912 
2442	 7.69940695206626E-02 
2443	 0.134372823097557 
2444	 0.052830265354476 
2445	 0.062031362100644 
2446	 0.268885415117265 
2447	 0.110180710217154 
2448	 8.97423424775264E-03 
2449	-0.084100725025784 
2450	-0.530135635463411 
2451	-30.8647333725915 
2452	-9.18157546029596 
2453	-2.0386488436745 
2454	-1.62420542586271 
2455	-0.851147238028913 
2456	-0.223830611057895 
2457	 0.308415999607625 
2458	 0.57179933524818 
2459	 0.398895089463638 
2460	 0.224409764904895 
2461	 4.90102314214437E-02 
2462	-0.125937893685982 
2463	-0.135606942937629 
2464	 0.397537405773706 
2465	 2.61793812590113 
2466	 1.29889065954794 
2467	 1.41206155198463 
2468	 0.887592328039053 
2469	-0.884777492737523 
2470	-4.62435011619242 
2471	 11.3785018171882 
2472	 4.15882084183651 
2473	 2.00730174720246 
2474	-3.11260506783853 
2475	-19.6491373896933 
2476	 7.49185375551801 
2477	 0.65769825988828 
2478	 0.902641948373324 
2479	 1.37665163781062 
2480	 2.00261462319895 
2481	 168.72604632943 
2482	-7.06323268711579 
2483	 1.1642750981254 
2484	 0.351655803841249 
2485	 0.641753952711015 
2486	 0.788968911790635 
2487	 3.81789022133034 
2488	-2.08433005362741 
2489	 9.02758420550448 
2490	 0.806256390880588 
2491	-0.261230473353377 
2492	-8.53931367851403E-02 
2493	 1.60907780891745 
2494	-0.516979500775283 
2495	-0.503378508599175 
2496	-0.501411075994195 
2497	 0.506920392582351 
2498	 3.01586022614144 
2499	-3.56921386120247 
2500	-1.71158277884863 
