Wavelength	rt0726far00002.asd
350	 3.73845126620692E-02 
351	 3.77107247691755E-02 
352	 3.75308094385965E-02 
353	 3.72854605735851E-02 
354	 0.037279058688812 
355	 3.71083620013996E-02 
356	 3.69983849270762E-02 
357	 3.71158605162114E-02 
358	 3.74499053127176E-02 
359	 3.73937785367805E-02 
360	 3.71860159787463E-02 
361	 3.71174657729806E-02 
362	 3.73728234843323E-02 
363	 3.69430966462663E-02 
364	 3.66978846507522E-02 
365	 3.69876979694333E-02 
366	 3.70658810504718E-02 
367	 3.66900889961837E-02 
368	 3.62898416653661E-02 
369	 3.63283509986842E-02 
370	 3.67405992761374E-02 
371	 3.65913546081184E-02 
372	 3.62134348074044E-02 
373	 3.64999749048142E-02 
374	 3.60576400656241E-02 
375	 3.59773888676622E-02 
376	 3.63729648683759E-02 
377	 3.57478726202172E-02 
378	 3.60395829281597E-02 
379	 3.66107639205132E-02 
380	 3.66296301623269E-02 
381	 3.66171279911098E-02 
382	 3.67970978236367E-02 
383	 3.68272717892813E-02 
384	 3.62885091799208E-02 
385	 3.62677366050283E-02 
386	 0.036286367908089 
387	 3.62239354601545E-02 
388	 3.64699910432859E-02 
389	 3.64051171258819E-02 
390	 3.61092826795944E-02 
391	 3.58870675509242E-02 
392	 3.62543532513032E-02 
393	 3.63268323496021E-02 
394	 3.62701425822307E-02 
395	 3.64808656693315E-02 
396	 3.62808152013206E-02 
397	 3.62751860045303E-02 
398	 3.65002205303422E-02 
399	 3.64774743093526E-02 
400	 3.64354529687339E-02 
401	 3.63496865467776E-02 
402	 3.62793493413359E-02 
403	 3.66184212365749E-02 
404	 3.65432164740348E-02 
405	 3.62790182608545E-02 
406	 3.63453915835174E-02 
407	 3.64913233516288E-02 
408	 3.64733414708645E-02 
409	 3.63672013289448E-02 
410	 3.65267825668123E-02 
411	 3.64871225351847E-02 
412	 3.64542460973369E-02 
413	 0.036578483092589 
414	 3.65966081995591E-02 
415	 3.65264842590869E-02 
416	 3.65160554896228E-02 
417	 0.036702376270364 
418	 3.68133391730488E-02 
419	 3.67681351193957E-02 
420	 3.67021222042234E-02 
421	 3.69447068720868E-02 
422	 0.037212962845465 
423	 3.72854982965515E-02 
424	 0.037148904875424 
425	 3.73038306749989E-02 
426	 3.74756509474945E-02 
427	 3.76043216110428E-02 
428	 3.77262968218881E-02 
429	 3.77932306655888E-02 
430	 3.79145999180636E-02 
431	 3.81113573740804E-02 
432	 3.82878030077677E-02 
433	 3.83883262139866E-02 
434	 3.85035926970048E-02 
435	 3.87037219292414E-02 
436	 3.89112359469816E-02 
437	 3.90311715084135E-02 
438	 3.91183637798194E-02 
439	 0.039306502836843 
440	 3.96353421381773E-02 
441	 3.98729127504922E-02 
442	 3.99476519250851E-02 
443	 4.00555321445861E-02 
444	 4.02939462817751E-02 
445	 4.05306214355246E-02 
446	 4.06423966478661E-02 
447	 4.08195866809048E-02 
448	 4.10263337856173E-02 
449	 4.12128343599549E-02 
450	 4.13289906853643E-02 
451	 4.14120860286361E-02 
452	 0.04148937043154 
453	 4.15956708085912E-02 
454	 4.17895717722583E-02 
455	 4.19744162430333E-02 
456	 4.21423095416463E-02 
457	 4.23000806733361E-02 
458	 0.042352218561603 
459	 4.23605083477713E-02 
460	 4.24218347539734E-02 
461	 4.26421152543794E-02 
462	 4.27195505530343E-02 
463	 0.042707776636702 
464	 4.27555140240512E-02 
465	 4.30843028463976E-02 
466	 0.043255693500605 
467	 4.33331626357812E-02 
468	 4.35743546698341E-02 
469	 4.36267199779449E-02 
470	 0.043695960333219 
471	 4.38923356124313E-02 
472	 4.41320362729497E-02 
473	 0.044324923338956 
474	 0.044486416688362 
475	 0.044636820993906 
476	 4.46647710364421E-02 
477	 4.48612409247832E-02 
478	 4.51370909202841E-02 
479	 4.51816126037385E-02 
480	 4.53474202873397E-02 
481	 4.55721377721816E-02 
482	 4.57804671831172E-02 
483	 4.59881066187749E-02 
484	 4.61380734343016E-02 
485	 4.63113658484645E-02 
486	 4.65801441228234E-02 
487	 4.66635137556154E-02 
488	 4.68921030780557E-02 
489	 4.72302947126039E-02 
490	 4.72896669765041E-02 
491	 4.74839424839198E-02 
492	 4.78165221898471E-02 
493	 4.81769275043318E-02 
494	 0.048365200742722 
495	 4.86764966151626E-02 
496	 4.90557535721346E-02 
497	 4.93063738036237E-02 
498	 4.96721397762267E-02 
499	 5.00269952270739E-02 
500	 5.03305866001185E-02 
501	 5.07322567253796E-02 
502	 5.10726168074352E-02 
503	 5.14511982699369E-02 
504	 5.19461475470008E-02 
505	 0.052240733117141 
506	 5.25685628078716E-02 
507	 5.29525655513394E-02 
508	 5.32562723806944E-02 
509	 5.37479433758403E-02 
510	 5.42232966345881E-02 
511	 5.45747396681545E-02 
512	 5.51173380091245E-02 
513	 5.55333032102187E-02 
514	 5.58898908273008E-02 
515	 5.63910540215516E-02 
516	 5.69441130969724E-02 
517	 5.74306711510078E-02 
518	 5.78405776196787E-02 
519	 5.82990952650586E-02 
520	 5.87596623492009E-02 
521	 5.92475040528849E-02 
522	 5.97787649025546E-02 
523	 6.02793661775514E-02 
524	 6.07810489808642E-02 
525	 6.12977262442979E-02 
526	 6.18300574290397E-02 
527	 6.23573685311033E-02 
528	 6.29063911483976E-02 
529	 6.34622333197639E-02 
530	 6.39073118661016E-02 
531	 6.44105767000495E-02 
532	 6.49671577327309E-02 
533	 0.065510252506665 
534	 0.066036065637545 
535	 6.66256304660044E-02 
536	 6.72564490595042E-02 
537	 6.77843044339047E-02 
538	 6.84185560427892E-02 
539	 6.90168727592015E-02 
540	 6.94847328574159E-02 
541	 7.01626698469147E-02 
542	 7.08431125532529E-02 
543	 7.14558631083964E-02 
544	 7.20327597071073E-02 
545	 7.26580182992611E-02 
546	 7.33356050445519E-02 
547	 7.40248464311526E-02 
548	 7.46227607178744E-02 
549	 0.07524910422566 
550	 7.58884826425733E-02 
551	 7.65018262827509E-02 
552	 7.71970673999112E-02 
553	 7.78697581107208E-02 
554	 7.85019744683494E-02 
555	 7.91792177731243E-02 
556	 7.97629048287844E-02 
557	 8.03246819595875E-02 
558	 8.09415759585363E-02 
559	 8.15617386127599E-02 
560	 8.21461906062144E-02 
561	 8.26676659103388E-02 
562	 0.083123898465857 
563	 0.083623069219307 
564	 8.41233030981133E-02 
565	 8.45679985512452E-02 
566	 0.084904220869312 
567	 8.53114037580029E-02 
568	 0.085703269320515 
569	 8.59437708408505E-02 
570	 8.62395881760504E-02 
571	 8.65087674640744E-02 
572	 8.67261057188251E-02 
573	 8.69435755360327E-02 
574	 8.71147318931613E-02 
575	 0.087287155577943 
576	 8.74885276298023E-02 
577	 8.76222048687254E-02 
578	 8.77233261333136E-02 
579	 8.77799769876471E-02 
580	 8.77689715283739E-02 
581	 8.78371026766906E-02 
582	 8.78892336841096E-02 
583	 8.78560539202629E-02 
584	 8.77717350277064E-02 
585	 0.087582169440577 
586	 8.74064163828273E-02 
587	 8.73550189456161E-02 
588	 8.70854474316386E-02 
589	 8.68765430103199E-02 
590	 8.68385218651778E-02 
591	 8.68343206717157E-02 
592	 8.67116921048601E-02 
593	 0.086503417585837 
594	 8.62601895921305E-02 
595	 8.59265069450123E-02 
596	 8.56279825968306E-02 
597	 8.52689486397106E-02 
598	 8.46759667617591E-02 
599	 8.41987751363724E-02 
600	 8.38453417860359E-02 
601	 8.35737272939789E-02 
602	 8.33370947735678E-02 
603	 8.31316981620936E-02 
604	 8.29403698596079E-02 
605	 8.27678065317386E-02 
606	 0.0827446639283 
607	 0.082633651411393 
608	 8.24418725633943E-02 
609	 8.24346940637996E-02 
610	 8.23726951504626E-02 
611	 8.22516940577092E-02 
612	 8.21062819921897E-02 
613	 8.19248713694634E-02 
614	 0.081788016937856 
615	 8.16873047192797E-02 
616	 0.08155893654318 
617	 0.081336079168686 
618	 8.12099856026385E-02 
619	 8.12291728972274E-02 
620	 0.081180699581817 
621	 8.10978909587234E-02 
622	 8.10059436549554E-02 
623	 8.09273585230948E-02 
624	 8.08582185130179E-02 
625	 8.06801674864429E-02 
626	 8.04542201130081E-02 
627	 0.080403700612121 
628	 8.03597340264166E-02 
629	 8.03081243610104E-02 
630	 8.02491336870833E-02 
631	 8.01354927136372E-02 
632	 8.00824528816658E-02 
633	 8.00253605776973E-02 
634	 7.98532436252316E-02 
635	 7.98116324678089E-02 
636	 7.98728936938198E-02 
637	 7.99325937882249E-02 
638	 7.98163942796253E-02 
639	 7.98089053957636E-02 
640	 7.98553127229785E-02 
641	 7.98451294503106E-02 
642	 7.98829813090597E-02 
643	 7.99371841237645E-02 
644	 7.99313844344143E-02 
645	 7.97721387599944E-02 
646	 7.97125414955572E-02 
647	 7.97253658127562E-02 
648	 7.96972035931502E-02 
649	 7.94377797535483E-02 
650	 7.92249788844048E-02 
651	 7.90253099994167E-02 
652	 7.86943703085354E-02 
653	 7.81830935105934E-02 
654	 7.75820718423283E-02 
655	 7.69164211684764E-02 
656	 7.61991126090333E-02 
657	 7.53967405414814E-02 
658	 7.45353321176451E-02 
659	 7.36602241510177E-02 
660	 7.29663570141552E-02 
661	 7.21718587412366E-02 
662	 7.12704380443423E-02 
663	 7.04494510354754E-02 
664	 6.97687667035753E-02 
665	 6.91527276695887E-02 
666	 6.85216227956467E-02 
667	 6.78218052157567E-02 
668	 6.74673990104495E-02 
669	 6.72069575126067E-02 
670	 6.67263263767991E-02 
671	 0.066595229121102 
672	 6.65973907120256E-02 
673	 6.66213498287566E-02 
674	 6.66957032960336E-02 
675	 6.69330506663086E-02 
676	 6.72293856801891E-02 
677	 6.75030587406531E-02 
678	 6.78164806855657E-02 
679	 6.83170808662581E-02 
680	 6.89003993395065E-02 
681	 6.93959895617934E-02 
682	 7.00799173011508E-02 
683	 7.08707469378917E-02 
684	 7.16602470741867E-02 
685	 7.24174033811122E-02 
686	 7.33649827792934E-02 
687	 7.43288791712427E-02 
688	 0.075073863503308 
689	 7.58564068724219E-02 
690	 7.66390961320368E-02 
691	 7.73045836445941E-02 
692	 7.77224126976888E-02 
693	 7.82466262684601E-02 
694	 7.86278806365387E-02 
695	 7.87459158722468E-02 
696	 7.88310272838783E-02 
697	 7.87311665189353E-02 
698	 0.078570370494239 
699	 7.84603472276283E-02 
700	 7.79842103916101E-02 
701	 7.75499523276526E-02 
702	 0.077208975174773 
703	 7.66916893175443E-02 
704	 0.076075340896306 
705	 7.54254654374869E-02 
706	 0.074754461915745 
707	 7.39133271860938E-02 
708	 7.29867058954675E-02 
709	 7.19704982499185E-02 
710	 0.070859081938004 
711	 0.069828987037918 
712	 6.85800930441424E-02 
713	 6.71354375128796E-02 
714	 6.58432852607385E-02 
715	 6.45503576254611E-02 
716	 6.30438658481428E-02 
717	 6.13368055526993E-02 
718	 5.99785381294038E-02 
719	 5.83341160508373E-02 
720	 5.67907399329539E-02 
721	 5.55950621586286E-02 
722	 5.42176317517346E-02 
723	 5.27720425988473E-02 
724	 0.051387440553784 
725	 4.96629571972148E-02 
726	 4.79319876535801E-02 
727	 0.046179315177186 
728	 4.43302532366344E-02 
729	 4.22836986719929E-02 
730	 4.02390078370779E-02 
731	 3.83220934514302E-02 
732	 3.65388787814631E-02 
733	 3.52633965379393E-02 
734	 3.41644172775909E-02 
735	 3.31403876072233E-02 
736	 3.24066412339187E-02 
737	 0.031832085997988 
738	 3.13703803760777E-02 
739	 3.09927082941097E-02 
740	 0.030619462746521 
741	 3.03664019502854E-02 
742	 3.02870423027609E-02 
743	 3.03564489092893E-02 
744	 3.02977090341555E-02 
745	 3.02212069913893E-02 
746	 3.01915436106365E-02 
747	 3.01540460550176E-02 
748	 3.01728533561556E-02 
749	 0.030221596727077 
750	 3.02473260952365E-02 
751	 0.030190730110942 
752	 3.01425579022365E-02 
753	 3.01351809705758E-02 
754	 3.01684260391999E-02 
755	 3.03019694190125E-02 
756	 3.02923685523675E-02 
757	 3.01665749162242E-02 
758	 3.04513705382445E-02 
759	 3.07327246359153E-02 
760	 3.08657655293094E-02 
761	 3.08878764479479E-02 
762	 0.030986479928788 
763	 3.07758895439561E-02 
764	 3.05585071834549E-02 
765	 3.06656394895235E-02 
766	 3.08480275221392E-02 
767	 3.08981667638793E-02 
768	 3.09107559101898E-02 
769	 3.12297254193899E-02 
770	 3.13947044359607E-02 
771	 3.14758005688039E-02 
772	 3.16111942271791E-02 
773	 3.18230676289778E-02 
774	 0.032011599440149 
775	 3.21733017487767E-02 
776	 3.23427985399292E-02 
777	 3.24570121844811E-02 
778	 3.27412054815653E-02 
779	 3.31290306427825E-02 
780	 3.32713713526059E-02 
781	 3.34977275609133E-02 
782	 3.37354700058137E-02 
783	 3.39323716139023E-02 
784	 3.42429062949944E-02 
785	 3.46694999242941E-02 
786	 3.50448248719042E-02 
787	 0.035221075900326 
788	 3.55148489162249E-02 
789	 3.58613984037243E-02 
790	 0.03623981933329 
791	 3.66633706361907E-02 
792	 3.69231760764552E-02 
793	 3.72610687510959E-02 
794	 3.77343289408837E-02 
795	 3.79892400812875E-02 
796	 3.82273413718305E-02 
797	 3.85671617138337E-02 
798	 3.90029783232441E-02 
799	 3.91439013810924E-02 
800	 3.93609088384491E-02 
801	 3.96953942656204E-02 
802	 3.99820502295208E-02 
803	 0.040087291697407 
804	 4.02752652223726E-02 
805	 4.05228596522292E-02 
806	 4.04777012357602E-02 
807	 4.03639009454578E-02 
808	 4.02872487532764E-02 
809	 4.02466879676595E-02 
810	 3.99997142676159E-02 
811	 3.99810637890785E-02 
812	 0.039953274476018 
813	 3.94959355299247E-02 
814	 3.90644155061173E-02 
815	 3.89199959643823E-02 
816	 0.038750483983242 
817	 3.79827202928119E-02 
818	 3.78398313227118E-02 
819	 3.73477227339056E-02 
820	 3.63717658481705E-02 
821	 3.60752999843229E-02 
822	 3.49401980750098E-02 
823	 3.37060372336132E-02 
824	 3.30192222405672E-02 
825	 3.18110695883498E-02 
826	 3.05161406942004E-02 
827	 2.92164317750225E-02 
828	 2.79647618829436E-02 
829	 2.67804736805063E-02 
830	 2.56179726857172E-02 
831	 2.46378042683374E-02 
832	 2.40977562142745E-02 
833	 2.33528773907284E-02 
834	 2.27881419426739E-02 
835	 2.25226616032975E-02 
836	 2.21909668687941E-02 
837	 2.19597444377218E-02 
838	 2.16534866359099E-02 
839	 2.12189553593918E-02 
840	 2.10836837911105E-02 
841	 2.09830835828272E-02 
842	 2.08187296848452E-02 
843	 2.05882497482021E-02 
844	 2.04343954001303E-02 
845	 0.02028144619458 
846	 2.01337651560534E-02 
847	 2.00456009262053E-02 
848	 1.99712258574329E-02 
849	 1.97383323396964E-02 
850	 1.94113278142298E-02 
851	 1.93389571093307E-02 
852	 1.91663776409135E-02 
853	 0.018998082241645 
854	 1.89231313194557E-02 
855	 1.87847795703748E-02 
856	 1.87232127346787E-02 
857	 1.86738634738133E-02 
858	 1.85594644096574E-02 
859	 1.84590183264571E-02 
860	 1.83885978704844E-02 
861	 1.83765154749874E-02 
862	 1.83956928720045E-02 
863	 1.80685834812017E-02 
864	 1.79136043303061E-02 
865	 1.79503495495729E-02 
866	 0.017729160545843 
867	 1.75234050690017E-02 
868	 1.75181506717375E-02 
869	 1.75851555389043E-02 
870	 1.72434328351801E-02 
871	 1.68756491808706E-02 
872	 1.67407588191831E-02 
873	 1.68501966737699E-02 
874	 1.67515426161542E-02 
875	 1.65107085297768E-02 
876	 1.63747403271092E-02 
877	 1.64912446081495E-02 
878	 1.64613398508489E-02 
879	 1.61062451859624E-02 
880	 0.015775260344912 
881	 1.58865571805773E-02 
882	 1.57375075965814E-02 
883	 1.54730687365047E-02 
884	 1.50906397723193E-02 
885	 0.014565870596887 
886	 1.48919622917004E-02 
887	 1.50457206460014E-02 
888	 1.47974675542716E-02 
889	 0.014996120021904 
890	 1.46053641425281E-02 
891	 1.44627372797083E-02 
892	 1.49425829826568E-02 
893	 1.49207869464595E-02 
894	 1.50503234399487E-02 
895	 1.50503918135579E-02 
896	 1.46065737018029E-02 
897	 1.41213834597815E-02 
898	 1.42302779800436E-02 
899	 1.45383050155711E-02 
900	 1.44559758843148E-02 
901	 1.42549809524996E-02 
902	 1.40883119896834E-02 
903	 1.41229932802185E-02 
904	 1.43082762165252E-02 
905	 1.35173796059359E-02 
906	 1.35882339099829E-02 
907	 1.40839964525772E-02 
908	 1.32382365020653E-02 
909	 1.34750525910796E-02 
910	 1.40101863746644E-02 
911	 1.40897785853196E-02 
912	 1.34422938717159E-02 
913	 1.28930617578553E-02 
914	 0.012835905555979 
915	 1.31287638563943E-02 
916	 1.31305572458705E-02 
917	 1.25568229505965E-02 
918	 1.23189007354096E-02 
919	 1.27059388599285E-02 
920	 1.29970231562077E-02 
921	 1.28174267854472E-02 
922	 1.25255040622484E-02 
923	 1.24909947626966E-02 
924	 1.27862522064576E-02 
925	 1.20121819751703E-02 
926	 1.14053429336203E-02 
927	 1.22798951802165E-02 
928	 1.26978666993598E-02 
929	 1.37335698581751E-02 
930	 1.48579497313887E-02 
931	 1.39508864002746E-02 
932	 6.41271193646195E-03 
933	 8.20786644405788E-03 
934	 1.54692146990186E-02 
935	 1.42868900162465E-02 
936	 9.77051725826901E-03 
937	 1.01415050995955E-02 
938	 0.013786360285485 
939	 1.57380795884792E-02 
940	 1.12306636654591E-02 
941	 1.04581563267819E-02 
942	 1.22154493004349E-02 
943	 0.010384570252381 
944	 7.82485410863622E-03 
945	 1.14566685450541E-02 
946	 1.62034999845628E-02 
947	 0.012841387132539 
948	 1.10368565845953E-02 
949	 1.27805293123695E-02 
950	 1.37664612047211E-02 
951	 8.96127498931374E-03 
952	 1.06117298230674E-02 
953	 1.20338805509561E-02 
954	 1.12479014999768E-02 
955	 1.07968885290999E-02 
956	 0.012844168971573 
957	 0.012607979630847 
958	 1.03503156536448E-02 
959	 9.8311961654675E-03 
960	 1.05186317822604E-02 
961	 1.13511053569005E-02 
962	 1.22105225319392E-02 
963	 1.33396521075309E-02 
964	 1.24623024288713E-02 
965	 1.04161547264729E-02 
966	 9.66771425206306E-03 
967	 1.24167081960877E-02 
968	 1.24235707327722E-02 
969	 1.20387131718641E-02 
970	 1.18160544794739E-02 
971	 1.04516075244935E-02 
972	 1.03909837832346E-02 
973	 1.22455464299015E-02 
974	 1.32170974546349E-02 
975	 9.13950962277114E-03 
976	 1.00360069250444E-02 
977	 1.08930603249545E-02 
978	 1.05089921944314E-02 
979	 1.19351513656321E-02 
980	 1.15399752788284E-02 
981	 1.06917024070866E-02 
982	 1.00944583971788E-02 
983	 9.55498974718042E-03 
984	 9.87442139166861E-03 
985	 1.03495106852267E-02 
986	 1.08043781338715E-02 
987	 1.14271936899958E-02 
988	 1.09705707458955E-02 
989	 1.02809331149289E-02 
990	 1.05354652724562E-02 
991	 1.21618081037176E-02 
992	 1.07260089003154E-02 
993	 9.08248867964687E-03 
994	 8.63021545885292E-03 
995	 9.03973782211592E-03 
996	 9.62499295166292E-03 
997	 1.03990814082916E-02 
998	 1.07684554542889E-02 
999	 1.01024386494886E-02 
1000	 9.60725735299612E-03 
1001	 1.09813655164896E-02 
1002	 1.02529346724906E-02 
1003	 1.01316802338279E-02 
1004	 1.01273441767189E-02 
1005	 1.00975152343028E-02 
1006	 1.04497025594458E-02 
1007	 1.08410746100835E-02 
1008	 1.07012432236031E-02 
1009	 1.05947972622306E-02 
1010	 1.02005859004991E-02 
1011	 9.73057177603029E-03 
1012	 9.8874366757135E-03 
1013	 9.80187958978794E-03 
1014	 9.9250504836507E-03 
1015	 1.07331715124751E-02 
1016	 1.09045517222163E-02 
1017	 1.04481093680981E-02 
1018	 1.06295424597871E-02 
1019	 0.011113324477005 
1020	 1.12828317748115E-02 
1021	 1.15384524288962E-02 
1022	 1.19209439208803E-02 
1023	 1.15756173634699E-02 
1024	 1.14268315124243E-02 
1025	 1.19289902117007E-02 
1026	 1.21367083819842E-02 
1027	 0.012110015004387 
1028	 1.22575247323849E-02 
1029	 1.19089811660173E-02 
1030	 1.06112220476979E-02 
1031	 0.010421113146203 
1032	 1.05526807176725E-02 
1033	 1.07224711133302E-02 
1034	 0.011628685218936 
1035	 1.19491330012664E-02 
1036	 1.22396648198274E-02 
1037	 1.20707852848193E-02 
1038	 1.11611135028812E-02 
1039	 0.010857130559957 
1040	 1.04039112782147E-02 
1041	 1.00794746560836E-02 
1042	 1.02036206619155E-02 
1043	 1.11138840615056E-02 
1044	 1.12501836167411E-02 
1045	 1.12490707388019E-02 
1046	 1.13017228017897E-02 
1047	 1.10335230278764E-02 
1048	 1.10483715086833E-02 
1049	 1.14561536991745E-02 
1050	 1.14278194631902E-02 
1051	 1.10849835495898E-02 
1052	 1.10133015113002E-02 
1053	 1.08947535945762E-02 
1054	 1.07757633272828E-02 
1055	 1.08168598067036E-02 
1056	 1.08557267232919E-02 
1057	 1.08768954000302E-02 
1058	 1.07019492005111E-02 
1059	 1.08466613259621E-02 
1060	 1.12772069911543E-02 
1061	 1.14424499178813E-02 
1062	 1.16476455489802E-02 
1063	 1.17346161324069E-02 
1064	 1.16098372478483E-02 
1065	 1.16195077500909E-02 
1066	 1.18691712462821E-02 
1067	 1.17149946709321E-02 
1068	 1.10372766916784E-02 
1069	 1.09248676686137E-02 
1070	 1.09404429484446E-02 
1071	 1.08758729932596E-02 
1072	 1.11949928659602E-02 
1073	 1.14494981260608E-02 
1074	 1.15708153842917E-02 
1075	 1.13789639302414E-02 
1076	 1.14512398585311E-02 
1077	 1.17864805839115E-02 
1078	 1.17783592059048E-02 
1079	 1.15291129628228E-02 
1080	 1.14591384720651E-02 
1081	 1.11523389997598E-02 
1082	 1.11910304404516E-02 
1083	 0.011868823422059 
1084	 1.19171219203638E-02 
1085	 1.18852690088979E-02 
1086	 1.16935432683101E-02 
1087	 1.02613176477112E-02 
1088	 9.96034006526333E-03 
1089	 1.02739190316237E-02 
1090	 1.09569296612391E-02 
1091	 1.12461653973083E-02 
1092	 1.24629563976095E-02 
1093	 1.24564422666131E-02 
1094	 1.09333788507117E-02 
1095	 1.08730724175159E-02 
1096	 1.12830284210667E-02 
1097	 1.13302825912132E-02 
1098	 1.22236853668965E-02 
1099	 1.23258191969328E-02 
1100	 0.011180089220746 
1101	 1.10574665836486E-02 
1102	 1.14834973074323E-02 
1103	 1.15450178949002E-02 
1104	 1.21244778505844E-02 
1105	 1.21096118892033E-02 
1106	 1.13860378928038E-02 
1107	 1.12543916203569E-02 
1108	 1.17374578874906E-02 
1109	 1.24059230378967E-02 
1110	 1.25785095675891E-02 
1111	 1.27584591927617E-02 
1112	 0.013001537572289 
1113	 1.23884884046524E-02 
1114	 1.25857632841393E-02 
1115	 1.46647122734258E-02 
1116	 1.49638946224594E-02 
1117	 1.36359012722336E-02 
1118	 1.33596043488229E-02 
1119	 1.11708336740648E-02 
1120	 1.10380211397811E-02 
1121	 1.58369606881842E-02 
1122	 1.72939801109148E-02 
1123	 1.65544281563652E-02 
1124	 1.31352287103808E-02 
1125	 5.56846708815845E-03 
1126	 7.78913186756462E-03 
1127	 1.79730778282437E-02 
1128	 2.44637787035491E-02 
1129	 2.50488773367831E-02 
1130	 2.22800440499874E-02 
1131	 2.05817414091311E-02 
1132	 1.48421952601208E-02 
1133	 1.40170445647241E-02 
1134	 1.72775368724411E-02 
1135	 1.66054584590229E-02 
1136	 1.35543446242652E-02 
1137	 1.25799034841746E-02 
1138	 1.05370383834181E-02 
1139	 1.14494611945207E-02 
1140	 1.41009653607594E-02 
1141	 1.57560476044088E-02 
1142	 1.74842445022103E-02 
1143	 1.79637704947926E-02 
1144	 1.50515569190248E-02 
1145	 1.33792908641501E-02 
1146	 1.30617649861804E-02 
1147	 1.25281782002075E-02 
1148	 1.52702694378963E-02 
1149	 1.82912421026517E-02 
1150	 1.74525208290527E-02 
1151	 1.26013332490971E-02 
1152	 1.21352111247213E-02 
1153	 1.22937453523972E-02 
1154	 1.20322161574749E-02 
1155	 1.30396839242686E-02 
1156	 1.36070738949398E-02 
1157	 1.29539877248558E-02 
1158	 1.21003069514752E-02 
1159	 1.17416694767203E-02 
1160	 1.22545415045922E-02 
1161	 1.27205457845032E-02 
1162	 1.26497124331441E-02 
1163	 1.19647068730166E-02 
1164	 0.011492110864675 
1165	 1.16256499774548E-02 
1166	 1.12844778217511E-02 
1167	 1.12180693605639E-02 
1168	 1.14426319538552E-02 
1169	 1.10423015333268E-02 
1170	 1.08591591070025E-02 
1171	 1.08869956405106E-02 
1172	 1.13474153735784E-02 
1173	 1.11645295531995E-02 
1174	 1.08080613745676E-02 
1175	 1.05357305689584E-02 
1176	 0.010337928257268 
1177	 0.01057077197651 
1178	 1.10490664195702E-02 
1179	 1.11967815981917E-02 
1180	 1.11315926648676E-02 
1181	 1.06622174715576E-02 
1182	 1.01863910441834E-02 
1183	 1.06632234693184E-02 
1184	 1.13264053187798E-02 
1185	 1.13949039231716E-02 
1186	 1.15095626553084E-02 
1187	 0.01128690663328 
1188	 1.04608407575015E-02 
1189	 1.03997293183081E-02 
1190	 1.11644090585617E-02 
1191	 1.14135961566133E-02 
1192	 1.13794872223164E-02 
1193	 1.10928205479041E-02 
1194	 1.10958760570088E-02 
1195	 1.11237428031635E-02 
1196	 0.01112866242717 
1197	 1.13532754069647E-02 
1198	 1.10303248476529E-02 
1199	 1.03676662693432E-02 
1200	 1.05263968000078E-02 
1201	 1.08858781959147E-02 
1202	 1.09137217567417E-02 
1203	 0.011098623452313 
1204	 1.09501449497546E-02 
1205	 1.05748445676064E-02 
1206	 1.06781154854509E-02 
1207	 1.06528906323454E-02 
1208	 1.04210797073042E-02 
1209	 1.05867685409357E-02 
1210	 1.06541550831418E-02 
1211	 0.010474389189366 
1212	 1.06168719544828E-02 
1213	 1.08774147226697E-02 
1214	 1.09562295266487E-02 
1215	 1.11386723864159E-02 
1216	 1.12598774410268E-02 
1217	 1.08917052547994E-02 
1218	 1.05487093903775E-02 
1219	 1.05996650482498E-02 
1220	 1.05544163473125E-02 
1221	 0.010324818786254 
1222	 1.02986715942309E-02 
1223	 1.04323674125399E-02 
1224	 1.03216062216774E-02 
1225	 0.010307926095093 
1226	 1.06006889634627E-02 
1227	 1.05563209278618E-02 
1228	 1.03968846211956E-02 
1229	 1.07378002669323E-02 
1230	 1.08060347131546E-02 
1231	 1.03317123381308E-02 
1232	 1.02405771980537E-02 
1233	 1.02158626705238E-02 
1234	 9.98440290010059E-03 
1235	 0.010017870987726 
1236	 1.05164868885318E-02 
1237	 1.04374058203572E-02 
1238	 1.01178789812286E-02 
1239	 9.9508953699092E-03 
1240	 9.90690190799138E-03 
1241	 9.76205657715257E-03 
1242	 9.81257358321184E-03 
1243	 1.00792560286849E-02 
1244	 0.010230678876436 
1245	 1.01599783960402E-02 
1246	 0.010242239981673 
1247	 1.04244860449604E-02 
1248	 1.04308996790584E-02 
1249	 1.03079964441387E-02 
1250	 1.00992251859587E-02 
1251	 1.02473280687309E-02 
1252	 1.04630389317539E-02 
1253	 1.01956980045795E-02 
1254	 1.03362597902435E-02 
1255	 1.07281420325167E-02 
1256	 0.01067593415546 
1257	 1.02036171132318E-02 
1258	 1.01079374932661E-02 
1259	 9.84742045808816E-03 
1260	 9.82736354174477E-03 
1261	 1.03192503346912E-02 
1262	 1.04553877419416E-02 
1263	 1.06575941347599E-02 
1264	 1.03681242512308E-02 
1265	 9.99143767022644E-03 
1266	 9.96673195608016E-03 
1267	 9.93792002906063E-03 
1268	 9.75616243369922E-03 
1269	 1.00162511028601E-02 
1270	 1.04134195382602E-02 
1271	 1.02017675175598E-02 
1272	 1.01213525450469E-02 
1273	 1.03433803067319E-02 
1274	 1.02432697110977E-02 
1275	 1.02934217294733E-02 
1276	 1.03660706279977E-02 
1277	 1.02817217157689E-02 
1278	 1.01379718875581E-02 
1279	 9.79463059972972E-03 
1280	 9.76214801103294E-03 
1281	 9.78417843184974E-03 
1282	 9.62278195096765E-03 
1283	 9.66820309701671E-03 
1284	 1.00687084571214E-02 
1285	 1.03754588769183E-02 
1286	 0.010783757602127 
1287	 1.08943249900431E-02 
1288	 0.011013332917151 
1289	 1.09304090667704E-02 
1290	 1.05129238545835E-02 
1291	 1.00731779607698E-02 
1292	 9.91011527494436E-03 
1293	 1.01003078836327E-02 
1294	 1.05228103213817E-02 
1295	 1.07730828315127E-02 
1296	 1.07770011015128E-02 
1297	 1.07901862300973E-02 
1298	 1.07191874459432E-02 
1299	 1.05018270670054E-02 
1300	 1.04271260905555E-02 
1301	 1.03186350670835E-02 
1302	 1.02311140091321E-02 
1303	 1.05598597040896E-02 
1304	 1.11384930519278E-02 
1305	 0.011077058451755 
1306	 1.10860057240957E-02 
1307	 1.10404750501087E-02 
1308	 1.10331766327614E-02 
1309	 1.07095355209481E-02 
1310	 1.06925155055195E-02 
1311	 1.08620188262422E-02 
1312	 0.01081774284994 
1313	 1.07978593687034E-02 
1314	 1.09810929194819E-02 
1315	 0.011324481272464 
1316	 1.11670899155891E-02 
1317	 1.05921531443164E-02 
1318	 0.010714903313288 
1319	 1.10913200010331E-02 
1320	 1.11575638133955E-02 
1321	 1.15062570224885E-02 
1322	 1.18756320953502E-02 
1323	 1.20020149534108E-02 
1324	 1.18556734870541E-02 
1325	 1.19955025269793E-02 
1326	 1.23480901338334E-02 
1327	 1.21140949707012E-02 
1328	 1.15468812098913E-02 
1329	 1.16135129137878E-02 
1330	 1.25760732341812E-02 
1331	 1.33115782256796E-02 
1332	 1.33062560146287E-02 
1333	 1.34665198235651E-02 
1334	 1.31187843390645E-02 
1335	 1.30909434693973E-02 
1336	 1.31011552909624E-02 
1337	 1.36959008509233E-02 
1338	 1.52118487945441E-02 
1339	 1.51540400564816E-02 
1340	 1.40688810938568E-02 
1341	 1.41421423049251E-02 
1342	 1.47971127075088E-02 
1343	 1.35451404994227E-02 
1344	 9.32308670296457E-03 
1345	 9.61567240413358E-03 
1346	 1.37444670441282E-02 
1347	 1.29657861161293E-02 
1348	 1.21066743671988E-02 
1349	 1.79956707976675E-02 
1350	 2.35406591575974E-02 
1351	 2.49588294910898E-02 
1352	 4.24412387084654E-02 
1353	 7.25009013838065E-02 
1354	 9.99337873110056E-02 
1355	 0.104917405406629 
1356	 0.107920059158075 
1357	 0.159666394093568 
1358	 0.194357783238332 
1359	 9.67375861488639E-02 
1360	 0.049508787408517 
1361	 0.174898944486165 
1362	 0.278054160980457 
1363	 0.315453690196279 
1364	 0.178399164765932 
1365	 0.232553930220632 
1366	 0.676886764342286 
1367	 0.954786826229912 
1368	 1.02010884271359 
1369	 0.791055848220462 
1370	 0.898490812401353 
1371	 0.992327491151804 
1372	 0.721907140088229 
1373	 0.676127126315026 
1374	 0.861382287960794 
1375	 0.850134498282161 
1376	 0.818023681261581 
1377	 1.51789112146466 
1378	 1.89639219947799 
1379	 1.21519539110302 
1380	 1.11395666214421 
1381	 1.63488432992961 
1382	 1.5700100110896 
1383	 0.568919478187964 
1384	 0.508059670329865 
1385	 1.03547793915226 
1386	 0.982990340616538 
1387	 1.09705783642366 
1388	 0.993056761243249 
1389	 0.172133749041556 
1390	 0.119595864732865 
1391	 0.602654021154909 
1392	 1.03924354235316 
1393	 1.08924225710496 
1394	 1.70306362530808 
1395	 2.05296225216244 
1396	 0.628856607230566 
1397	 0.467975954477874 
1398	 0.678980038323289 
1399	 0.375492582643771 
1400	 0.378365947429913 
1401	 0.543205724707927 
1402	 0.250730688029064 
1403	 0.152214211433283 
1404	 0.306993530351464 
1405	 0.325019427550805 
1406	 0.420157539593429 
1407	 0.28430314068166 
1408	 0.138482359256953 
1409	 0.144474448310069 
1410	 0.15854756866266 
1411	 0.159420259931469 
1412	 0.218698377016491 
1413	 0.226217698992695 
1414	 0.196818470411911 
1415	 0.166279002901345 
1416	 0.11873588584114 
1417	 0.136612448016195 
1418	 0.212726178136212 
1419	 0.163429080418778 
1420	 0.095780197746346 
1421	 7.83928817321746E-02 
1422	 2.93397143438786E-02 
1423	 2.19116938618403E-02 
1424	 6.07610503465604E-02 
1425	 5.84958510856445E-02 
1426	 0.029419509882219 
1427	 2.98053132730733E-02 
1428	 4.87101672296645E-02 
1429	 4.10778836809842E-02 
1430	 2.02412287580923E-02 
1431	 2.18034091492841E-02 
1432	 2.45626504886894E-02 
1433	 1.77337674744976E-02 
1434	 2.02004387032572E-02 
1435	 2.77519854156157E-02 
1436	 3.00109239813848E-02 
1437	 2.08189938438303E-02 
1438	 1.85447683603235E-02 
1439	 0.015420030961779 
1440	 1.23482730971506E-02 
1441	 2.16920919640279E-02 
1442	 3.44689297163309E-02 
1443	 3.70504864594918E-02 
1444	 2.74463990983174E-02 
1445	 2.09479909052782E-02 
1446	 1.88558429475245E-02 
1447	 1.64071841215459E-02 
1448	 1.54370546948525E-02 
1449	 1.48231525639604E-02 
1450	 1.36604216665395E-02 
1451	 1.44037101509622E-02 
1452	 1.84794805329175E-02 
1453	 1.78990023616328E-02 
1454	 1.54608616435573E-02 
1455	 1.29031737769785E-02 
1456	 0.012804563905367 
1457	 9.48515481453003E-03 
1458	 9.44687328403016E-03 
1459	 1.46433436489303E-02 
1460	 1.49919386674868E-02 
1461	 1.29395492851616E-02 
1462	 1.12847367856346E-02 
1463	 6.88867174302193E-03 
1464	 7.80252524015872E-03 
1465	 1.19278450973475E-02 
1466	 1.32566011180028E-02 
1467	 0.018818721839554 
1468	 0.019881743383523 
1469	 1.51101808032099E-02 
1470	 1.16468187505869E-02 
1471	 6.57168190392572E-03 
1472	 5.82807504965089E-03 
1473	 5.85602397550236E-03 
1474	 6.44610301511945E-03 
1475	 1.18470494860308E-02 
1476	 1.24337265201124E-02 
1477	 1.03942917122293E-02 
1478	 8.44878221101228E-03 
1479	 4.47542177945156E-03 
1480	 4.37648193585218E-03 
1481	 4.57456961533725E-03 
1482	 5.54865629920513E-03 
1483	 1.04264163228126E-02 
1484	 1.13761896563055E-02 
1485	 0.010326135285808 
1486	 9.60135415523147E-03 
1487	 7.66293738971086E-03 
1488	 7.08955637536161E-03 
1489	 7.33969758922981E-03 
1490	 7.10813619157441E-03 
1491	 6.78882139065387E-03 
1492	 6.82134785119745E-03 
1493	 7.1463924142499E-03 
1494	 6.62603841484296E-03 
1495	 5.65883975561493E-03 
1496	 5.74324900425199E-03 
1497	 5.60932401946291E-03 
1498	 5.55311536354417E-03 
1499	 6.71391490912244E-03 
1500	 7.0481414275666E-03 
1501	 6.49379679101068E-03 
1502	 6.32300408439663E-03 
1503	 6.18266760624125E-03 
1504	 6.18918867245595E-03 
1505	 6.41600193385876E-03 
1506	 6.35213741661668E-03 
1507	 6.12638934936148E-03 
1508	 6.27574652303075E-03 
1509	 6.24658461665554E-03 
1510	 5.96277047887623E-03 
1511	 5.86722279287785E-03 
1512	 5.59090495619519E-03 
1513	 5.22355712736126E-03 
1514	 5.61640436782431E-03 
1515	 6.40217279969609E-03 
1516	 6.4983777175215E-03 
1517	 6.05644538096814E-03 
1518	 5.92765424794729E-03 
1519	 6.30401687568876E-03 
1520	 6.40206859402968E-03 
1521	 5.96677532613459E-03 
1522	 5.72273358832857E-03 
1523	 5.54891643181644E-03 
1524	 5.25697536191196E-03 
1525	 5.42444452131712E-03 
1526	 5.74309350341736E-03 
1527	 5.74721446514576E-03 
1528	 5.89668877121464E-03 
1529	 6.18226678915223E-03 
1530	 6.39567320996311E-03 
1531	 6.61698714908287E-03 
1532	 6.47253417634107E-03 
1533	 6.0899638478999E-03 
1534	 5.91666736024805E-03 
1535	 5.81095694412652E-03 
1536	 5.96183533618108E-03 
1537	 6.28571114667264E-03 
1538	 6.43686277918007E-03 
1539	 6.30201319060402E-03 
1540	 6.12399907364006E-03 
1541	 6.56697438786756E-03 
1542	 6.5896143662071E-03 
1543	 5.85041293956595E-03 
1544	 5.9408120588354E-03 
1545	 6.30620173422389E-03 
1546	 6.18488611246944E-03 
1547	 6.40725645391622E-03 
1548	 6.6665451434159E-03 
1549	 6.45240171264646E-03 
1550	 6.48900984078964E-03 
1551	 6.80125999901291E-03 
1552	 6.82296630070524E-03 
1553	 6.53974090360195E-03 
1554	 6.16471706035349E-03 
1555	 6.11606391141324E-03 
1556	 6.18315929014899E-03 
1557	 5.88208188868131E-03 
1558	 5.90854007230136E-03 
1559	 6.57324671459292E-03 
1560	 6.70034461477349E-03 
1561	 6.09610026320295E-03 
1562	 5.86674441305273E-03 
1563	 6.20592469564692E-03 
1564	 6.37822478235462E-03 
1565	 6.86682986694277E-03 
1566	 7.66506618453259E-03 
1567	 7.16589333528242E-03 
1568	 6.3616236406719E-03 
1569	 6.69089099393283E-03 
1570	 6.95137135269008E-03 
1571	 6.60246076044623E-03 
1572	 6.49467242555945E-03 
1573	 6.87936381318307E-03 
1574	 7.0117938296446E-03 
1575	 6.82519005980224E-03 
1576	 6.96940331337187E-03 
1577	 6.93580500007974E-03 
1578	 6.93070475473318E-03 
1579	 7.55190999605144E-03 
1580	 7.69874952604972E-03 
1581	 7.32866030366044E-03 
1582	 7.14607366473306E-03 
1583	 7.07401138301439E-03 
1584	 7.30367594538232E-03 
1585	 7.73498028579346E-03 
1586	 7.50983829342138E-03 
1587	 6.86910554976466E-03 
1588	 7.12071846044409E-03 
1589	 7.52195974646498E-03 
1590	 7.29128615511433E-03 
1591	 7.35288637389438E-03 
1592	 7.45944854482104E-03 
1593	 7.22079463587529E-03 
1594	 7.13937944125201E-03 
1595	 7.54626329532148E-03 
1596	 7.89902380067826E-03 
1597	 7.63472254143542E-03 
1598	 7.64104726106829E-03 
1599	 7.67131263447461E-03 
1600	 7.02717814989086E-03 
1601	 6.89643674030409E-03 
1602	 7.09442628265403E-03 
1603	 6.82733521370892E-03 
1604	 6.95229221703756E-03 
1605	 7.01009907013535E-03 
1606	 6.48374693874231E-03 
1607	 6.41160533723839E-03 
1608	 6.52958694594871E-03 
1609	 6.67479109619945E-03 
1610	 7.13793552329062E-03 
1611	 7.45342946355152E-03 
1612	 7.47251153155718E-03 
1613	 7.32080325982116E-03 
1614	 7.50761941313475E-03 
1615	 7.67233554321283E-03 
1616	 7.51747084878168E-03 
1617	 7.67985364433735E-03 
1618	 7.92298600731281E-03 
1619	 8.04450386519815E-03 
1620	 7.90963050865958E-03 
1621	 7.63072057351481E-03 
1622	 7.66933998834697E-03 
1623	 7.67224244267185E-03 
1624	 7.42001536466218E-03 
1625	 7.43975024845193E-03 
1626	 7.54656428589946E-03 
1627	 7.18954564610385E-03 
1628	 7.31645217679462E-03 
1629	 7.8665955357445E-03 
1630	 7.66352444663905E-03 
1631	 7.1581776468591E-03 
1632	 7.3458886516687E-03 
1633	 7.91459880227092E-03 
1634	 7.74677579431941E-03 
1635	 7.48300759927933E-03 
1636	 7.70801808288285E-03 
1637	 7.57734199469051E-03 
1638	 7.50886088016066E-03 
1639	 7.83148797475047E-03 
1640	 7.96818069695951E-03 
1641	 7.66041190287564E-03 
1642	 7.18946208780013E-03 
1643	 7.49728765713654E-03 
1644	 7.79829660231364E-03 
1645	 7.33476199937727E-03 
1646	 7.23747180163167E-03 
1647	 7.38482892338272E-03 
1648	 0.007476832813311 
1649	 7.62658372609191E-03 
1650	 7.77980873889341E-03 
1651	 8.1280528642043E-03 
1652	 7.81957334889533E-03 
1653	 7.67334652681602E-03 
1654	 7.88446609848426E-03 
1655	 7.91461185306735E-03 
1656	 7.79899863879582E-03 
1657	 7.92334022313883E-03 
1658	 8.00556206692799E-03 
1659	 7.69608978859378E-03 
1660	 7.62379734310672E-03 
1661	 7.93566873615636E-03 
1662	 7.94259925360041E-03 
1663	 7.76550867307856E-03 
1664	 7.53798585332547E-03 
1665	 7.19519599037232E-03 
1666	 7.42736663984054E-03 
1667	 7.77860770923632E-03 
1668	 8.19544101370088E-03 
1669	 8.25838436065479E-03 
1670	 7.76521260597204E-03 
1671	 7.84321737584102E-03 
1672	 8.04553084644858E-03 
1673	 8.07729090578555E-03 
1674	 8.70931404063833E-03 
1675	 8.89370385638158E-03 
1676	 8.06908883954529E-03 
1677	 8.40128618179424E-03 
1678	 8.86018625751576E-03 
1679	 8.03640397779769E-03 
1680	 7.67955572179045E-03 
1681	 7.74524225105595E-03 
1682	 7.68530717667365E-03 
1683	 8.0143023329392E-03 
1684	 8.57102789787163E-03 
1685	 8.85412827152931E-03 
1686	 8.35348509374851E-03 
1687	 7.59840181959575E-03 
1688	 7.75762352013463E-03 
1689	 8.4224207924832E-03 
1690	 9.02001791114784E-03 
1691	 9.1712382242216E-03 
1692	 8.82049161650842E-03 
1693	 8.29160326924536E-03 
1694	 7.27387310753022E-03 
1695	 7.23785637510305E-03 
1696	 8.38896289485693E-03 
1697	 8.81245437998059E-03 
1698	 9.12030011528667E-03 
1699	 9.12367439831159E-03 
1700	 8.16554053301357E-03 
1701	 7.86378534897353E-03 
1702	 8.5828089822934E-03 
1703	 9.0583903786056E-03 
1704	 9.21053315823135E-03 
1705	 9.00305873690325E-03 
1706	 7.89446650882271E-03 
1707	 7.91786470516439E-03 
1708	 8.86053211767746E-03 
1709	 8.10944009671153E-03 
1710	 7.78580201409244E-03 
1711	 8.38520457776097E-03 
1712	 7.9184365980624E-03 
1713	 9.95437726557344E-03 
1714	 1.05487041504805E-02 
1715	 9.53368613548761E-03 
1716	 9.90036827389927E-03 
1717	 9.17102839327682E-03 
1718	 8.64624650780195E-03 
1719	 9.2796334725881E-03 
1720	 9.6633702850588E-03 
1721	 9.62729061013302E-03 
1722	 9.34078669692343E-03 
1723	 9.13016434654745E-03 
1724	 9.3149807966702E-03 
1725	 9.49567984475025E-03 
1726	 9.9849743359028E-03 
1727	 9.9180104137186E-03 
1728	 9.33425440867246E-03 
1729	 9.59210096366088E-03 
1730	 9.05889537333454E-03 
1731	 8.42513196065794E-03 
1732	 8.58773262203447E-03 
1733	 8.09811891706588E-03 
1734	 8.65488071979285E-03 
1735	 9.72610893610592E-03 
1736	 9.27954926695375E-03 
1737	 8.77853677004391E-03 
1738	 8.80718934137705E-03 
1739	 8.18048128296998E-03 
1740	 7.73569641044284E-03 
1741	 8.67433173050762E-03 
1742	 9.02408571243591E-03 
1743	 9.00049398619746E-03 
1744	 1.00888416867619E-02 
1745	 9.93387008162709E-03 
1746	 9.67396207747399E-03 
1747	 9.61018015060749E-03 
1748	 9.51707625469204E-03 
1749	 9.24017030798391E-03 
1750	 8.17782404812004E-03 
1751	 8.06306768249103E-03 
1752	 8.45037903207258E-03 
1753	 8.42310889290999E-03 
1754	 9.6299593575453E-03 
1755	 9.46624544114952E-03 
1756	 6.87158469845717E-03 
1757	 7.77149499369172E-03 
1758	 8.61664805209983E-03 
1759	 8.15074064004508E-03 
1760	 1.03894111609813E-02 
1761	 1.05889515774827E-02 
1762	 7.89332717859644E-03 
1763	 8.1031539754486E-03 
1764	 8.53064565775228E-03 
1765	 7.15578365249979E-03 
1766	 7.28152119232092E-03 
1767	 8.51783562439622E-03 
1768	 8.49421934087494E-03 
1769	 8.89405674196816E-03 
1770	 1.04036715707969E-02 
1771	 9.81506185065274E-03 
1772	 7.91101363538152E-03 
1773	 7.54559419935837E-03 
1774	 8.08481368484128E-03 
1775	 1.02621373353934E-02 
1776	 1.09638165157062E-02 
1777	 1.16784896352663E-02 
1778	 0.011135422694967 
1779	 6.07636209330404E-03 
1780	 5.88866676090184E-03 
1781	 9.17955521236922E-03 
1782	 9.78803157469333E-03 
1783	 1.35084012310895E-02 
1784	 1.51358723011881E-02 
1785	 1.24129899347424E-02 
1786	 1.18688916362655E-02 
1787	 1.17711522184898E-02 
1788	 1.13011184593552E-02 
1789	 1.08455154157656E-02 
1790	 0.013470166366438 
1791	 1.73512780761755E-02 
1792	 2.08347246848005E-02 
1793	 1.61045013113451E-02 
1794	 8.38151367028391E-03 
1795	 3.64697445100419E-03 
1796	 6.5446651895518E-03 
1797	 1.69746794139609E-02 
1798	 2.55798568642777E-02 
1799	 3.09560366606662E-02 
1800	 1.65249462409806E-02 
1801	 7.31185978898205E-03 
1802	-1.30831831290418E-02 
1803	-1.57706582426904E-02 
1804	 2.05580395261979E-02 
1805	 3.67224368804426E-02 
1806	 7.42367747062258E-02 
1807	 8.86963051913413E-02 
1808	 2.05604273770006E-02 
1809	-8.86405109515154E-03 
1810	-5.81307580910402E-02 
1811	-3.75803179659258E-02 
1812	 0.163831072463414 
1813	 0.312467970044624 
1814	 0.606422819037528 
1815	 0.606788123831525 
1816	 0.204708725584595 
1817	 5.57036332328951E-02 
1818	-9.27119056993602E-02 
1819	 0.148577898741544 
1820	 0.3023245067323 
1821	 0.120460459735849 
1822	 0.21908273932655 
1823	 0.904525015407105 
1824	 1.10107140105882 
1825	 1.0002220888168 
1826	 0.815804131367038 
1827	 6.32408650447264E-03 
1828	-0.126048364567448 
1829	 0.18159924126554 
1830	 0.264670660771913 
1831	-1.52468799343106 
1832	-1.23440598504421 
1833	-4.69953181298648 
1834	-2.23700406708068 
1835	-1.99180486643726 
1836	-1.35325955040833 
1837	 0.301541485425952 
1838	 0.734548463501454 
1839	 0.759716667204037 
1840	 0.674448167617365 
1841	 11.5466508269516 
1842	-0.84857320006047 
1843	-1.06147806479068 
1844	-3.16760444489368 
1845	-4.0145046246195 
1846	 5.09077699865689 
1847	 3.78779172077695 
1848	-3.24386596334995 
1849	 1.95113877151438 
1850	 0.989980216219705 
1851	 0.779497237028521 
1852	 0.772999458740516 
1853	 0.724501955914391 
1854	 1.01423704277575 
1855	 1.29016776177263 
1856	 1.18268010038396 
1857	 0.824302184085036 
1858	 0.901879514899685 
1859	 1.50652443737383 
1860	 0.400646185297122 
1861	 2.84463505871944 
1862	 5.02233662648419 
1863	 1.33862007746515 
1864	 1.16643792722181 
1865	 1.36106986101526 
1866	 1.94646536055423 
1867	 2.57094490033194 
1868	 20.9781495160984 
1869	-7.2119659936312 
1870	-2.13235540041312 
1871	-0.610565128009292 
1872	 1.65015302931311E-02 
1873	 0.361348831426533 
1874	-1.02610686580089 
1875	 0.714471627410144 
1876	 0.390690015492745 
1877	 0.296438856456039 
1878	 0.383493552181836 
1879	 0.49179422708543 
1880	 0.493569007019185 
1881	 0.871634281779637 
1882	 0.517999026872983 
1883	 0.403199305289987 
1884	 0.603650903915946 
1885	 0.871066376883902 
1886	 1.14278104236186 
1887	 1.40143076939718 
1888	 0.728198548084084 
1889	 0.562389910029121 
1890	 0.624234491782506 
1891	 0.592860046691612 
1892	 0.279946943349383 
1893	 0.483588819910281 
1894	 0.200310720121924 
1895	 0.325135659526067 
1896	 0.325505330099629 
1897	 0.30918072674932 
1898	-0.671482681323026 
1899	 10.3038228253451 
1900	 6.15823494789413 
1901	 1.15145255727397 
1902	 1.31634823360399 
1903	 1.75099075460958 
1904	 0.529934730316538 
1905	 0.32805930309999 
1906	 0.513671730907553 
1907	 6.19399045680568E-03 
1908	 1.21883144713025 
1909	-5.22175574464279 
1910	-1.87473122187626 
1911	-0.336131146434084 
1912	 0.324298570183953 
1913	 0.200795800317733 
1914	 1.15945974769308 
1915	 1.73924277467829 
1916	-7.42144973471201 
1917	-2.66811973257122 
1918	-0.404576149377169 
1919	 7.44949202228518 
1920	-26.4158331340559 
1921	-1.4954169881072 
1922	 3.79291990781746E-02 
1923	 1.05709160821045 
1924	 0.877902717725615 
1925	 0.636368212609538 
1926	 0.577305984096824 
1927	 0.262153158048346 
1928	 0.366899187804203 
1929	 0.74243093875879 
1930	 3.63288730007002E-02 
1931	 3.14390236264808 
1932	 0.935336266939259 
1933	 1.24273504521712 
1934	 0.720179198326774 
1935	 6.25485935840273E-02 
1936	 0.120603349879651 
1937	 0.16568500695916 
1938	 7.39121309579766E-02 
1939	 8.93378675337479E-02 
1940	 0.235014027683051 
1941	 0.28768190602763 
1942	 0.105139994537602 
1943	 6.61788928218701E-02 
1944	 8.11490486072111E-02 
1945	 8.27764205467516E-03 
1946	 2.52784153673055E-02 
1947	 7.04522804522823E-02 
1948	 6.44195202891087E-02 
1949	 9.38988030418027E-02 
1950	 5.47350746910881E-02 
1951	 3.3808852677597E-03 
1952	-3.47505454204628E-03 
1953	 1.71172199816715E-02 
1954	-1.14921048031711E-02 
1955	-8.25190389874557E-04 
1956	 4.74326814744479E-02 
1957	 5.13061378608762E-02 
1958	 5.05256839195653E-02 
1959	 4.77198798871499E-02 
1960	 3.05122924431783E-02 
1961	 1.65584573844739E-02 
1962	 2.22096430463507E-02 
1963	 3.44067279062801E-02 
1964	 2.95912971870529E-02 
1965	 1.88395689604315E-02 
1966	 1.28968259754204E-02 
1967	 1.97643426785251E-03 
1968	-7.13336057947278E-03 
1969	-2.8536132419801E-03 
1970	 5.69581716077326E-03 
1971	 1.13022092116381E-02 
1972	 1.26185720036578E-02 
1973	 1.09908960264683E-02 
1974	 0.01099336670673 
1975	 1.18897996977681E-02 
1976	 1.11806269183806E-02 
1977	 8.68829137609455E-03 
1978	 7.49665902861137E-03 
1979	 6.06376542289207E-03 
1980	 3.75269850150842E-03 
1981	 1.6374638635752E-03 
1982	 1.70734159474163E-03 
1983	 6.57677807946002E-04 
1984	-4.64466666861341E-04 
1985	 2.10233415471238E-03 
1986	 5.28999248623646E-03 
1987	 5.74992288450393E-03 
1988	 0.004615149667101 
1989	 2.2213927722682E-03 
1990	 3.20319824812772E-03 
1991	 5.02342048190116E-03 
1992	 3.90644050683625E-03 
1993	 6.36033449008775E-03 
1994	 7.35506427122925E-03 
1995	 5.10318197802761E-03 
1996	 1.60073212395465E-03 
1997	 6.67160956187034E-03 
1998	 7.79812085610456E-03 
1999	 4.26201755322661E-03 
2000	 9.78728328800738E-03 
2001	 1.52160751382375E-02 
2002	 1.39775860098698E-02 
2003	 1.76098548640862E-02 
2004	 2.23951194417462E-02 
2005	 1.68605337310276E-02 
2006	 1.29695739497073E-02 
2007	 1.37143570319809E-02 
2008	 4.67968216470618E-03 
2009	 3.09685227374203E-05 
2010	-7.15361497643898E-04 
2011	-3.56454088726613E-03 
2012	-8.76382721100156E-03 
2013	-9.14099257701366E-03 
2014	-4.67879329009033E-03 
2015	 4.29034766172239E-04 
2016	 1.96945964978768E-03 
2017	 4.46096681660165E-03 
2018	 3.83524932368157E-03 
2019	-3.6989812201096E-03 
2020	-6.63994783977721E-03 
2021	-4.31847589808615E-03 
2022	 2.73960320564613E-04 
2023	 3.87491469198553E-03 
2024	 5.00695159530482E-03 
2025	 6.80593514746877E-03 
2026	 6.33824417969494E-03 
2027	 2.13514416618805E-03 
2028	 1.33821469443261E-03 
2029	 3.03379478717251E-03 
2030	 3.80114502935248E-03 
2031	 2.87797486692237E-03 
2032	 2.43907037450253E-03 
2033	 2.52897143540903E-03 
2034	 9.95183856201568E-04 
2035	 1.92287755546117E-03 
2036	 4.52344770123187E-03 
2037	 5.18779338962723E-03 
2038	 5.36290187284411E-03 
2039	 5.47965557722582E-03 
2040	 5.03833946531751E-03 
2041	 4.30834026346616E-03 
2042	 3.3727377347291E-03 
2043	 3.4493692560007E-03 
2044	 4.04322806426799E-03 
2045	 3.26127591221875E-03 
2046	 4.27058392427384E-03 
2047	 4.69135291474804E-03 
2048	 4.04749466607873E-03 
2049	 3.96810862736263E-03 
2050	 4.71531259306092E-03 
2051	 3.20180034358275E-03 
2052	 1.16190169765832E-03 
2053	 7.68622232578963E-04 
2054	 6.50056311396447E-04 
2055	 2.12070622206682E-03 
2056	 2.92558134438726E-03 
2057	 4.68331695263638E-03 
2058	 5.6936122104641E-03 
2059	 6.05781411889951E-03 
2060	 6.66971745139339E-03 
2061	 7.79997029680074E-03 
2062	 8.52655390712897E-03 
2063	 7.15203041205925E-03 
2064	 4.52008511280509E-03 
2065	 2.34844320417577E-03 
2066	 4.42275812008258E-04 
2067	 2.22851496350412E-03 
2068	 3.27218880251675E-03 
2069	 4.10063435866164E-04 
2070	 3.2931891455768E-04 
2071	 2.07915777062801E-04 
2072	-4.92260453194108E-04 
2073	-6.14717313376402E-04 
2074	-4.6229031606306E-05 
2075	 1.30681216466659E-03 
2076	 4.02858151092033E-03 
2077	 4.48225430938621E-03 
2078	 4.87252701807407E-03 
2079	 5.26266349035161E-03 
2080	 4.7913476029628E-03 
2081	 2.3617480209935E-03 
2082	 1.89014956258967E-03 
2083	 3.44113175066989E-03 
2084	 4.39446980058668E-03 
2085	 5.32303538346511E-03 
2086	 4.81573615173621E-03 
2087	 3.69086181393925E-03 
2088	 2.9550090026613E-03 
2089	 2.67746289872875E-03 
2090	 4.75463171348687E-03 
2091	 7.94204673019108E-03 
2092	 8.83996366519668E-03 
2093	 8.29072581549125E-03 
2094	 7.99867526398835E-03 
2095	 6.40764408913149E-03 
2096	 5.43154512845856E-03 
2097	 4.57223715405661E-03 
2098	 4.76727908111381E-03 
2099	 5.71740697640169E-03 
2100	 5.84854223354042E-03 
2101	 5.92987663383594E-03 
2102	 6.53838448573388E-03 
2103	 5.47631497177221E-03 
2104	 5.01699072391885E-03 
2105	 6.70355707295951E-03 
2106	 6.17596074284536E-03 
2107	 6.59508937183864E-03 
2108	 7.5280967646368E-03 
2109	 5.68606060902234E-03 
2110	 5.82893323860336E-03 
2111	 0.007166061607073 
2112	 7.3410140114101E-03 
2113	 7.59499637462673E-03 
2114	 9.34113312744744E-03 
2115	 9.40816763983288E-03 
2116	 6.78288463085142E-03 
2117	 6.38682194041118E-03 
2118	 7.25783173888781E-03 
2119	 7.57706953230149E-03 
2120	 8.18542810110983E-03 
2121	 9.24687075348281E-03 
2122	 1.00287333216424E-02 
2123	 9.04529339992588E-03 
2124	 6.56353617656948E-03 
2125	 5.75238486715383E-03 
2126	 0.005643412383811 
2127	 4.46109990084452E-03 
2128	 4.34004066814417E-03 
2129	 5.16933951693617E-03 
2130	 5.16617557836137E-03 
2131	 5.82196839676415E-03 
2132	 6.81441516527883E-03 
2133	 7.63775372266079E-03 
2134	 7.89594405670392E-03 
2135	 6.90839044354802E-03 
2136	 6.51562071234793E-03 
2137	 6.6316305926619E-03 
2138	 6.66065073025498E-03 
2139	 6.28657256336846E-03 
2140	 6.95047202696553E-03 
2141	 7.98325399853965E-03 
2142	 8.36197779666248E-03 
2143	 9.06313536172681E-03 
2144	 1.01214928614866E-02 
2145	 9.47905212435429E-03 
2146	 1.01145649676529E-02 
2147	 9.74296419515208E-03 
2148	 9.28453898830237E-03 
2149	 9.84528814546829E-03 
2150	 8.66950681732856E-03 
2151	 7.28780401406699E-03 
2152	 8.07204955994184E-03 
2153	 8.57214312999147E-03 
2154	 7.75959781805947E-03 
2155	 7.5968082096337E-03 
2156	 6.25253104590774E-03 
2157	 5.57373802641768E-03 
2158	 4.88322260514452E-03 
2159	 4.72629678894335E-03 
2160	 4.83251735150417E-03 
2161	 5.20420366484375E-03 
2162	 6.19601010328742E-03 
2163	 6.15867787786699E-03 
2164	 5.22695234983945E-03 
2165	 6.0662184632989E-03 
2166	 7.78469195162339E-03 
2167	 8.41114589283243E-03 
2168	 9.69890229734864E-03 
2169	 1.08765318889007E-02 
2170	 1.23083583467841E-02 
2171	 1.08599525341693E-02 
2172	 8.25024516869934E-03 
2173	 7.07900956525593E-03 
2174	 6.26464378115074E-03 
2175	 6.20198437925427E-03 
2176	 5.88592069974711E-03 
2177	 6.73929250013854E-03 
2178	 6.92109948361026E-03 
2179	 5.2342230849519E-03 
2180	 6.1078907985792E-03 
2181	 7.84246861942068E-03 
2182	 8.0915853408537E-03 
2183	 8.57770648207152E-03 
2184	 7.77830385129283E-03 
2185	 6.94716539035853E-03 
2186	 7.37950822846196E-03 
2187	 7.72858008076839E-03 
2188	 7.52228550037019E-03 
2189	 8.64046671428594E-03 
2190	 8.73315724524917E-03 
2191	 7.82577202784343E-03 
2192	 6.75934271873254E-03 
2193	 4.66851294272038E-03 
2194	 4.91460068791619E-03 
2195	 5.57024310318642E-03 
2196	 6.23845674364363E-03 
2197	 1.02269747118087E-02 
2198	 1.18897115649732E-02 
2199	 1.24489498342487E-02 
2200	 0.010957953425384 
2201	 1.01469197321513E-02 
2202	 6.91514418863935E-03 
2203	 4.56329106081911E-03 
2204	 3.22463433727706E-03 
2205	 1.63058754751905E-03 
2206	 4.48319912826507E-03 
2207	 6.12202836767356E-03 
2208	 6.59207797294535E-03 
2209	 9.28070985009709E-03 
2210	 1.02466162484482E-02 
2211	 1.16219434629597E-02 
2212	 1.15828031602567E-02 
2213	 9.46398948867574E-03 
2214	 7.86423877255835E-03 
2215	 6.7693387132211E-03 
2216	 6.39376429039224E-03 
2217	 5.12121249110798E-03 
2218	 3.0124292360192E-03 
2219	 3.47054031621579E-03 
2220	 4.46539686076839E-03 
2221	 4.66352565536128E-03 
2222	 7.60115841685055E-03 
2223	 8.68608289386584E-03 
2224	 6.41147639220155E-03 
2225	 7.45713399064653E-03 
2226	 1.09614324476103E-02 
2227	 1.15655404247628E-02 
2228	 1.24001937503346E-02 
2229	 1.23475307730813E-02 
2230	 9.82124636908788E-03 
2231	 9.96639769861898E-03 
2232	 1.16837522441597E-02 
2233	 1.12497080978302E-02 
2234	 1.15596880199485E-02 
2235	 9.29447934418602E-03 
2236	 7.02428661335775E-03 
2237	 6.33352405920448E-03 
2238	 6.18310850465835E-03 
2239	 7.56244859113988E-03 
2240	 6.4740536445611E-03 
2241	 6.85219062686335E-03 
2242	 8.82308064639413E-03 
2243	 7.68360868490988E-03 
2244	 4.47889547301846E-03 
2245	 1.18487827233173E-03 
2246	 3.10795867523687E-04 
2247	 3.9069011822032E-04 
2248	 3.22345637307903E-03 
2249	 8.45704890761291E-03 
2250	 1.16694490469461E-02 
2251	 1.26718619697174E-02 
2252	 1.28664782663028E-02 
2253	 1.17180676841601E-02 
2254	 0.010053119876912 
2255	 1.00768637605407E-02 
2256	 1.20387028439509E-02 
2257	 1.60603365904045E-02 
2258	 1.23577341483789E-02 
2259	 5.53595155714456E-03 
2260	 5.22335847673652E-03 
2261	 5.27340469525308E-03 
2262	 5.33578956009841E-03 
2263	 1.37244722838655E-02 
2264	 1.46174594240221E-02 
2265	 7.13799614999375E-03 
2266	 6.13840823358182E-03 
2267	 8.2008923443811E-03 
2268	 8.48622929013898E-03 
2269	 0.010182300760129 
2270	 9.88263747973457E-03 
2271	 6.30794136777942E-03 
2272	 4.85942242373316E-03 
2273	 3.48983563443723E-03 
2274	 5.71850696068347E-03 
2275	 1.28559894150208E-02 
2276	 1.31577289593261E-02 
2277	 0.011675380868211 
2278	 1.14126133987534E-02 
2279	 5.4858273035949E-03 
2280	 3.92323161183918E-03 
2281	 6.11492130496255E-03 
2282	 9.82731791852383E-03 
2283	 9.82612338558373E-03 
2284	 1.46091810311873E-02 
2285	 2.20073832486939E-02 
2286	 2.14687485530484E-02 
2287	 2.09633094597352E-02 
2288	 0.017505342558913 
2289	 0.010505264635785 
2290	 1.01333638740472E-02 
2291	 1.35539212998852E-02 
2292	 1.67140274356026E-02 
2293	 1.66190749245653E-02 
2294	 1.23771295493429E-02 
2295	 7.52039777192948E-03 
2296	 5.00153096273428E-03 
2297	 8.21807015550341E-03 
2298	 1.33741835705262E-02 
2299	 0.012397136606899 
2300	 9.46826029409994E-03 
2301	 0.011418340174806 
2302	 1.38041703248384E-02 
2303	 1.51868171838776E-02 
2304	 1.45932006947204E-02 
2305	 9.51484158137945E-03 
2306	 5.11890035768498E-03 
2307	 2.64140813106879E-03 
2308	 4.12982692022687E-03 
2309	 8.81504698325181E-03 
2310	 8.23284813482195E-03 
2311	 5.39825599074541E-03 
2312	 8.31107907899565E-03 
2313	 7.13362392428053E-03 
2314	 1.02456964214036E-03 
2315	 4.21894172658594E-03 
2316	 5.20003401054684E-03 
2317	-4.6478762286197E-04 
2318	 7.85762701943248E-03 
2319	 1.71582057010593E-02 
2320	 1.31838878220533E-02 
2321	 0.014964240499083 
2322	 1.72854972543073E-02 
2323	 0.010014931208966 
2324	 0.006277037330168 
2325	 8.12695719420019E-03 
2326	 9.01654401582234E-03 
2327	 9.90443971661068E-03 
2328	 1.48085818126152E-02 
2329	 1.23069844066757E-02 
2330	 3.49223235420064E-03 
2331	 2.48409338650924E-03 
2332	 1.51900445555272E-03 
2333	 2.57128199777281E-03 
2334	 7.56499044723362E-03 
2335	 1.03876832454418E-02 
2336	 1.10005131351792E-02 
2337	 1.18146400783954E-02 
2338	 1.70806384051783E-02 
2339	 0.026525268134038 
2340	 3.36990208505186E-02 
2341	 3.20009920524834E-02 
2342	 2.73364380073689E-02 
2343	 1.11366661313012E-02 
2344	-2.77637558165961E-03 
2345	 3.04339199313409E-03 
2346	 1.27809212089609E-02 
2347	 2.83694528440329E-02 
2348	 2.80915268787844E-02 
2349	 2.03645992297444E-02 
2350	 2.15492492517133E-02 
2351	 1.51082696614322E-02 
2352	 3.06624561409359E-02 
2353	 3.61781031138846E-02 
2354	 0.028858819198363 
2355	 3.31592923104491E-02 
2356	 0.025263178771798 
2357	 3.56259585446716E-02 
2358	 3.65629483085607E-02 
2359	 1.87789943861799E-02 
2360	 1.13146444423738E-02 
2361	-1.52650127666225E-02 
2362	-3.09314221119935E-02 
2363	-1.93685359612504E-02 
2364	-1.01867107812269E-02 
2365	-1.79472927719108E-02 
2366	-3.84248309737224E-02 
2367	-4.15096429013933E-02 
2368	-4.75136603595843E-02 
2369	-4.56303180891311E-02 
2370	 8.05653230302812E-05 
2371	 2.80278376678667E-02 
2372	 3.52659656709827E-03 
2373	-1.03272298408383E-02 
2374	-2.59441286234373E-02 
2375	-4.40240237922771E-02 
2376	-4.67434028495872E-03 
2377	 2.95840183921206E-02 
2378	 3.20811667556856E-02 
2379	 0.034286246598218 
2380	 2.59346326452984E-02 
2381	-8.63982635972582E-03 
2382	-3.01609931059928E-02 
2383	-0.022586879584434 
2384	-4.66727482573307E-02 
2385	-0.068692691577168 
2386	-5.36751095014858E-02 
2387	-5.58523955883834E-02 
2388	-8.25810050147489E-02 
2389	-0.041885132412833 
2390	 1.33792033198934E-02 
2391	 3.27466186934096E-02 
2392	 7.13782011412057E-02 
2393	 5.45597955735723E-02 
2394	 1.09784205494957E-02 
2395	 1.76280617176906E-02 
2396	 1.64403036224591E-02 
2397	 5.3777079295095E-03 
2398	-1.37926981834693E-02 
2399	-6.83078754726445E-02 
2400	-0.114666929343746 
2401	-9.56765819876301E-02 
2402	-5.19400883788145E-02 
2403	-2.70181153770869E-02 
2404	 5.85148179334229E-02 
2405	 0.127803388525891 
2406	 0.088587079059016 
2407	 3.05608490247371E-02 
2408	-3.55691487468138E-02 
2409	-0.121511331857365 
2410	-0.166535437747166 
2411	-0.103706909764693 
2412	-5.89934303495004E-02 
2413	-0.161906272640994 
2414	-0.126819209783218 
2415	-8.88274717432267E-03 
2416	-3.33596869908977E-02 
2417	 0.007709345576776 
2418	 6.35082533414418E-02 
2419	-5.21771114808854E-02 
2420	 6.75208476904046E-02 
2421	 0.234527880011236 
2422	 0.168599883803071 
2423	 0.132273542799175 
2424	 8.54957028070531E-02 
2425	-0.016881127471867 
2426	 0.013614704222131 
2427	 8.27073590375706E-02 
2428	-1.57005625158245E-02 
2429	-0.155596383782995 
2430	-0.154896895257948 
2431	-0.236090822958237 
2432	-0.30428867765469 
2433	-0.186623016550605 
2434	-0.190230851063155 
2435	-0.178906827358033 
2436	-0.027184023260207 
2437	-8.58511178825846E-02 
2438	-0.22717000995034 
2439	-0.308670062768455 
2440	-0.346174603201701 
2441	-0.141778823746389 
2442	-6.76474238663687E-02 
2443	-0.112529257944089 
2444	-0.143748682982262 
2445	-0.222569890816821 
2446	-0.319151485381635 
2447	-0.226120539798324 
2448	-0.228487856592838 
2449	-0.393543324694352 
2450	-0.382563469682989 
2451	 0.89667488712484 
2452	 2.46834423579237 
2453	 0.130250504712818 
2454	-0.862889026800583 
2455	-0.987773458421943 
2456	-0.609156516613369 
2457	-0.228098414200789 
2458	 0.238884870002279 
2459	 0.47116938623284 
2460	 0.369572225489687 
2461	 0.24367689162772 
2462	-7.10869990335148E-02 
2463	-0.227425592920808 
2464	-0.834229187119046 
2465	-1.93323131385081 
2466	-0.402458720993235 
2467	-0.471339097184099 
2468	-0.311873010802793 
2469	 6.17522812450867E-03 
2470	-1.84488098023211 
2471	 11.8134215893848 
2472	 5.83566766029064 
2473	 5.73506897519929 
2474	 3.04129842864305 
2475	 8.35497659056314E-02 
2476	 2.0148717100798 
2477	 0.622882809497384 
2478	 0.534346486666675 
2479	 1.27406069365056 
2480	 4.29979843153247 
2481	 303.362267244816 
2482	-11.5679777339227 
2483	 2.63101022915444 
2484	 0.700533934602034 
2485	 0.609118712233527 
2486	-0.352979984980199 
2487	-4.23106578981856 
2488	 1.36862907294185 
2489	-10.0212528316625 
2490	-3.01348165027879 
2491	-3.2931681286304 
2492	-0.371153356693012 
2493	 2.83478436678725 
2494	 1.91384373359534 
2495	 0.739126038511569 
2496	 7.93212176616259E-02 
2497	-0.493242853238978 
2498	-0.345680617935444 
2499	-0.97941545734841 
2500	-0.306579628087842 
