Wavelength	rt0726sus_algea00003.asd
350	 7.12323181169063E-02 
351	 7.20173557097276E-02 
352	 7.14431394871068E-02 
353	 7.10536852728309E-02 
354	 7.17898279052335E-02 
355	 7.19425613902803E-02 
356	 7.19705943990993E-02 
357	 0.072100507418728 
358	 7.23131257023723E-02 
359	 7.17059556055131E-02 
360	 7.15162073690001E-02 
361	 7.18534478042838E-02 
362	 7.19909262465892E-02 
363	 7.14536956034402E-02 
364	 7.12701045826734E-02 
365	 7.17146196608161E-02 
366	 7.16846002132128E-02 
367	 7.13844910813562E-02 
368	 7.11593574653563E-02 
369	 7.12891537491165E-02 
370	 7.16891493710218E-02 
371	 7.16869631710184E-02 
372	 7.14511344328675E-02 
373	 7.15380932427713E-02 
374	 7.10398106117435E-02 
375	 7.11178920642284E-02 
376	 7.17458552777516E-02 
377	 7.10822705087651E-02 
378	 7.09461326235376E-02 
379	 7.12544555566935E-02 
380	 7.14765024980601E-02 
381	 7.11626870808086E-02 
382	 7.11313799287405E-02 
383	 7.12702322178163E-02 
384	 7.10706467743408E-02 
385	 7.07117965065498E-02 
386	 7.06992461521236E-02 
387	 7.09552041879535E-02 
388	 7.07732574355495E-02 
389	 7.05041030437366E-02 
390	 7.05246266691302E-02 
391	 7.08024563606268E-02 
392	 7.02684338556463E-02 
393	 0.070460453174344 
394	 7.08603136159844E-02 
395	 7.04945837786005E-02 
396	 7.02868454610992E-02 
397	 7.02268027689703E-02 
398	 7.02671027972836E-02 
399	 7.03772315642367E-02 
400	 7.05377361374683E-02 
401	 7.04247698587427E-02 
402	 7.00728049486496E-02 
403	 7.04283597172819E-02 
404	 7.04825125238845E-02 
405	 7.02487696126327E-02 
406	 7.01154781944908E-02 
407	 7.02390845082935E-02 
408	 7.02929087455533E-02 
409	 0.070185592847277 
410	 7.00915845868123E-02 
411	 7.02667703080389E-02 
412	 7.03188295400767E-02 
413	 7.00660583103097E-02 
414	 7.01081519872658E-02 
415	 7.00545013893685E-02 
416	 7.00357652312739E-02 
417	 7.02771134111027E-02 
418	 7.02614246747032E-02 
419	 7.02516279808579E-02 
420	 7.03053670695204E-02 
421	 7.02151668607991E-02 
422	 7.04405946708637E-02 
423	 7.06227733348602E-02 
424	 7.04922007337869E-02 
425	 7.04731657458188E-02 
426	 0.070671033111342 
427	 7.09635980684659E-02 
428	 7.11243062799762E-02 
429	 7.11752484593084E-02 
430	 7.11535681386852E-02 
431	 7.11544108029671E-02 
432	 7.13262177964918E-02 
433	 7.14342990627473E-02 
434	 7.15678821809026E-02 
435	 7.17990819871228E-02 
436	 7.19366031953951E-02 
437	 7.20439836171408E-02 
438	 0.072122341088597 
439	 7.21603171559271E-02 
440	 0.072337270119864 
441	 7.25075611777099E-02 
442	 7.26099742821368E-02 
443	 7.27599550377107E-02 
444	 7.28746157251472E-02 
445	 0.072970468050954 
446	 7.30670783333759E-02 
447	 0.073075857545754 
448	 7.31826789691501E-02 
449	 7.33267987187054E-02 
450	 7.32895260273506E-02 
451	 7.33152309685908E-02 
452	 7.34325875105282E-02 
453	 0.073593924942897 
454	 7.36749613306604E-02 
455	 7.36297094577618E-02 
456	 7.36011878088705E-02 
457	 7.37328491137808E-02 
458	 7.37628371226763E-02 
459	 7.37262101055025E-02 
460	 7.36966625756935E-02 
461	 7.37641102639524E-02 
462	 7.38403722603319E-02 
463	 0.073859609975564 
464	 7.38165948340574E-02 
465	 7.38548855867242E-02 
466	 7.38613444214061E-02 
467	 7.38988405321497E-02 
468	 0.074065003870478 
469	 7.40515182990759E-02 
470	 7.40477874960979E-02 
471	 7.41263495893379E-02 
472	 7.41421880261471E-02 
473	 7.42502812563303E-02 
474	 7.43729620685722E-02 
475	 7.44140254240475E-02 
476	 0.074424314052034 
477	 7.45047351013861E-02 
478	 7.45797139866591E-02 
479	 7.44894765941256E-02 
480	 7.45835555544277E-02 
481	 0.074668375129382 
482	 0.074662226563871 
483	 7.48641818542965E-02 
484	 7.50482200629223E-02 
485	 7.51524817902234E-02 
486	 7.52001432559681E-02 
487	 7.53103918213058E-02 
488	 7.54641959437502E-02 
489	 7.56180841926423E-02 
490	 7.57202413574497E-02 
491	 7.58305460538076E-02 
492	 7.60135156486696E-02 
493	 7.62867513860554E-02 
494	 7.65534090817971E-02 
495	 0.076829938922997 
496	 7.70413463671678E-02 
497	 7.71194547905668E-02 
498	 7.74182526448042E-02 
499	 7.77305090748743E-02 
500	 7.79422194577803E-02 
501	 7.81697971579235E-02 
502	 7.85482284009332E-02 
503	 7.89413414693258E-02 
504	 7.92078670563492E-02 
505	 7.95355402999102E-02 
506	 7.98459110002741E-02 
507	 8.01289791103518E-02 
508	 0.080435192287443 
509	 8.07919482616589E-02 
510	 8.12332444483011E-02 
511	 8.17204253395127E-02 
512	 8.20470825083243E-02 
513	 8.23801621395288E-02 
514	 8.27716606753412E-02 
515	 8.32283337699635E-02 
516	 0.083822204138471 
517	 8.43256912501542E-02 
518	 8.46920629542426E-02 
519	 8.51267684160606E-02 
520	 0.085523387454491 
521	 8.59560034169509E-02 
522	 8.64897897165537E-02 
523	 8.70297218133712E-02 
524	 8.75191457334988E-02 
525	 0.087967589541679 
526	 8.84340572047921E-02 
527	 8.89152795850423E-02 
528	 8.94104306770649E-02 
529	 8.98955887005553E-02 
530	 9.02943980136123E-02 
531	 9.07588665548049E-02 
532	 9.12809094834529E-02 
533	 9.17847707112812E-02 
534	 9.22083906336618E-02 
535	 9.26501944804108E-02 
536	 9.31287194105913E-02 
537	 9.35594041757159E-02 
538	 9.40729046213947E-02 
539	 9.45530052384793E-02 
540	 9.49275755455851E-02 
541	 9.54648306228622E-02 
542	 9.59978287259344E-02 
543	 9.64328391988322E-02 
544	 9.67553987652612E-02 
545	 0.097227354011073 
546	 9.76929587793708E-02 
547	 9.80738850078628E-02 
548	 0.098554136635376 
549	 9.90108369082155E-02 
550	 9.93699860738348E-02 
551	 9.96350641270715E-02 
552	 0.100135470209902 
553	 0.100567863385222 
554	 0.100856951891824 
555	 0.101219843889419 
556	 0.101562503098325 
557	 0.101924802768212 
558	 0.102319992601761 
559	 0.102595577707613 
560	 0.102881956688454 
561	 0.103152190044656 
562	 0.103312117010696 
563	 0.103648887512837 
564	 0.103980494849806 
565	 0.104176355087757 
566	 0.104315372051118 
567	 0.104537470068641 
568	 0.104762237548318 
569	 0.104859793948935 
570	 0.10496346664333 
571	 0.105087958875397 
572	 0.105219720984439 
573	 0.1053225881831 
574	 0.105385194216094 
575	 0.105468176064065 
576	 0.105593628295848 
577	 0.105610981498753 
578	 0.105576668308724 
579	 0.105555314945231 
580	 0.105603539706914 
581	 0.105648755926735 
582	 0.105635838118872 
583	 0.105589530068595 
584	 0.10567924290744 
585	 0.105719464396563 
586	 0.105821459014239 
587	 0.106121708352441 
588	 0.106244724051706 
589	 0.106242752945211 
590	 0.106209983285625 
591	 0.106240884861153 
592	 0.106293889816109 
593	 0.106340362447323 
594	 0.10634511987909 
595	 0.106240738149252 
596	 0.106221023017408 
597	 0.106167073489761 
598	 0.105848341462642 
599	 0.105804786355219 
600	 0.105826325741374 
601	 0.10574794423151 
602	 0.105639131354108 
603	 0.105605564731145 
604	 0.105591803480359 
605	 0.10551466789745 
606	 0.105455469694841 
607	 0.105426218085503 
608	 0.105412209044285 
609	 0.10537367550345 
610	 0.105266059171354 
611	 0.105163053758537 
612	 0.105104788002408 
613	 0.104941614725488 
614	 0.104895438169135 
615	 0.10488233834641 
616	 0.104686776213649 
617	 0.104588587926188 
618	 0.104556405165908 
619	 0.104532656489665 
620	 0.104473983427072 
621	 0.104508346048168 
622	 0.104535363303098 
623	 0.104438711183083 
624	 0.104406299687539 
625	 0.104409141204208 
626	 0.104447736833968 
627	 0.104545562122758 
628	 0.104446704163382 
629	 0.104323033543865 
630	 0.104305739349131 
631	 0.104187082083334 
632	 0.104104695872239 
633	 0.104045392971704 
634	 0.10392643354534 
635	 0.103712003467401 
636	 0.103575542446601 
637	 0.103513462027534 
638	 0.10324072823775 
639	 0.103059173837485 
640	 0.102986943891007 
641	 0.102940077068948 
642	 0.102787214186691 
643	 0.102678740537166 
644	 0.102582795100925 
645	 0.102339959184879 
646	 0.102343176992092 
647	 0.102300035887523 
648	 0.102010333752859 
649	 0.101766556319991 
650	 0.101619886210357 
651	 0.101493766504512 
652	 0.101284066506415 
653	 0.101104888096517 
654	 0.100902259795032 
655	 0.100655576322627 
656	 0.100435129451551 
657	 0.100184025105722 
658	 9.98202252565631E-02 
659	 9.93212286120354E-02 
660	 9.88831942059994E-02 
661	 9.84698285173606E-02 
662	 9.80329303654989E-02 
663	 9.75492152420411E-02 
664	 9.72645177592698E-02 
665	 9.70247196505866E-02 
666	 9.66935486626417E-02 
667	 9.62485884396189E-02 
668	 9.60663791881355E-02 
669	 9.59636846472638E-02 
670	 0.095688839572794 
671	 9.56722575390999E-02 
672	 9.57394963940341E-02 
673	 9.58002172199918E-02 
674	 9.58755531709873E-02 
675	 9.60700615357048E-02 
676	 9.62787436484906E-02 
677	 9.64519121397311E-02 
678	 9.67684317223126E-02 
679	 9.72615572536124E-02 
680	 9.77754442345314E-02 
681	 9.81371764002312E-02 
682	 9.87210684286797E-02 
683	 9.94810318096137E-02 
684	 0.100379662496667 
685	 0.101543723353397 
686	 0.103071782794791 
687	 0.104407199332039 
688	 0.105124314135977 
689	 0.106137865338768 
690	 0.107391235827275 
691	 0.108724250396736 
692	 0.109953692723548 
693	 0.111381005374442 
694	 0.112594501213878 
695	 0.113447106524561 
696	 0.114427579108492 
697	 0.115647968804194 
698	 0.116990436464138 
699	 0.118167179968883 
700	 0.119079606295504 
701	 0.12009221361843 
702	 0.121134627833676 
703	 0.121849190356194 
704	 0.122662347513322 
705	 0.123530560197096 
706	 0.124339847525575 
707	 0.125055450211247 
708	 0.125707910302662 
709	 0.126268053779826 
710	 0.126718891164745 
711	 0.127212786094124 
712	 0.127694838074275 
713	 0.128149401543069 
714	 0.12863494576492 
715	 0.129473179349334 
716	 0.130407441579821 
717	 0.130981528938577 
718	 0.131348460109846 
719	 0.130907080514231 
720	 0.130212465499568 
721	 0.129925797335401 
722	 0.130125956689238 
723	 0.130244525515988 
724	 0.130002646373063 
725	 0.129704440591781 
726	 0.129243646338441 
727	 0.12850395542766 
728	 0.12751835112063 
729	 0.126811020904984 
730	 0.125567001629 
731	 0.124003309020665 
732	 0.122707157083744 
733	 0.121790233186153 
734	 0.121104694412493 
735	 0.12054953789717 
736	 0.120075205774721 
737	 0.119656107495527 
738	 0.119301876739724 
739	 0.119024628814017 
740	 0.11877118883788 
741	 0.118694358841125 
742	 0.118728741129297 
743	 0.118714706993222 
744	 0.118778960322174 
745	 0.118798652467778 
746	 0.118780028648034 
747	 0.11892964508177 
748	 0.11903730123188 
749	 0.11913909163012 
750	 0.119267193801392 
751	 0.119217970818879 
752	 0.119263430267484 
753	 0.119416112315015 
754	 0.119543079766693 
755	 0.119638918656136 
756	 0.119712023451417 
757	 0.119908276240268 
758	 0.120775508896917 
759	 0.122431105516125 
760	 0.12399838003581 
761	 0.123654858848684 
762	 0.123597615162181 
763	 0.122990478786116 
764	 0.122140190160124 
765	 0.121548879326703 
766	 0.121265589964995 
767	 0.121159099821841 
768	 0.121177176473814 
769	 0.121329016117663 
770	 0.121410795846032 
771	 0.121470549571928 
772	 0.121598499176399 
773	 0.121854157218949 
774	 0.122088565995502 
775	 0.122257465064989 
776	 0.122388646625321 
777	 0.122580074482396 
778	 0.122871674233542 
779	 0.123180290979318 
780	 0.123327378923163 
781	 0.123560863870592 
782	 0.12384850355827 
783	 0.124138844744266 
784	 0.124454768524069 
785	 0.124859771667512 
786	 0.125276264619675 
787	 0.125600911015815 
788	 0.12591603036222 
789	 0.126184821389242 
790	 0.126487764167601 
791	 0.126947563776853 
792	 0.127008087086928 
793	 0.127152418931283 
794	 0.127597830410332 
795	 0.127892347275165 
796	 0.128159288098214 
797	 0.128456713006305 
798	 0.128784386240385 
799	 0.128930613814154 
800	 0.129148878431953 
801	 0.129432694395294 
802	 0.129629453487771 
803	 0.129724133121069 
804	 0.129836582652691 
805	 0.129954020456469 
806	 0.129918353707694 
807	 0.129924163711802 
808	 0.130031138210625 
809	 0.130186895469421 
810	 0.130106921755542 
811	 0.130270678012199 
812	 0.130528610642209 
813	 0.130506332015155 
814	 0.130363794157019 
815	 0.130312529785362 
816	 0.130199404831548 
817	 0.129676048023095 
818	 0.12939463536448 
819	 0.128783999017718 
820	 0.127886566678896 
821	 0.127673352635785 
822	 0.12678902036245 
823	 0.125653492297444 
824	 0.124772559249866 
825	 0.12352161432936 
826	 0.122493841452633 
827	 0.121448993145951 
828	 0.119993807286455 
829	 0.118464363639636 
830	 0.117092335432972 
831	 0.115974302860479 
832	 0.11508477438498 
833	 0.113889348019946 
834	 0.11313240706362 
835	 0.112831474386326 
836	 0.111936951932598 
837	 0.111706102483238 
838	 0.111383766430838 
839	 0.110488465414428 
840	 0.110369259374676 
841	 0.110140737724638 
842	 0.1097715044274 
843	 0.109475769369459 
844	 0.109074508529317 
845	 0.108759297282258 
846	 0.108544016444512 
847	 0.108307990072723 
848	 0.107995498849706 
849	 0.107697604874312 
850	 0.107443894941845 
851	 0.107159790691709 
852	 0.106850153748425 
853	 0.106686752198759 
854	 0.10666591001175 
855	 0.106353351747094 
856	 0.106053337517798 
857	 0.105893753716906 
858	 0.105826326127349 
859	 0.105360581967876 
860	 0.105152146541996 
861	 0.105129570153578 
862	 0.104870920758095 
863	 0.104356145421449 
864	 0.104154141826756 
865	 0.104207140811204 
866	 0.10390693274814 
867	 0.103694157969625 
868	 0.103427266602645 
869	 0.103040508979629 
870	 0.102661765104417 
871	 0.102407325723059 
872	 0.102214333163881 
873	 0.101965214647372 
874	 0.101514708213658 
875	 0.101278781002249 
876	 0.100960995595672 
877	 0.100311081149523 
878	 0.1000880715444 
879	 9.97563742234693E-02 
880	 9.93075181878615E-02 
881	 9.89598010164266E-02 
882	 9.86349581835242E-02 
883	 9.81060116414375E-02 
884	 9.75348457367969E-02 
885	 9.73302786591685E-02 
886	 9.73791654032375E-02 
887	 0.09690106993519 
888	 9.61244594909161E-02 
889	 9.63450503748467E-02 
890	 9.59533873995707E-02 
891	 9.55592030290654E-02 
892	 9.56207184080647E-02 
893	 9.55573672508772E-02 
894	 9.53609113597905E-02 
895	 9.52265031270556E-02 
896	 9.52490307362996E-02 
897	 9.49411624820498E-02 
898	 9.49082128234451E-02 
899	 9.47285508427369E-02 
900	 9.39636333855212E-02 
901	 9.33319252819891E-02 
902	 9.28233333783284E-02 
903	 9.23822300878262E-02 
904	 9.19843264615686E-02 
905	 9.19147741443221E-02 
906	 9.17294803073201E-02 
907	 9.14221651197057E-02 
908	 9.12742932518564E-02 
909	 9.09634155735428E-02 
910	 9.05251162871097E-02 
911	 9.00381189434885E-02 
912	 8.95538236716465E-02 
913	 0.088870466083432 
914	 8.80856543792129E-02 
915	 8.70198189949438E-02 
916	 8.53067406532093E-02 
917	 8.44105261522397E-02 
918	 8.35532083679479E-02 
919	 8.25452834215426E-02 
920	 8.23268116286776E-02 
921	 8.11763102209307E-02 
922	 7.99884120515074E-02 
923	 7.94917647035548E-02 
924	 7.90207056338835E-02 
925	 7.76735810838067E-02 
926	 7.64970806524779E-02 
927	 7.65682797890269E-02 
928	 7.63964969305683E-02 
929	 7.56854011057725E-02 
930	 7.57980248883135E-02 
931	 7.78587134804148E-02 
932	 7.33630823108889E-02 
933	 7.31816689499526E-02 
934	 7.61037889544586E-02 
935	 7.43375637023752E-02 
936	 6.98871358912688E-02 
937	 6.93326490745101E-02 
938	 7.05095619932851E-02 
939	 6.93197152224878E-02 
940	 6.51304656431123E-02 
941	 6.48033772533486E-02 
942	 6.61921431646741E-02 
943	 6.35371790519061E-02 
944	 6.01113425229586E-02 
945	 6.02359315073297E-02 
946	 6.21814123158101E-02 
947	 6.09705678596894E-02 
948	 0.055906806694775 
949	 5.68176493805863E-02 
950	 6.09489660433472E-02 
951	 5.92422647836561E-02 
952	 5.66854764040758E-02 
953	 5.62339599911495E-02 
954	 0.055881599723772 
955	 5.21289520379972E-02 
956	 5.39157145903351E-02 
957	 5.55136694559535E-02 
958	 5.46784412599784E-02 
959	 5.30650404683596E-02 
960	 5.43516147745232E-02 
961	 5.41548320682756E-02 
962	 5.26070367160532E-02 
963	 0.052817154952932 
964	 5.14940739979015E-02 
965	 5.14228550400468E-02 
966	 5.26412128101905E-02 
967	 5.29844713683452E-02 
968	 5.19383248899332E-02 
969	 5.08391149843746E-02 
970	 5.04341792026601E-02 
971	 0.050691815789873 
972	 5.09884702589723E-02 
973	 5.22225949871208E-02 
974	 5.26736440985404E-02 
975	 4.92750421370323E-02 
976	 5.01559642292717E-02 
977	 5.17004490742288E-02 
978	 5.17470129258695E-02 
979	 5.10110464174776E-02 
980	 5.07735449350218E-02 
981	 5.04513245312951E-02 
982	 4.99030265088442E-02 
983	 4.95314613859426E-02 
984	 4.97357253802128E-02 
985	 4.99322248765335E-02 
986	 4.99099838824307E-02 
987	 4.97165127117321E-02 
988	 0.048033201219918 
989	 4.89219148319628E-02 
990	 5.09877279892585E-02 
991	 4.95776242940441E-02 
992	 4.95496082819741E-02 
993	 4.93365175449411E-02 
994	 4.85790911689394E-02 
995	 4.82287598352708E-02 
996	 4.94010491839512E-02 
997	 0.050223684493369 
998	 5.02827336049652E-02 
999	 5.02721146036198E-02 
1000	 5.03405301357438E-02 
1001	 5.50964153979991E-02 
1002	 5.55412189760211E-02 
1003	 5.58532010884704E-02 
1004	 5.65916882625076E-02 
1005	 5.70279118652354E-02 
1006	 5.70851422342353E-02 
1007	 5.70741420469265E-02 
1008	 5.74929197639271E-02 
1009	 5.76897859451541E-02 
1010	 0.057576701284038 
1011	 5.74092642207681E-02 
1012	 5.73740143589393E-02 
1013	 5.72923670844663E-02 
1014	 5.75548798703997E-02 
1015	 5.85396175946646E-02 
1016	 0.058838250146009 
1017	 5.88840839567654E-02 
1018	 5.90462280159817E-02 
1019	 5.88032665205566E-02 
1020	 5.89267085142379E-02 
1021	 5.92142666431539E-02 
1022	 5.98267951140511E-02 
1023	 6.02278449104067E-02 
1024	 6.05086405342023E-02 
1025	 6.03392929947592E-02 
1026	 5.97666399903849E-02 
1027	 5.96947804541767E-02 
1028	 5.93517942839445E-02 
1029	 5.98066425905324E-02 
1030	 6.11220737163292E-02 
1031	 6.17931112365498E-02 
1032	 6.26743834155347E-02 
1033	 6.31395975182151E-02 
1034	 6.30632997660908E-02 
1035	 6.32711045574648E-02 
1036	 6.33310694657701E-02 
1037	 6.37306832981827E-02 
1038	 6.42887107331909E-02 
1039	 6.50060921664569E-02 
1040	 6.59598963151028E-02 
1041	 6.62969222578152E-02 
1042	 6.68627503764713E-02 
1043	 6.72069873780739E-02 
1044	 6.79122466656252E-02 
1045	 0.068956291971899 
1046	 6.96292356047743E-02 
1047	 7.01850481362224E-02 
1048	 7.08826984722624E-02 
1049	 0.071474971929265 
1050	 7.20834071923305E-02 
1051	 7.30387899559185E-02 
1052	 7.36212373795396E-02 
1053	 7.36847379531123E-02 
1054	 7.41034719632145E-02 
1055	 7.45646726667446E-02 
1056	 7.50803181593112E-02 
1057	 7.56986736721483E-02 
1058	 7.66215891946597E-02 
1059	 7.72198858429516E-02 
1060	 7.77455107036254E-02 
1061	 7.81955580628264E-02 
1062	 7.85529460740704E-02 
1063	 7.88487967814726E-02 
1064	 7.90713996811955E-02 
1065	 7.92400985305619E-02 
1066	 7.93242634271326E-02 
1067	 7.93796755387523E-02 
1068	 7.94182348416282E-02 
1069	 7.93441746947933E-02 
1070	 7.92114847419085E-02 
1071	 7.90117885686141E-02 
1072	 7.87628334583503E-02 
1073	 7.82989944740442E-02 
1074	 7.79999997703743E-02 
1075	 7.76462535999098E-02 
1076	 7.73908736056859E-02 
1077	 7.72202797721985E-02 
1078	 7.71020770656136E-02 
1079	 7.71491235261257E-02 
1080	 7.69208556111025E-02 
1081	 7.65258660810578E-02 
1082	 7.62891028672492E-02 
1083	 7.62208285409501E-02 
1084	 7.57353866545454E-02 
1085	 7.50287747111655E-02 
1086	 7.44901222969013E-02 
1087	 7.31445921114009E-02 
1088	 7.26269642805268E-02 
1089	 7.30591721934093E-02 
1090	 7.34428316396695E-02 
1091	 0.073033634477788 
1092	 0.07265487228888 
1093	 7.19977101096344E-02 
1094	 6.99664728832296E-02 
1095	 6.95093307232349E-02 
1096	 7.00381524065984E-02 
1097	 7.00252796431239E-02 
1098	 0.070739294790912 
1099	 7.04856000900935E-02 
1100	 6.93831651003919E-02 
1101	 6.88091755112798E-02 
1102	 6.76122318786372E-02 
1103	 0.067225031393992 
1104	 6.83394909190193E-02 
1105	 6.75941904837456E-02 
1106	 6.73520316459848E-02 
1107	 6.80268604698565E-02 
1108	 6.72553549317725E-02 
1109	 6.71332170386516E-02 
1110	 6.69146717156298E-02 
1111	 6.63061071129566E-02 
1112	 0.066476183065551 
1113	 6.76166677941203E-02 
1114	 6.79262073829139E-02 
1115	 6.84594498063392E-02 
1116	 6.89105720210393E-02 
1117	 6.87682840873336E-02 
1118	 6.85024444094612E-02 
1119	 6.70708680909229E-02 
1120	 6.75988113362168E-02 
1121	 6.86719336285296E-02 
1122	 7.18679870863374E-02 
1123	 7.60277919566467E-02 
1124	 7.83795890502839E-02 
1125	 8.02936332669636E-02 
1126	 7.83164892656195E-02 
1127	 7.12955514224028E-02 
1128	 6.97723757178544E-02 
1129	 6.78482890417483E-02 
1130	 6.25218789329486E-02 
1131	 6.17670812836371E-02 
1132	 6.62897437852629E-02 
1133	 6.57197663080218E-02 
1134	 6.40972341554771E-02 
1135	 6.36958596874145E-02 
1136	 6.14800530092117E-02 
1137	 6.09626056482228E-02 
1138	 6.20727756040705E-02 
1139	 6.21721626147239E-02 
1140	 6.10548531117534E-02 
1141	 6.23085679856336E-02 
1142	 6.43746331903998E-02 
1143	 0.062977999625035 
1144	 6.03655036959132E-02 
1145	 6.06766434019206E-02 
1146	 5.99699086649806E-02 
1147	 0.058316482643124 
1148	 6.08302883845426E-02 
1149	 6.15158552156521E-02 
1150	 6.04447145595904E-02 
1151	 5.82843449630386E-02 
1152	 0.057443080520323 
1153	 5.53664841351188E-02 
1154	 5.44407348270235E-02 
1155	 5.45550885578321E-02 
1156	 5.46043925201452E-02 
1157	 5.35214768298942E-02 
1158	 5.27468101461551E-02 
1159	 0.05203709967001 
1160	 5.11747667908698E-02 
1161	 5.13826032232852E-02 
1162	 5.18119328156728E-02 
1163	 5.11057534322012E-02 
1164	 5.06167225664942E-02 
1165	 5.00450194097252E-02 
1166	 4.94645740976956E-02 
1167	 4.97522260910924E-02 
1168	 4.95361559278409E-02 
1169	 4.88486676134734E-02 
1170	 0.048839471173859 
1171	 4.86955721578237E-02 
1172	 4.84379011477991E-02 
1173	 4.83395809189877E-02 
1174	 0.048656839605825 
1175	 4.82720019891905E-02 
1176	 4.73119984694507E-02 
1177	 4.73535684630554E-02 
1178	 4.76562164640219E-02 
1179	 4.75461434834272E-02 
1180	 4.79912526816908E-02 
1181	 0.048129813104641 
1182	 4.73588263109243E-02 
1183	 4.68639269215939E-02 
1184	 4.68424039577337E-02 
1185	 4.66951715234157E-02 
1186	 4.67994905756903E-02 
1187	 4.72624374618981E-02 
1188	 4.70829632915725E-02 
1189	 4.66245242710693E-02 
1190	 4.67687933998245E-02 
1191	 4.66388314217321E-02 
1192	 4.63834098845139E-02 
1193	 4.60186692140015E-02 
1194	 4.62313602339476E-02 
1195	 4.62903386644543E-02 
1196	 4.61067522871708E-02 
1197	 4.61115926875863E-02 
1198	 4.60678376473607E-02 
1199	 4.57774596993517E-02 
1200	 4.56975559295207E-02 
1201	 4.57580841449843E-02 
1202	 4.57029121379752E-02 
1203	 4.56605069986425E-02 
1204	 4.55427445726897E-02 
1205	 4.54394588610357E-02 
1206	 0.045316822946717 
1207	 4.52733510086446E-02 
1208	 4.52222854977786E-02 
1209	 4.47904216423494E-02 
1210	 4.46236554206961E-02 
1211	 4.47605943112609E-02 
1212	 4.45155033236303E-02 
1213	 4.43540986072875E-02 
1214	 4.43423092802646E-02 
1215	 4.44890630817915E-02 
1216	 4.42778443266606E-02 
1217	 4.42083573832798E-02 
1218	 4.44717016645463E-02 
1219	 4.44843070971701E-02 
1220	 4.43055492578527E-02 
1221	 0.044268743379838 
1222	 4.41830273185728E-02 
1223	 4.39917697692741E-02 
1224	 4.37752506411156E-02 
1225	 4.35527264229762E-02 
1226	 4.33544311316556E-02 
1227	 4.33886984400354E-02 
1228	 4.36292500550915E-02 
1229	 4.34993154929075E-02 
1230	 4.32118235044555E-02 
1231	 4.33047724715291E-02 
1232	 4.31051675995778E-02 
1233	 4.28990041138504E-02 
1234	 0.043180456470727 
1235	 4.31724141522669E-02 
1236	 4.27492573121375E-02 
1237	 4.26850110090134E-02 
1238	 4.29091231111785E-02 
1239	 0.042633365079125 
1240	 4.26141405704831E-02 
1241	 4.28465113359435E-02 
1242	 4.25936910090922E-02 
1243	 4.25195987917952E-02 
1244	 4.28670931751908E-02 
1245	 4.28861245624453E-02 
1246	 4.28045163512899E-02 
1247	 4.29461906727854E-02 
1248	 4.28720676556597E-02 
1249	 4.25592709378499E-02 
1250	 4.24232006615949E-02 
1251	 4.27447647757606E-02 
1252	 4.30957461323631E-02 
1253	 4.31027181638604E-02 
1254	 4.31411117715792E-02 
1255	 4.31677810778824E-02 
1256	 0.043152208873195 
1257	 4.27972410552204E-02 
1258	 4.28566686208393E-02 
1259	 4.32692164376872E-02 
1260	 4.34453361684368E-02 
1261	 4.37018121443398E-02 
1262	 4.38281688101446E-02 
1263	 0.043840165194898 
1264	 4.37185858196563E-02 
1265	 4.39443694574533E-02 
1266	 4.39509331107201E-02 
1267	 4.37590229508544E-02 
1268	 4.41338512284402E-02 
1269	 4.40385575222749E-02 
1270	 4.33873539713773E-02 
1271	 4.36084001245385E-02 
1272	 4.39588362539622E-02 
1273	 4.35360020600343E-02 
1274	 4.35123327052601E-02 
1275	 0.043611546964686 
1276	 4.30892879002331E-02 
1277	 0.043385750183186 
1278	 4.41388589857208E-02 
1279	 4.40639756464968E-02 
1280	 4.38567871994695E-02 
1281	 4.39840450883408E-02 
1282	 4.42520013393357E-02 
1283	 4.40282784333004E-02 
1284	 0.043667471843403 
1285	 4.37051212674838E-02 
1286	 4.34283786100907E-02 
1287	 4.33509925530902E-02 
1288	 4.40819855084812E-02 
1289	 4.42393262213393E-02 
1290	 4.39300816046754E-02 
1291	 4.35551034411414E-02 
1292	 0.04381822609087 
1293	 4.42382914351417E-02 
1294	 4.40054129388745E-02 
1295	 4.37707077095844E-02 
1296	 4.40819286474621E-02 
1297	 4.40526183332308E-02 
1298	 4.40556688471541E-02 
1299	 4.45710527076018E-02 
1300	 4.47259903619236E-02 
1301	 4.42952273262136E-02 
1302	 4.39490925629033E-02 
1303	 4.41290552411438E-02 
1304	 0.044290967840676 
1305	 4.40987015106684E-02 
1306	 4.41358863809139E-02 
1307	 4.49527158165862E-02 
1308	 4.51627979971169E-02 
1309	 4.46796007438481E-02 
1310	 4.46619983447832E-02 
1311	 4.50416403045173E-02 
1312	 4.49076255976113E-02 
1313	 4.41140764901853E-02 
1314	 4.41792057822181E-02 
1315	 4.49897757565285E-02 
1316	 4.49992201228951E-02 
1317	 4.46965787680857E-02 
1318	 4.49634009959691E-02 
1319	 0.045291043190252 
1320	 0.045065274818137 
1321	 4.43593765353196E-02 
1322	 4.53990174835885E-02 
1323	 4.65871103228003E-02 
1324	 0.045267704300916 
1325	 4.50392210878086E-02 
1326	 0.046288556089273 
1327	 4.56186460877934E-02 
1328	 4.46804103644828E-02 
1329	 4.53074102809487E-02 
1330	 4.54128018582018E-02 
1331	 4.54594127310009E-02 
1332	 4.69091597121792E-02 
1333	 4.66601298185822E-02 
1334	 4.56193135102913E-02 
1335	 4.62912504949351E-02 
1336	 4.79967934104639E-02 
1337	 4.78449817741188E-02 
1338	 0.048365887162301 
1339	 4.83616387361459E-02 
1340	 4.47988773028098E-02 
1341	 4.41888085509121E-02 
1342	 4.75929832342892E-02 
1343	 4.79750019258431E-02 
1344	 4.58519680879782E-02 
1345	 4.67776364354662E-02 
1346	 5.04434839154757E-02 
1347	 5.00926629754988E-02 
1348	 4.74847484858654E-02 
1349	 4.95830865819572E-02 
1350	 5.00940122775623E-02 
1351	 4.68427917325532E-02 
1352	 5.20839032750328E-02 
1353	 6.26240296649645E-02 
1354	 6.99592980974758E-02 
1355	 5.29864399138585E-02 
1356	 4.85102392457097E-02 
1357	 6.84841601204273E-02 
1358	 7.73191536360647E-02 
1359	 9.42585847094582E-03 
1360	-0.121669224514205 
1361	 1.77071375480158E-02 
1362	 0.410845683531324 
1363	 0.651155336050594 
1364	 0.791740269455369 
1365	 0.466674883962199 
1366	 3.37869817000132E-02 
1367	 0.162139143215864 
1368	 0.173306223287525 
1369	 0.627960486755126 
1370	 0.60172611199742 
1371	 7.77585667981017E-02 
1372	-3.82262326898382E-02 
1373	 0.155678230245461 
1374	 0.275861116864967 
1375	 0.668302433838869 
1376	 0.83974352584106 
1377	 1.16891044086165 
1378	 1.22900888958959 
1379	 0.930378205673298 
1380	 0.827869568147717 
1381	 0.366361909562241 
1382	 0.418659254963554 
1383	 1.06931390856512 
1384	 1.10446689476827 
1385	 1.03362082271943 
1386	 1.15353028686693 
1387	 1.14890961294674 
1388	 0.906771171812545 
1389	 0.728258643818387 
1390	 0.745929914580948 
1391	 0.779442877219813 
1392	 0.496653877840113 
1393	 0.639618346059762 
1394	 1.55680420107082 
1395	 1.99718930073856 
1396	 1.96114364874873 
1397	 1.35917156569131 
1398	 0.787541552771412 
1399	 0.538546327782339 
1400	 0.50164902175375 
1401	 0.500115292419908 
1402	 0.157745793899084 
1403	-0.090281797905023 
1404	 0.090781229012673 
1405	 0.234195121989729 
1406	 0.589594819031417 
1407	 0.469358017739444 
1408	 0.255865758268632 
1409	 0.302317929957403 
1410	 0.37781524246413 
1411	 0.352900687059877 
1412	 0.409916078595602 
1413	 0.373565510160866 
1414	 0.214798978859186 
1415	 0.156371163219091 
1416	 0.15219347873616 
1417	 0.151928310024331 
1418	 0.172658560363168 
1419	 0.153707369425784 
1420	 0.129195225764377 
1421	 0.112283925874141 
1422	 0.076539815059554 
1423	 7.05815475543647E-02 
1424	 9.75722175453479E-02 
1425	 9.12844092079336E-02 
1426	 5.73401704801554E-02 
1427	 5.79335209538336E-02 
1428	 7.40047164876457E-02 
1429	 6.90528083911242E-02 
1430	 6.71716963304675E-02 
1431	 0.069688442217498 
1432	 5.37442854552589E-02 
1433	 0.049347130436368 
1434	 6.89803055987418E-02 
1435	 7.59412679543434E-02 
1436	 7.60201772871357E-02 
1437	 7.52494676241364E-02 
1438	 5.57188815727042E-02 
1439	 0.030315937934251 
1440	 0.03876021542718 
1441	 4.81742140882344E-02 
1442	 4.48901239336516E-02 
1443	 6.09094315585855E-02 
1444	 6.88693858139478E-02 
1445	 5.25782290827114E-02 
1446	 4.19342447482336E-02 
1447	 4.31186985425953E-02 
1448	 4.47194730184387E-02 
1449	 4.18397798444091E-02 
1450	 4.35686340816786E-02 
1451	 4.80169934911006E-02 
1452	 4.86776137650054E-02 
1453	 4.76392783743997E-02 
1454	 4.51155429236591E-02 
1455	 0.043316292847994 
1456	 0.043316869286887 
1457	 4.09333336755709E-02 
1458	 3.92874923267859E-02 
1459	 4.06334367836042E-02 
1460	 4.12034907234969E-02 
1461	 3.97255778744754E-02 
1462	 3.89892178027183E-02 
1463	 0.03984471425492 
1464	 4.06402199990403E-02 
1465	 4.06433307018026E-02 
1466	 4.01396363384192E-02 
1467	 4.08425559943127E-02 
1468	 4.17740489034424E-02 
1469	 0.041320772508688 
1470	 3.96121772350116E-02 
1471	 3.92522722956122E-02 
1472	 3.85415156602755E-02 
1473	 3.42358823583064E-02 
1474	 3.30613322082393E-02 
1475	 3.52663377732724E-02 
1476	 3.59565013337145E-02 
1477	 3.58049403076139E-02 
1478	 3.57916555555582E-02 
1479	 3.66974405435392E-02 
1480	 3.66873297599856E-02 
1481	 3.54677778734756E-02 
1482	 3.51451587614029E-02 
1483	 3.56780469804032E-02 
1484	 3.51255951937902E-02 
1485	 3.37949413911127E-02 
1486	 3.37772564478881E-02 
1487	 0.034229185080667 
1488	 3.37200879944397E-02 
1489	 3.32402124002081E-02 
1490	 3.30239882092662E-02 
1491	 3.30803746399157E-02 
1492	 3.21900492980842E-02 
1493	 3.05710470697791E-02 
1494	 3.03185620397577E-02 
1495	 0.030079114033129 
1496	 2.94763202143026E-02 
1497	 2.94390489605097E-02 
1498	 2.95595135415378E-02 
1499	 2.95465105657851E-02 
1500	 2.92479989419726E-02 
1501	 2.89808289574316E-02 
1502	 2.90121548775279E-02 
1503	 2.88564259932714E-02 
1504	 2.84981094512581E-02 
1505	 2.81104582843068E-02 
1506	 2.84694314601939E-02 
1507	 2.88483378942935E-02 
1508	 2.86660921938454E-02 
1509	 2.90019581626745E-02 
1510	 2.97063706011055E-02 
1511	 0.029163015784151 
1512	 2.86715535816799E-02 
1513	 2.91947536089166E-02 
1514	 2.90189770335898E-02 
1515	 2.80878360712043E-02 
1516	 2.83481066192519E-02 
1517	 2.94908802318464E-02 
1518	 2.93727789816869E-02 
1519	 2.84963819087585E-02 
1520	 2.85522989208644E-02 
1521	 2.85336404212127E-02 
1522	 2.78514316441513E-02 
1523	 2.84888132268057E-02 
1524	 2.97627438538742E-02 
1525	 2.96025861992531E-02 
1526	 2.92863965008975E-02 
1527	 2.95087582067486E-02 
1528	 2.92270773609017E-02 
1529	 2.89161511415693E-02 
1530	 2.91283070668608E-02 
1531	 2.95404531936003E-02 
1532	 2.94755228965342E-02 
1533	 2.89109660683508E-02 
1534	 2.91900174270832E-02 
1535	 2.96051938890021E-02 
1536	 2.92323655591115E-02 
1537	 2.91973426481032E-02 
1538	 2.92216857600456E-02 
1539	 2.90351360368973E-02 
1540	 2.91883646499906E-02 
1541	 2.93772564566352E-02 
1542	 2.93100991644088E-02 
1543	 2.92898295861983E-02 
1544	 2.93215150255728E-02 
1545	 2.91293096917949E-02 
1546	 0.029005726298942 
1547	 2.90965024420684E-02 
1548	 2.92713649492321E-02 
1549	 2.93342089994928E-02 
1550	 2.94501815977641E-02 
1551	 2.96130387126149E-02 
1552	 2.96065312667172E-02 
1553	 2.99695861426977E-02 
1554	 3.03186554851074E-02 
1555	 3.01589665582294E-02 
1556	 2.99810297627229E-02 
1557	 2.99486939999963E-02 
1558	 2.98502560556803E-02 
1559	 2.95686029728249E-02 
1560	 2.93598548253402E-02 
1561	 0.029499063102729 
1562	 0.029795611686688 
1563	 2.98710610880275E-02 
1564	 2.98103884970047E-02 
1565	 2.93823169445575E-02 
1566	 2.90449816920411E-02 
1567	 2.93914196994069E-02 
1568	 2.93848964170212E-02 
1569	 2.95974112655853E-02 
1570	 0.030377555040518 
1571	 3.04972876097038E-02 
1572	 3.03015857126693E-02 
1573	 3.03173096270655E-02 
1574	 3.02904137497762E-02 
1575	 3.00518016636055E-02 
1576	 3.01824278631056E-02 
1577	 3.04916726958998E-02 
1578	 3.00735746774801E-02 
1579	 0.029836686164648 
1580	 3.03431620486273E-02 
1581	 3.06186741775056E-02 
1582	 3.07220691719143E-02 
1583	 3.10664902461917E-02 
1584	 3.10471781510275E-02 
1585	 3.06233231605719E-02 
1586	 3.04339579347049E-02 
1587	 3.04990285331918E-02 
1588	 3.06412632312068E-02 
1589	 3.07854097979207E-02 
1590	 3.08272620507918E-02 
1591	 3.10810876830039E-02 
1592	 3.10203439893625E-02 
1593	 0.030820457485059 
1594	 3.11949991650632E-02 
1595	 0.031013787079095 
1596	 3.09799781668865E-02 
1597	 3.14609560196325E-02 
1598	 3.13201304411207E-02 
1599	 0.031324333357034 
1600	 3.16592057030273E-02 
1601	 3.18218591998188E-02 
1602	 3.17530846072136E-02 
1603	 3.16816828664873E-02 
1604	 3.16281342811847E-02 
1605	 3.13367911913089E-02 
1606	 3.14895014542656E-02 
1607	 3.17909362873665E-02 
1608	 3.15237919482263E-02 
1609	 0.031543411061043 
1610	 0.031736027205834 
1611	 3.17370931601702E-02 
1612	 3.18185670064343E-02 
1613	 3.15350649646588E-02 
1614	 3.12988216931217E-02 
1615	 3.13956903298074E-02 
1616	 0.031426944442877 
1617	 0.03172798937183 
1618	 3.19872035688198E-02 
1619	 3.18483002752887E-02 
1620	 3.16935918443279E-02 
1621	 3.13782079191769E-02 
1622	 3.11568068889717E-02 
1623	 3.15411335537766E-02 
1624	 3.19404785339771E-02 
1625	 3.19352871002256E-02 
1626	 3.19642190611638E-02 
1627	 3.19253459704476E-02 
1628	 3.16873328916119E-02 
1629	 3.15288723151602E-02 
1630	 3.13124932059639E-02 
1631	 3.13306479187702E-02 
1632	 3.12739420566622E-02 
1633	 3.10986918305145E-02 
1634	 3.16228087446363E-02 
1635	 3.16881690229989E-02 
1636	 3.11261737289587E-02 
1637	 3.13675668650703E-02 
1638	 0.031520556970895 
1639	 0.03103047844159 
1640	 3.12940053561014E-02 
1641	 3.15312184825928E-02 
1642	 3.10051515121906E-02 
1643	 3.11084182267649E-02 
1644	 0.031345771849688 
1645	 3.11563845937103E-02 
1646	 3.14866721614995E-02 
1647	 3.19088875964318E-02 
1648	 3.14706501081364E-02 
1649	 3.12114075992315E-02 
1650	 3.15694846960118E-02 
1651	 3.15533608984891E-02 
1652	 3.16667267112422E-02 
1653	 3.11562519359384E-02 
1654	 3.10401384489026E-02 
1655	 3.14630632468756E-02 
1656	 3.14667206607645E-02 
1657	 3.12133079058799E-02 
1658	 3.14343768854102E-02 
1659	 3.18345680707078E-02 
1660	 3.17964930587593E-02 
1661	 0.031985900763651 
1662	 3.19999852430735E-02 
1663	 0.030981694640727 
1664	 3.09425115887002E-02 
1665	 3.21848907277389E-02 
1666	 3.24811849616389E-02 
1667	 3.21923478012006E-02 
1668	 3.16656328645492E-02 
1669	 3.19480896576868E-02 
1670	 3.17527762831103E-02 
1671	 3.13922983616927E-02 
1672	 3.18215054060821E-02 
1673	 3.20436374456904E-02 
1674	 3.14046670817921E-02 
1675	 3.16044282384142E-02 
1676	 3.21451212474076E-02 
1677	 3.15774166654419E-02 
1678	 3.16145792912349E-02 
1679	 3.24897401304152E-02 
1680	 0.032249535881106 
1681	 3.17115282337003E-02 
1682	 3.23514465553391E-02 
1683	 3.28787661354704E-02 
1684	 0.032913768573147 
1685	 0.032613658589479 
1686	 3.15914048112736E-02 
1687	 0.031340393867718 
1688	 3.19891570806111E-02 
1689	 3.24497354505885E-02 
1690	 3.26984472744814E-02 
1691	 3.23933611842049E-02 
1692	 3.19578655357085E-02 
1693	 3.20350185077156E-02 
1694	 3.20960754871212E-02 
1695	 3.22952600924004E-02 
1696	 3.25861630914651E-02 
1697	 3.22470341315362E-02 
1698	 3.21468956286581E-02 
1699	 3.25329379854396E-02 
1700	 3.21788439587439E-02 
1701	 3.19717603391437E-02 
1702	 3.28057709726417E-02 
1703	 3.28568913655989E-02 
1704	 3.22241795066945E-02 
1705	 3.27230735828985E-02 
1706	 3.29821226042842E-02 
1707	 3.19367043450421E-02 
1708	 3.18659693184255E-02 
1709	 3.22292731369447E-02 
1710	 3.13726796983591E-02 
1711	 0.031626724020114 
1712	 3.26364052960177E-02 
1713	 3.24300042253549E-02 
1714	 3.23001039867933E-02 
1715	 3.12854215911879E-02 
1716	 3.15035404374015E-02 
1717	 3.25298640743958E-02 
1718	 3.22115047474976E-02 
1719	 3.21678910915498E-02 
1720	 3.24618881350609E-02 
1721	 3.12856929504664E-02 
1722	 0.031326363977735 
1723	 3.26287684766438E-02 
1724	 3.18971323211327E-02 
1725	 3.16527319606931E-02 
1726	 3.23413377173105E-02 
1727	 3.13413572311355E-02 
1728	 3.07785109124894E-02 
1729	 3.12818150239147E-02 
1730	 0.031645417356323 
1731	 3.23694717983137E-02 
1732	 3.25171161949324E-02 
1733	 3.24331429439454E-02 
1734	 3.23316904259897E-02 
1735	 0.031241488614372 
1736	 3.14414960531408E-02 
1737	 3.23508579438577E-02 
1738	 0.032070705769284 
1739	 3.24215515120317E-02 
1740	 3.25774369052953E-02 
1741	 3.17942549126578E-02 
1742	 3.25254676552847E-02 
1743	 3.31928496185011E-02 
1744	 3.19115003540982E-02 
1745	 3.15236765553236E-02 
1746	 3.10043085586921E-02 
1747	 3.06777157131357E-02 
1748	 3.25607915115112E-02 
1749	 0.032981585241976 
1750	 3.16907964846683E-02 
1751	 3.15234447039654E-02 
1752	 3.17886690345566E-02 
1753	 3.17439090201295E-02 
1754	 3.18162385674036E-02 
1755	 3.20053947583767E-02 
1756	 3.22343984482031E-02 
1757	 3.13899262245921E-02 
1758	 3.21409894604229E-02 
1759	 3.33180154694033E-02 
1760	 3.26574501213446E-02 
1761	 3.21798167780759E-02 
1762	 3.18808117392091E-02 
1763	 3.11868548859515E-02 
1764	 3.16295328024447E-02 
1765	 3.29254940354552E-02 
1766	 3.32474650538791E-02 
1767	 3.16042476146912E-02 
1768	 3.07879079047603E-02 
1769	 3.26240180020014E-02 
1770	 3.41016537769504E-02 
1771	 3.47718418062822E-02 
1772	 3.59951484561436E-02 
1773	 3.57424423214039E-02 
1774	 0.033425211468265 
1775	 3.62345031791717E-02 
1776	 3.66680751877806E-02 
1777	 0.034633583790381 
1778	 3.52761639185039E-02 
1779	 3.67994046586145E-02 
1780	 3.59216927292108E-02 
1781	 3.62963356056559E-02 
1782	 3.63120296878298E-02 
1783	 3.13492913520046E-02 
1784	 0.031403088030703 
1785	 3.74055622319381E-02 
1786	 3.79343105854789E-02 
1787	 3.71949444710712E-02 
1788	 3.74191832662183E-02 
1789	 3.40563157092295E-02 
1790	 0.037266268317538 
1791	 0.040804196506243 
1792	 4.15610572271462E-02 
1793	 3.93895250093988E-02 
1794	 3.70809878465358E-02 
1795	 3.53711951475779E-02 
1796	 2.71853770290558E-02 
1797	 2.79394541416604E-02 
1798	 3.33636462772901E-02 
1799	 2.92293338667164E-02 
1800	 0.048556228879842 
1801	 5.56081528704631E-02 
1802	 4.31478296156226E-02 
1803	 4.54868456865494E-02 
1804	 5.11572434739434E-02 
1805	 5.06934799616514E-02 
1806	 6.33770286526027E-02 
1807	 5.93799809787659E-02 
1808	 8.90138971686806E-03 
1809	-5.66040830727526E-03 
1810	 5.94195127120585E-03 
1811	 6.14138063581541E-03 
1812	 7.33280677631402E-02 
1813	 7.84694309171346E-02 
1814	-1.42967242932004E-02 
1815	 6.10060383550563E-03 
1816	 5.01635329682791E-02 
1817	 0.14875123952758 
1818	 8.85398125996778E-02 
1819	-0.211723030479573 
1820	-0.214516959758131 
1821	-0.263343272536154 
1822	-0.210731287452619 
1823	 0.32537774947368 
1824	 0.64976068980723 
1825	 1.15764187317828 
1826	 0.922122611670285 
1827	-0.137650360834141 
1828	-0.190469875631569 
1829	 9.34980339507278E-02 
1830	 0.181641308047917 
1831	 1.69561876637702 
1832	 2.16104834511671 
1833	-2.80250475553845 
1834	-0.49240367271216 
1835	 2.83525904386638 
1836	 3.30761973408693 
1837	 2.12109038394692 
1838	 2.0495829322663 
1839	 1.74506528695781 
1840	 2.15554931811134 
1841	 40.0302838423603 
1842	-0.683676547292545 
1843	-0.148400390489623 
1844	-1.02797079074665 
1845	-1.41469782071 
1846	 3.18265852074894 
1847	 1.04342636036003 
1848	 24.1390271289787 
1849	 4.93193425119166 
1850	 1.69223305140181 
1851	 1.3820298115077 
1852	 1.16657229141228 
1853	-1.38519553573846 
1854	-1.93757763267786 
1855	 7.69022660166428E-02 
1856	 0.110185387227851 
1857	-0.689948778842086 
1858	-0.971898507811024 
1859	-6.04888709405399 
1860	 1.78879413140844 
1861	-8.5664149274218 
1862	-6.19634245164885 
1863	-1.60682332325828 
1864	-0.726930536103516 
1865	-0.507740918915297 
1866	 0.438186631078691 
1867	 0.618815247199322 
1868	-8.05700204009329 
1869	 3.11979232829613 
1870	 0.496500859134613 
1871	-0.123538205789501 
1872	-0.37518268856317 
1873	-1.60455753697774 
1874	-3.64724811111931 
1875	 0.980828735364436 
1876	 0.383518268682687 
1877	 0.153890865092989 
1878	 0.17902477420791 
1879	 0.207630554223082 
1880	 0.24581234000654 
1881	 0.579068088388563 
1882	 0.682246642786009 
1883	 1.07525680205297 
1884	 1.39931146446614 
1885	 0.927048722812624 
1886	 1.07023850138334 
1887	 0.694333716570237 
1888	-0.327110373436569 
1889	-0.594661601434313 
1890	-0.419080527012498 
1891	-0.368762280557548 
1892	 0.499344818108564 
1893	 6.78542329230063 
1894	-0.251913269663485 
1895	 5.70630970209401E-02 
1896	 0.62257503449194 
1897	 1.09684674976214 
1898	 3.00801882059541 
1899	 1.67135799993246 
1900	-1.95415184189514 
1901	-1.98926534686546 
1902	-1.93500432878682 
1903	-0.681236444628226 
1904	-7.49804648347105E-02 
1905	-3.22357664788628E-03 
1906	 0.257648380022614 
1907	 0.381632657081457 
1908	-0.862906195405572 
1909	 3.88029876339808 
1910	-0.424114241921033 
1911	-0.554097713891701 
1912	-0.701948832252894 
1913	 0.133774415636802 
1914	 1.31236544114471 
1915	 1.76800442210495 
1916	-27.8460528074829 
1917	 2.62122877692993 
1918	 2.51571610788414 
1919	 14.5023890882146 
1920	-65.470750819303 
1921	-2.46175098810722 
1922	-0.882873304781803 
1923	-0.719038428767661 
1924	-0.32066115358851 
1925	-8.72245110203183E-02 
1926	-0.115251701279692 
1927	-0.464882673530033 
1928	 0.926730218985837 
1929	-2.07440627958558 
1930	-0.840775690682523 
1931	 4.38601452280059 
1932	 0.230793145429612 
1933	-0.362251097286356 
1934	-0.260027352796769 
1935	-0.615549971294678 
1936	-0.666939826947612 
1937	-0.435239927204561 
1938	-0.482022035816847 
1939	-0.404408677080163 
1940	-0.233925467040798 
1941	 7.22887341394322E-02 
1942	 4.78923715119134E-02 
1943	 6.59967297931435E-02 
1944	 8.57767036094636E-04 
1945	-0.119272704821774 
1946	-0.108434238584888 
1947	-8.12531663553301E-02 
1948	-0.128824693118343 
1949	-9.09665044508086E-02 
1950	 5.24236331033083E-04 
1951	 3.27853756303173E-02 
1952	 5.54478450093871E-02 
1953	 0.10032246915054 
1954	 8.99641229292062E-02 
1955	 2.72149758342303E-02 
1956	 3.73548013773111E-03 
1957	-3.34243088313991E-03 
1958	 1.12726204601534E-02 
1959	 0.033734228797861 
1960	 5.34526873802958E-02 
1961	 7.39767144472957E-02 
1962	 7.44693365891622E-02 
1963	 6.59721109250677E-02 
1964	 5.79478574353205E-02 
1965	 0.040578073494046 
1966	 3.53904108412053E-02 
1967	 3.41419191504528E-02 
1968	 4.10076688788715E-02 
1969	 3.68238860989522E-02 
1970	 3.18455908297701E-02 
1971	 3.02366988364534E-02 
1972	 2.37665334897569E-02 
1973	 2.46443568145568E-02 
1974	 3.26019442092821E-02 
1975	 3.43820092836432E-02 
1976	 3.75014660214552E-02 
1977	 3.91529685749968E-02 
1978	 3.44853092977105E-02 
1979	 3.20588780785108E-02 
1980	 2.90508678662951E-02 
1981	 0.026377279901304 
1982	 2.72182343147195E-02 
1983	 2.87900276883066E-02 
1984	 2.94929107569342E-02 
1985	 3.27885343486961E-02 
1986	 3.21543188195359E-02 
1987	 3.20667129626821E-02 
1988	 3.62176698503858E-02 
1989	 3.83163654616595E-02 
1990	 3.89554968924443E-02 
1991	 4.07257151743914E-02 
1992	 4.01027865335401E-02 
1993	 3.43140982610105E-02 
1994	 3.23917241927836E-02 
1995	 3.11267474887175E-02 
1996	 3.27467298120008E-02 
1997	 3.17621040490607E-02 
1998	 3.21101347891159E-02 
1999	 3.00020185547434E-02 
2000	 2.43734346001554E-02 
2001	 2.70707046515906E-02 
2002	 4.11129720157873E-02 
2003	 5.25847067477193E-02 
2004	 5.57662200411614E-02 
2005	 4.85851709240138E-02 
2006	 0.035173442999122 
2007	 3.49093024353116E-02 
2008	 4.18575811620999E-02 
2009	 4.16924984778195E-02 
2010	 4.72119433011258E-02 
2011	 4.69638447991208E-02 
2012	 3.88122763528979E-02 
2013	 2.73837158372223E-02 
2014	 3.11220267784246E-02 
2015	 3.26091988421385E-02 
2016	 2.69475797745747E-02 
2017	 2.70947478149282E-02 
2018	 2.86349457068117E-02 
2019	 2.94583571514125E-02 
2020	 3.05857395480997E-02 
2021	 3.23927346873096E-02 
2022	 3.42842548417459E-02 
2023	 3.28043765583314E-02 
2024	 3.37205061126606E-02 
2025	 0.039016671119616 
2026	 3.99303458284057E-02 
2027	 3.84002965226929E-02 
2028	 3.87123115919064E-02 
2029	 3.88043696939416E-02 
2030	 3.66685182551437E-02 
2031	 3.53119762183965E-02 
2032	 3.38715693617381E-02 
2033	 3.20837434463123E-02 
2034	 3.22084081114565E-02 
2035	 3.49350386008048E-02 
2036	 3.75526488645074E-02 
2037	 3.99873442881476E-02 
2038	 4.16811800035947E-02 
2039	 4.18359229766474E-02 
2040	 3.95924409729859E-02 
2041	 3.80794816711757E-02 
2042	 3.57008293850862E-02 
2043	 3.39246332380085E-02 
2044	 3.13760079074802E-02 
2045	 0.030751922631053 
2046	 3.16916923172053E-02 
2047	 3.21606856831396E-02 
2048	 3.25509454340692E-02 
2049	 3.35341538864789E-02 
2050	 3.33946748721562E-02 
2051	 3.34427627530839E-02 
2052	 3.49645119976265E-02 
2053	 3.59132150487186E-02 
2054	 3.68298604308374E-02 
2055	 3.74615636469933E-02 
2056	 3.62326844067771E-02 
2057	 3.21659807850874E-02 
2058	 3.09352088019365E-02 
2059	 2.91085409309635E-02 
2060	 2.83725190274479E-02 
2061	 2.93098590007697E-02 
2062	 3.17922016364173E-02 
2063	 3.15512047442229E-02 
2064	 3.29343464186981E-02 
2065	 3.73685640057994E-02 
2066	 3.86080230236378E-02 
2067	 3.57813503880338E-02 
2068	 3.31816384321818E-02 
2069	 3.27489273419995E-02 
2070	 3.22762963744189E-02 
2071	 3.28916344043262E-02 
2072	 3.62093910886906E-02 
2073	 3.78099649593906E-02 
2074	 3.78729245409994E-02 
2075	 0.036247708790228 
2076	 3.37997869595128E-02 
2077	 3.21830995583732E-02 
2078	 2.74427556131753E-02 
2079	 0.026195359700096 
2080	 2.77509772633452E-02 
2081	 3.01415926480828E-02 
2082	 2.91816081489274E-02 
2083	 2.88168182225001E-02 
2084	 3.02292359853115E-02 
2085	 3.01248758675097E-02 
2086	 3.00300772427148E-02 
2087	 3.07103823004552E-02 
2088	 2.99705698890132E-02 
2089	 2.89166325746897E-02 
2090	 3.03585019654087E-02 
2091	 3.23107590725908E-02 
2092	 3.26932965099572E-02 
2093	 3.20822350195097E-02 
2094	 3.21706544925449E-02 
2095	 3.10677262286658E-02 
2096	 3.08834902727221E-02 
2097	 3.28356246322015E-02 
2098	 3.26540566918464E-02 
2099	 3.11685409452467E-02 
2100	 3.04524196495797E-02 
2101	 3.00027689591426E-02 
2102	 2.85332135837977E-02 
2103	 2.79571161155571E-02 
2104	 2.78847051930824E-02 
2105	 2.74918565071247E-02 
2106	 2.68628093400378E-02 
2107	 2.71621848220376E-02 
2108	 2.73523680546387E-02 
2109	 2.78627626333791E-02 
2110	 2.83843246914352E-02 
2111	 2.77610745034325E-02 
2112	 2.83034603540191E-02 
2113	 2.85987643977474E-02 
2114	 2.80993596439234E-02 
2115	 2.84699260594163E-02 
2116	 2.98599779569312E-02 
2117	 3.10240151947169E-02 
2118	 0.032481469955904 
2119	 3.27366038917192E-02 
2120	 0.032810147356416 
2121	 3.26051151231531E-02 
2122	 3.07993693783008E-02 
2123	 3.00467306358753E-02 
2124	 0.028700823761447 
2125	 2.79320408887548E-02 
2126	 2.66987859031606E-02 
2127	 2.64979561622074E-02 
2128	 2.88399680453681E-02 
2129	 2.98372804042461E-02 
2130	 3.10705615685681E-02 
2131	 3.19561211796513E-02 
2132	 3.24869343921234E-02 
2133	 3.35355846349614E-02 
2134	 3.36079115288703E-02 
2135	 3.35810190210216E-02 
2136	 3.33298105589867E-02 
2137	 0.031646916528685 
2138	 3.10428077443002E-02 
2139	 3.15596672548625E-02 
2140	 3.09097319115314E-02 
2141	 2.90432474771079E-02 
2142	 0.028681710887461 
2143	 2.84267842576999E-02 
2144	 2.88938628648631E-02 
2145	 2.86348252254054E-02 
2146	 2.97150626111888E-02 
2147	 0.030733700632098 
2148	 2.95520579387367E-02 
2149	 2.86467195894027E-02 
2150	 3.07443518418902E-02 
2151	 3.35527399452697E-02 
2152	 3.40040238560346E-02 
2153	 3.41414398330182E-02 
2154	 3.29450790478946E-02 
2155	 2.98606375777113E-02 
2156	 2.74727575664878E-02 
2157	 2.59620804805636E-02 
2158	 2.57485884401137E-02 
2159	 0.026088142483573 
2160	 2.72394558693919E-02 
2161	 2.78175515767737E-02 
2162	 3.00121245174956E-02 
2163	 0.030722143907335 
2164	 2.98663467223285E-02 
2165	 2.94821562869322E-02 
2166	 2.83765588542538E-02 
2167	 2.76934117036172E-02 
2168	 2.71281874937257E-02 
2169	 0.026640076288539 
2170	 2.56777385771326E-02 
2171	 2.72723019445983E-02 
2172	 2.79084135795333E-02 
2173	 2.90734059457839E-02 
2174	 3.06793955220513E-02 
2175	 2.94600577075501E-02 
2176	 2.88522699587006E-02 
2177	 2.78630939310806E-02 
2178	 2.56797031882753E-02 
2179	 0.02620274203649 
2180	 2.71364397866581E-02 
2181	 2.76095079227515E-02 
2182	 2.77659500095176E-02 
2183	 2.83549546116069E-02 
2184	 3.00052667845808E-02 
2185	 3.01979486049723E-02 
2186	 3.00646472616076E-02 
2187	 2.99166479779172E-02 
2188	 2.99639269745871E-02 
2189	 2.95925840070546E-02 
2190	 2.79904572920988E-02 
2191	 2.56716435272656E-02 
2192	 2.46978113483446E-02 
2193	 2.12799941102161E-02 
2194	 2.18926666503798E-02 
2195	 2.81479446020693E-02 
2196	 3.00627659259326E-02 
2197	 3.12406086679322E-02 
2198	 3.28584154408617E-02 
2199	 3.36911592076391E-02 
2200	 3.25555655174493E-02 
2201	 3.14873105232852E-02 
2202	 2.95891943979393E-02 
2203	 2.74116774885103E-02 
2204	 2.63009531261768E-02 
2205	 2.50287539333406E-02 
2206	 2.41312578215004E-02 
2207	 2.56190513700922E-02 
2208	 2.76246825341095E-02 
2209	 2.75477431020659E-02 
2210	 3.00778402305959E-02 
2211	 3.05812055224714E-02 
2212	 2.52852767944564E-02 
2213	 2.42902971990243E-02 
2214	 2.38769457851046E-02 
2215	 0.021694556400673 
2216	 2.30497803954347E-02 
2217	 2.44912725230242E-02 
2218	 2.82946443295784E-02 
2219	 2.94716757784361E-02 
2220	 3.00749273624418E-02 
2221	 3.01110734142301E-02 
2222	 2.85134135135325E-02 
2223	 2.85882123431004E-02 
2224	 3.02440250606807E-02 
2225	 2.96980338267163E-02 
2226	 2.65490830584241E-02 
2227	 2.59023561087132E-02 
2228	 2.65057868843727E-02 
2229	 0.026254150042577 
2230	 2.83362192448482E-02 
2231	 2.85442166767905E-02 
2232	 2.49718983835572E-02 
2233	 2.36397110870112E-02 
2234	 0.022547915285793 
2235	 2.36929976641398E-02 
2236	 2.50270642522857E-02 
2237	 2.32085569510544E-02 
2238	 2.04233842143747E-02 
2239	 1.86794302385191E-02 
2240	 1.97815821484839E-02 
2241	 2.19862089987079E-02 
2242	 2.45878777532512E-02 
2243	 2.75071706291359E-02 
2244	 2.72883717921459E-02 
2245	 2.69613954656462E-02 
2246	 2.84669538094093E-02 
2247	 2.86311777072344E-02 
2248	 2.88239743066676E-02 
2249	 2.96814636736721E-02 
2250	 2.83792767998879E-02 
2251	 2.55279601560235E-02 
2252	 2.25631277614669E-02 
2253	 2.14166179411944E-02 
2254	 2.10893273707868E-02 
2255	 1.97614664070152E-02 
2256	 1.96813892225154E-02 
2257	 1.77929789200169E-02 
2258	 1.66443917358976E-02 
2259	 2.11218862381053E-02 
2260	 2.15643193810094E-02 
2261	 1.95579997173849E-02 
2262	 2.06758726864168E-02 
2263	 2.20739601490645E-02 
2264	 2.22473242271134E-02 
2265	 2.42263552879953E-02 
2266	 2.49345225353714E-02 
2267	 0.023425106565107 
2268	 2.28484309422423E-02 
2269	 2.35133462227718E-02 
2270	 2.57411815556222E-02 
2271	 0.028895408041692 
2272	 2.85975826925411E-02 
2273	 2.68753206654017E-02 
2274	 2.61981178917014E-02 
2275	 2.40641877418003E-02 
2276	 2.24839111955808E-02 
2277	 2.24773506970267E-02 
2278	 2.27933669696513E-02 
2279	 2.18980522347687E-02 
2280	 2.10805651166579E-02 
2281	 2.10984673247713E-02 
2282	 2.29852145333982E-02 
2283	 2.28947595148512E-02 
2284	 2.16839851884224E-02 
2285	 2.50205552602233E-02 
2286	 2.89695246821203E-02 
2287	 3.18703673973015E-02 
2288	 0.035026488393876 
2289	 3.45678877197604E-02 
2290	 0.033055298158532 
2291	 0.03081454021454 
2292	 3.12810428200394E-02 
2293	 3.83993959717267E-02 
2294	 3.92362792577432E-02 
2295	 3.42659950383101E-02 
2296	 3.64988249869586E-02 
2297	 3.25354717584906E-02 
2298	 2.36374486844087E-02 
2299	 2.80530295543185E-02 
2300	 2.94522914950122E-02 
2301	 2.29185304026394E-02 
2302	 2.03756998090785E-02 
2303	 1.70989914893054E-02 
2304	 1.30428412133455E-02 
2305	 1.48849738983644E-02 
2306	 2.47938778224388E-02 
2307	 3.19512959581314E-02 
2308	 3.33987411875819E-02 
2309	 3.52996246895553E-02 
2310	 3.19218727874287E-02 
2311	 2.49388917247366E-02 
2312	 1.71700777611116E-02 
2313	 1.17902988737116E-02 
2314	 1.27557715233021E-02 
2315	 1.55014063203139E-02 
2316	 1.52392011205644E-02 
2317	 8.3364763889721E-03 
2318	 3.83767173695382E-04 
2319	-9.29261549152316E-05 
2320	 1.08107749099325E-02 
2321	 2.59227178727406E-02 
2322	 3.93251978516021E-02 
2323	 4.81271132317936E-02 
2324	 4.81700269615343E-02 
2325	 4.07103829501067E-02 
2326	 3.11974767455665E-02 
2327	 2.50401528498174E-02 
2328	 0.018204758910598 
2329	 1.15119186258971E-02 
2330	 1.19121074455306E-02 
2331	 0.017189559551697 
2332	 1.58957754525694E-02 
2333	 2.33653725308697E-02 
2334	 3.76282320520062E-02 
2335	 3.44569361294022E-02 
2336	 3.27935704967828E-02 
2337	 3.27179897474209E-02 
2338	 2.28769754117283E-02 
2339	 2.37542132270061E-02 
2340	 2.96046727654491E-02 
2341	 2.95519640240137E-02 
2342	 3.21309617247216E-02 
2343	 2.81926747560312E-02 
2344	 2.34888918674971E-02 
2345	 1.59194952561998E-02 
2346	 1.23917029676166E-02 
2347	 2.82012571446985E-02 
2348	 2.31459191954553E-02 
2349	 1.38685639948614E-02 
2350	 2.70232830519033E-02 
2351	 1.54515620691046E-02 
2352	-3.82391537293063E-03 
2353	 8.98624468464078E-03 
2354	 1.32160037845351E-02 
2355	 6.09492603449191E-03 
2356	 1.93381666634431E-02 
2357	 1.12315981134901E-02 
2358	-5.76081887531809E-03 
2359	-5.51564629414693E-03 
2360	-9.95557994421864E-03 
2361	 8.06608243124927E-03 
2362	 3.00438778850082E-02 
2363	 2.62986247661855E-02 
2364	 0.028616634397848 
2365	 2.95276887365407E-02 
2366	 2.47601341869006E-03 
2367	-1.38081650991393E-02 
2368	-1.37263569698426E-02 
2369	-0.03249846213586 
2370	-0.025845985494368 
2371	 9.38042327156437E-03 
2372	 1.45856543148618E-02 
2373	 2.94511925937509E-02 
2374	 4.32743980991491E-02 
2375	 1.95636582870861E-02 
2376	 1.60992052555532E-02 
2377	-4.7488837958178E-04 
2378	-2.71433455261945E-02 
2379	-3.10279602083147E-02 
2380	-4.82225681412121E-02 
2381	-2.61799294288704E-02 
2382	 1.63418516025996E-02 
2383	 3.29186616668678E-02 
2384	 1.98334674793696E-02 
2385	 1.45810601754665E-02 
2386	 2.93331690542443E-02 
2387	-1.76061749425028E-02 
2388	 2.39086441043872E-02 
2389	 0.0975710980562 
2390	 6.31462210789161E-02 
2391	 0.07570696664658 
2392	 6.74822121899434E-02 
2393	 3.93993706997013E-03 
2394	-1.39935011100452E-02 
2395	 0.003474187556476 
2396	 9.71077429635291E-03 
2397	 5.90956612779064E-03 
2398	 2.24519484369576E-02 
2399	 3.07388867027126E-02 
2400	-8.45470135180013E-03 
2401	-5.55121653827307E-03 
2402	 5.84587550942898E-02 
2403	 0.072496543523162 
2404	 0.115947618075332 
2405	 0.158702852630011 
2406	 0.102078389117711 
2407	 0.13559331623713 
2408	 0.179768117386133 
2409	 0.134003022681009 
2410	 0.135510606140218 
2411	 1.42981984086014E-02 
2412	-3.46678766071582E-02 
2413	 4.24887538812716E-02 
2414	 1.69324632364837E-02 
2415	 4.45619031352034E-02 
2416	 8.73451264980633E-02 
2417	 0.106716296662852 
2418	 3.46314279780132E-02 
2419	-4.15709643434739E-02 
2420	-6.1966936457646E-03 
2421	-5.42259606284849E-02 
2422	-0.103294798025439 
2423	-0.141708041587103 
2424	-0.250472345561855 
2425	-0.432214547151952 
2426	-0.411908325391033 
2427	-0.251403915599256 
2428	-0.243129852952721 
2429	-0.106491364850035 
2430	 3.44768856333523E-02 
2431	-1.79012746558654E-02 
2432	-4.46506149041393E-02 
2433	-9.17596312149649E-02 
2434	-0.28652543097817 
2435	-0.345002778348629 
2436	-0.151807950188337 
2437	-0.111785977862275 
2438	-0.170500915754663 
2439	-5.46465839230656E-02 
2440	-0.116816768586815 
2441	-0.253136785619624 
2442	-9.67176746938761E-02 
2443	-7.94848776412192E-02 
2444	-2.52037693185332E-02 
2445	 0.105995346554421 
2446	 0.146086181809085 
2447	 0.154110214268571 
2448	 2.69382011473856E-02 
2449	-0.568567456578666 
2450	-0.909996320042223 
2451	-17.0320696245792 
2452	-2.51717383999263 
2453	-4.64449555507388E-02 
2454	 6.88153433264071E-02 
2455	 8.14659418093578E-02 
2456	-0.153963480707552 
2457	-0.19315829370007 
2458	-0.413412282267204 
2459	-0.328092604354397 
2460	-3.13181150658993E-03 
2461	 0.141929627270359 
2462	 4.99247821921114E-02 
2463	 3.40005966479302E-02 
2464	-0.59969592745402 
2465	-1.61555354236818 
2466	-0.240370497866083 
2467	-0.22929641937864 
2468	-0.457315560735408 
2469	-0.218930577766263 
2470	 0.475430954843574 
2471	-3.9592156895084 
2472	-1.95981723932515 
2473	-2.85253521704841 
2474	-0.898074461313052 
2475	 15.8653559495956 
2476	 19.2784846280449 
2477	 0.566613504422952 
2478	 0.688079441594946 
2479	 1.03962322575621 
2480	 0.674896093871096 
2481	 17.9091794917187 
2482	-0.385681329256286 
2483	-0.061745976377661 
2484	 0.43611262413667 
2485	 1.90636690512762 
2486	 2.31230914924763 
2487	 3.69201759723729 
2488	-0.969152837340952 
2489	 3.37026021808164 
2490	-0.24878663733968 
2491	-0.844212258142948 
2492	 0.830695645943949 
2493	 1.21647031037889 
2494	 1.15721598533119 
2495	 0.713772558001366 
2496	-8.13012973335747E-02 
2497	-9.80567690637278E-02 
2498	 0.933885614279289 
2499	-1.97905559943588 
2500	-2.23962135661555 
