Wavelength	rt0726far00003.asd
350	 3.77980984514193E-02 
351	 3.78963853797735E-02 
352	 3.75086283201102E-02 
353	 3.75492034035516E-02 
354	 3.82429020185282E-02 
355	 3.77939808431795E-02 
356	 3.75239331934069E-02 
357	 3.76593675205995E-02 
358	 0.037908193539674 
359	 3.73170891738721E-02 
360	 3.70539658269187E-02 
361	 0.037459842820966 
362	 3.81046600270235E-02 
363	 3.73636569011601E-02 
364	 3.70694032430991E-02 
365	 3.77349135865622E-02 
366	 3.72801677209714E-02 
367	 0.037017893323477 
368	 3.70327620392561E-02 
369	 3.71187475732413E-02 
370	 3.72544841008816E-02 
371	 3.69353982679891E-02 
372	 3.65394774471319E-02 
373	 3.68150626157015E-02 
374	 3.68505482882894E-02 
375	 3.68086932639516E-02 
376	 3.67436882993379E-02 
377	 3.64225681296426E-02 
378	 3.67118500375209E-02 
379	 3.70541148022039E-02 
380	 3.69083898363782E-02 
381	 3.68602909882444E-02 
382	 3.69445210865143E-02 
383	 3.70670353706992E-02 
384	 3.70828285861691E-02 
385	 3.70778442156125E-02 
386	 3.69910229643157E-02 
387	 3.69279580403864E-02 
388	 3.71507247899434E-02 
389	 3.68111116170073E-02 
390	 3.66336924194193E-02 
391	 3.70415464990776E-02 
392	 3.70309472748808E-02 
393	 0.036968054766046 
394	 3.69076556401832E-02 
395	 3.68229059455505E-02 
396	 0.036837877169346 
397	 3.68571693402164E-02 
398	 3.68582051618634E-02 
399	 3.68937232982225E-02 
400	 3.71075004929387E-02 
401	 3.70751759242072E-02 
402	 3.67547652898289E-02 
403	 3.71678690923828E-02 
404	 3.72353270275671E-02 
405	 3.70858774347105E-02 
406	 3.71940402911849E-02 
407	 3.72532563558559E-02 
408	 3.71834895262455E-02 
409	 0.037088385007512 
410	 0.037215509024205 
411	 3.73858422466075E-02 
412	 3.73460809380319E-02 
413	 0.0371187952582 
414	 3.74406227534324E-02 
415	 3.73953891495039E-02 
416	 3.71822009391911E-02 
417	 0.037356948802373 
418	 3.76743286436164E-02 
419	 3.76839816669666E-02 
420	 3.74900607160582E-02 
421	 3.77703732184312E-02 
422	 3.80604572996727E-02 
423	 3.81559820712867E-02 
424	 0.038061512987095 
425	 3.81845107866932E-02 
426	 3.83891394242852E-02 
427	 3.85567751698416E-02 
428	 3.86131635816601E-02 
429	 3.87731736206845E-02 
430	 3.89385655875184E-02 
431	 3.90583760790651E-02 
432	 3.91731702094352E-02 
433	 3.93125225450055E-02 
434	 3.94966760659469E-02 
435	 0.039713961510982 
436	 3.98767320261428E-02 
437	 4.00373738432887E-02 
438	 0.040196981147665 
439	 4.03461332984516E-02 
440	 4.06612329098155E-02 
441	 4.08788700786647E-02 
442	 4.09436169655691E-02 
443	 4.11678601610521E-02 
444	 4.14083668821331E-02 
445	 4.16319249392191E-02 
446	 4.18236241891083E-02 
447	 0.041927002189022 
448	 4.20773348966848E-02 
449	 4.22822075983544E-02 
450	 0.042451061987145 
451	 4.25446846112823E-02 
452	 4.26892783471715E-02 
453	 4.29265419386657E-02 
454	 4.30830907847726E-02 
455	 4.31731242089193E-02 
456	 4.32712934134631E-02 
457	 4.34386766032819E-02 
458	 4.35027946606455E-02 
459	 4.36415308129369E-02 
460	 4.38263330357155E-02 
461	 4.38214530833035E-02 
462	 4.39140277383421E-02 
463	 4.40537512445858E-02 
464	 4.41657257717223E-02 
465	 4.43036843075742E-02 
466	 4.44122640209578E-02 
467	 4.45573501622645E-02 
468	 4.48236334178831E-02 
469	 4.49702618834653E-02 
470	 4.51152987848751E-02 
471	 4.53250007139195E-02 
472	 4.55515214824381E-02 
473	 4.56884159795517E-02 
474	 4.58160918886201E-02 
475	 4.60164563556936E-02 
476	 4.61845381509468E-02 
477	 4.63337863838318E-02 
478	 4.64968322701764E-02 
479	 4.67022129209013E-02 
480	 4.67550483407084E-02 
481	 4.69063102981567E-02 
482	 4.72497372329154E-02 
483	 4.74448101254421E-02 
484	 4.76417567410359E-02 
485	 0.047847369839861 
486	 4.80367743186644E-02 
487	 4.82627490618118E-02 
488	 4.85139990521307E-02 
489	 4.87394435223699E-02 
490	 4.88668616837715E-02 
491	 4.91089253874711E-02 
492	 4.94271901010019E-02 
493	 4.97438083259083E-02 
494	 5.00194367426674E-02 
495	 5.03483256036501E-02 
496	 5.07086664775768E-02 
497	 5.10250586631999E-02 
498	 5.13068406003863E-02 
499	 5.16274703324244E-02 
500	 5.20030123512129E-02 
501	 5.23505184447825E-02 
502	 5.27817715672507E-02 
503	 5.32347986871543E-02 
504	 5.36260883957708E-02 
505	 5.39861346027496E-02 
506	 5.43907333371257E-02 
507	 0.054817217622142 
508	 5.51797303377204E-02 
509	 5.57059877423178E-02 
510	 5.62039245154751E-02 
511	 5.65647054676914E-02 
512	 5.70326201198463E-02 
513	 5.74953739240147E-02 
514	 5.79367558499075E-02 
515	 5.83866605401192E-02 
516	 5.89446914607916E-02 
517	 5.94898682128376E-02 
518	 5.99777479952501E-02 
519	 6.04852065466767E-02 
520	 6.09011820710371E-02 
521	 6.13381416148624E-02 
522	 0.061904327707851 
523	 6.25222405722874E-02 
524	 6.30869387770641E-02 
525	 0.063568739265331 
526	 6.40116479920119E-02 
527	 6.45714721509619E-02 
528	 6.51827377571003E-02 
529	 6.57622414188567E-02 
530	 6.62528059335619E-02 
531	 6.68169027373425E-02 
532	 6.74234982086455E-02 
533	 6.79890483850374E-02 
534	 6.86161372601829E-02 
535	 6.92263371658882E-02 
536	 6.97874665669238E-02 
537	 7.03285329148297E-02 
538	 7.09566756411948E-02 
539	 7.16134013638909E-02 
540	 7.22410658629427E-02 
541	 0.072934415118791 
542	 7.36236917520311E-02 
543	 7.42566141519086E-02 
544	 7.48165712834182E-02 
545	 7.54934827244916E-02 
546	 7.62038269525743E-02 
547	 7.68804745436427E-02 
548	 7.75648244344002E-02 
549	 7.82207749373907E-02 
550	 0.078870904556009 
551	 7.95553151490149E-02 
552	 8.02804714761883E-02 
553	 8.09492067214611E-02 
554	 8.15809440025512E-02 
555	 0.08232299464024 
556	 8.29947476808497E-02 
557	 0.083621633893838 
558	 0.084250606406338 
559	 8.48472057874825E-02 
560	 0.085475416833484 
561	 8.60587427172807E-02 
562	 8.64767051295671E-02 
563	 8.70908195223351E-02 
564	 8.76888146419676E-02 
565	 8.81134375361542E-02 
566	 8.84472408759785E-02 
567	 8.88944073789193E-02 
568	 8.93482776764331E-02 
569	 8.96255832170342E-02 
570	 8.98702419460539E-02 
571	 9.01857167077032E-02 
572	 9.05249411347679E-02 
573	 9.06890197597317E-02 
574	 9.08627852836368E-02 
575	 9.10487342293409E-02 
576	 9.12196429330478E-02 
577	 0.091402456729837 
578	 9.15343193350547E-02 
579	 9.15754468915798E-02 
580	 9.15307610061082E-02 
581	 9.16597734077938E-02 
582	 9.17213192974136E-02 
583	 9.15908546432811E-02 
584	 9.14592970685562E-02 
585	 9.13703760933156E-02 
586	 9.13082593066368E-02 
587	 9.12156093273634E-02 
588	 9.09951618609589E-02 
589	 9.08214506489793E-02 
590	 9.07488913921325E-02 
591	 9.06692244073335E-02 
592	 9.05841825480011E-02 
593	 9.04370675450805E-02 
594	 9.01954730883451E-02 
595	 8.99163011730148E-02 
596	 8.96023669660248E-02 
597	 8.91912957314711E-02 
598	 8.86230167242919E-02 
599	 8.82117681343971E-02 
600	 8.78426183911592E-02 
601	 8.74515622190954E-02 
602	 8.71507544916912E-02 
603	 8.70032248707335E-02 
604	 8.68770844798806E-02 
605	 8.66480719238261E-02 
606	 8.65921552170202E-02 
607	 8.65370299932212E-02 
608	 0.086440903438118 
609	 8.64122324977062E-02 
610	 8.63061201527811E-02 
611	 8.61393356921547E-02 
612	 8.59503634047852E-02 
613	 8.57178379815088E-02 
614	 0.08558672085493 
615	 8.55208205084758E-02 
616	 8.53910882044041E-02 
617	 8.52671279593667E-02 
618	 8.51600464040343E-02 
619	 8.50838040804077E-02 
620	 8.50763616411896E-02 
621	 8.49840283139699E-02 
622	 8.48502473290403E-02 
623	 8.47620585039829E-02 
624	 8.46639032460261E-02 
625	 8.45457616787173E-02 
626	 8.44239191315705E-02 
627	 8.43364196941805E-02 
628	 8.42395687652951E-02 
629	 8.41467848473429E-02 
630	 8.40668601149624E-02 
631	 8.39665229379032E-02 
632	 8.39111443535704E-02 
633	 8.38439060576972E-02 
634	 8.36807873116236E-02 
635	 8.35964290914113E-02 
636	 8.36624673127054E-02 
637	 8.37827479439134E-02 
638	 8.36404301194658E-02 
639	 8.36554167192924E-02 
640	 8.37342221760432E-02 
641	 8.37078134202231E-02 
642	 8.37515833587929E-02 
643	 8.38368374058475E-02 
644	 8.38854838418529E-02 
645	 8.37937539205031E-02 
646	 8.37325342681703E-02 
647	 8.36984572304432E-02 
648	 8.36411714442504E-02 
649	 8.34817184185329E-02 
650	 8.32812957451514E-02 
651	 0.083004860542086 
652	 8.25997140216964E-02 
653	 8.20840309378024E-02 
654	 8.15037301398463E-02 
655	 0.08080596075701 
656	 7.99082484563602E-02 
657	 0.079053473623542 
658	 7.82195999523568E-02 
659	 7.73459366112141E-02 
660	 7.65596582509581E-02 
661	 7.56672230920489E-02 
662	 7.47161240230638E-02 
663	 0.073914242265283 
664	 7.32379963811389E-02 
665	 7.25697464864585E-02 
666	 7.18508890473099E-02 
667	 7.11554514471505E-02 
668	 7.06827955862034E-02 
669	 7.03176821703251E-02 
670	 6.99208019410865E-02 
671	 6.98133840606985E-02 
672	 6.98070431995597E-02 
673	 6.98545104307889E-02 
674	 7.00537100529439E-02 
675	 0.070196056089986 
676	 7.04268770373874E-02 
677	 0.070844873773122 
678	 7.12541010957319E-02 
679	 7.17759752172353E-02 
680	 7.23715342166043E-02 
681	 7.29578739225974E-02 
682	 7.36568570567953E-02 
683	 7.45014188966328E-02 
684	 7.54052465606803E-02 
685	 7.62142362379267E-02 
686	 7.72913801411081E-02 
687	 7.83942127776119E-02 
688	 7.91787128332419E-02 
689	 0.079920106155444 
690	 8.08102936595087E-02 
691	 8.16448225352309E-02 
692	 8.20486099308927E-02 
693	 8.26628166214006E-02 
694	 8.31810057240741E-02 
695	 0.083368683267797 
696	 0.083336829511222 
697	 8.33220331103551E-02 
698	 8.32725145966074E-02 
699	 8.30549923455759E-02 
700	 8.26560783661748E-02 
701	 8.22918997710398E-02 
702	 8.19322686242969E-02 
703	 8.13456270388812E-02 
704	 8.06614430570736E-02 
705	 7.99866748282367E-02 
706	 0.079336727564816 
707	 7.84886601514219E-02 
708	 7.75981812640429E-02 
709	 7.66027350512985E-02 
710	 7.54111203180929E-02 
711	 7.42278054426168E-02 
712	 7.29237931748223E-02 
713	 7.15218407600291E-02 
714	 7.01869610358991E-02 
715	 6.88965436926775E-02 
716	 6.74529540493919E-02 
717	 6.58160690647854E-02 
718	 6.43503038321684E-02 
719	 6.24647748664109E-02 
720	 6.07734045148716E-02 
721	 5.96355011629249E-02 
722	 5.82229125109226E-02 
723	 5.65647914779197E-02 
724	 5.49288181428958E-02 
725	 5.33004400123958E-02 
726	 5.15344702424758E-02 
727	 4.96819372211623E-02 
728	 4.77864170231392E-02 
729	 4.56632382678173E-02 
730	 4.33285818141757E-02 
731	 4.11317619090956E-02 
732	 3.93525880675604E-02 
733	 0.037931400468962 
734	 3.66964840581141E-02 
735	 3.56252163108842E-02 
736	 3.48555596872343E-02 
737	 3.42107602874923E-02 
738	 3.36325303306112E-02 
739	 3.31454179629213E-02 
740	 0.032892390107884 
741	 0.032686959284177 
742	 3.25284193740393E-02 
743	 3.24889082769099E-02 
744	 3.23906226943975E-02 
745	 3.23219226843414E-02 
746	 3.23256044634399E-02 
747	 3.23463730938853E-02 
748	 3.23582372437595E-02 
749	 3.23852666882924E-02 
750	 3.24199174491066E-02 
751	 3.22821057110694E-02 
752	 3.23123268190157E-02 
753	 3.24335711263129E-02 
754	 3.23785156497492E-02 
755	 3.24079690215127E-02 
756	 3.24310520340611E-02 
757	 3.24558329204843E-02 
758	 3.27509692576063E-02 
759	 0.033142749687374 
760	 3.33772815025287E-02 
761	 3.32649584334683E-02 
762	 3.34878525345585E-02 
763	 3.32923294154739E-02 
764	 3.29672204680495E-02 
765	 3.29662269200501E-02 
766	 3.31322169651005E-02 
767	 3.31911509024388E-02 
768	 3.31955820590229E-02 
769	 3.34688359948249E-02 
770	 3.36506649062714E-02 
771	 3.37175473069121E-02 
772	 3.37743034798598E-02 
773	 3.40917183183184E-02 
774	 3.42907987806888E-02 
775	 3.44316291310375E-02 
776	 3.47182044410872E-02 
777	 3.49319660208743E-02 
778	 3.51551259101114E-02 
779	 3.54116313110228E-02 
780	 3.56524568578921E-02 
781	 3.59459368738095E-02 
782	 3.62050255506661E-02 
783	 3.64300886677985E-02 
784	 3.68950314462159E-02 
785	 3.72589880077045E-02 
786	 3.75657372060361E-02 
787	 0.037958671090316 
788	 3.83168507152782E-02 
789	 3.86528975060278E-02 
790	 3.90076718276516E-02 
791	 3.94271204573044E-02 
792	 3.97347492082713E-02 
793	 4.01755623564907E-02 
794	 4.07417183051562E-02 
795	 0.040906801211254 
796	 4.12357520549053E-02 
797	 4.16042928646078E-02 
798	 4.18180061995535E-02 
799	 0.042071861934799 
800	 4.24452276509627E-02 
801	 4.28420431581845E-02 
802	 4.30789763754334E-02 
803	 4.31307918022382E-02 
804	 4.32908890701148E-02 
805	 4.35078829409978E-02 
806	 4.33611143010879E-02 
807	 4.34076923588454E-02 
808	 4.34871909920414E-02 
809	 4.34167662026309E-02 
810	 4.33370384472734E-02 
811	 4.32376373850049E-02 
812	 4.30110092752292E-02 
813	 0.042573709701495 
814	 4.22935255251755E-02 
815	 4.20401347599849E-02 
816	 4.17051683376659E-02 
817	 4.12504251372003E-02 
818	 0.040795361943471 
819	 4.02034788961052E-02 
820	 3.94625204038151E-02 
821	 3.87729875614892E-02 
822	 3.74691366381952E-02 
823	 3.62048069008223E-02 
824	 3.54352723119208E-02 
825	 3.42889006998616E-02 
826	 3.30313225519695E-02 
827	 3.16568363111006E-02 
828	 3.01825982672716E-02 
829	 2.86580865560554E-02 
830	 2.74113588287451E-02 
831	 2.65192365231875E-02 
832	 2.58574253022015E-02 
833	 2.50695683325513E-02 
834	 2.44210628319687E-02 
835	 2.39847312935718E-02 
836	 2.35021771732197E-02 
837	 2.35538575268879E-02 
838	 2.33742276686327E-02 
839	 2.25746262618121E-02 
840	 2.24497949853744E-02 
841	 2.23987308446434E-02 
842	 2.22004697023171E-02 
843	 2.18593408780443E-02 
844	 2.18075370090177E-02 
845	 2.16336096694267E-02 
846	 2.13592494626444E-02 
847	 2.12886651887561E-02 
848	 2.12337848726049E-02 
849	 2.09787439431249E-02 
850	 2.06063779766158E-02 
851	 2.05463204845194E-02 
852	 2.04419377922185E-02 
853	 2.02947385749612E-02 
854	 2.01643841825683E-02 
855	 2.00639644560083E-02 
856	 2.00011397823788E-02 
857	 0.019948405304265 
858	 1.98412517652527E-02 
859	 1.94918558481651E-02 
860	 1.93902542500987E-02 
861	 1.94602752136288E-02 
862	 1.93509777216854E-02 
863	 1.90406394651497E-02 
864	 1.88781579827294E-02 
865	 1.89252397114056E-02 
866	 1.89337889137659E-02 
867	 1.87243231761859E-02 
868	 1.84022193539882E-02 
869	 1.81293500568599E-02 
870	 1.80610710750985E-02 
871	 1.79636338934774E-02 
872	 1.78833878608645E-02 
873	 1.78090521144277E-02 
874	 1.74526713752692E-02 
875	 1.72875170748591E-02 
876	 1.72217851115362E-02 
877	 1.70634112692051E-02 
878	 1.69729029983981E-02 
879	 1.68103888853641E-02 
880	 1.65974962529779E-02 
881	 1.64368294453949E-02 
882	 1.64075005176738E-02 
883	 1.61778797173819E-02 
884	 1.58141785030187E-02 
885	 1.56849575508248E-02 
886	 1.59039538388098E-02 
887	 1.56408378027823E-02 
888	 0.015116377695756 
889	 1.56840845941349E-02 
890	 1.54734200629127E-02 
891	 1.52070074521821E-02 
892	 1.53952978985791E-02 
893	 1.52665033603867E-02 
894	 0.015161626923581 
895	 1.50349333596685E-02 
896	 1.47897772135026E-02 
897	 1.44552493893334E-02 
898	 1.49083093728701E-02 
899	 1.51525747772221E-02 
900	 0.014330932887509 
901	 1.43450973986425E-02 
902	 1.42331060573198E-02 
903	 1.41302457627146E-02 
904	 1.44025020224925E-02 
905	 1.43864296047884E-02 
906	 1.41531387881054E-02 
907	 1.39452418890361E-02 
908	 1.40810493403645E-02 
909	 1.44569456569559E-02 
910	 1.44382457627598E-02 
911	 1.40591961672278E-02 
912	 1.39245932171658E-02 
913	 1.35606409887223E-02 
914	 1.33991565215571E-02 
915	 1.34928733917967E-02 
916	 1.33418721996184E-02 
917	 1.24441955485653E-02 
918	 1.17862947504337E-02 
919	 1.19691531813726E-02 
920	 1.27785496657008E-02 
921	 1.31193009031352E-02 
922	 1.28968023810114E-02 
923	 1.25078621937237E-02 
924	 1.29069903087307E-02 
925	 1.23385687766527E-02 
926	 1.14635940610118E-02 
927	 1.14015500196673E-02 
928	 1.18291142973534E-02 
929	 0.012910869361015 
930	 1.43599638478721E-02 
931	 1.48231995074833E-02 
932	 9.38728538574649E-03 
933	 1.06853880726906E-02 
934	 1.65260107881365E-02 
935	 1.65176572028897E-02 
936	 1.31205251820304E-02 
937	 1.20666386164855E-02 
938	 0.013093109151891 
939	 1.36215799643462E-02 
940	 1.04826795257512E-02 
941	 1.14496331272137E-02 
942	 0.015203707300799 
943	 1.56243986484256E-02 
944	 9.07238956838987E-03 
945	 9.82465908611774E-03 
946	 1.54261800906668E-02 
947	 1.43276799966306E-02 
948	 1.06593007150247E-02 
949	 1.10194236438541E-02 
950	 1.29151212636145E-02 
951	 0.010210723134644 
952	 1.16093015614654E-02 
953	 1.21039129133077E-02 
954	 1.12903164000387E-02 
955	 1.20386786283085E-02 
956	 1.19591520678333E-02 
957	 0.012282713986961 
958	 1.18676677185512E-02 
959	 9.03710612964022E-03 
960	 1.10101850756285E-02 
961	 1.25986149494776E-02 
962	 1.23310249699253E-02 
963	 1.21339623248296E-02 
964	 0.011713785863917 
965	 1.11045002608503E-02 
966	 1.10775315093629E-02 
967	 1.23592078392389E-02 
968	 1.14758263728165E-02 
969	 1.13023070869771E-02 
970	 1.16052639646051E-02 
971	 9.68982565519602E-03 
972	 9.37934856476002E-03 
973	 1.19731573020767E-02 
974	 1.44075691639986E-02 
975	 1.11668172742781E-02 
976	 9.16207526551881E-03 
977	 9.83775872789635E-03 
978	 1.19474452999062E-02 
979	 1.27256795657247E-02 
980	 1.10908583209592E-02 
981	 1.01349859763557E-02 
982	 1.02851723252861E-02 
983	 9.60889276836423E-03 
984	 0.008438662516169 
985	 9.44961243037764E-03 
986	 0.011354355633924 
987	 1.04532965323395E-02 
988	 1.00211036818811E-02 
989	 1.06573909149203E-02 
990	 1.16972584956228E-02 
991	 1.17767115140855E-02 
992	 1.03215585125053E-02 
993	 1.02520529797669E-02 
994	 1.08021768634492E-02 
995	 9.31793172586032E-03 
996	 9.53950475149131E-03 
997	 1.11269173483654E-02 
998	 1.19647510038815E-02 
999	 1.02287545570669E-02 
1000	 0.010499303893569 
1001	 1.01811589199158E-02 
1002	 1.03809404857345E-02 
1003	 1.03520452456481E-02 
1004	 1.06157863131002E-02 
1005	 1.07225599918836E-02 
1006	 1.05294412927439E-02 
1007	 1.03377153999564E-02 
1008	 1.05421661275428E-02 
1009	 0.01079447780912 
1010	 1.08579355435186E-02 
1011	 1.12100726904572E-02 
1012	 1.10812107874494E-02 
1013	 1.08941397379581E-02 
1014	 1.09626969380466E-02 
1015	 1.09456815820086E-02 
1016	 1.11605993307887E-02 
1017	 1.18937345913492E-02 
1018	 1.21603073015011E-02 
1019	 0.012513071304729 
1020	 1.23913276974675E-02 
1021	 1.17518327307897E-02 
1022	 1.12494561920114E-02 
1023	 1.07604394364256E-02 
1024	 1.05467020721572E-02 
1025	 0.010749959624255 
1026	 1.10807471195384E-02 
1027	 1.11208314998121E-02 
1028	 1.09716587653268E-02 
1029	 1.11434925362138E-02 
1030	 1.13767731908518E-02 
1031	 1.14456765281294E-02 
1032	 1.19216138813912E-02 
1033	 1.17672350038952E-02 
1034	 1.07036285069176E-02 
1035	 1.05601282906164E-02 
1036	 1.06801118340224E-02 
1037	 1.07015060903489E-02 
1038	 1.12832378333936E-02 
1039	 1.16029925085762E-02 
1040	 1.15827440870822E-02 
1041	 1.11965529443993E-02 
1042	 1.09358071470878E-02 
1043	 1.03666214234195E-02 
1044	 1.05222473777591E-02 
1045	 1.10511868130523E-02 
1046	 1.12509778558415E-02 
1047	 1.18802719688555E-02 
1048	 1.21059739972991E-02 
1049	 1.19196655615253E-02 
1050	 1.17528914972165E-02 
1051	 1.14355086006942E-02 
1052	 1.12845426594369E-02 
1053	 0.011066431490311 
1054	 1.08662816669847E-02 
1055	 1.09394996062494E-02 
1056	 1.08577788240796E-02 
1057	 1.06816711282981E-02 
1058	 1.01285197815227E-02 
1059	 1.02418160402486E-02 
1060	 1.06261711398384E-02 
1061	 1.09045195327414E-02 
1062	 1.18175199904381E-02 
1063	 1.18502526568248E-02 
1064	 1.11953338909558E-02 
1065	 1.09884908683764E-02 
1066	 1.03618788210475E-02 
1067	 1.02791400707286E-02 
1068	 1.08946819730074E-02 
1069	 1.11150460737161E-02 
1070	 1.14375561494793E-02 
1071	 1.15609696843578E-02 
1072	 1.14815689201706E-02 
1073	 1.12434879667245E-02 
1074	 1.11080231084695E-02 
1075	 1.08638236444088E-02 
1076	 1.08902206924089E-02 
1077	 0.011130841418062 
1078	 1.11176781599995E-02 
1079	 1.10619050134013E-02 
1080	 1.11203480153095E-02 
1081	 1.10953408835818E-02 
1082	 1.10505059949877E-02 
1083	 1.14436587761028E-02 
1084	 1.12925335399181E-02 
1085	 1.01205859649262E-02 
1086	 9.99162764329037E-03 
1087	 1.02646359166663E-02 
1088	 0.010472105178093 
1089	 1.14926117317436E-02 
1090	 1.25001081289235E-02 
1091	 1.23850252996021E-02 
1092	 1.10965573767721E-02 
1093	 1.10575273643519E-02 
1094	 1.10222449573348E-02 
1095	 1.08861148784056E-02 
1096	 1.16250697130336E-02 
1097	 1.16435429783188E-02 
1098	 1.03590262053463E-02 
1099	 1.02092036356982E-02 
1100	 1.11986908689163E-02 
1101	 1.12169107239157E-02 
1102	 1.07590631848213E-02 
1103	 1.07181277911073E-02 
1104	 1.02254644719676E-02 
1105	 1.01238049318879E-02 
1106	 1.05163801557295E-02 
1107	 1.14144988956745E-02 
1108	 1.16228619228297E-02 
1109	 1.13547083207119E-02 
1110	 1.13406692525359E-02 
1111	 1.08172829415029E-02 
1112	 1.12096002941738E-02 
1113	 1.30716943386805E-02 
1114	 1.31944588719249E-02 
1115	 1.26015298170266E-02 
1116	 1.24425656026429E-02 
1117	 9.80525430493621E-03 
1118	 8.58089854244919E-03 
1119	 1.07299874307192E-02 
1120	 0.011741938101687 
1121	 1.35494718004058E-02 
1122	 1.15896583474396E-02 
1123	 1.48417703487328E-02 
1124	 1.46754697842871E-02 
1125	 9.77759920314774E-03 
1126	 1.26722468137284E-02 
1127	 1.08921559768792E-02 
1128	 7.14939125604802E-03 
1129	 9.36149904614288E-03 
1130	 1.70935288079271E-02 
1131	 1.76889822259866E-02 
1132	 1.83802139266963E-02 
1133	 1.69970289222907E-02 
1134	 1.09567280134483E-02 
1135	 1.00993084411415E-02 
1136	 1.12851581064834E-02 
1137	 1.16546341765939E-02 
1138	 0.013371149948121 
1139	 1.37825169331267E-02 
1140	 1.27814796307814E-02 
1141	 1.40214473736344E-02 
1142	 1.61741701994957E-02 
1143	 0.016393688495721 
1144	 1.54532893616995E-02 
1145	 1.39326029238603E-02 
1146	 1.34040392270498E-02 
1147	 1.40110206635484E-02 
1148	 1.42175946862903E-02 
1149	 1.40116529744994E-02 
1150	 1.38753524432603E-02 
1151	 1.23625595276653E-02 
1152	 1.17711213266076E-02 
1153	 1.22023376768878E-02 
1154	 1.22720445452511E-02 
1155	 1.20928667554291E-02 
1156	 0.011656495726248 
1157	 0.012020601985075 
1158	 1.24814215571038E-02 
1159	 1.21730970651454E-02 
1160	 1.22789099572366E-02 
1161	 1.23723435162611E-02 
1162	 1.18162165666484E-02 
1163	 1.17779618712833E-02 
1164	 1.16302682860118E-02 
1165	 1.15274698750872E-02 
1166	 1.19450571335585E-02 
1167	 1.14053707394154E-02 
1168	 1.09603150960304E-02 
1169	 1.14764647515823E-02 
1170	 1.14967655549041E-02 
1171	 1.13015638675461E-02 
1172	 1.13372913584732E-02 
1173	 1.14376987153717E-02 
1174	 1.11059527798959E-02 
1175	 1.09752231075733E-02 
1176	 1.13592621389592E-02 
1177	 1.14669318464491E-02 
1178	 1.09273605959065E-02 
1179	 1.03646046766063E-02 
1180	 1.04807700787021E-02 
1181	 1.10615021096917E-02 
1182	 1.12912212716136E-02 
1183	 1.10908624442937E-02 
1184	 0.010929924424996 
1185	 1.09957421699861E-02 
1186	 1.10724746254494E-02 
1187	 1.11696600192219E-02 
1188	 1.12274161051453E-02 
1189	 1.08298149616593E-02 
1190	 1.04680406171384E-02 
1191	 1.05317571695675E-02 
1192	 1.05537976691937E-02 
1193	 0.010600366571088 
1194	 1.04889525743515E-02 
1195	 1.05577347847065E-02 
1196	 1.07698750678624E-02 
1197	 1.09452939869239E-02 
1198	 0.010860330529361 
1199	 1.07151176868093E-02 
1200	 1.10481918422545E-02 
1201	 1.11025346808141E-02 
1202	 1.08950608888122E-02 
1203	 1.10034093367825E-02 
1204	 1.04987004095035E-02 
1205	 1.01209196395456E-02 
1206	 1.06611083644978E-02 
1207	 1.08410883243472E-02 
1208	 1.07183014241131E-02 
1209	 1.07008047884787E-02 
1210	 1.05208850128349E-02 
1211	 0.010666404763891 
1212	 1.09572571164885E-02 
1213	 1.09349123516586E-02 
1214	 0.0108625895518 
1215	 0.010564868081202 
1216	 0.010150514161073 
1217	 1.01088936902766E-02 
1218	 1.05199810225292E-02 
1219	 1.07560856964129E-02 
1220	 1.06784494655916E-02 
1221	 1.06018451643772E-02 
1222	 1.04993616493308E-02 
1223	 1.03343537331636E-02 
1224	 1.03413651377444E-02 
1225	 0.010323429939148 
1226	 1.03081968239113E-02 
1227	 1.03367753570999E-02 
1228	 1.03182224693938E-02 
1229	 1.04401963970017E-02 
1230	 1.02636205996993E-02 
1231	 9.96017488664807E-03 
1232	 1.01516932764097E-02 
1233	 1.02622101924746E-02 
1234	 1.00490999063322E-02 
1235	 1.00554655211055E-02 
1236	 0.010186142830614 
1237	 1.02747032318575E-02 
1238	 1.04092912608708E-02 
1239	 1.05244879273497E-02 
1240	 1.04761869949339E-02 
1241	 1.02889209487234E-02 
1242	 1.02563544730523E-02 
1243	 1.02449797958638E-02 
1244	 1.01561222830695E-02 
1245	 1.01374135353817E-02 
1246	 1.01183616097266E-02 
1247	 1.02574628801064E-02 
1248	 1.03860523470403E-02 
1249	 1.04838335050997E-02 
1250	 1.03507925443218E-02 
1251	 1.02119319412337E-02 
1252	 1.05268990687424E-02 
1253	 1.04054299117856E-02 
1254	 1.01868431834451E-02 
1255	 1.03038607179706E-02 
1256	 1.02576191284409E-02 
1257	 1.01019500617282E-02 
1258	 0.010243511334991 
1259	 1.05658228842191E-02 
1260	 1.04936235065605E-02 
1261	 1.04201369179968E-02 
1262	 1.04000279874673E-02 
1263	 1.01701675226315E-02 
1264	 9.90876388146405E-03 
1265	 9.90556941756691E-03 
1266	 1.00156437613667E-02 
1267	 1.03872642526116E-02 
1268	 1.07167449231789E-02 
1269	 1.07347342079135E-02 
1270	 1.06163270072694E-02 
1271	 1.04799437597289E-02 
1272	 1.03062142008082E-02 
1273	 1.03306868202018E-02 
1274	 1.07574678601317E-02 
1275	 1.08588929150213E-02 
1276	 1.05701372532768E-02 
1277	 0.010577025317624 
1278	 1.04791738943996E-02 
1279	 1.01573788992045E-02 
1280	 1.02322777500432E-02 
1281	 1.02099692203204E-02 
1282	 1.01336179892656E-02 
1283	 1.01416623687077E-02 
1284	 1.04282524444449E-02 
1285	 1.03251681581014E-02 
1286	 9.89824869789015E-03 
1287	 9.91550132435143E-03 
1288	 9.95243649924478E-03 
1289	 9.95172611470289E-03 
1290	 1.02919371302262E-02 
1291	 1.04207597544968E-02 
1292	 1.01608614654716E-02 
1293	 1.01069397463556E-02 
1294	 1.01807571204751E-02 
1295	 1.04637429329584E-02 
1296	 1.05967835853824E-02 
1297	 1.01951740128336E-02 
1298	 9.99100910446181E-03 
1299	 1.02869080857809E-02 
1300	 1.05975898537354E-02 
1301	 1.04941727041353E-02 
1302	 1.03196621745236E-02 
1303	 1.04914775163365E-02 
1304	 1.05280962936607E-02 
1305	 1.04711977509948E-02 
1306	 1.05651096709718E-02 
1307	 1.04621229470557E-02 
1308	 1.04747183352071E-02 
1309	 0.010932660157763 
1310	 1.10467079660235E-02 
1311	 1.07044704878627E-02 
1312	 1.06368550343101E-02 
1313	 1.07345130528133E-02 
1314	 1.08197234685161E-02 
1315	 1.07752465318265E-02 
1316	 1.09923309304641E-02 
1317	 1.17229585134328E-02 
1318	 1.18127329951664E-02 
1319	 1.17847559710831E-02 
1320	 1.17987149672375E-02 
1321	 1.12827779733376E-02 
1322	 1.07534846907587E-02 
1323	 1.09467744044113E-02 
1324	 1.09083156717352E-02 
1325	 1.09834181668583E-02 
1326	 1.12964781613204E-02 
1327	 1.16342449202662E-02 
1328	 1.18486636187278E-02 
1329	 1.17414298635752E-02 
1330	 0.011495937603482 
1331	 1.14560054232378E-02 
1332	 1.18108862590826E-02 
1333	 1.20344434214478E-02 
1334	 1.13660526096422E-02 
1335	 1.13327951783832E-02 
1336	 1.06496070800576E-02 
1337	 1.02268183867691E-02 
1338	 1.06334464608031E-02 
1339	 1.12037876595543E-02 
1340	 1.11519471163295E-02 
1341	 1.14255830869076E-02 
1342	 1.30526320024775E-02 
1343	 1.39088443287713E-02 
1344	 1.43238526708951E-02 
1345	 1.48795751325432E-02 
1346	 1.52807614625788E-02 
1347	 1.66706174937727E-02 
1348	 1.82062029573594E-02 
1349	 1.89903836191384E-02 
1350	 2.20087951799625E-02 
1351	 2.63127951292608E-02 
1352	 2.80444544655595E-02 
1353	 2.84663371384194E-02 
1354	 1.64602105775008E-02 
1355	 3.74510183018954E-02 
1356	 4.98855487877662E-02 
1357	 2.29857853126955E-02 
1358	 2.02044568125694E-02 
1359	-1.34596131194375E-02 
1360	-1.66721004511585E-02 
1361	-4.64204895659913E-02 
1362	-0.241781183071459 
1363	 0.02400767875848 
1364	 0.317802501223163 
1365	 0.400228242451166 
1366	 0.640084594247616 
1367	 0.773589214300537 
1368	 0.799612859889883 
1369	 9.07969773539637E-02 
1370	-1.22449575797875E-03 
1371	-2.92049058376974E-02 
1372	 0.115623723800609 
1373	 0.34306293064495 
1374	 0.253540600306343 
1375	 9.18218578206008E-02 
1376	 0.241492725422518 
1377	 0.301627003354277 
1378	-6.76749894079499E-02 
1379	-6.93490817975897E-02 
1380	 1.27832093200861E-02 
1381	-0.348628442344119 
1382	-0.40244910635737 
1383	 0.162708351706159 
1384	 0.401733003338135 
1385	 0.72728968742186 
1386	 0.481997787985894 
1387	-0.649476785460215 
1388	-0.666319171451498 
1389	-0.296569354191414 
1390	-0.435017204539629 
1391	-0.362766586100134 
1392	-0.210495738797638 
1393	-1.92055486499133E-02 
1394	 0.174909581301917 
1395	 0.339813398275507 
1396	 0.858706342351518 
1397	 0.310777597404558 
1398	-0.265967243965335 
1399	-0.171590950560847 
1400	 0.290918597093576 
1401	 0.252621213655623 
1402	 0.22338639456673 
1403	 0.515216500714766 
1404	 0.859084325867079 
1405	 0.627686108638933 
1406	 0.272851907068297 
1407	 0.251754551473366 
1408	 9.55134444415584E-02 
1409	 3.91794612785958E-02 
1410	 0.161108858127033 
1411	 0.213102915426364 
1412	 0.155946289051891 
1413	 7.46122196904859E-02 
1414	 6.15725129717174E-02 
1415	 5.45212108668731E-02 
1416	-5.84227103914243E-02 
1417	-6.19153815783252E-02 
1418	 6.29189489440994E-02 
1419	 6.68514722394356E-02 
1420	 5.18805787319124E-03 
1421	 1.66014697643196E-02 
1422	 5.74724096089771E-02 
1423	 4.35589407893381E-02 
1424	 1.32473109882955E-02 
1425	 1.47174090713719E-02 
1426	 7.06442676296449E-03 
1427	 3.80606187838764E-03 
1428	 3.00446071929351E-02 
1429	 3.33376518263744E-02 
1430	 6.76779142507418E-03 
1431	 4.90452713178526E-03 
1432	 2.11175604524932E-02 
1433	 2.09299508335691E-02 
1434	 1.46951649151214E-02 
1435	 2.26006404249615E-02 
1436	 3.15665558417838E-02 
1437	 3.53425402098533E-02 
1438	 3.19805631421465E-02 
1439	 2.37641459060264E-02 
1440	 1.60041193889139E-02 
1441	 4.34683889948641E-03 
1442	-3.16458541130145E-03 
1443	-1.53121038037015E-03 
1444	 5.73346173340102E-03 
1445	 6.53334249403124E-03 
1446	 7.29214791710374E-03 
1447	 1.22893891224121E-02 
1448	 9.98756852485317E-03 
1449	 5.66534387139524E-03 
1450	 4.23036479856045E-03 
1451	 7.85712883467082E-03 
1452	 1.17292724980629E-02 
1453	 7.5527730308728E-03 
1454	 6.40810393507534E-03 
1455	 6.84998645422307E-03 
1456	 8.44302939558255E-03 
1457	 9.64431846017641E-03 
1458	 9.7706131534167E-03 
1459	 1.09836399992351E-02 
1460	 1.13758933902328E-02 
1461	 9.43230629282782E-03 
1462	 9.63273708793902E-03 
1463	 0.013176732126591 
1464	 1.31333545503436E-02 
1465	 9.63881990501812E-03 
1466	 9.09947652216735E-03 
1467	 1.01145052498175E-02 
1468	 8.88068535071628E-03 
1469	 6.5678675695655E-03 
1470	 6.99527190024534E-03 
1471	 8.22217955828388E-03 
1472	 6.80907315532651E-03 
1473	 4.2110211071061E-03 
1474	 6.26812311845272E-03 
1475	 1.05839958528969E-02 
1476	 9.98068751926837E-03 
1477	 9.9522921229636E-03 
1478	 1.14181548874611E-02 
1479	 1.07485919093017E-02 
1480	 8.02588443484837E-03 
1481	 5.51600055940822E-03 
1482	 6.33459302421003E-03 
1483	 6.63889689292413E-03 
1484	 5.06470884847268E-03 
1485	 5.20943062342716E-03 
1486	 6.0508560436641E-03 
1487	 4.89903130893828E-03 
1488	 4.25403167816276E-03 
1489	 5.31067719948765E-03 
1490	 6.45407589426147E-03 
1491	 7.12956090745354E-03 
1492	 7.01173948192137E-03 
1493	 7.62795682602839E-03 
1494	 7.77679603709894E-03 
1495	 6.1874388208661E-03 
1496	 5.79692031218503E-03 
1497	 7.12323026659676E-03 
1498	 6.91156136543128E-03 
1499	 5.06627000468571E-03 
1500	 5.06982478491289E-03 
1501	 5.96064690808235E-03 
1502	 5.83896036339004E-03 
1503	 6.04420937992151E-03 
1504	 6.52163776934616E-03 
1505	 6.5866073769563E-03 
1506	 6.32986227431131E-03 
1507	 0.006113793060727 
1508	 6.27760324698561E-03 
1509	 6.63995863755532E-03 
1510	 6.53193196345682E-03 
1511	 6.24255203328182E-03 
1512	 6.18209855696415E-03 
1513	 6.02950361863066E-03 
1514	 5.7052584827297E-03 
1515	 6.04894024074466E-03 
1516	 6.62988709316713E-03 
1517	 6.47946832897179E-03 
1518	 6.03266545481882E-03 
1519	 5.87233749913931E-03 
1520	 6.18647239754067E-03 
1521	 6.3156939868697E-03 
1522	 5.87803711885584E-03 
1523	 5.40470008462747E-03 
1524	 5.38472402209313E-03 
1525	 5.83129167513903E-03 
1526	 6.00298065508781E-03 
1527	 5.76387840476224E-03 
1528	 5.90117142763519E-03 
1529	 6.01342923637797E-03 
1530	 5.74709343335314E-03 
1531	 5.85207618562479E-03 
1532	 6.19173776280502E-03 
1533	 6.38778265388832E-03 
1534	 6.2742430521923E-03 
1535	 5.96820488965961E-03 
1536	 5.80348467421259E-03 
1537	 5.65975931056253E-03 
1538	 5.53272369925819E-03 
1539	 5.83140768474277E-03 
1540	 6.20446295093799E-03 
1541	 5.94203072310076E-03 
1542	 5.99181477746578E-03 
1543	 6.42128914699333E-03 
1544	 6.3275178757169E-03 
1545	 6.1852464245574E-03 
1546	 5.99651975329612E-03 
1547	 5.65784007941639E-03 
1548	 5.7079351541812E-03 
1549	 5.89008989261355E-03 
1550	 5.79105841827413E-03 
1551	 5.81818872646238E-03 
1552	 5.95097498098548E-03 
1553	 5.9641365790956E-03 
1554	 6.14017197835198E-03 
1555	 6.23408382168626E-03 
1556	 6.10553384597591E-03 
1557	 6.18125129588744E-03 
1558	 6.35618036735291E-03 
1559	 6.58599476330679E-03 
1560	 6.63082207878338E-03 
1561	 6.29560811012523E-03 
1562	 6.31745832560635E-03 
1563	 6.18278281718394E-03 
1564	 5.95223234042059E-03 
1565	 6.34699650579679E-03 
1566	 6.37228074130723E-03 
1567	 6.09539190906739E-03 
1568	 6.23817438862379E-03 
1569	 0.006408905249864 
1570	 6.44728203578742E-03 
1571	 6.65313954058754E-03 
1572	 6.7249068727548E-03 
1573	 6.52205568962267E-03 
1574	 6.5381357614542E-03 
1575	 6.95806130168255E-03 
1576	 7.05428452527974E-03 
1577	 6.65608102672045E-03 
1578	 6.90434321734898E-03 
1579	 7.04819194657167E-03 
1580	 6.62772635397425E-03 
1581	 6.57930234536731E-03 
1582	 6.50533649148137E-03 
1583	 6.51951406152332E-03 
1584	 6.68384133284608E-03 
1585	 6.6136216143814E-03 
1586	 6.65612544279116E-03 
1587	 6.77207191102767E-03 
1588	 6.89124351543223E-03 
1589	 7.26847919164563E-03 
1590	 7.17648725302166E-03 
1591	 6.70866601111654E-03 
1592	 6.84051711566689E-03 
1593	 6.85672977370233E-03 
1594	 6.73223758181023E-03 
1595	 7.00675107168652E-03 
1596	 6.99615023178506E-03 
1597	 6.92738604523206E-03 
1598	 7.23063318710435E-03 
1599	 7.13835711317914E-03 
1600	 6.99227087351699E-03 
1601	 7.2177855135861E-03 
1602	 6.99520531712118E-03 
1603	 7.24051944641597E-03 
1604	 7.84756981015244E-03 
1605	 7.56392062176943E-03 
1606	 7.5944034602423E-03 
1607	 7.91207432169488E-03 
1608	 7.49715161081581E-03 
1609	 7.07655380493068E-03 
1610	 7.1507884167881E-03 
1611	 6.99705326535304E-03 
1612	 6.77025470780921E-03 
1613	 7.30365102368679E-03 
1614	 7.49551444330875E-03 
1615	 6.9403442266122E-03 
1616	 6.92539636741003E-03 
1617	 7.13437850041602E-03 
1618	 7.1319388131134E-03 
1619	 7.47371153709993E-03 
1620	 7.69166635970438E-03 
1621	 7.46100793594704E-03 
1622	 7.51473740725889E-03 
1623	 7.76685372500386E-03 
1624	 7.65503046582702E-03 
1625	 7.51404435733465E-03 
1626	 7.57653323129211E-03 
1627	 7.43448039011268E-03 
1628	 7.55628333823907E-03 
1629	 8.23385047600026E-03 
1630	 8.33527942550564E-03 
1631	 8.04549303595669E-03 
1632	 7.89101360424264E-03 
1633	 7.43148042934652E-03 
1634	 7.04446260229176E-03 
1635	 7.23150755800987E-03 
1636	 7.71304747796478E-03 
1637	 7.59886390085781E-03 
1638	 7.2895987963486E-03 
1639	 7.62172255868676E-03 
1640	 7.61576362046376E-03 
1641	 7.12390186931996E-03 
1642	 7.49753369744161E-03 
1643	 7.88568398843595E-03 
1644	 7.43864092777375E-03 
1645	 7.47348933130796E-03 
1646	 7.43747164783622E-03 
1647	 7.09485124275035E-03 
1648	 7.31256791771855E-03 
1649	 7.52209507932168E-03 
1650	 7.62701545429129E-03 
1651	 7.58565234248477E-03 
1652	 7.45419898385791E-03 
1653	 7.44217260150662E-03 
1654	 7.3709600298492E-03 
1655	 7.25802649887557E-03 
1656	 7.35171362852483E-03 
1657	 7.46834203432107E-03 
1658	 7.73002086714108E-03 
1659	 8.42263226440419E-03 
1660	 8.2514486748613E-03 
1661	 7.61185575819808E-03 
1662	 7.59567300090976E-03 
1663	 7.40059755371761E-03 
1664	 7.23503111630251E-03 
1665	 7.32192669371674E-03 
1666	 7.42045793572982E-03 
1667	 7.41684732247602E-03 
1668	 7.68276042187024E-03 
1669	 7.99122718143307E-03 
1670	 7.63416720258587E-03 
1671	 7.3015997793194E-03 
1672	 7.29478564205358E-03 
1673	 7.36974200285183E-03 
1674	 7.84663999976347E-03 
1675	 8.01229907974461E-03 
1676	 7.47098235409481E-03 
1677	 7.15351005896916E-03 
1678	 7.33198453321266E-03 
1679	 7.52565896518107E-03 
1680	 7.81615104372893E-03 
1681	 8.20359337128298E-03 
1682	 8.18183747128206E-03 
1683	 7.71297374006397E-03 
1684	 7.41614596275698E-03 
1685	 7.91704435865772E-03 
1686	 8.0581776121001E-03 
1687	 7.55843251149388E-03 
1688	 7.87867724239612E-03 
1689	 7.90658866861865E-03 
1690	 0.007510829898502 
1691	 8.22203552530004E-03 
1692	 8.82342510133583E-03 
1693	 8.52907661213314E-03 
1694	 8.11115691849343E-03 
1695	 7.71825274425074E-03 
1696	 7.63812383521477E-03 
1697	 8.03957602223813E-03 
1698	 8.27966643517859E-03 
1699	 8.10722693175525E-03 
1700	 8.32018252469053E-03 
1701	 8.61441015141961E-03 
1702	 8.33133219523887E-03 
1703	 8.38176005972346E-03 
1704	 8.22159492697033E-03 
1705	 7.69899844335789E-03 
1706	 8.10958308624085E-03 
1707	 8.71700040877013E-03 
1708	 8.93881504036607E-03 
1709	 8.36270307736253E-03 
1710	 7.59074325547404E-03 
1711	 8.37558749392893E-03 
1712	 9.0720560021352E-03 
1713	 9.27060972897572E-03 
1714	 9.42585912735638E-03 
1715	 8.54995384628503E-03 
1716	 8.7299883888985E-03 
1717	 8.90569044360702E-03 
1718	 8.56205104871936E-03 
1719	 8.75827011374725E-03 
1720	 9.03795241918513E-03 
1721	 8.79145339468774E-03 
1722	 9.17641492100568E-03 
1723	 9.45837773501467E-03 
1724	 8.9022239979879E-03 
1725	 8.81810759824543E-03 
1726	 8.82737511358048E-03 
1727	 8.71532065807946E-03 
1728	 8.66818227973719E-03 
1729	 8.53107017606129E-03 
1730	 8.44094195697091E-03 
1731	 8.44224740647281E-03 
1732	 9.02294300436687E-03 
1733	 9.54022724476722E-03 
1734	 8.85737717454054E-03 
1735	 8.1395865091789E-03 
1736	 8.00017456467983E-03 
1737	 7.54006876623951E-03 
1738	 8.11276867366958E-03 
1739	 9.42878977730806E-03 
1740	 9.19887197800447E-03 
1741	 8.16606123739117E-03 
1742	 7.31677449389027E-03 
1743	 7.00491422055358E-03 
1744	 8.31170541659883E-03 
1745	 9.6723251641979E-03 
1746	 8.59961962164321E-03 
1747	 8.45291831118884E-03 
1748	 6.27991844974313E-03 
1749	 5.88772679224553E-03 
1750	 8.8471880077944E-03 
1751	 9.2138378922533E-03 
1752	 7.74652856445061E-03 
1753	 7.85499923132708E-03 
1754	 7.92379635486148E-03 
1755	 7.83478648115228E-03 
1756	 9.00080610176792E-03 
1757	 8.99204508211461E-03 
1758	 7.58200063853515E-03 
1759	 7.14129074397575E-03 
1760	 7.6634463524095E-03 
1761	 8.22732047148788E-03 
1762	 9.85357672577273E-03 
1763	 1.10701507297012E-02 
1764	 9.91934315252729E-03 
1765	 7.74574200378768E-03 
1766	 6.4978090872412E-03 
1767	 7.28504773255314E-03 
1768	 8.13748538082048E-03 
1769	 8.07938282490666E-03 
1770	 9.03156371688183E-03 
1771	 8.85148526870254E-03 
1772	 7.87947696839791E-03 
1773	 9.99255391688453E-03 
1774	 1.04519638523536E-02 
1775	 7.53624616346145E-03 
1776	 7.49681435921688E-03 
1777	 8.41140181643144E-03 
1778	 8.37182097277833E-03 
1779	 1.01506605004372E-02 
1780	 1.02909901895761E-02 
1781	 0.006983292489428 
1782	 7.67575228756552E-03 
1783	 1.16749346473226E-02 
1784	 1.16748832302457E-02 
1785	 1.15138440087511E-02 
1786	 1.16377681029713E-02 
1787	 8.30974580666602E-03 
1788	 8.35262921299629E-03 
1789	 1.21537528202451E-02 
1790	 1.13479299080294E-02 
1791	 1.22588513450952E-02 
1792	 1.23263073480128E-02 
1793	 1.09043860454535E-02 
1794	 1.17226612124315E-02 
1795	 1.16478658533636E-02 
1796	 8.15129210699468E-03 
1797	 8.55977015355468E-03 
1798	 9.46129139246392E-03 
1799	 8.76471099057254E-03 
1800	 2.60450723873341E-02 
1801	 2.93155271608105E-02 
1802	 8.68018262744528E-03 
1803	 4.25335086886239E-03 
1804	-5.65948947891047E-03 
1805	-0.010866840075867 
1806	 2.33335876560974E-02 
1807	 0.042260775752999 
1808	 5.77371468243097E-02 
1809	 5.98927135190467E-02 
1810	 2.34566140082705E-02 
1811	 4.11423874356527E-02 
1812	 4.56035946055424E-02 
1813	 6.59669903656798E-02 
1814	 0.286878797850583 
1815	 0.289744148869971 
1816	 0.056408825435446 
1817	 0.143077282859849 
1818	 9.97148792142627E-02 
1819	 0.195197775516624 
1820	 0.209568605353823 
1821	-0.451526983593073 
1822	-0.5168637730434 
1823	 0.264404974686272 
1824	 0.749752874021101 
1825	 2.67269394313682 
1826	 2.54414509357512 
1827	 0.127779399132717 
1828	-9.77872158189158E-02 
1829	-5.51508808679435E-02 
1830	-0.102575170881371 
1831	-0.798500762043918 
1832	-1.39399558319774 
1833	-2.11249875422555 
1834	-1.11259712421622 
1835	-2.03377677147052 
1836	-1.78042993847167 
1837	-0.3698540901384 
1838	-0.153602195062393 
1839	-0.225310376706883 
1840	-0.801268395973661 
1841	-4.08469347285189 
1842	-0.927118148553282 
1843	-0.822889997309411 
1844	-1.13861074337759 
1845	-1.19315550904891 
1846	-1.58213133413357 
1847	-2.80774039760175 
1848	 20.199771267153 
1849	 1.75195376917933 
1850	 0.865275939772361 
1851	 1.09776541672361 
1852	 2.68074780862146 
1853	 1.6235127817447 
1854	 0.833740252998545 
1855	-0.26188030750584 
1856	-0.600127555822875 
1857	-0.846298899333965 
1858	-0.79503168126431 
1859	-1.77887976813289 
1860	-1.65731139407854 
1861	 7.84184379131692 
1862	 1.97190884395978 
1863	-2.16122389722226E-02 
1864	-0.502768905001722 
1865	-0.532977798671192 
1866	 0.212394796627686 
1867	 0.618992771053465 
1868	 8.97499456527115 
1869	-2.70075586189108 
1870	 0.523810131795948 
1871	 0.625170173760612 
1872	 0.697764548224366 
1873	 0.38433823800362 
1874	-3.36213910131554 
1875	 2.31091747679014 
1876	 1.51203950106108 
1877	 0.755351054178525 
1878	 0.67987945240415 
1879	 0.889006068490415 
1880	 0.757013317650797 
1881	 0.653017795292479 
1882	 0.347214228880529 
1883	-0.275907947455426 
1884	-0.719105155874794 
1885	-0.245167501164041 
1886	-6.27163009315785E-02 
1887	 0.35463729990038 
1888	 0.808160841757261 
1889	 0.880070053595749 
1890	 0.430606429466475 
1891	 0.395496895048585 
1892	 0.19423622195913 
1893	-1.57513644594466 
1894	-0.646324703915489 
1895	-0.581431962912286 
1896	-0.535216047407714 
1897	-0.817927566642017 
1898	-2.85595822127078 
1899	-10.640757456638 
1900	-5.09827403159475 
1901	-1.81787767188902 
1902	-1.91876738197125 
1903	-1.48917396466169 
1904	-0.989826153793882 
1905	-1.93547043255695 
1906	-1.67641581874625 
1907	-0.785658301236652 
1908	-1.59465525609863 
1909	 0.812855437763542 
1910	 9.71594429095464E-02 
1911	-0.264752311989138 
1912	-1.11313391622352 
1913	-1.99753712690857 
1914	-2.6251346050256 
1915	-3.24983980675415 
1916	 51.4186634916702 
1917	-1.68812111826642 
1918	 3.70183348008016E-02 
1919	 1.20451503423048 
1920	 10.8366096889314 
1921	 0.669769430207461 
1922	 0.292056073687241 
1923	 0.430382192565837 
1924	 0.41413375345833 
1925	 0.552307797576951 
1926	 0.889438054172642 
1927	 2.60660626038058 
1928	 6.30594016559739 
1929	-6.61926512331688 
1930	-4.42026305790624 
1931	 10.6288262067531 
1932	 1.38558303124129 
1933	 1.41496507278165 
1934	 0.694957608989526 
1935	 0.137931277877739 
1936	 0.255652263604666 
1937	 6.51640073064857E-02 
1938	-0.156451553436904 
1939	-0.193125200990432 
1940	-0.114809809514061 
1941	-7.43221299670689E-02 
1942	-0.100446580229082 
1943	-4.55301747378732E-02 
1944	 1.77662389535008E-02 
1945	 6.02693849982277E-02 
1946	 0.127296089248253 
1947	 0.179572888480302 
1948	 0.128222370045857 
1949	 2.23422160751705E-02 
1950	-2.06473128239701E-02 
1951	-0.017208330238793 
1952	-2.85096048538288E-02 
1953	-2.54472644547469E-02 
1954	 6.76396969707384E-03 
1955	 0.032495463905698 
1956	 0.011147559377251 
1957	-9.53188086733761E-03 
1958	-0.013971686641571 
1959	-4.76910481147696E-03 
1960	 7.68073758912982E-03 
1961	 1.74105920312372E-02 
1962	 3.45771426195362E-02 
1963	 3.60085732716897E-02 
1964	 2.41272050579486E-02 
1965	 2.03746033777695E-02 
1966	 1.58343453335842E-02 
1967	 1.11122291977242E-02 
1968	 5.36949145015083E-03 
1969	 4.08829356076913E-03 
1970	 4.5932016011825E-03 
1971	 4.13556533273142E-03 
1972	 1.48120233841847E-03 
1973	 1.28911496142594E-03 
1974	 3.17597816327431E-03 
1975	 4.71673263519404E-03 
1976	 7.23930502147561E-03 
1977	 8.04371941826623E-03 
1978	 3.99265261900022E-03 
1979	 2.73629380981904E-03 
1980	 3.61789985559277E-04 
1981	 2.35723043703868E-03 
1982	 3.31400408544411E-03 
1983	 5.68627223583835E-03 
1984	 1.04423017704605E-02 
1985	 1.03568499753518E-02 
1986	 8.08660907502013E-03 
1987	 0.009919067586839 
1988	 1.05078551784308E-02 
1989	 7.18337586243508E-03 
1990	 5.67618494418839E-03 
1991	 5.75315800235071E-03 
1992	 3.44383470000937E-03 
1993	 1.53889959967251E-03 
1994	 1.9513548505968E-03 
1995	 7.53178123793682E-03 
1996	 9.21812250546436E-03 
1997	 7.07790571082345E-03 
1998	 7.44604596918376E-03 
1999	 3.77195115059806E-03 
2000	 2.85993539636807E-04 
2001	 1.38826483226447E-04 
2002	-3.31223795771758E-03 
2003	-2.33123174712693E-03 
2004	 4.32285901407049E-03 
2005	 4.97227364464285E-03 
2006	 1.06690713670846E-02 
2007	 2.16943208705143E-02 
2008	 2.10503097133815E-02 
2009	 1.92314423215205E-02 
2010	 1.63807397929688E-02 
2011	 1.28812970454311E-02 
2012	 4.58212492884471E-03 
2013	-2.12481468408571E-03 
2014	-1.40384050342734E-04 
2015	-6.56025385273242E-04 
2016	-3.60605153893865E-03 
2017	-0.002831038497489 
2018	-5.79677967057093E-03 
2019	-4.13183382249273E-03 
2020	 1.74565166346735E-03 
2021	 1.48174380990854E-03 
2022	 2.79070880521895E-03 
2023	 5.58284206174141E-03 
2024	 4.84828574971118E-03 
2025	 6.17425439845972E-04 
2026	 1.08589738389295E-03 
2027	 2.61593669998977E-03 
2028	 2.26739428783637E-03 
2029	 4.48240930197221E-03 
2030	 8.12147974815542E-03 
2031	 9.19442021418847E-03 
2032	 7.84172846231647E-03 
2033	 4.4734999009074E-03 
2034	 2.53667600443113E-03 
2035	 2.93201934476501E-03 
2036	 4.57804990470746E-03 
2037	 5.71399839617418E-03 
2038	 7.39722078983588E-03 
2039	 8.94363877664733E-03 
2040	 8.54509966891958E-03 
2041	 8.30885985293897E-03 
2042	 1.06574011344234E-02 
2043	 0.010883009305566 
2044	 8.44231843605154E-03 
2045	 7.20050245450724E-03 
2046	 7.95536088003854E-03 
2047	 5.57488417977515E-03 
2048	 3.15967437155976E-03 
2049	 1.75324513397506E-03 
2050	 2.46331174523853E-03 
2051	 3.89652452612472E-03 
2052	 3.63808845266734E-03 
2053	 6.3805768921448E-03 
2054	 8.42634532888675E-03 
2055	 7.72573220203572E-03 
2056	 7.26536799911516E-03 
2057	 6.71710095990798E-03 
2058	 6.37324262156253E-03 
2059	 4.93393577343845E-03 
2060	 5.19677077326962E-03 
2061	 6.79191456498908E-03 
2062	 9.52763389274337E-03 
2063	 1.07917633165629E-02 
2064	 8.00559912231769E-03 
2065	 4.21690811896612E-03 
2066	 2.85413246561355E-03 
2067	 3.00572388525254E-03 
2068	 4.36720114994019E-03 
2069	 7.18264871734148E-03 
2070	 9.81139381114534E-03 
2071	 8.5422338995179E-03 
2072	 6.39604191175191E-03 
2073	 5.83544387961665E-03 
2074	 4.30748984006134E-03 
2075	 3.42246035773524E-03 
2076	 4.43563350578427E-03 
2077	 5.01015807158663E-03 
2078	 0.005125393004374 
2079	 5.18764886110462E-03 
2080	 5.62281733282174E-03 
2081	 5.77355139287475E-03 
2082	 5.78669776697097E-03 
2083	 6.51638996425549E-03 
2084	 7.85853456375449E-03 
2085	 7.08523496211672E-03 
2086	 6.23414604580079E-03 
2087	 6.99928618886816E-03 
2088	 7.02648570805692E-03 
2089	 7.79893128626789E-03 
2090	 8.03437556642084E-03 
2091	 7.23439862840992E-03 
2092	 7.11017567913203E-03 
2093	 6.83817758783415E-03 
2094	 7.38356303512115E-03 
2095	 9.85429352065136E-03 
2096	 9.49168818813547E-03 
2097	 6.5804915245611E-03 
2098	 6.19041773466727E-03 
2099	 5.52203416157454E-03 
2100	 5.8160331491045E-03 
2101	 6.61227937591711E-03 
2102	 8.1177373857553E-03 
2103	 8.59429989568218E-03 
2104	 7.0752868647876E-03 
2105	 5.92004897872021E-03 
2106	 6.49845299716175E-03 
2107	 6.92175030732484E-03 
2108	 6.12014130895256E-03 
2109	 6.23520612975695E-03 
2110	 6.72847173794201E-03 
2111	 6.60456326493451E-03 
2112	 6.44848175262534E-03 
2113	 6.19091052718936E-03 
2114	 5.80822134463907E-03 
2115	 6.38551485541022E-03 
2116	 7.41137672172649E-03 
2117	 7.53243133433514E-03 
2118	 7.55389235304399E-03 
2119	 7.67714243080094E-03 
2120	 7.15615573618098E-03 
2121	 7.19780676265897E-03 
2122	 7.59474441693024E-03 
2123	 8.07775649466076E-03 
2124	 7.7850220152421E-03 
2125	 6.64462093870748E-03 
2126	 3.90678203540314E-03 
2127	 2.35666618236903E-03 
2128	 2.62668411151483E-03 
2129	 3.05798769392856E-03 
2130	 4.73798164438699E-03 
2131	 6.22272734126236E-03 
2132	 5.39795288113948E-03 
2133	 4.88098066044544E-03 
2134	 5.17990871891162E-03 
2135	 6.75759373178647E-03 
2136	 6.62779260454329E-03 
2137	 5.8332868791444E-03 
2138	 5.75968626953466E-03 
2139	 4.9718269742564E-03 
2140	 4.54472589513984E-03 
2141	 5.54249554060231E-03 
2142	 5.77792105495474E-03 
2143	 4.84285798527522E-03 
2144	 4.80888151072757E-03 
2145	 6.78025988004487E-03 
2146	 6.13017292702094E-03 
2147	 5.28236230518496E-03 
2148	 5.79006303015066E-03 
2149	 6.34382689789706E-03 
2150	 7.61633038491194E-03 
2151	 7.70276365652969E-03 
2152	 7.2905529572749E-03 
2153	 7.91789731900294E-03 
2154	 7.3430873094369E-03 
2155	 7.25803687538393E-03 
2156	 7.33497868458859E-03 
2157	 7.34342063846848E-03 
2158	 6.07046670132978E-03 
2159	 5.57785827136789E-03 
2160	 6.10713716536004E-03 
2161	 6.7814178013749E-03 
2162	 7.34301717698863E-03 
2163	 6.61725266546201E-03 
2164	 5.37472001429122E-03 
2165	 5.89728614086903E-03 
2166	 6.72913280248329E-03 
2167	 7.06000270791613E-03 
2168	 8.8392473420677E-03 
2169	 9.57612378560022E-03 
2170	 9.30948713860601E-03 
2171	 7.06249988826494E-03 
2172	 7.41520077810467E-03 
2173	 8.90558767735216E-03 
2174	 8.54259251605214E-03 
2175	 8.8794016424785E-03 
2176	 9.62976623254274E-03 
2177	 7.51002287188396E-03 
2178	 5.05371673147867E-03 
2179	 5.24766677187534E-03 
2180	 5.09913842090152E-03 
2181	 4.41098741673635E-03 
2182	 4.87387374210152E-03 
2183	 5.87329676635692E-03 
2184	 6.97571837019303E-03 
2185	 7.20058547797457E-03 
2186	 7.66274073836362E-03 
2187	 8.43278093589543E-03 
2188	 8.72317334721467E-03 
2189	 8.63104830988545E-03 
2190	 8.79004910981667E-03 
2191	 8.72818540664095E-03 
2192	 8.23237993350179E-03 
2193	 7.22035067405647E-03 
2194	 6.66624908550403E-03 
2195	 6.67303960522285E-03 
2196	 5.72257049539507E-03 
2197	 5.36849405487122E-03 
2198	 3.99008747303516E-03 
2199	 7.49700650247108E-04 
2200	-2.92933690806263E-03 
2201	-1.17907010179221E-03 
2202	-7.85799168751382E-04 
2203	 2.64039513381187E-03 
2204	 8.58461051235503E-03 
2205	 8.30103746976079E-03 
2206	 6.79062244827111E-03 
2207	 5.33138930431592E-03 
2208	 1.14520720528554E-03 
2209	 8.09926965137851E-04 
2210	 2.81065234345289E-03 
2211	 1.48957102514879E-03 
2212	 3.86370117448603E-03 
2213	 8.98726062788883E-03 
2214	 9.06846231177637E-03 
2215	 9.86382447564955E-03 
2216	 1.19122248156904E-02 
2217	 1.25155476947815E-02 
2218	 1.03098796269308E-02 
2219	 0.010243864301138 
2220	 1.18105050996159E-02 
2221	 1.12678293439692E-02 
2222	 9.54466172377097E-03 
2223	 7.99105543962751E-03 
2224	 5.11708885082632E-03 
2225	 4.6357158462398E-03 
2226	 4.49393924048922E-03 
2227	 5.0100678790725E-03 
2228	 8.04457821726471E-03 
2229	 9.86345301054639E-03 
2230	 1.19541919328676E-02 
2231	 1.33707645557267E-02 
2232	 1.47286896532528E-02 
2233	 0.01421490804951 
2234	 1.17198417802547E-02 
2235	 9.97607547537714E-03 
2236	 8.73960048128493E-03 
2237	 8.24693604490285E-03 
2238	 8.1461439554683E-03 
2239	 8.45276281916744E-03 
2240	 9.9840174502317E-03 
2241	 1.09726456637638E-02 
2242	 1.30249846729445E-02 
2243	 1.46063561740232E-02 
2244	 1.16199432623434E-02 
2245	 1.10947923399179E-02 
2246	 1.18856518080306E-02 
2247	 1.08873000148392E-02 
2248	 1.19744856676799E-02 
2249	 1.23501158702124E-02 
2250	 1.06579833946759E-02 
2251	 9.7545338138599E-03 
2252	 1.13941905192734E-02 
2253	 1.11979412845944E-02 
2254	 1.22071877127776E-02 
2255	 0.013795745450567 
2256	 1.18233642528529E-02 
2257	 1.21367510116201E-02 
2258	 1.10044453825635E-02 
2259	 9.78146410677301E-03 
2260	 8.63021393911428E-03 
2261	 7.01679108228425E-03 
2262	 5.93930133710527E-03 
2263	 4.01345233437323E-03 
2264	 0.004772081887627 
2265	 9.32189488073287E-03 
2266	 9.37767196648491E-03 
2267	 7.5775889951691E-03 
2268	 8.8888398697336E-03 
2269	 1.07551438962466E-02 
2270	 9.5853706116209E-03 
2271	 9.44348217156561E-03 
2272	 9.01317551731848E-03 
2273	 2.35049867354981E-03 
2274	 1.29870468333472E-03 
2275	 6.34266801566684E-03 
2276	 7.76746924086378E-03 
2277	 9.34393719099621E-03 
2278	 1.08060195815296E-02 
2279	 1.04598637290727E-02 
2280	 1.04704808528947E-02 
2281	 1.20448059292836E-02 
2282	 1.10609730942765E-02 
2283	 3.5560851753244E-03 
2284	 2.12419365280624E-03 
2285	-5.32581227881641E-05 
2286	-4.41661849390102E-03 
2287	 1.12503969101153E-03 
2288	 8.64868867757618E-03 
2289	 9.29201881688861E-03 
2290	 8.99096447899289E-03 
2291	 6.71219316057225E-03 
2292	 2.90779409191991E-03 
2293	 6.16733925867709E-03 
2294	 8.28067264140466E-03 
2295	 8.2761113456372E-03 
2296	 6.79080080526338E-03 
2297	 5.04862471864291E-03 
2298	 5.65849690809296E-03 
2299	-2.67415509098724E-04 
2300	-8.33573136759811E-04 
2301	 1.5695540288703E-03 
2302	 2.31702322506887E-03 
2303	 1.03516024107443E-02 
2304	 1.75934681549893E-02 
2305	 2.08536163317818E-02 
2306	 1.81465628308565E-02 
2307	 1.64730331205788E-02 
2308	 1.73067088991065E-02 
2309	 9.47989645209749E-03 
2310	 4.72125449475059E-03 
2311	 8.77492708648875E-03 
2312	 8.19572780606878E-03 
2313	 3.41292447564178E-03 
2314	 3.77910237279672E-04 
2315	-5.4889518029886E-03 
2316	-1.06619039711231E-02 
2317	-5.87795344095131E-03 
2318	 3.89530565835013E-03 
2319	 5.20598714427756E-03 
2320	 3.57762689719955E-03 
2321	 1.40581612790981E-02 
2322	 1.57557474916962E-02 
2323	 1.69102982423893E-02 
2324	 2.91931422696082E-02 
2325	 1.78808773470832E-02 
2326	 2.00443682687765E-03 
2327	-8.6643841063809E-04 
2328	-7.56943846258263E-03 
2329	-6.68516547298872E-03 
2330	 5.03612356355234E-03 
2331	 1.16498890499969E-02 
2332	 1.25710921685682E-02 
2333	 1.27493769924162E-02 
2334	 8.88501708137809E-03 
2335	 4.60711425670882E-03 
2336	-3.35351486815311E-03 
2337	-1.20426132007798E-02 
2338	-6.90344842097021E-03 
2339	 2.15083267169827E-03 
2340	 2.23347435795769E-03 
2341	-1.06708280892525E-03 
2342	-2.69734659495579E-03 
2343	-8.77696983841792E-03 
2344	-1.34482284631989E-02 
2345	 1.00026739040974E-03 
2346	 1.88980569265538E-02 
2347	 0.026623325246508 
2348	 4.50144609699013E-02 
2349	 5.57639472073017E-02 
2350	 4.09765291496793E-02 
2351	 2.74167256964678E-02 
2352	 1.73608649176875E-02 
2353	 5.27356929282902E-03 
2354	-1.59129816107052E-03 
2355	-8.16992115036083E-03 
2356	-1.00340242226153E-03 
2357	 1.21999119675997E-02 
2358	 1.90205774394532E-02 
2359	 3.40554644377096E-02 
2360	 2.95236461767106E-02 
2361	 7.10710027726666E-03 
2362	-2.95871446506648E-03 
2363	 8.56605104408918E-04 
2364	 1.46948698005295E-02 
2365	 2.91428572083106E-02 
2366	 2.55220488257353E-02 
2367	 1.51756359966112E-02 
2368	 2.05111284439523E-02 
2369	 9.50442807517681E-03 
2370	 8.36174595148549E-04 
2371	-4.8019818433191E-03 
2372	-3.80137139622955E-02 
2373	-3.92694015800158E-02 
2374	-0.013817707929326 
2375	-1.8948592022268E-03 
2376	 8.64113348038538E-03 
2377	-7.5106498925217E-03 
2378	-2.89622075844897E-02 
2379	-2.66093542860875E-02 
2380	-2.84633296652258E-02 
2381	-1.47230932154375E-02 
2382	-1.13207998995931E-02 
2383	-2.94440626964347E-02 
2384	-3.77436619169081E-02 
2385	-5.49791149502145E-02 
2386	-6.03984405315144E-02 
2387	-4.22886753668919E-02 
2388	-1.51513858919157E-02 
2389	 2.13715127626838E-02 
2390	 7.61031213413759E-02 
2391	 9.26777094886676E-02 
2392	 4.84525096720754E-02 
2393	-2.03953235004733E-02 
2394	-4.74989617744527E-02 
2395	-0.030761619503486 
2396	-0.018149400232585 
2397	-5.99015262629769E-03 
2398	 3.42322277434346E-04 
2399	 0.023588045656885 
2400	 5.39797186154973E-02 
2401	 5.50711108753822E-02 
2402	 6.04494785001852E-02 
2403	 4.70994741966245E-02 
2404	 1.38600056061072E-02 
2405	 3.28934685896042E-02 
2406	 6.27671409579379E-02 
2407	 1.62815470089324E-02 
2408	-7.02835634656908E-02 
2409	-4.27687505430353E-02 
2410	 3.65079477347883E-02 
2411	 4.80916310139611E-02 
2412	 8.57492369594192E-02 
2413	 7.19427649755581E-02 
2414	 6.39861019389253E-03 
2415	 0.140652292115962 
2416	 0.243981893846054 
2417	 0.161074692202208 
2418	 8.45563752146775E-02 
2419	-0.108733376685266 
2420	-0.317958900005165 
2421	-0.248524789447365 
2422	-0.254350386952667 
2423	-0.299217446012011 
2424	-0.236829460826718 
2425	-0.200692665156245 
2426	-7.35055834320509E-02 
2427	-2.14162634596975E-02 
2428	-0.106691595680351 
2429	 2.31553237132067E-02 
2430	 8.42483804577508E-02 
2431	 2.01231345134179E-02 
2432	 0.043511203454701 
2433	-0.038838419198512 
2434	-0.156801426985198 
2435	-0.17356092183224 
2436	-0.131180742000348 
2437	-0.16498212990607 
2438	-0.170124242468561 
2439	-2.59588092965941E-02 
2440	 0.157625886905108 
2441	 0.295551896044879 
2442	 0.171504899152535 
2443	-5.11351218640225E-02 
2444	-1.72920758407789E-02 
2445	 0.10744677862228 
2446	 0.126435304280828 
2447	 0.188222417035614 
2448	 0.206439032424027 
2449	 7.75428642439423E-02 
2450	 4.45699378011955E-02 
2451	 6.17791643670729 
2452	-0.718875876804647 
2453	-0.691015854109584 
2454	-1.15864073439687E-02 
2455	 0.860206721725089 
2456	 1.070253408764 
2457	 0.76660990491141 
2458	 0.431290806756142 
2459	 0.125232474106524 
2460	-9.28866922414797E-02 
2461	-0.202509460090385 
2462	-6.77832212774405E-04 
2463	-0.185155237567986 
2464	-0.565504726453799 
2465	-1.10740789450724 
2466	-0.939724794056761 
2467	-0.421367962006967 
2468	-0.150157593744899 
2469	-0.214094289223487 
2470	-0.521305171401306 
2471	 5.26805909109185 
2472	 2.6645640391623 
2473	-0.507988092462795 
2474	-3.15950046765169 
2475	-12.64413309679 
2476	 5.22190330226756 
2477	 1.06479976997373 
2478	 1.19122556865336 
2479	 1.35517123201964 
2480	 1.45436112314266 
2481	-80.1509422186204 
2482	 4.43876137429944 
2483	-1.05193051804788 
2484	-0.114095120235656 
2485	 1.2873620047004 
2486	 1.70404378287869 
2487	 1.76549083447035 
2488	-0.172745832631288 
2489	 1.89086332689513 
2490	 0.201846029925939 
2491	 3.47791569634093 
2492	 2.16757756999196 
2493	-0.567021678319672 
2494	 0.374475310904954 
2495	-0.363705052885792 
2496	-0.587592707578812 
2497	-0.563827242788572 
2498	-1.63542846512592 
2499	 1.06596106426069 
2500	-0.816268146684069 
