Wavelength	rt0726sus_algea00004.asd
350	 6.58694017652912E-02 
351	 6.59851880287266E-02 
352	 6.56845184256316E-02 
353	 6.56712911953299E-02 
354	 6.61269375997125E-02 
355	 6.58559996045024E-02 
356	 6.58883021588783E-02 
357	 6.62102710990392E-02 
358	 6.64502089124356E-02 
359	 6.61683921649692E-02 
360	 6.62940490920638E-02 
361	 6.65981007750338E-02 
362	 6.61709106414783E-02 
363	 6.57784836739178E-02 
364	 6.60927796407751E-02 
365	 6.68413362829664E-02 
366	 6.64116713777029E-02 
367	 6.61707567845873E-02 
368	 6.62182995756782E-02 
369	 6.63663310909791E-02 
370	 6.67358552771642E-02 
371	 6.64366572645265E-02 
372	 6.59794411982951E-02 
373	 6.64417701539772E-02 
374	 6.60064104497259E-02 
375	 6.60835071500654E-02 
376	 6.68134272002239E-02 
377	 6.62418571430501E-02 
378	 6.61747390430194E-02 
379	 6.65242309783583E-02 
380	 6.68357091908908E-02 
381	 6.70062983621506E-02 
382	 6.71489570758878E-02 
383	 6.70763287682415E-02 
384	 6.66025669735238E-02 
385	 0.066478289412953 
386	 6.66062072079516E-02 
387	 6.67978037382342E-02 
388	 6.68677066788407E-02 
389	 6.69790632712055E-02 
390	 6.70755676298347E-02 
391	 6.71074491472186E-02 
392	 6.71063229896103E-02 
393	 6.74335064317583E-02 
394	 6.75156609561421E-02 
395	 0.066828614465575 
396	 6.68357968766103E-02 
397	 0.067110164148823 
398	 6.73382208974077E-02 
399	 6.74283622024585E-02 
400	 0.06746205121987 
401	 6.73249400014074E-02 
402	 6.70959935809509E-02 
403	 0.067373220718522 
404	 6.75314832926129E-02 
405	 6.74790537944884E-02 
406	 0.067371207379677 
407	 6.75195702717915E-02 
408	 6.76065681252256E-02 
409	 6.75847043323659E-02 
410	 6.76944012846144E-02 
411	 6.77296512721635E-02 
412	 6.77486157386109E-02 
413	 6.78009509251277E-02 
414	 6.77999945001333E-02 
415	 6.77816958884773E-02 
416	 0.067879603206503 
417	 6.81883028095793E-02 
418	 6.83615009825741E-02 
419	 6.83771426518515E-02 
420	 6.83425305615223E-02 
421	 6.84663673810831E-02 
422	 0.068771140985045 
423	 6.89652904303099E-02 
424	 6.89206018544877E-02 
425	 6.91430389034161E-02 
426	 6.93246158915893E-02 
427	 6.94339790862454E-02 
428	 6.95868531144685E-02 
429	 6.99446593584152E-02 
430	 7.01761176218596E-02 
431	 7.02566608639696E-02 
432	 7.05647475790784E-02 
433	 7.07420989433538E-02 
434	 7.09550184643634E-02 
435	 0.071325547789609 
436	 0.071513470542359 
437	 7.16326673072742E-02 
438	 7.17962363662072E-02 
439	 7.20862554651551E-02 
440	 7.23302425231671E-02 
441	 7.25105484396169E-02 
442	 7.26599300612545E-02 
443	 0.072855634509616 
444	 7.30324591687267E-02 
445	 0.073254418020642 
446	 7.35491547201945E-02 
447	 0.073673331950698 
448	 7.38188148433033E-02 
449	 7.40037959849068E-02 
450	 7.41205314908435E-02 
451	 7.42496958570013E-02 
452	 7.43679447217006E-02 
453	 7.44851212812275E-02 
454	 7.47249635985516E-02 
455	 7.47777324625492E-02 
456	 7.48229511390437E-02 
457	 7.50921981746637E-02 
458	 7.50717764754872E-02 
459	 7.50604742324443E-02 
460	 7.51479858079534E-02 
461	 0.075179637321397 
462	 7.52873361367357E-02 
463	 7.53798200741035E-02 
464	 7.54021773759284E-02 
465	 7.55207144872777E-02 
466	 7.56041809722184E-02 
467	 7.57128295434698E-02 
468	 7.59450638939414E-02 
469	 7.59582907174874E-02 
470	 7.59654318953989E-02 
471	 7.60648598082449E-02 
472	 7.61323744340192E-02 
473	 7.62528328307214E-02 
474	 7.64015777597931E-02 
475	 7.65273507401992E-02 
476	 7.65716820214697E-02 
477	 7.67432661069717E-02 
478	 7.69424727384993E-02 
479	 7.69039127700597E-02 
480	 7.70423989857486E-02 
481	 7.72075338747368E-02 
482	 7.73158100860569E-02 
483	 7.75792786807615E-02 
484	 7.78331895358048E-02 
485	 7.80261959337733E-02 
486	 7.81661748233774E-02 
487	 7.83179854602038E-02 
488	 7.85639827570656E-02 
489	 7.88406094709326E-02 
490	 0.078965814698592 
491	 7.92815834719421E-02 
492	 7.96324381167415E-02 
493	 7.98676617167862E-02 
494	 8.01075350047554E-02 
495	 8.05037976233053E-02 
496	 8.09228863199723E-02 
497	 8.11397627100891E-02 
498	 8.15289769432687E-02 
499	 8.19058388224712E-02 
500	 8.22008411166872E-02 
501	 8.26070891666342E-02 
502	 0.083065151556965 
503	 8.35358231576201E-02 
504	 8.39777559504721E-02 
505	 0.08432130622212 
506	 8.46947582244009E-02 
507	 8.51228495521942E-02 
508	 8.55500729735122E-02 
509	 0.086095259370935 
510	 8.65729473564443E-02 
511	 0.086939340991969 
512	 8.76184853364959E-02 
513	 8.81438425202722E-02 
514	 8.85722544858842E-02 
515	 8.91494607654005E-02 
516	 8.97346184328826E-02 
517	 9.02547786995262E-02 
518	 9.07339302844572E-02 
519	 9.13062418477577E-02 
520	 9.18094522456433E-02 
521	 9.22989555427586E-02 
522	 9.28697301333736E-02 
523	 9.35885352380808E-02 
524	 9.41495575397514E-02 
525	 9.46038569978061E-02 
526	 9.52352394290235E-02 
527	 9.57886859359031E-02 
528	 9.63497280503259E-02 
529	 9.69688330859349E-02 
530	 0.097537738713108 
531	 9.81097015333813E-02 
532	 9.87150910659702E-02 
533	 9.93587779345801E-02 
534	 9.99545042428579E-02 
535	 0.100542200554831 
536	 0.101135410732123 
537	 0.10170522159182 
538	 0.10235140564662 
539	 0.103007774615407 
540	 0.103612771747563 
541	 0.10425693966078 
542	 0.104912852663887 
543	 0.105552849134239 
544	 0.10615832634926 
545	 0.106785350714466 
546	 0.107389322130567 
547	 0.107969015023662 
548	 0.108643361546006 
549	 0.109237218544138 
550	 0.109755366024309 
551	 0.11027968625797 
552	 0.110908084952475 
553	 0.111513104929767 
554	 0.112075615849212 
555	 0.11270647566927 
556	 0.113277841554207 
557	 0.113754609611873 
558	 0.114175624423197 
559	 0.114762043766258 
560	 0.115265848185382 
561	 0.115673058670617 
562	 0.116120298930346 
563	 0.116619798136574 
564	 0.117077882548719 
565	 0.117450792477979 
566	 0.117817873347569 
567	 0.118185012130441 
568	 0.118519653181529 
569	 0.118792538818697 
570	 0.119102200319797 
571	 0.119379360734681 
572	 0.119622693501185 
573	 0.119910317672494 
574	 0.120096540615389 
575	 0.12031779656415 
576	 0.120659507643383 
577	 0.12083952754624 
578	 0.120993766721816 
579	 0.121154624139496 
580	 0.121296160056598 
581	 0.121462439538737 
582	 0.121675184156761 
583	 0.121906862994754 
584	 0.122047077191203 
585	 0.122111369209603 
586	 0.1222335920234 
587	 0.122512758395593 
588	 0.122532016071844 
589	 0.122582135485606 
590	 0.12274669233021 
591	 0.122846039109825 
592	 0.123006484577599 
593	 0.123169964346514 
594	 0.123266078135225 
595	 0.123301841022844 
596	 0.123393593402117 
597	 0.123473648031228 
598	 0.123398340426594 
599	 0.123394714991954 
600	 0.123459987751967 
601	 0.123540214695176 
602	 0.123544566791772 
603	 0.123556873662856 
604	 0.123602982494864 
605	 0.123673969344693 
606	 0.123693612407253 
607	 0.123661089120339 
608	 0.12363636513275 
609	 0.123725763212232 
610	 0.123656689915974 
611	 0.123556999676466 
612	 0.123555540619355 
613	 0.123522664991023 
614	 0.123501531318242 
615	 0.123467955502821 
616	 0.123375505806169 
617	 0.123301225742532 
618	 0.123307841335535 
619	 0.123375825157584 
620	 0.123362079113933 
621	 0.123344673415128 
622	 0.123337797835902 
623	 0.12334054189188 
624	 0.123371185542571 
625	 0.123380196188871 
626	 0.123384214015327 
627	 0.123456324002951 
628	 0.123444157514264 
629	 0.123391415121736 
630	 0.123367745080625 
631	 0.123405176747601 
632	 0.123463795457708 
633	 0.123437663645299 
634	 0.123234989906467 
635	 0.12309025810009 
636	 0.123119450605264 
637	 0.123227466939278 
638	 0.123043728425849 
639	 0.122924533709766 
640	 0.122897599019308 
641	 0.122878517823056 
642	 0.122734348692447 
643	 0.122671128533748 
644	 0.122652257119454 
645	 0.122456371858324 
646	 0.122340571061553 
647	 0.122289705440171 
648	 0.122223775846324 
649	 0.122021312251905 
650	 0.121896098566598 
651	 0.12178952175444 
652	 0.121575300855458 
653	 0.121401994904286 
654	 0.121250204870846 
655	 0.121060279526469 
656	 0.120762900262143 
657	 0.120396995105312 
658	 0.12000653577015 
659	 0.119600089573108 
660	 0.119133641246473 
661	 0.118664169851421 
662	 0.118155869212505 
663	 0.11756076267149 
664	 0.117237800391565 
665	 0.116917948960309 
666	 0.116446222554121 
667	 0.116008836180073 
668	 0.115826291531716 
669	 0.115691801792931 
670	 0.115377252956956 
671	 0.11534649968263 
672	 0.115391899441458 
673	 0.115440209724115 
674	 0.115576138633828 
675	 0.115884262219896 
676	 0.116205230101119 
677	 0.116436808192471 
678	 0.116709817470881 
679	 0.117216941295733 
680	 0.117819422598799 
681	 0.118298980044182 
682	 0.119085145450904 
683	 0.120027498607699 
684	 0.120995207882786 
685	 0.122046421693596 
686	 0.123404295381138 
687	 0.12478219263738 
688	 0.125842796798863 
689	 0.126999449309926 
690	 0.128331168318208 
691	 0.129639292502042 
692	 0.13063504567678 
693	 0.131998844039223 
694	 0.133211250744938 
695	 0.134011521139013 
696	 0.13490481626503 
697	 0.135765918756148 
698	 0.13659894657274 
699	 0.137365006618941 
700	 0.138033792839118 
701	 0.138734643642856 
702	 0.139350181010011 
703	 0.139636194433945 
704	 0.14012703379555 
705	 0.140597573277699 
706	 0.140894455029578 
707	 0.141334203450868 
708	 0.141590925125863 
709	 0.141699189503951 
710	 0.141818385404002 
711	 0.141996216775399 
712	 0.142053044938404 
713	 0.141977495324113 
714	 0.141948923898389 
715	 0.142063096380983 
716	 0.142195790539345 
717	 0.142164850995105 
718	 0.142046421829604 
719	 0.141524895996737 
720	 0.141024231519452 
721	 0.140909994151941 
722	 0.140775269083065 
723	 0.140488623355112 
724	 0.14002637512562 
725	 0.139465135904597 
726	 0.138893193215564 
727	 0.138231936706385 
728	 0.137411255257926 
729	 0.136495983526423 
730	 0.135423245354961 
731	 0.134283092866608 
732	 0.133192712566239 
733	 0.132364711356962 
734	 0.13172274698872 
735	 0.131197952983322 
736	 0.130732488523923 
737	 0.130441771153491 
738	 0.130186909612327 
739	 0.129896689738936 
740	 0.129873507071401 
741	 0.129875889039941 
742	 0.129854185833272 
743	 0.129866388309 
744	 0.129926902988508 
745	 0.130053606497784 
746	 0.13020058503092 
747	 0.130242025395823 
748	 0.130320650663742 
749	 0.13042293510145 
750	 0.130515282072589 
751	 0.130644103878875 
752	 0.13072755625044 
753	 0.130788069248535 
754	 0.130895949811409 
755	 0.130993045319654 
756	 0.131040953133558 
757	 0.131127926836695 
758	 0.131644407559424 
759	 0.13215864964942 
760	 0.132485473545072 
761	 0.132544781889127 
762	 0.132462082485549 
763	 0.132287933243162 
764	 0.132183021884108 
765	 0.132232726996056 
766	 0.132279453359053 
767	 0.132440603602838 
768	 0.132696227834073 
769	 0.132887299395394 
770	 0.133083611282772 
771	 0.133207809936916 
772	 0.13325706669826 
773	 0.133494985462293 
774	 0.133773174756788 
775	 0.134023118289341 
776	 0.134218691201697 
777	 0.13434787272393 
778	 0.134590489672022 
779	 0.134937683477817 
780	 0.135186951004639 
781	 0.135401512048498 
782	 0.135637226146336 
783	 0.13590229211897 
784	 0.136082967205488 
785	 0.136431349783138 
786	 0.136806437234844 
787	 0.13700194537686 
788	 0.137294359299978 
789	 0.13763348966731 
790	 0.137967958838519 
791	 0.138259825188878 
792	 0.138433569060495 
793	 0.138718299744776 
794	 0.139138448211941 
795	 0.139314177138496 
796	 0.139450852002816 
797	 0.13966914396268 
798	 0.139993523070211 
799	 0.140183775294197 
800	 0.140363924498127 
801	 0.140574241923356 
802	 0.140787138771899 
803	 0.140851811403506 
804	 0.140942620385687 
805	 0.141106668589833 
806	 0.141219919226993 
807	 0.141135815504439 
808	 0.141077753855318 
809	 0.141161069115166 
810	 0.141000600190676 
811	 0.141021302254728 
812	 0.141071440374755 
813	 0.140829695727956 
814	 0.140611050339635 
815	 0.140520755317586 
816	 0.140367179781597 
817	 0.139842629588764 
818	 0.139621699146163 
819	 0.139341175716327 
820	 0.13880755645 
821	 0.138165280888431 
822	 0.137273752819715 
823	 0.13644848141109 
824	 0.135816351513927 
825	 0.134754287978796 
826	 0.133711786695646 
827	 0.132550340351371 
828	 0.131097943278827 
829	 0.129841337829322 
830	 0.128621588869464 
831	 0.127505674132828 
832	 0.126714327442548 
833	 0.125694051788555 
834	 0.124944249942445 
835	 0.124547905735381 
836	 0.123926465490564 
837	 0.123730138937141 
838	 0.123382123202605 
839	 0.122602118639865 
840	 0.122553746859453 
841	 0.122337763523457 
842	 0.121947825503157 
843	 0.121653434460911 
844	 0.121356488379068 
845	 0.121173527484965 
846	 0.120989929242649 
847	 0.120594188678912 
848	 0.120460328564787 
849	 0.120175115137918 
850	 0.119695977259188 
851	 0.119536549728862 
852	 0.119078515434129 
853	 0.118858269375039 
854	 0.119075739707953 
855	 0.118729079699583 
856	 0.118546251951339 
857	 0.118405157374277 
858	 0.118069485554928 
859	 0.117732355965624 
860	 0.117640884530405 
861	 0.117627572196582 
862	 0.117374845154828 
863	 0.11713177122112 
864	 0.116759302666199 
865	 0.116400040512779 
866	 0.116388631671511 
867	 0.116141445939 
868	 0.115794935270119 
869	 0.115491691455329 
870	 0.1152386934943 
871	 0.114821382906679 
872	 0.114576835143654 
873	 0.114564718412272 
874	 0.113966919451922 
875	 0.113443446165455 
876	 0.11302798472534 
877	 0.112601640854416 
878	 0.112240776102915 
879	 0.111920784963827 
880	 0.111597190844897 
881	 0.111235783384559 
882	 0.110926482253985 
883	 0.110425066345311 
884	 0.109845297008743 
885	 0.109528581598083 
886	 0.109229502104299 
887	 0.108797824541835 
888	 0.108316383744221 
889	 0.108078551231713 
890	 0.10753715464158 
891	 0.107254537760248 
892	 0.107406688109107 
893	 0.107069364955819 
894	 0.106864614729869 
895	 0.106580382325278 
896	 0.106017557138194 
897	 0.105790627473767 
898	 0.105294719802148 
899	 0.104621820221337 
900	 0.104098994277156 
901	 0.103899875872095 
902	 0.103168591096901 
903	 0.102523839213773 
904	 0.102753213564071 
905	 0.102587488002031 
906	 0.102054450197849 
907	 0.10138453266915 
908	 0.100926997001878 
909	 0.100609608283111 
910	 0.100148997328909 
911	 9.95307237398228E-02 
912	 9.89396013289377E-02 
913	 9.77721590769045E-02 
914	 9.69198521749682E-02 
915	 9.64258162644112E-02 
916	 9.52613503639148E-02 
917	 9.38082765218607E-02 
918	 0.092588320559765 
919	 9.17773899025881E-02 
920	 9.10831659410744E-02 
921	 9.03482795551694E-02 
922	 8.89575738897609E-02 
923	 0.087139195864717 
924	 8.70756659755651E-02 
925	 8.50932554853317E-02 
926	 8.29402072425048E-02 
927	 8.27318001695026E-02 
928	 8.09045976557068E-02 
929	 8.10791158171304E-02 
930	 0.082150583233292 
931	 0.080130394805557 
932	 7.45539783070906E-02 
933	 7.26009816813524E-02 
934	 7.38295560319119E-02 
935	 7.19791698532443E-02 
936	 6.33946161818668E-02 
937	 6.36122467852597E-02 
938	 6.70686363956804E-02 
939	 6.49689945233124E-02 
940	 6.27292996315322E-02 
941	 6.11718382925061E-02 
942	 5.96112643208009E-02 
943	 5.68718500883552E-02 
944	 5.37990141966179E-02 
945	 5.53504479728108E-02 
946	 5.85269718235386E-02 
947	 5.64143995592843E-02 
948	 4.87668058771152E-02 
949	 4.76617565045816E-02 
950	 5.03607190215171E-02 
951	 4.68472413851824E-02 
952	 4.53619820895968E-02 
953	 4.55868730191934E-02 
954	 4.50847451100448E-02 
955	 4.18026032862129E-02 
956	 4.22253666883159E-02 
957	 4.28039475912593E-02 
958	 4.14358400864095E-02 
959	 3.86274694232186E-02 
960	 4.01539338324561E-02 
961	 4.07509348330894E-02 
962	 3.97435117612786E-02 
963	 3.99701564225932E-02 
964	 3.95891697403405E-02 
965	 3.83342374721665E-02 
966	 3.76986243681161E-02 
967	 3.93487359409232E-02 
968	 3.74479828261504E-02 
969	 3.70667865251005E-02 
970	 3.82008871560976E-02 
971	 3.65906821367843E-02 
972	 3.76387642645146E-02 
973	 3.82372734929829E-02 
974	 3.73420710297506E-02 
975	 3.67650039904062E-02 
976	 3.61190122301654E-02 
977	 3.63854403170593E-02 
978	 0.037528852103528 
979	 3.84272221921382E-02 
980	 3.75018348606186E-02 
981	 3.68067710519314E-02 
982	 3.69493669352353E-02 
983	 0.036968199387447 
984	 3.60794257920134E-02 
985	 3.63877034533496E-02 
986	 3.76509745598663E-02 
987	 3.77025004399673E-02 
988	 0.035869042335656 
989	 3.72704489904963E-02 
990	 4.01139740933525E-02 
991	 3.84958295501299E-02 
992	 3.82406752115872E-02 
993	 3.85587654504908E-02 
994	 3.83561242961114E-02 
995	 3.73760149903051E-02 
996	 3.92991405919072E-02 
997	 4.01608584691555E-02 
998	 3.95833893520715E-02 
999	 3.95496939222571E-02 
1000	 3.93069736860332E-02 
1001	 4.09085968402888E-02 
1002	 4.14319482762131E-02 
1003	 4.17617812508917E-02 
1004	 4.15770381063124E-02 
1005	 4.18585067904091E-02 
1006	 4.25301697786008E-02 
1007	 4.28494671267772E-02 
1008	 4.32305538209642E-02 
1009	 4.33399510876886E-02 
1010	 4.32765136347947E-02 
1011	 0.043284526756242 
1012	 4.32672413537987E-02 
1013	 0.043825229996699 
1014	 4.44014829489313E-02 
1015	 4.51360143292955E-02 
1016	 4.59535669877347E-02 
1017	 4.71150346106167E-02 
1018	 4.79140888782937E-02 
1019	 4.87610067226869E-02 
1020	 4.93964171577905E-02 
1021	 4.98239618540605E-02 
1022	 5.01881654748551E-02 
1023	 5.02675063764756E-02 
1024	 5.03025672846096E-02 
1025	 0.050532264330592 
1026	 5.11388250291262E-02 
1027	 5.18320457710176E-02 
1028	 5.29557325639107E-02 
1029	 5.39213425605464E-02 
1030	 5.49829268115524E-02 
1031	 0.055864244541147 
1032	 5.68092648346369E-02 
1033	 5.75014334578341E-02 
1034	 5.78425322360769E-02 
1035	 5.84106091871031E-02 
1036	 5.90136594052571E-02 
1037	 5.96719348098106E-02 
1038	 6.05141367390446E-02 
1039	 6.11515227286676E-02 
1040	 6.17574798386826E-02 
1041	 6.22225884482975E-02 
1042	 6.28805957797418E-02 
1043	 0.063607253725899 
1044	 6.42155192167789E-02 
1045	 6.48737716870051E-02 
1046	 6.55124234871958E-02 
1047	 6.59791672540425E-02 
1048	 6.65801568780506E-02 
1049	 6.70958074387719E-02 
1050	 6.80000582492025E-02 
1051	 6.96537027793235E-02 
1052	 7.03927730899317E-02 
1053	 7.08785108170018E-02 
1054	 7.13724815239237E-02 
1055	 7.09824536869475E-02 
1056	 7.10362002856647E-02 
1057	 7.13069608963664E-02 
1058	 7.20647465499586E-02 
1059	 7.24792903837475E-02 
1060	 7.30290821688849E-02 
1061	 7.31378859643293E-02 
1062	 7.28021922917474E-02 
1063	 7.29770733026343E-02 
1064	 0.07314472010269 
1065	 7.33013853183239E-02 
1066	 7.38606324059019E-02 
1067	 7.41612720544007E-02 
1068	 7.42850740088231E-02 
1069	 7.42818736070543E-02 
1070	 7.39353817368659E-02 
1071	 7.40404065495117E-02 
1072	 7.44683809025331E-02 
1073	 7.45296238523969E-02 
1074	 7.45365820415767E-02 
1075	 7.49077569422723E-02 
1076	 7.46021671758128E-02 
1077	 7.35408616744148E-02 
1078	 7.30832431650185E-02 
1079	 7.28374036009213E-02 
1080	 0.072320606170893 
1081	 7.16363298822927E-02 
1082	 7.11654452816093E-02 
1083	 7.07695943551962E-02 
1084	 7.01923679714276E-02 
1085	 6.95420712051821E-02 
1086	 6.92089617475408E-02 
1087	 6.89071131373371E-02 
1088	 6.83969816063171E-02 
1089	 6.80977480324151E-02 
1090	 6.78219717033711E-02 
1091	 6.73980867891462E-02 
1092	 6.65805536965147E-02 
1093	 6.61936234919265E-02 
1094	 6.60396451822992E-02 
1095	 6.58563982671651E-02 
1096	 6.60053013357814E-02 
1097	 6.53698840978335E-02 
1098	 0.064161925589391 
1099	 6.34916591329834E-02 
1100	 6.23033488808707E-02 
1101	 6.16827871240639E-02 
1102	 6.23250646828991E-02 
1103	 6.20820876062375E-02 
1104	 6.16285090674998E-02 
1105	 6.06028700103484E-02 
1106	 5.93578697353046E-02 
1107	 5.82439922673858E-02 
1108	 5.75818311272161E-02 
1109	 5.74747442459124E-02 
1110	 5.77449229703312E-02 
1111	 5.94399121825516E-02 
1112	 5.96589227728495E-02 
1113	 5.97109452590876E-02 
1114	 5.93421171426696E-02 
1115	 5.68773243120631E-02 
1116	 5.54600161594904E-02 
1117	 5.44344534594645E-02 
1118	 5.36886168985524E-02 
1119	 5.44006339814065E-02 
1120	 5.41002204225611E-02 
1121	 5.51456289286599E-02 
1122	 5.15494974345776E-02 
1123	 4.98513344274712E-02 
1124	 4.91110164079188E-02 
1125	 4.77472626845179E-02 
1126	 5.19476360827488E-02 
1127	 5.06361342934129E-02 
1128	 0.046015180624 
1129	 4.49627385688308E-02 
1130	 4.51391250143592E-02 
1131	 0.04281141117696 
1132	 4.03228866287959E-02 
1133	 3.93550689341041E-02 
1134	 3.77000329506509E-02 
1135	 3.65346126610551E-02 
1136	 3.70870384482173E-02 
1137	 3.70484925713301E-02 
1138	 3.77510037907706E-02 
1139	 3.44839903952405E-02 
1140	 3.13561612649445E-02 
1141	 3.01444791244079E-02 
1142	 2.85504574163424E-02 
1143	 2.97828545986228E-02 
1144	 3.31608087596931E-02 
1145	 3.45638839682009E-02 
1146	 0.034178874473683 
1147	 3.26918970406791E-02 
1148	 2.97297329449571E-02 
1149	 2.89243470870416E-02 
1150	 2.87197968117568E-02 
1151	 2.92700021895295E-02 
1152	 2.90065852445911E-02 
1153	 2.98814125835023E-02 
1154	 2.95443390056008E-02 
1155	 2.84215462243222E-02 
1156	 2.76445401165859E-02 
1157	 2.77852536467721E-02 
1158	 2.70183695394743E-02 
1159	 2.61060558292816E-02 
1160	 2.65255760313528E-02 
1161	 2.69421561190428E-02 
1162	 2.70623815830602E-02 
1163	 2.72723317077958E-02 
1164	 2.68771283390643E-02 
1165	 0.026513589868892 
1166	 2.65757818947954E-02 
1167	 2.67308121282675E-02 
1168	 2.72427277160907E-02 
1169	 2.73269798961588E-02 
1170	 0.026641041390268 
1171	 2.64750071067397E-02 
1172	 2.64176468845562E-02 
1173	 2.64427250683805E-02 
1174	 0.026625248120841 
1175	 2.69329824056468E-02 
1176	 2.73477921081162E-02 
1177	 2.72042727545607E-02 
1178	 2.67317161631388E-02 
1179	 2.67770560652925E-02 
1180	 2.66614376675413E-02 
1181	 2.62819115381515E-02 
1182	 2.66897748553169E-02 
1183	 2.70561150328142E-02 
1184	 2.68455412424501E-02 
1185	 2.69765881089835E-02 
1186	 2.69846038991263E-02 
1187	 2.68518547415303E-02 
1188	 2.69921375065827E-02 
1189	 2.68664283842329E-02 
1190	 2.65456196371424E-02 
1191	 2.64016011372624E-02 
1192	 2.64207585367136E-02 
1193	 2.65079519507452E-02 
1194	 2.66513496741323E-02 
1195	 2.70433540624217E-02 
1196	 2.73607055875765E-02 
1197	 2.71664097303664E-02 
1198	 2.70359911881117E-02 
1199	 2.71804145516861E-02 
1200	 2.71590499731542E-02 
1201	 2.70406900482114E-02 
1202	 2.72060438368059E-02 
1203	 2.71260416086747E-02 
1204	 2.69679221764477E-02 
1205	 2.72654943294553E-02 
1206	 0.027045509045561 
1207	 0.026583348756387 
1208	 2.65996639917958E-02 
1209	 2.64631912107232E-02 
1210	 2.65097508669065E-02 
1211	 2.67816487480805E-02 
1212	 2.65801625471125E-02 
1213	 2.64493699420967E-02 
1214	 2.64469104464169E-02 
1215	 2.65758164960144E-02 
1216	 2.66646504714581E-02 
1217	 2.66933369053276E-02 
1218	 0.02635179523008 
1219	 2.63194829091997E-02 
1220	 0.02655219179163 
1221	 2.63334671888579E-02 
1222	 2.64038438122439E-02 
1223	 2.66005552413034E-02 
1224	 2.62878265408093E-02 
1225	 2.63107869411975E-02 
1226	 2.66968279403822E-02 
1227	 2.66156763022308E-02 
1228	 2.63482508090667E-02 
1229	 2.63510375577696E-02 
1230	 2.64983434745877E-02 
1231	 0.026534751957545 
1232	 2.65283328886438E-02 
1233	 2.68436595209397E-02 
1234	 2.70574139005265E-02 
1235	 2.70872314302821E-02 
1236	 2.71092808031357E-02 
1237	 2.71627954615469E-02 
1238	 2.70768465653273E-02 
1239	 2.68479173756596E-02 
1240	 2.69402010227241E-02 
1241	 2.68196746164648E-02 
1242	 2.68101337458531E-02 
1243	 2.71360027263789E-02 
1244	 0.027210875535774 
1245	 2.72046735499402E-02 
1246	 0.027095893131614 
1247	 2.67906534862795E-02 
1248	 2.67901885248376E-02 
1249	 2.70114626746551E-02 
1250	 2.70809399044386E-02 
1251	 2.69773630973834E-02 
1252	 2.68730374109097E-02 
1253	 2.68981209033892E-02 
1254	 2.70814387597761E-02 
1255	 2.74770652286698E-02 
1256	 2.75898795839733E-02 
1257	 2.73705063398821E-02 
1258	 0.027389957045369 
1259	 0.027524249597325 
1260	 2.73757277410534E-02 
1261	 2.72096636971812E-02 
1262	 2.71750665523393E-02 
1263	 2.70302400054809E-02 
1264	 2.66290477127725E-02 
1265	 2.68501786340726E-02 
1266	 0.027049973782423 
1267	 2.66826708193138E-02 
1268	 0.026446356081223 
1269	 2.63996497651545E-02 
1270	 2.63551542528855E-02 
1271	 2.62682922250069E-02 
1272	 2.62237136673804E-02 
1273	 2.64648086208066E-02 
1274	 2.63204050353077E-02 
1275	 2.62090973106203E-02 
1276	 2.67108721521143E-02 
1277	 2.67866611360476E-02 
1278	 2.65300538009186E-02 
1279	 2.65448355129543E-02 
1280	 2.65297235819589E-02 
1281	 0.026425171128876 
1282	 2.61560897805949E-02 
1283	 2.61889771175582E-02 
1284	 2.63330479105578E-02 
1285	 2.63946015893471E-02 
1286	 2.66094532708946E-02 
1287	 2.67100014775058E-02 
1288	 2.67907558547722E-02 
1289	 2.67621450859198E-02 
1290	 2.67028810538908E-02 
1291	 0.026518643743276 
1292	 2.62032944622548E-02 
1293	 2.58478379702179E-02 
1294	 2.58374578499167E-02 
1295	 2.60156028630198E-02 
1296	 2.59015461339635E-02 
1297	 2.57997040966608E-02 
1298	 2.56063440867042E-02 
1299	 2.52334819836487E-02 
1300	 2.53542739472706E-02 
1301	 2.53196147899486E-02 
1302	 2.50462687296757E-02 
1303	 2.52139477966194E-02 
1304	 2.54360993453363E-02 
1305	 2.53980329986697E-02 
1306	 2.51889918103892E-02 
1307	 2.45735628791516E-02 
1308	 0.024552428031306 
1309	 2.46772533727525E-02 
1310	 2.46633791196044E-02 
1311	 2.50965546159738E-02 
1312	 2.52907424189028E-02 
1313	 0.025097782548095 
1314	 2.49802073716958E-02 
1315	 0.025014057754235 
1316	 2.48805665152624E-02 
1317	 0.024410942012058 
1318	 2.42587466265891E-02 
1319	 2.43313548922655E-02 
1320	 2.43325212226817E-02 
1321	 0.02451877858738 
1322	 2.42826381325942E-02 
1323	 2.37971276739733E-02 
1324	 2.43237450962174E-02 
1325	 2.50333606456896E-02 
1326	 2.51619050383449E-02 
1327	 2.52564571210339E-02 
1328	 2.55362830324584E-02 
1329	 2.58297073690479E-02 
1330	 2.62457517977444E-02 
1331	 2.66345078288071E-02 
1332	 2.59638653170487E-02 
1333	 2.60064770962464E-02 
1334	 2.77830741816823E-02 
1335	 2.74536904628846E-02 
1336	 2.62327434762024E-02 
1337	 2.69307503448302E-02 
1338	 2.77014278764456E-02 
1339	 2.68590576740596E-02 
1340	 2.69150705390774E-02 
1341	 2.73976071808316E-02 
1342	 2.53607779258307E-02 
1343	 2.42111731416988E-02 
1344	 2.62652451022989E-02 
1345	 2.75858010957664E-02 
1346	 2.62776703395211E-02 
1347	 2.63331806180521E-02 
1348	 3.10387694602101E-02 
1349	 3.30263208202033E-02 
1350	 3.26577780373234E-02 
1351	 2.99422688849066E-02 
1352	 0.010323377997422 
1353	 2.89186244397847E-03 
1354	 2.80697567834225E-02 
1355	 1.88682728088972E-02 
1356	-5.1203697624928E-03 
1357	 1.93649019643994E-02 
1358	 4.05646503163176E-04 
1359	-9.24359997297879E-02 
1360	-0.130187185825196 
1361	-0.104440914295857 
1362	-9.10010293225244E-02 
1363	 7.09019031574722E-02 
1364	 0.138728771551751 
1365	 0.109669310202956 
1366	 0.343124199629364 
1367	 0.69274796935061 
1368	 0.550049339151064 
1369	 4.89835616411457E-02 
1370	 0.109565098912135 
1371	 8.58427160206542E-02 
1372	 5.36518893480317E-02 
1373	 0.724405742824606 
1374	 0.724352412293633 
1375	-0.309600161002015 
1376	-0.500287970589761 
1377	-0.586932613223221 
1378	-0.667111046084801 
1379	 4.57785441030355E-02 
1380	 0.285875741502518 
1381	 0.283442609944362 
1382	 0.284780484755579 
1383	 9.81915727787823E-02 
1384	 0.169784569443976 
1385	 0.370375163847527 
1386	 0.448314705080368 
1387	 0.988605858485375 
1388	 0.915127743043827 
1389	 0.310172981926408 
1390	 0.100458122621909 
1391	-0.274486375128312 
1392	-0.487594317917103 
1393	-0.575799773060733 
1394	-0.580433497272752 
1395	 0.572906018890964 
1396	 0.804705076022728 
1397	 0.101003693859518 
1398	 0.012237736871412 
1399	 0.171927855272205 
1400	 0.424973365755661 
1401	 0.35492526704924 
1402	 0.184974095278575 
1403	-3.61740281175115E-02 
1404	-0.490005661312967 
1405	-0.556656574403525 
1406	-0.18752831079655 
1407	 2.41330179412686E-02 
1408	-1.33265300257438E-02 
1409	 2.40642205337449E-02 
1410	 0.166709573402141 
1411	 0.201558528635838 
1412	 0.171187123398007 
1413	 0.151445178044603 
1414	 0.141010172459566 
1415	 0.102658960156277 
1416	 3.72538193355153E-02 
1417	 3.32432331767185E-02 
1418	 0.034898306819367 
1419	 5.18589916455406E-02 
1420	 9.97678775559672E-02 
1421	 9.63025517215969E-02 
1422	 7.73716494146683E-02 
1423	 6.69285619384883E-02 
1424	 4.56161585822336E-02 
1425	 4.40531090932934E-02 
1426	 5.52112478545354E-02 
1427	 5.05579443398683E-02 
1428	 4.07685259931315E-02 
1429	 3.90382589660338E-02 
1430	 3.86679826947688E-02 
1431	 0.036995860442338 
1432	 3.78276857608952E-02 
1433	 3.61932107992189E-02 
1434	 2.67353223244338E-02 
1435	 2.47299020681592E-02 
1436	 2.90914486269959E-02 
1437	 3.38137947248444E-02 
1438	 3.74689096959835E-02 
1439	 2.60272026933269E-02 
1440	 2.13909678829621E-02 
1441	 2.81301782041193E-02 
1442	 3.19212477664184E-02 
1443	 0.039509502188805 
1444	 3.68305922735994E-02 
1445	 2.60795545067686E-02 
1446	 2.34759895366122E-02 
1447	 2.31336071173239E-02 
1448	 1.91642404336861E-02 
1449	 2.18508706047704E-02 
1450	 2.65891898125793E-02 
1451	 2.42552677803476E-02 
1452	 2.33947953633665E-02 
1453	 2.36268656996122E-02 
1454	 2.28137859777749E-02 
1455	 1.83096504175903E-02 
1456	 1.96345732611678E-02 
1457	 2.51123184137751E-02 
1458	 2.49344164186776E-02 
1459	 2.35934116027012E-02 
1460	 2.44290870448164E-02 
1461	 2.39345359284347E-02 
1462	 0.023278258751931 
1463	 2.42309401579038E-02 
1464	 2.48423274502585E-02 
1465	 2.47030959289496E-02 
1466	 2.33455276107765E-02 
1467	 2.19834393909451E-02 
1468	 2.12948515453681E-02 
1469	 1.75525148716911E-02 
1470	 1.60434189123508E-02 
1471	 1.80842663942223E-02 
1472	 1.96024173886368E-02 
1473	 2.18002680366909E-02 
1474	 2.14442916151047E-02 
1475	 1.96656543743286E-02 
1476	 2.00766674857472E-02 
1477	 2.02887417454123E-02 
1478	 1.94838697550808E-02 
1479	 1.91992055565164E-02 
1480	 2.05167385365048E-02 
1481	 0.022288862768143 
1482	 2.14780550832383E-02 
1483	 2.05394211664941E-02 
1484	 2.08754055625119E-02 
1485	 0.019891420301634 
1486	 1.91715211825615E-02 
1487	 2.03726203743683E-02 
1488	 2.04407872072265E-02 
1489	 1.87861220740122E-02 
1490	 1.83597704386027E-02 
1491	 0.018522278754201 
1492	 1.87138991003094E-02 
1493	 1.92038969738488E-02 
1494	 0.01944719550443 
1495	 1.98019972123784E-02 
1496	 2.00360313270016E-02 
1497	 1.98338058052634E-02 
1498	 2.01463917882261E-02 
1499	 2.14108141761561E-02 
1500	 2.12415538594718E-02 
1501	 2.00620806457684E-02 
1502	 1.98681588546538E-02 
1503	 1.95805723590265E-02 
1504	 1.91100329413168E-02 
1505	 0.019032320121827 
1506	 1.90861269979876E-02 
1507	 1.92125899078848E-02 
1508	 1.94652309636165E-02 
1509	 1.97759580268258E-02 
1510	 1.98104522064602E-02 
1511	 1.92012637864093E-02 
1512	 1.85369684325217E-02 
1513	 1.86570257607542E-02 
1514	 1.90672122934342E-02 
1515	 1.90923192102416E-02 
1516	 1.92102274202733E-02 
1517	 1.93477857244636E-02 
1518	 1.89329701774412E-02 
1519	 1.87151455867437E-02 
1520	 0.018858493681026 
1521	 0.019093007251252 
1522	 1.94331563960397E-02 
1523	 1.91730472721398E-02 
1524	 1.89012444375006E-02 
1525	 1.92059867398822E-02 
1526	 1.90891676162231E-02 
1527	 1.86225357849551E-02 
1528	 1.84297230184829E-02 
1529	 1.84328068131738E-02 
1530	 1.85214610799769E-02 
1531	 1.88838932451737E-02 
1532	 1.95842627737249E-02 
1533	 1.97002295723219E-02 
1534	 0.019244669900009 
1535	 1.93897167765662E-02 
1536	 1.95562972436051E-02 
1537	 1.92222901675846E-02 
1538	 1.91665469490922E-02 
1539	 1.92750427501277E-02 
1540	 1.94116577391167E-02 
1541	 1.96826933848417E-02 
1542	 1.96788415251748E-02 
1543	 1.94797730988654E-02 
1544	 0.019303820329703 
1545	 1.93817812869318E-02 
1546	 1.96034937823055E-02 
1547	 1.92789807559452E-02 
1548	 1.90747891077437E-02 
1549	 1.91797660405261E-02 
1550	 1.92257053779096E-02 
1551	 1.98635591158352E-02 
1552	 2.02338314570905E-02 
1553	 1.99415951274639E-02 
1554	 1.98199229913533E-02 
1555	 1.98080964755146E-02 
1556	 1.96683071389883E-02 
1557	 1.96628099611821E-02 
1558	 1.98269690182628E-02 
1559	 1.98748357307233E-02 
1560	 2.01049248319337E-02 
1561	 2.03436368184434E-02 
1562	 0.020231891086994 
1563	 1.99362659361219E-02 
1564	 0.019934569910167 
1565	 2.02334547035293E-02 
1566	 2.02598781036055E-02 
1567	 2.02823548009178E-02 
1568	 2.04891469950134E-02 
1569	 2.04094151092455E-02 
1570	 2.04073324771791E-02 
1571	 2.09280426279746E-02 
1572	 2.14398987692125E-02 
1573	 0.021422283586947 
1574	 2.10915021123834E-02 
1575	 2.10210294906526E-02 
1576	 2.08037399305345E-02 
1577	 2.04779224798951E-02 
1578	 2.08197669658996E-02 
1579	 2.10411982935868E-02 
1580	 2.11520952050992E-02 
1581	 2.17885061076954E-02 
1582	 2.19336811743598E-02 
1583	 2.17352709518687E-02 
1584	 0.022039085705832 
1585	 0.022306847633697 
1586	 2.22983332201931E-02 
1587	 2.22942545409386E-02 
1588	 0.022327600884652 
1589	 2.21005621525422E-02 
1590	 2.23712522107163E-02 
1591	 2.32302286660448E-02 
1592	 2.35041105422798E-02 
1593	 2.39138379284964E-02 
1594	 2.45468634625079E-02 
1595	 2.48071941224939E-02 
1596	 2.51207566747538E-02 
1597	 2.52187266708701E-02 
1598	 2.52336046802473E-02 
1599	 2.57815585753859E-02 
1600	 2.61315529479826E-02 
1601	 2.60838536279438E-02 
1602	 0.026105447122149 
1603	 2.61922730038774E-02 
1604	 0.026081502165209 
1605	 2.60954716568978E-02 
1606	 2.60464088734162E-02 
1607	 2.53411572723353E-02 
1608	 2.45165547140919E-02 
1609	 2.39898148778096E-02 
1610	 2.41481163445899E-02 
1611	 2.44314046101868E-02 
1612	 2.42896464294295E-02 
1613	 2.39205545482579E-02 
1614	 2.34630866712106E-02 
1615	 2.27206731850533E-02 
1616	 2.20921223111343E-02 
1617	 2.23963750419067E-02 
1618	 2.27420924901296E-02 
1619	 2.27371177580321E-02 
1620	 2.31325745337246E-02 
1621	 2.31035861739121E-02 
1622	 2.22381863558277E-02 
1623	 2.16435236006861E-02 
1624	 0.021593685199696 
1625	 2.20886738775036E-02 
1626	 2.30208770887186E-02 
1627	 2.32048737440751E-02 
1628	 2.28078425177943E-02 
1629	 2.27136551983764E-02 
1630	 2.24030590077446E-02 
1631	 2.21365907925719E-02 
1632	 2.21316149434206E-02 
1633	 2.19159275477821E-02 
1634	 2.18040283185473E-02 
1635	 2.20298030163347E-02 
1636	 2.24262520901748E-02 
1637	 2.26737379519375E-02 
1638	 0.022400749485934 
1639	 2.19796865059564E-02 
1640	 2.22089106902124E-02 
1641	 2.25983320897825E-02 
1642	 2.18278706715339E-02 
1643	 2.07564672324681E-02 
1644	 2.10540667817647E-02 
1645	 2.17415258631197E-02 
1646	 2.19769850790539E-02 
1647	 0.022414069831285 
1648	 2.23955146053005E-02 
1649	 2.15928187497704E-02 
1650	 2.12853672796744E-02 
1651	 2.17973774538756E-02 
1652	 2.22767092746665E-02 
1653	 2.21078656884302E-02 
1654	 0.022007814054296 
1655	 2.17149836581114E-02 
1656	 2.18433910052115E-02 
1657	 2.24395425462255E-02 
1658	 2.24445473583245E-02 
1659	 2.24437007213588E-02 
1660	 2.25972894872569E-02 
1661	 2.21333895991071E-02 
1662	 2.18415699648757E-02 
1663	 2.19478274182213E-02 
1664	 2.19345991761869E-02 
1665	 2.18925587544147E-02 
1666	 2.22436817884964E-02 
1667	 2.27553149337048E-02 
1668	 2.29652709092374E-02 
1669	 2.30791990773729E-02 
1670	 2.26203074015123E-02 
1671	 2.22515881740902E-02 
1672	 2.27617294944884E-02 
1673	 2.34920893202689E-02 
1674	 2.34073598752551E-02 
1675	 2.34743342903555E-02 
1676	 2.33553470813119E-02 
1677	 2.25588266116039E-02 
1678	 2.23475747225649E-02 
1679	 2.28065768667235E-02 
1680	 2.31472325234661E-02 
1681	 2.29799356324463E-02 
1682	 2.25817263392125E-02 
1683	 2.30218455723646E-02 
1684	 2.31652536835529E-02 
1685	 2.21027702325034E-02 
1686	 0.022043933322791 
1687	 2.22366183046944E-02 
1688	 2.12100239541697E-02 
1689	 2.16551063687792E-02 
1690	 2.30270405746716E-02 
1691	 2.26677979583132E-02 
1692	 2.22603530460213E-02 
1693	 2.19687341926806E-02 
1694	 2.12749247346548E-02 
1695	 2.16898505221888E-02 
1696	 2.27539667896811E-02 
1697	 2.30552273698788E-02 
1698	 2.25984626408564E-02 
1699	 0.022052629503536 
1700	 2.14962298755133E-02 
1701	 2.19642722398013E-02 
1702	 2.31469238683416E-02 
1703	 2.27861972658302E-02 
1704	 2.19433619286709E-02 
1705	 2.23655624925492E-02 
1706	 2.22385513578765E-02 
1707	 2.15724311102211E-02 
1708	 2.21481308565586E-02 
1709	 2.19190578892295E-02 
1710	 2.10738057414802E-02 
1711	 0.022123834561407 
1712	 0.023024797361765 
1713	 2.27314491543536E-02 
1714	 2.28579299685012E-02 
1715	 2.24268601236961E-02 
1716	 2.20934530182019E-02 
1717	 2.25127359518699E-02 
1718	 2.28699212841921E-02 
1719	 2.25228025095118E-02 
1720	 2.24010412496597E-02 
1721	 2.24763835140626E-02 
1722	 2.19352346150601E-02 
1723	 2.19947672037867E-02 
1724	 2.26040966721143E-02 
1725	 2.24070985002112E-02 
1726	 2.21114682870794E-02 
1727	 2.20370325026587E-02 
1728	 2.14853291584224E-02 
1729	 2.15646176696556E-02 
1730	 2.17135977869792E-02 
1731	 2.09834294847391E-02 
1732	 2.07512398757295E-02 
1733	 2.07160883460069E-02 
1734	 2.08890113325277E-02 
1735	 2.17920619551895E-02 
1736	 2.20557646255455E-02 
1737	 2.16176747758237E-02 
1738	 2.17293149135771E-02 
1739	 2.18844625554212E-02 
1740	 2.15375955358151E-02 
1741	 0.021351463916814 
1742	 2.10193481910966E-02 
1743	 2.04360341829867E-02 
1744	 2.04056824451441E-02 
1745	 2.10218527457501E-02 
1746	 2.22366984050051E-02 
1747	 2.19548283779444E-02 
1748	 2.05658783282236E-02 
1749	 2.03473885237217E-02 
1750	 1.94433173577231E-02 
1751	 1.94019730907078E-02 
1752	 2.17823766540532E-02 
1753	 2.19810172661301E-02 
1754	 2.03113135189957E-02 
1755	 2.01084620335592E-02 
1756	 1.97343161199574E-02 
1757	 1.94017546976604E-02 
1758	 2.05337515899549E-02 
1759	 2.08116120511015E-02 
1760	 2.07866748664105E-02 
1761	 2.13621632924367E-02 
1762	 2.05649798849899E-02 
1763	 1.93239825645222E-02 
1764	 1.95885207136318E-02 
1765	 2.04542270940554E-02 
1766	 2.12514950309733E-02 
1767	 2.15573170625119E-02 
1768	 2.17837532694696E-02 
1769	 2.21097826799822E-02 
1770	 0.021206423382442 
1771	 2.01940978699636E-02 
1772	 2.03407143472295E-02 
1773	 2.06500314078236E-02 
1774	 2.17995360924754E-02 
1775	 2.39839132150221E-02 
1776	 2.38583621890538E-02 
1777	 1.91525986137715E-02 
1778	 1.84006287062249E-02 
1779	 1.96082966477074E-02 
1780	 1.99707562344989E-02 
1781	 2.28797832748671E-02 
1782	 2.40564160031633E-02 
1783	 2.41725040031342E-02 
1784	 2.41503488299219E-02 
1785	 2.28292745675448E-02 
1786	 0.022558840833462 
1787	 2.08500042088051E-02 
1788	 2.19222880295733E-02 
1789	 2.78579933384018E-02 
1790	 2.45457281281274E-02 
1791	 2.29881090246383E-02 
1792	 2.06844841046562E-02 
1793	 1.72329635340907E-02 
1794	 2.18495441429923E-02 
1795	 2.47923007187866E-02 
1796	 2.44723369927938E-02 
1797	 0.028829908126753 
1798	 3.25511454379756E-02 
1799	 4.09807885301401E-02 
1800	 2.98959625395656E-02 
1801	 2.45892604250589E-02 
1802	 1.10453345577073E-02 
1803	 3.50665822955703E-03 
1804	 1.86845429080963E-02 
1805	 2.89402541366965E-02 
1806	 4.37780806146573E-02 
1807	 6.54951626451347E-02 
1808	 0.105455651395002 
1809	 0.11613772429401 
1810	 9.30263968182532E-02 
1811	 6.49730862717832E-02 
1812	-5.15563192471813E-02 
1813	-0.151692203716261 
1814	-0.198283286736427 
1815	-0.232733332082492 
1816	-0.2466812837582 
1817	-0.298262553985296 
1818	-0.223021810958444 
1819	-0.401392560256453 
1820	 0.123596588911816 
1821	 0.371404738137487 
1822	 0.465160655385328 
1823	 0.322132171755265 
1824	 0.177075333083649 
1825	-0.262389847879009 
1826	-0.421462102596248 
1827	 1.41098215645222E-02 
1828	-1.66381552401586E-02 
1829	-0.272072519275991 
1830	-0.397140284769348 
1831	 3.03800040504078 
1832	 3.522905646141 
1833	-3.40928902648931 
1834	-1.56681629362765 
1835	-1.69694158518022 
1836	-1.81513905366322 
1837	-2.53500114162198 
1838	-2.61385679111995 
1839	-1.99790981666132 
1840	-2.26239740794291 
1841	-28.7716916646338 
1842	 0.636195275714602 
1843	 0.495608354676775 
1844	 3.60610147877839 
1845	 4.97100599848652 
1846	-5.45855804827999 
1847	-3.6456588553373 
1848	-0.243813956526495 
1849	-1.82426385909554 
1850	-0.567093612375766 
1851	 1.14120752962475E-02 
1852	 0.876537930111084 
1853	 2.79040790053137 
1854	 2.801541545584 
1855	 0.850099155952435 
1856	 0.812589567602684 
1857	 1.05484168302187 
1858	 1.11141329130711 
1859	 8.58383982128009 
1860	-1.80717788233049 
1861	 3.18176751634741 
1862	-0.942697235700909 
1863	-0.316460707276353 
1864	 0.507544330460489 
1865	 0.852031196435053 
1866	 1.96670980997504 
1867	 2.6971804998085 
1868	 17.1014513741303 
1869	-6.07828350197488 
1870	-2.10826828290508 
1871	-0.759999556255567 
1872	-0.569751047393812 
1873	 6.41740506221356E-02 
1874	 4.04016364258443 
1875	-1.24762379202825 
1876	-0.687884002916131 
1877	-0.23708360999962 
1878	-0.193715061380446 
1879	-8.64428396346286E-02 
1880	-0.225776088376598 
1881	-1.05004704298511 
1882	-0.773357110999281 
1883	-0.515070120893233 
1884	-0.602641656816111 
1885	-0.11083948585037 
1886	 0.377218823622277 
1887	 0.923230867019873 
1888	 0.966270335759017 
1889	 1.02774454923188 
1890	 1.01472813230374 
1891	 1.17987143141758 
1892	 0.990703176485422 
1893	 4.50741724070324 
1894	-0.345881795785779 
1895	-0.529288417465176 
1896	-0.536536803260642 
1897	-0.574735358415428 
1898	-4.05132935457199 
1899	-17.7729164001675 
1900	-6.04857930269177 
1901	-0.539928147766909 
1902	-0.261672635680193 
1903	-7.60534849527157E-02 
1904	 0.288502304485412 
1905	 0.175087305296184 
1906	 0.707318206216273 
1907	 1.65313346185452 
1908	 3.83844573842789 
1909	-6.97065114789129 
1910	-0.691824202749063 
1911	-1.06511394406535 
1912	-2.41705453879932 
1913	-2.59565919537201 
1914	-2.59059406409386E-02 
1915	 0.278961303245061 
1916	 3.13370086487452 
1917	-0.385672212497995 
1918	-0.244188674100092 
1919	 3.73413218530203 
1920	-52.0013942854746 
1921	-3.58169083512101 
1922	-1.90675705981792 
1923	-1.58234914716047 
1924	-1.24623783192373 
1925	-0.770503082018894 
1926	-0.548734439748332 
1927	-0.120092503143817 
1928	 0.564065052467602 
1929	-4.33088794532723 
1930	-2.02058204029887 
1931	 3.79654151947792 
1932	 1.0186460320819 
1933	 0.803192712717035 
1934	 0.597840219930299 
1935	 0.462328483316014 
1936	 0.230666911385653 
1937	 1.20551428379337E-02 
1938	 2.08296508937892E-02 
1939	 4.99469716759304E-02 
1940	 0.133958264406821 
1941	 0.169018721325261 
1942	 0.208512636997701 
1943	 0.153518529562869 
1944	-5.30471032072698E-02 
1945	-0.10331158380384 
1946	-0.146239846624341 
1947	-0.153528150031349 
1948	-1.66256106779362E-02 
1949	 7.29080173566463E-02 
1950	 9.76543417486477E-02 
1951	 8.92996340047074E-02 
1952	 9.56022959683884E-02 
1953	 7.28218245925983E-02 
1954	 6.59455064035938E-02 
1955	 6.33884245644112E-02 
1956	 8.11835326177478E-02 
1957	 6.46073920753091E-02 
1958	 4.31301566019361E-02 
1959	 0.04204481796198 
1960	 4.22474149432991E-02 
1961	 0.042972437751329 
1962	 2.90096621704039E-02 
1963	 2.00787034571673E-02 
1964	 2.05353924313731E-02 
1965	 1.76710309644038E-02 
1966	 1.55412124643251E-02 
1967	 1.54521401809805E-02 
1968	 1.69762262462916E-02 
1969	 1.78389011293857E-02 
1970	 1.79130303540494E-02 
1971	 1.99676113786489E-02 
1972	 2.25081492438502E-02 
1973	 2.15126955520408E-02 
1974	 1.92775156029308E-02 
1975	 1.89659729230572E-02 
1976	 2.00151911954349E-02 
1977	 2.16136565142147E-02 
1978	 2.12793156903067E-02 
1979	 2.03674972694144E-02 
1980	 1.93633051363473E-02 
1981	 0.017585925795092 
1982	 1.50366818973616E-02 
1983	 1.68511250671284E-02 
1984	 2.18367997111199E-02 
1985	 2.23415480596197E-02 
1986	 0.020489907126434 
1987	 2.02521539645636E-02 
1988	 1.78733073324773E-02 
1989	 1.75995119097946E-02 
1990	 2.17901614083674E-02 
1991	 2.12996877025452E-02 
1992	 1.88272348356246E-02 
1993	 1.98120921993545E-02 
1994	 2.01139897769504E-02 
1995	 1.90390246366961E-02 
1996	 2.04589758825772E-02 
1997	 2.25709367860471E-02 
1998	 1.98984641604588E-02 
1999	 1.64377089722221E-02 
2000	 0.013388898570432 
2001	 1.76513056051358E-02 
2002	 2.47281953962423E-02 
2003	 2.81710085428972E-02 
2004	 3.27288600359876E-02 
2005	 2.37863452222456E-02 
2006	 8.15545115493464E-03 
2007	 1.00225809532408E-03 
2008	-2.98777805658329E-03 
2009	-3.63571789056849E-03 
2010	 6.19303465899754E-03 
2011	 1.02917619461076E-02 
2012	 1.41988733200891E-02 
2013	 1.46803621244561E-02 
2014	 1.42090282635987E-02 
2015	 1.82226471036358E-02 
2016	 1.88794754601058E-02 
2017	 0.016892748178194 
2018	 1.34828822347627E-02 
2019	 9.28862242935394E-03 
2020	 8.74505470627669E-03 
2021	 1.08557720159521E-02 
2022	 1.59198017782313E-02 
2023	 2.16347907763617E-02 
2024	 2.11577822753789E-02 
2025	 1.50189167938971E-02 
2026	 1.41690611026396E-02 
2027	 1.30886794115161E-02 
2028	 1.10063696255827E-02 
2029	 1.49135109699638E-02 
2030	 1.87291213195934E-02 
2031	 1.74097327509883E-02 
2032	 1.74835693053259E-02 
2033	 1.57338426230234E-02 
2034	 1.49258890770522E-02 
2035	 1.57338706658299E-02 
2036	 1.51311925391366E-02 
2037	 1.62389000496506E-02 
2038	 1.67852817171694E-02 
2039	 0.016534450465089 
2040	 1.57074109021884E-02 
2041	 1.55679326918158E-02 
2042	 1.55691100869207E-02 
2043	 1.50580264689409E-02 
2044	 1.39110273414349E-02 
2045	 1.51941170025422E-02 
2046	 0.015817094222178 
2047	 1.36946960101524E-02 
2048	 1.52105228291855E-02 
2049	 1.77495168970807E-02 
2050	 1.72857157260018E-02 
2051	 1.61201206932675E-02 
2052	 0.015991949519241 
2053	 1.60604313474712E-02 
2054	 1.84346401525032E-02 
2055	 2.31779420559927E-02 
2056	 2.57130711875558E-02 
2057	 2.80557324417771E-02 
2058	 2.74722256909316E-02 
2059	 0.023376190747479 
2060	 2.16836198523135E-02 
2061	 1.89314462997821E-02 
2062	 1.82139474906524E-02 
2063	 1.71123833351354E-02 
2064	 1.71897663734177E-02 
2065	 1.81307846758367E-02 
2066	 1.82476715232344E-02 
2067	 1.69436710274253E-02 
2068	 1.61521946613744E-02 
2069	 1.53504194039226E-02 
2070	 1.23261280025818E-02 
2071	 1.19181556834551E-02 
2072	 0.014437452250211 
2073	 1.60277840630994E-02 
2074	 1.71900441633369E-02 
2075	 1.82666389194413E-02 
2076	 2.10165338253602E-02 
2077	 2.17728891127433E-02 
2078	 2.11610510585118E-02 
2079	 2.09315146634248E-02 
2080	 2.02363717980439E-02 
2081	 1.90967414733772E-02 
2082	 1.92719444791129E-02 
2083	 1.94918572033246E-02 
2084	 2.10924320829997E-02 
2085	 2.18480451523978E-02 
2086	 2.10005102120207E-02 
2087	 2.16170163243348E-02 
2088	 2.18966733770292E-02 
2089	 2.05758144520052E-02 
2090	 1.92047527251416E-02 
2091	 2.04181823039541E-02 
2092	 2.05110400923297E-02 
2093	 2.06229848744856E-02 
2094	 1.98056970340261E-02 
2095	 1.75620571174361E-02 
2096	 1.72169658079782E-02 
2097	 1.72943861671718E-02 
2098	 1.82112595116902E-02 
2099	 2.12279676367088E-02 
2100	 2.30738871039911E-02 
2101	 2.20827874232178E-02 
2102	 2.33541475751639E-02 
2103	 2.60575274243964E-02 
2104	 2.52469043818084E-02 
2105	 2.50702642756128E-02 
2106	 2.46941621402248E-02 
2107	 2.28407865081137E-02 
2108	 2.16850790981557E-02 
2109	 1.94414252018649E-02 
2110	 1.88530223319256E-02 
2111	 1.94532847146035E-02 
2112	 1.89802122055723E-02 
2113	 0.018663989716473 
2114	 1.95472770225264E-02 
2115	 1.98208878629099E-02 
2116	 1.92227881696579E-02 
2117	 1.91128183391323E-02 
2118	 1.94675585762561E-02 
2119	 2.01226116478727E-02 
2120	 2.08419193850657E-02 
2121	 0.020835303532803 
2122	 2.14359284704408E-02 
2123	 2.13029333525355E-02 
2124	 2.04064197275028E-02 
2125	 2.00500522554596E-02 
2126	 1.97721445893611E-02 
2127	 2.07860709749833E-02 
2128	 2.11086484414178E-02 
2129	 1.95730316477691E-02 
2130	 2.06703103300247E-02 
2131	 2.28996972036955E-02 
2132	 2.30403415680079E-02 
2133	 2.38856503574423E-02 
2134	 2.36059642329543E-02 
2135	 2.00799427500212E-02 
2136	 0.019349166831173 
2137	 2.05506289018045E-02 
2138	 2.06638623970864E-02 
2139	 2.10600854938825E-02 
2140	 2.10976080997787E-02 
2141	 2.02973906723773E-02 
2142	 2.00614749966341E-02 
2143	 1.96516098147023E-02 
2144	 2.06714252287458E-02 
2145	 2.11523374289698E-02 
2146	 2.11805301148459E-02 
2147	 2.18695194637835E-02 
2148	 2.21462323758824E-02 
2149	 2.17377776899511E-02 
2150	 2.17690498821334E-02 
2151	 2.27574833286344E-02 
2152	 2.30042389183693E-02 
2153	 2.18003470780539E-02 
2154	 2.05526564051044E-02 
2155	 1.83433731844603E-02 
2156	 0.016139398167115 
2157	 1.52994139407107E-02 
2158	 1.62592090314066E-02 
2159	 0.016588676180616 
2160	 0.0169917074927 
2161	 1.77744287624895E-02 
2162	 1.95974162110247E-02 
2163	 2.07460404758562E-02 
2164	 2.21862057217687E-02 
2165	 2.26764458502465E-02 
2166	 0.022007405169142 
2167	 2.16934626441401E-02 
2168	 2.02733970040964E-02 
2169	 1.99050560516084E-02 
2170	 2.00829955663928E-02 
2171	 2.16004224736806E-02 
2172	 2.04824919736365E-02 
2173	 2.01031799093625E-02 
2174	 2.08578173296254E-02 
2175	 1.91483270056853E-02 
2176	 1.92364847553372E-02 
2177	 2.08497758512093E-02 
2178	 0.019416979348872 
2179	 1.87756002654789E-02 
2180	 1.73825958256777E-02 
2181	 1.67042780400076E-02 
2182	 1.77526859716134E-02 
2183	 1.63704393837672E-02 
2184	 1.84189592560089E-02 
2185	 2.23596160973988E-02 
2186	 2.35313430211983E-02 
2187	 2.42509788393557E-02 
2188	 2.49142006559702E-02 
2189	 2.37032397398938E-02 
2190	 2.18684592143713E-02 
2191	 1.95220864658524E-02 
2192	 1.85282808761024E-02 
2193	 1.69612406816692E-02 
2194	 1.62794253631522E-02 
2195	 0.016397897017156 
2196	 1.71920503912463E-02 
2197	 1.93379372566381E-02 
2198	 2.01990350579111E-02 
2199	 0.021533629308469 
2200	 2.33342601556817E-02 
2201	 0.022228586717075 
2202	 1.80790471174928E-02 
2203	 1.53695088695007E-02 
2204	 1.56347926816281E-02 
2205	 1.83657624112131E-02 
2206	 2.14090631699553E-02 
2207	 2.10464261297916E-02 
2208	 2.01630887090452E-02 
2209	 1.88653156429414E-02 
2210	 1.80441094274767E-02 
2211	 2.28062878869966E-02 
2212	 2.56010128296042E-02 
2213	 2.49284828257006E-02 
2214	 2.44246284042195E-02 
2215	 2.17664912374117E-02 
2216	 1.97891183365141E-02 
2217	 1.88888898149593E-02 
2218	 0.020468041542022 
2219	 1.95011829557323E-02 
2220	 1.75781561719919E-02 
2221	 1.67177449802421E-02 
2222	 1.57484912452523E-02 
2223	 1.47846025752324E-02 
2224	 1.29855137519729E-02 
2225	 1.28036482642194E-02 
2226	 1.36260709939125E-02 
2227	 1.41415528682997E-02 
2228	 1.60378638185375E-02 
2229	 1.76804844697212E-02 
2230	 1.88438660522487E-02 
2231	 1.92551833638575E-02 
2232	 2.06446438355802E-02 
2233	 2.15713247226921E-02 
2234	 2.07845042849679E-02 
2235	 2.14184115626834E-02 
2236	 2.16117879777759E-02 
2237	 1.86235436214778E-02 
2238	 1.87892076312178E-02 
2239	 1.71791319523313E-02 
2240	 1.53857665205441E-02 
2241	 1.58083335124342E-02 
2242	 1.56868899491823E-02 
2243	 1.63927124183084E-02 
2244	 1.89742750720738E-02 
2245	 2.21401862823365E-02 
2246	 2.26890444777253E-02 
2247	 2.26156768663821E-02 
2248	 2.42789250168006E-02 
2249	 2.28838159089332E-02 
2250	 1.58585273277375E-02 
2251	 1.18890998504875E-02 
2252	 1.58919763824965E-02 
2253	 1.79090772471074E-02 
2254	 1.84485147008963E-02 
2255	 2.09986055484892E-02 
2256	 1.98746811267016E-02 
2257	 1.85632396314352E-02 
2258	 2.08813234899893E-02 
2259	 2.37989490547287E-02 
2260	 2.44252416914732E-02 
2261	 1.96420700815808E-02 
2262	 0.018790995575769 
2263	 0.021207694680921 
2264	 2.04704275851355E-02 
2265	 0.016890624081261 
2266	 1.83738703057117E-02 
2267	 2.25321365735315E-02 
2268	 2.32301606235374E-02 
2269	 2.55269275017629E-02 
2270	 2.58685401836163E-02 
2271	 2.06074313135327E-02 
2272	 2.04435764126453E-02 
2273	 2.74335636801648E-02 
2274	 2.65000331464885E-02 
2275	 0.020661912129288 
2276	 1.82250071620653E-02 
2277	 1.01434494786222E-02 
2278	 7.98978095369319E-03 
2279	 1.37801799852306E-02 
2280	 1.57676446443586E-02 
2281	 1.74188703044685E-02 
2282	 2.08586924283155E-02 
2283	 1.74919293985232E-02 
2284	 1.47216791506704E-02 
2285	 1.45339799734191E-02 
2286	 1.18858155025101E-02 
2287	 1.51786674743245E-02 
2288	 0.01611148334011 
2289	 0.014607428885626 
2290	 1.77582793080987E-02 
2291	 1.83727034869915E-02 
2292	 1.97456359236393E-02 
2293	 1.97104045683124E-02 
2294	 1.64326492415759E-02 
2295	 1.42055193858742E-02 
2296	 1.48934040764451E-02 
2297	 1.64900059928458E-02 
2298	 1.77263505869384E-02 
2299	 1.89079634764386E-02 
2300	 1.79496767504161E-02 
2301	 1.98543902701707E-02 
2302	 1.92167266283458E-02 
2303	 1.68271621854137E-02 
2304	 2.29871944284359E-02 
2305	 2.35754275890616E-02 
2306	 2.04274537553174E-02 
2307	 2.33147295437343E-02 
2308	 2.02619459019869E-02 
2309	 1.49631813272764E-02 
2310	 1.36076532812687E-02 
2311	 0.01148578193367 
2312	 1.09007396926182E-02 
2313	 1.36351811646254E-02 
2314	 1.65777619164355E-02 
2315	 1.92837430163883E-02 
2316	 2.01309012991127E-02 
2317	 1.85482990372877E-02 
2318	 0.01920674027382 
2319	 2.22341225313393E-02 
2320	 2.25920473114227E-02 
2321	 2.31899235896941E-02 
2322	 2.96378455054449E-02 
2323	 3.20354399139722E-02 
2324	 3.49304130834472E-02 
2325	 3.89454934065105E-02 
2326	 3.30462420268197E-02 
2327	 3.08724163948112E-02 
2328	 2.64239262823145E-02 
2329	 2.15380646042229E-02 
2330	 2.66024079550973E-02 
2331	 2.49382699410071E-02 
2332	 2.67059614045938E-02 
2333	 2.97360319407239E-02 
2334	 3.15401208336683E-02 
2335	 4.12654301611788E-02 
2336	 4.13726838131219E-02 
2337	 4.44509433216425E-02 
2338	 4.89062852756412E-02 
2339	 0.043140979918855 
2340	 3.45683299545115E-02 
2341	 1.59580809196033E-02 
2342	 4.52128219543803E-03 
2343	 2.62244656883773E-03 
2344	 2.96996407358938E-03 
2345	 1.13219194167712E-02 
2346	 2.09359947857585E-02 
2347	 2.35020551961528E-02 
2348	 2.09550175278495E-02 
2349	 0.020140486630233 
2350	 1.53669130896919E-02 
2351	 1.06993554458622E-02 
2352	 0.015062750735308 
2353	 2.08323612992445E-02 
2354	 1.70383400651146E-02 
2355	 1.23346930001145E-02 
2356	 9.70256348177606E-03 
2357	 7.2238075107049E-03 
2358	 2.17622068628505E-02 
2359	 2.57405483207432E-02 
2360	 3.24077715995759E-03 
2361	-5.16367414098981E-03 
2362	-6.47594112157354E-03 
2363	-2.45455248372958E-03 
2364	 1.14770713195497E-02 
2365	 6.03716412016294E-03 
2366	 5.49047841082836E-06 
2367	 1.00770836237427E-02 
2368	 1.80869998298431E-02 
2369	 3.05541488928204E-02 
2370	 3.71415477009059E-02 
2371	-4.25061607704933E-03 
2372	-3.95745859780117E-02 
2373	-5.47670334740048E-02 
2374	-0.088570427062366 
2375	-8.88330568216458E-02 
2376	-5.29250601526326E-02 
2377	-3.08358618177548E-02 
2378	-3.35620780952407E-02 
2379	-2.69884310632136E-02 
2380	-5.25155885681628E-02 
2381	-6.03444688352859E-02 
2382	-1.00362146589613E-02 
2383	-2.49268754945886E-02 
2384	-3.07712143865711E-02 
2385	-2.42778472018728E-02 
2386	-4.97984362508468E-02 
2387	-5.31716123539509E-02 
2388	-6.31747193454453E-02 
2389	-2.61329284688332E-02 
2390	 4.29996240850733E-02 
2391	 6.08315820205524E-02 
2392	 8.42112562434709E-02 
2393	-2.01275901410617E-03 
2394	-8.02427347586437E-02 
2395	 2.40140132225046E-03 
2396	 7.32072193130325E-02 
2397	 0.121429515016272 
2398	 0.126922242298936 
2399	 0.072325630484041 
2400	 1.51843763910553E-02 
2401	-4.94223724685476E-02 
2402	-7.13151289365595E-02 
2403	-8.81544864751757E-02 
2404	-9.70712675284657E-02 
2405	-2.75358795333229E-02 
2406	 7.73083277850631E-02 
2407	 0.132833903842173 
2408	 0.112983386742118 
2409	 9.70882769034806E-02 
2410	 4.12402644487465E-02 
2411	-4.84633786696825E-02 
2412	-7.99309617160756E-02 
2413	-0.211222252209107 
2414	-0.232974179256795 
2415	 4.96888023682411E-03 
2416	 7.47392412251127E-02 
2417	 0.217586438900361 
2418	 0.377441467587904 
2419	 0.145171030900987 
2420	 5.91008049915639E-02 
2421	 8.43761518318069E-02 
2422	-5.20254869168102E-02 
2423	-0.128240187467958 
2424	-0.154986207273682 
2425	-0.145526984720811 
2426	-0.205308543327106 
2427	-0.219698331273618 
2428	-0.134189552398015 
2429	-0.27616861972869 
2430	-0.258416020822404 
2431	-4.89062236685227E-02 
2432	-8.01688789489941E-02 
2433	-3.16960168483556E-02 
2434	 0.213156528288124 
2435	 0.253024786708823 
2436	 0.206984180089437 
2437	 0.233221548074002 
2438	 0.25282541472551 
2439	 0.169271980257123 
2440	 0.202012305747621 
2441	 0.325095607629038 
2442	 0.124098809806386 
2443	 0.134702028395127 
2444	 0.194769532540761 
2445	 1.43023744422716E-02 
2446	-4.24259157030745E-02 
2447	 9.29614412104209E-02 
2448	 0.105084904521663 
2449	 0.386400840191651 
2450	 0.670268621596451 
2451	-0.993352615542258 
2452	-2.69344636168198 
2453	-0.20541083067792 
2454	 0.108000244363331 
2455	 0.203173419774751 
2456	-0.231222483406622 
2457	-0.561047808992106 
2458	-0.65053900192672 
2459	-0.504090163858643 
2460	-0.357207466803583 
2461	-0.352013735045218 
2462	-0.208802158672126 
2463	-0.191181796796839 
2464	-1.1876691770128 
2465	-2.00631480422281 
2466	-0.384639294862226 
2467	-0.475474159629361 
2468	-4.29687134933931E-02 
2469	 0.447537154645372 
2470	-0.891203933813434 
2471	 7.29820947610119 
2472	 3.79340832458776 
2473	 6.08186023865537 
2474	 4.42849952753871 
2475	 24.2930506546434 
2476	 18.4382817387665 
2477	 1.02084146780631 
2478	 0.777162295828863 
2479	 1.40497930809303 
2480	 4.40824675084661 
2481	 193.307970739296 
2482	-4.72809733796057 
2483	 1.03400841353807 
2484	 0.267926873955751 
2485	 0.462385117972981 
2486	 1.54612776339452 
2487	 3.42831633400745 
2488	-1.16858050556065 
2489	 9.50977627801127 
2490	 0.342315346599134 
2491	 1.62285157793294 
2492	 0.262822404672309 
2493	 0.803470995930228 
2494	 0.50870982497324 
2495	-2.42945209389041E-02 
2496	-1.80919044993772E-02 
2497	-0.683290681649581 
2498	-2.19658457780822 
2499	 1.4568166765349 
2500	-0.386478762265932 
