Wavelength	rt0726far00004.asd
350	 3.81648007361872E-02 
351	 3.90357810254759E-02 
352	 3.82635396266369E-02 
353	 3.75768633843416E-02 
354	 3.81953551207297E-02 
355	 3.88227677802561E-02 
356	 3.86149252698942E-02 
357	 3.83137671813949E-02 
358	 3.87522878448302E-02 
359	 3.87744637190939E-02 
360	 3.84277278585971E-02 
361	 3.81974733030834E-02 
362	 3.86594095635022E-02 
363	 3.85360690655106E-02 
364	 3.82922908399196E-02 
365	 3.82481233770999E-02 
366	 3.81616824276532E-02 
367	 3.84281595443463E-02 
368	 3.84631135230865E-02 
369	 3.79282320353183E-02 
370	 3.82817582940268E-02 
371	 3.81053272649138E-02 
372	 3.76470483461192E-02 
373	 3.79455897837583E-02 
374	 3.76048576083931E-02 
375	 3.77037639882891E-02 
376	 3.81750054538738E-02 
377	 3.71436842038644E-02 
378	 3.74255502152656E-02 
379	 3.80661953647319E-02 
380	 0.037855965752546 
381	 3.76714454659709E-02 
382	 3.77298646268565E-02 
383	 3.79101280713213E-02 
384	 0.037888979400238 
385	 3.73387654068062E-02 
386	 3.72514802840284E-02 
387	 3.77151206806617E-02 
388	 3.77453891573212E-02 
389	 3.75724834258513E-02 
390	 3.76191178028189E-02 
391	 3.79292294230365E-02 
392	 3.75115530710169E-02 
393	 3.74632405404698E-02 
394	 3.77089867530841E-02 
395	 3.77674951390796E-02 
396	 3.75313820567295E-02 
397	 3.77210685202928E-02 
398	 3.81026849584673E-02 
399	 3.76986674923429E-02 
400	 3.77036804041773E-02 
401	 3.77207711133925E-02 
402	 3.75241827565713E-02 
403	 3.78638819732714E-02 
404	 3.80201867053184E-02 
405	 3.79941815558474E-02 
406	 3.80141661898508E-02 
407	 0.03794782531307 
408	 3.78499223467033E-02 
409	 0.037781793202555 
410	 3.77952889024555E-02 
411	 3.78689957745455E-02 
412	 3.79592364303349E-02 
413	 3.80121367080577E-02 
414	 3.79567369092277E-02 
415	 3.77983159621771E-02 
416	 3.77986480776823E-02 
417	 3.81758893499982E-02 
418	 0.038270709548292 
419	 3.82365399535235E-02 
420	 3.82472507519815E-02 
421	 3.84224365366088E-02 
422	 3.86184198010976E-02 
423	 3.86977493369368E-02 
424	 3.86518832915067E-02 
425	 3.88107915855647E-02 
426	 0.038954831116967 
427	 3.90917217905284E-02 
428	 3.93050526169221E-02 
429	 3.94064192324931E-02 
430	 3.94707395752482E-02 
431	 3.95599325560074E-02 
432	 3.96884321560105E-02 
433	 3.98223456661787E-02 
434	 3.99816264815258E-02 
435	 4.01809603308923E-02 
436	 4.04021723989663E-02 
437	 0.040503368915039 
438	 4.05799694186999E-02 
439	 4.08305263908676E-02 
440	 4.11312856120101E-02 
441	 4.13164095055617E-02 
442	 4.13944836069383E-02 
443	 4.16305477719111E-02 
444	 0.041826835139167 
445	 4.20017492708529E-02 
446	 4.22025421428844E-02 
447	 4.23468392485079E-02 
448	 4.25800179942505E-02 
449	 4.28372154846536E-02 
450	 4.29209730724807E-02 
451	 4.30489377372801E-02 
452	 0.043183037402359 
453	 4.33073386597533E-02 
454	 4.35386035707305E-02 
455	 4.36665148593398E-02 
456	 4.37692318105308E-02 
457	 4.39735904866802E-02 
458	 4.40727622281201E-02 
459	 4.40722614291513E-02 
460	 4.40785624049616E-02 
461	 4.42705762876707E-02 
462	 4.43688172692868E-02 
463	 4.44461998206152E-02 
464	 4.46075142565231E-02 
465	 4.48683214341515E-02 
466	 4.49397597513833E-02 
467	 4.49748603759701E-02 
468	 4.52724443901484E-02 
469	 4.54012587482451E-02 
470	 4.54885491479582E-02 
471	 4.56458638932642E-02 
472	 4.58924052729831E-02 
473	 4.61346919000267E-02 
474	 4.63213473181526E-02 
475	 4.64410492779492E-02 
476	 4.65503276402063E-02 
477	 4.67558027267329E-02 
478	 4.70064729845285E-02 
479	 0.047152203720471 
480	 4.72212435594899E-02 
481	 4.74019056277994E-02 
482	 4.77213734872347E-02 
483	 4.78317363534424E-02 
484	 4.80557164553761E-02 
485	 4.83336470948782E-02 
486	 4.85022817093432E-02 
487	 4.86302894521294E-02 
488	 4.88989280897122E-02 
489	 4.92039980768072E-02 
490	 4.91981319597507E-02 
491	 4.94578132319083E-02 
492	 4.98430834205287E-02 
493	 5.01465118322562E-02 
494	 5.03637688227361E-02 
495	 5.07494621638195E-02 
496	 5.11621193840683E-02 
497	 5.13262429340528E-02 
498	 5.17092981774097E-02 
499	 5.20686141342403E-02 
500	 0.052315925189339 
501	 5.27078537995459E-02 
502	 5.31900030003408E-02 
503	 5.36838935668041E-02 
504	 5.41109975756916E-02 
505	 5.44251325843433E-02 
506	 0.054826311834054 
507	 5.52805056610045E-02 
508	 5.55857409830119E-02 
509	 5.60184308653761E-02 
510	 5.64889941105545E-02 
511	 0.056922498009883 
512	 5.74358029575388E-02 
513	 5.78594868399816E-02 
514	 5.82620527869169E-02 
515	 5.87899626064381E-02 
516	 5.93498079202022E-02 
517	 5.98751631710213E-02 
518	 6.03384297270943E-02 
519	 6.07593610543746E-02 
520	 6.12989591590901E-02 
521	 6.18250916441188E-02 
522	 6.22461732782233E-02 
523	 6.28606912089173E-02 
524	 0.063361059062761 
525	 6.38014027774614E-02 
526	 6.44608936830307E-02 
527	 6.49834590154067E-02 
528	 0.065502448843452 
529	 6.60918411004937E-02 
530	 6.65609362516187E-02 
531	 6.71294245168445E-02 
532	 6.77420595482817E-02 
533	 6.82751970459805E-02 
534	 6.88679484008229E-02 
535	 0.069483045306976 
536	 7.00902385006327E-02 
537	 7.06773480200961E-02 
538	 7.13061282481993E-02 
539	 0.071940905120023 
540	 7.25508514495928E-02 
541	 7.31985258415069E-02 
542	 7.38806483668561E-02 
543	 7.45356274974514E-02 
544	 7.50945979522063E-02 
545	 7.57936961256137E-02 
546	 7.64885734547488E-02 
547	 7.71068899728227E-02 
548	 7.78168902867039E-02 
549	 7.84969782474084E-02 
550	 0.079141391115602 
551	 7.97890618290892E-02 
552	 8.04756639256121E-02 
553	 8.11570273609339E-02 
554	 8.18398206797228E-02 
555	 8.25851883159484E-02 
556	 8.32073007123577E-02 
557	 8.38111622296024E-02 
558	 8.44912941254303E-02 
559	 8.50910402263619E-02 
560	 0.085651815859519 
561	 8.62006739134264E-02 
562	 8.67539121187946E-02 
563	 8.72580535624654E-02 
564	 8.77867863027638E-02 
565	 8.83166542331131E-02 
566	 8.85865186169142E-02 
567	 0.08901251533011 
568	 8.94821261427207E-02 
569	 8.97447194141621E-02 
570	 8.99862128869856E-02 
571	 9.02652593877587E-02 
572	 9.05773028014532E-02 
573	 9.08556104434164E-02 
574	 9.09839407089007E-02 
575	 9.11249659042861E-02 
576	 9.13909476631455E-02 
577	 9.15219987780902E-02 
578	 9.15836125662199E-02 
579	 9.16249121706314E-02 
580	 9.16815658480503E-02 
581	 9.17307876236948E-02 
582	 9.17393276046405E-02 
583	 0.091698701131163 
584	 9.16482847412963E-02 
585	 9.15400644897554E-02 
586	 9.14149298073891E-02 
587	 9.13113208653532E-02 
588	 9.10490624042403E-02 
589	 0.090873744388043 
590	 9.08292602221385E-02 
591	 9.07076710259092E-02 
592	 9.05720123530585E-02 
593	 9.04161633303849E-02 
594	 9.02158019250815E-02 
595	 8.99148828591659E-02 
596	 8.95733703426762E-02 
597	 8.91518039639033E-02 
598	 8.85900605962474E-02 
599	 8.81784674511268E-02 
600	 8.77751641375889E-02 
601	 8.73366255647217E-02 
602	 8.70799685430047E-02 
603	 8.69202190827213E-02 
604	 8.67810191447664E-02 
605	 0.086623419183113 
606	 8.66192762063557E-02 
607	 0.086471615990861 
608	 8.62379579427717E-02 
609	 8.63385768674292E-02 
610	 8.62602841423802E-02 
611	 8.60430411053213E-02 
612	 8.58295774211136E-02 
613	 8.56953945957318E-02 
614	 8.55951690847466E-02 
615	 8.54758917861418E-02 
616	 8.52968279820869E-02 
617	 8.51584307922678E-02 
618	 8.50552731952354E-02 
619	 0.084977681455854 
620	 8.49349772179855E-02 
621	 8.49189312586835E-02 
622	 8.48406808677286E-02 
623	 8.46491548180528E-02 
624	 8.45965941283695E-02 
625	 8.45088404216065E-02 
626	 0.084365133636449 
627	 8.42984910470388E-02 
628	 8.41631630432444E-02 
629	 8.40176589479372E-02 
630	 8.39198936815765E-02 
631	 8.38224449755649E-02 
632	 8.37793967062537E-02 
633	 8.37225494057697E-02 
634	 8.35643021274591E-02 
635	 8.35386991714879E-02 
636	 8.35871685077989E-02 
637	 8.36293673585077E-02 
638	 8.35983632176469E-02 
639	 0.083547419225314 
640	 8.35383848710552E-02 
641	 8.36120991761302E-02 
642	 8.37315282114772E-02 
643	 8.37748067053183E-02 
644	 8.37118655219858E-02 
645	 8.35970110029528E-02 
646	 8.35480657555764E-02 
647	 8.35640450495305E-02 
648	 8.35605498853409E-02 
649	 8.33228152925035E-02 
650	 8.30725569761598E-02 
651	 8.27860911718613E-02 
652	 8.23739466175432E-02 
653	 8.19156403578255E-02 
654	 0.081338125986132 
655	 8.05972226073561E-02 
656	 7.98089752561509E-02 
657	 7.89983013852592E-02 
658	 7.81114164937219E-02 
659	 7.71385384403089E-02 
660	 7.63793365364745E-02 
661	 7.55449367024722E-02 
662	 0.074618865813761 
663	 7.37731322372098E-02 
664	 7.30250821108019E-02 
665	 7.24054682674254E-02 
666	 0.071846653449552 
667	 7.11137862990129E-02 
668	 7.06050352902149E-02 
669	 7.02343787031963E-02 
670	 6.98437645766344E-02 
671	 6.97764530713893E-02 
672	 6.97718091383404E-02 
673	 6.97581697279975E-02 
674	 6.98700726608896E-02 
675	 7.01948580768202E-02 
676	 7.05199613392057E-02 
677	 7.07382816077576E-02 
678	 7.11432290667075E-02 
679	 7.16672103855837E-02 
680	 7.22237115780847E-02 
681	 7.27536844207825E-02 
682	 7.34878584892063E-02 
683	 7.43575275604609E-02 
684	 7.52446631783932E-02 
685	 7.60817619726707E-02 
686	 7.71075175379674E-02 
687	 7.81558980449287E-02 
688	 7.89701394859645E-02 
689	 7.96991912274119E-02 
690	 8.05270793196086E-02 
691	 8.13213498769517E-02 
692	 8.18043311104103E-02 
693	 8.23966766109281E-02 
694	 8.27805519183267E-02 
695	 8.28582178906696E-02 
696	 8.30415038090182E-02 
697	 8.30174998508135E-02 
698	 8.28258064901378E-02 
699	 8.25909816792258E-02 
700	 8.22929176131375E-02 
701	 8.19460287440497E-02 
702	 8.15149244362906E-02 
703	 0.080921736949063 
704	 8.02443929400563E-02 
705	 7.95336846270075E-02 
706	 7.88297048041949E-02 
707	 7.81414610262475E-02 
708	 7.71526029066377E-02 
709	 7.59930674637669E-02 
710	 7.49113298416327E-02 
711	 7.37596503419333E-02 
712	 7.24609202661488E-02 
713	 7.10713497208713E-02 
714	 6.97468648319124E-02 
715	 6.84554782258859E-02 
716	 6.69598170932389E-02 
717	 6.52188015010623E-02 
718	 6.37940424973183E-02 
719	 0.061962939189084 
720	 6.02339079713377E-02 
721	 5.89769843187758E-02 
722	 0.057797445960598 
723	 5.62155078840105E-02 
724	 5.43743038305601E-02 
725	 5.28471392114062E-02 
726	 5.11682923307701E-02 
727	 4.92598854642429E-02 
728	 0.047192715229157 
729	 4.51288286339231E-02 
730	 4.29281837945475E-02 
731	 4.07999493519846E-02 
732	 3.89591201703554E-02 
733	 3.75442794223938E-02 
734	 3.63633028586986E-02 
735	 3.53263282318547E-02 
736	 3.44635455988131E-02 
737	 3.38612809261398E-02 
738	 3.33921614052301E-02 
739	 3.29576317706582E-02 
740	 3.26761362888265E-02 
741	 3.24323230466002E-02 
742	 3.22524754588436E-02 
743	 3.22132370933938E-02 
744	 0.032191116852311 
745	 0.032147922751347 
746	 3.20873299161237E-02 
747	 3.20543703541737E-02 
748	 3.20485796827158E-02 
749	 0.032112675810593 
750	 3.22196689967818E-02 
751	 3.20746375465887E-02 
752	 3.20891218737403E-02 
753	 3.21857425800988E-02 
754	 3.20788154083294E-02 
755	 3.22156856147953E-02 
756	 3.22383332648985E-02 
757	 3.21113967566753E-02 
758	 0.032455430856246 
759	 3.28371373283668E-02 
760	 3.29833365881276E-02 
761	 3.28672355909202E-02 
762	 3.30357410284675E-02 
763	 3.29063468134699E-02 
764	 3.26815697634296E-02 
765	 3.26925826498473E-02 
766	 3.28114083539797E-02 
767	 3.28715148409826E-02 
768	 3.29224657635927E-02 
769	 0.033190737114509 
770	 0.033359022516091 
771	 3.34776536464247E-02 
772	 3.36313377820451E-02 
773	 0.033778104809373 
774	 3.40021809488178E-02 
775	 3.42384916328886E-02 
776	 3.43856134022534E-02 
777	 3.45239522930037E-02 
778	 3.48011895027039E-02 
779	 3.51703029287004E-02 
780	 3.54014649839627E-02 
781	 3.56793795730635E-02 
782	 3.59477624192631E-02 
783	 3.61698500204806E-02 
784	 3.64417309061294E-02 
785	 3.68172585078518E-02 
786	 3.72153759817559E-02 
787	 3.75236365787121E-02 
788	 3.77777436233903E-02 
789	 3.80986803976396E-02 
790	 3.85580323997348E-02 
791	 0.039134170893896 
792	 3.93279507423149E-02 
793	 3.95534773266074E-02 
794	 4.00356350313052E-02 
795	 4.04774523730068E-02 
796	 4.07260047316677E-02 
797	 0.040969739063438 
798	 4.13836355200856E-02 
799	 0.041689654728433 
800	 4.19529136475652E-02 
801	 4.22154126623712E-02 
802	 4.24881406524939E-02 
803	 0.042613369993112 
804	 4.28069373682121E-02 
805	 4.30091861322657E-02 
806	 4.28568860386196E-02 
807	 0.04278814701822 
808	 4.28812811512933E-02 
809	 4.30078213637946E-02 
810	 4.26786592817982E-02 
811	 4.25798093577164E-02 
812	 4.25377083804308E-02 
813	 4.21246958804908E-02 
814	 4.18450520550645E-02 
815	 4.16535947201072E-02 
816	 0.041252212040364 
817	 4.03629314163671E-02 
818	 4.01895388629197E-02 
819	 3.98674522304266E-02 
820	 3.90729699611203E-02 
821	 3.83901127396793E-02 
822	 0.037243246155975 
823	 3.60295566912118E-02 
824	 3.50524021489216E-02 
825	 3.36679060015435E-02 
826	 3.23785207476135E-02 
827	 3.12221163567186E-02 
828	 3.00740680130631E-02 
829	 0.028522645524315 
830	 2.72510859399391E-02 
831	 2.63904397728875E-02 
832	 2.56350557523032E-02 
833	 2.47739841054253E-02 
834	 2.41453118183388E-02 
835	 2.38269560779138E-02 
836	 2.34947272171981E-02 
837	 2.33180183482318E-02 
838	 0.023058505404281 
839	 2.26292777208274E-02 
840	 2.25416372911051E-02 
841	 2.24156585676228E-02 
842	 2.21276982816171E-02 
843	 2.17314240320844E-02 
844	 2.15931098986682E-02 
845	 0.021508036632037 
846	 2.13852215781514E-02 
847	 2.12331710735343E-02 
848	 0.021057610504764 
849	 2.09064439513175E-02 
850	 0.020795734004653 
851	 2.06866083450595E-02 
852	 2.03680761570866E-02 
853	 2.00703666357291E-02 
854	 2.00100008442856E-02 
855	 2.01659368259403E-02 
856	 1.99396708716425E-02 
857	 1.97090935481767E-02 
858	 1.98276122578819E-02 
859	 1.94966150579614E-02 
860	 1.94872267551933E-02 
861	 1.95987636457105E-02 
862	 1.92676628523034E-02 
863	 1.90144676485607E-02 
864	 1.89942459972086E-02 
865	 1.90895487097423E-02 
866	 1.89855742396681E-02 
867	 1.89074014687531E-02 
868	 1.87092103971627E-02 
869	 1.83731199366432E-02 
870	 1.80995790064985E-02 
871	 1.80399921678391E-02 
872	 1.80750710009881E-02 
873	 1.80533163811283E-02 
874	 1.79184520135215E-02 
875	 1.76254061029689E-02 
876	 1.73371764907304E-02 
877	 1.72180430870434E-02 
878	 1.71973222549497E-02 
879	 1.71210314304536E-02 
880	 1.69050248788707E-02 
881	 1.65653425323164E-02 
882	 0.016338507551497 
883	 1.63490152223785E-02 
884	 1.63650173131782E-02 
885	 1.60096610257333E-02 
886	 1.60134899940187E-02 
887	 0.015806039937754 
888	 0.015379847485196 
889	 1.54584517272593E-02 
890	 0.015382447532699 
891	 1.54810300845145E-02 
892	 1.58421333559931E-02 
893	 1.57816506577862E-02 
894	 1.55377293774688E-02 
895	 1.53099110967436E-02 
896	 1.51854762831274E-02 
897	 1.48318563986114E-02 
898	 1.51136987853888E-02 
899	 1.54044042895064E-02 
900	 1.49966319712442E-02 
901	 1.48292009868939E-02 
902	 1.46157081948744E-02 
903	 1.46073854228394E-02 
904	 1.49800078557496E-02 
905	 1.45251556173052E-02 
906	 1.44544479768879E-02 
907	 1.46685499268812E-02 
908	 1.42487165841615E-02 
909	 1.43529555073561E-02 
910	 1.46172504249969E-02 
911	 1.46969568212933E-02 
912	 1.44701854442491E-02 
913	 1.42872655986744E-02 
914	 1.40422815472981E-02 
915	 1.37760434287081E-02 
916	 1.36987831706618E-02 
917	 1.32771016343852E-02 
918	 1.28275302505265E-02 
919	 0.012663623184795 
920	 1.28999851111856E-02 
921	 1.30294083523216E-02 
922	 1.31838442572387E-02 
923	 1.34895339195013E-02 
924	 1.37949743008279E-02 
925	 1.29347882290656E-02 
926	 1.21343671228182E-02 
927	 0.012686365392309 
928	 0.012844306617778 
929	 1.42167371401391E-02 
930	 1.58348704544708E-02 
931	 1.52451640479453E-02 
932	 1.27989762809062E-02 
933	 1.33191362856631E-02 
934	 1.50450558342724E-02 
935	 1.36239804745974E-02 
936	 1.29602815852133E-02 
937	 1.34814889078252E-02 
938	 1.50163330455579E-02 
939	 1.62552183233927E-02 
940	 1.18240162814758E-02 
941	 1.26924141324994E-02 
942	 1.55381059687234E-02 
943	 1.21218015466388E-02 
944	 1.28133220188905E-02 
945	 1.49933020706627E-02 
946	 1.56964500582445E-02 
947	 1.35684205911892E-02 
948	 1.25352158317719E-02 
949	 1.32733836203161E-02 
950	 1.39778626090782E-02 
951	 1.23677381562184E-02 
952	 1.15293941571452E-02 
953	 1.17689969272147E-02 
954	 1.25873052775609E-02 
955	 1.31563152405849E-02 
956	 1.33782262950328E-02 
957	 1.34857837180457E-02 
958	 1.31900399828516E-02 
959	 1.23043124867349E-02 
960	 1.41612041256097E-02 
961	 1.44327598501259E-02 
962	 1.32826956795299E-02 
963	 1.38071158834157E-02 
964	 1.31077781943673E-02 
965	 1.22802572654954E-02 
966	 1.19113239846117E-02 
967	 1.19246773991344E-02 
968	 1.22753005743997E-02 
969	 1.25580851950713E-02 
970	 1.21898920361968E-02 
971	 0.010876624627079 
972	 1.17692040190744E-02 
973	 1.27885926317162E-02 
974	 1.29009679144205E-02 
975	 1.26985341949979E-02 
976	 1.17382544688249E-02 
977	 1.19140122021372E-02 
978	 1.28166479713805E-02 
979	 1.22357640487839E-02 
980	 0.011335192439327 
981	 1.15785418648725E-02 
982	 1.23152982289166E-02 
983	 1.15024699829681E-02 
984	 9.70592124363249E-03 
985	 1.03604019143605E-02 
986	 1.22383965898796E-02 
987	 1.11939438207011E-02 
988	 1.09821502839543E-02 
989	 1.17611512834633E-02 
990	 1.27841939533301E-02 
991	 0.012881427505197 
992	 1.11840946910894E-02 
993	 1.01880336033825E-02 
994	 0.010327636820472 
995	 1.04676968896558E-02 
996	 1.11349896646768E-02 
997	 1.26368238102137E-02 
998	 1.30976056326964E-02 
999	 1.07358042616113E-02 
1000	 1.13116332939592E-02 
1001	 1.11358730589351E-02 
1002	 1.13853814887913E-02 
1003	 1.14864799731692E-02 
1004	 1.12136464336916E-02 
1005	 1.12699812400679E-02 
1006	 1.15685114724234E-02 
1007	 1.20037569004496E-02 
1008	 1.22401914553203E-02 
1009	 1.21872585183745E-02 
1010	 1.22109637880458E-02 
1011	 1.19319090842358E-02 
1012	 1.15897739477237E-02 
1013	 1.15490515175528E-02 
1014	 1.15183946936039E-02 
1015	 1.15928239947899E-02 
1016	 1.15858139234787E-02 
1017	 1.16485148562083E-02 
1018	 1.16253215530258E-02 
1019	 1.15461553509926E-02 
1020	 1.14512940612132E-02 
1021	 1.12391058002792E-02 
1022	 1.12442314313154E-02 
1023	 1.12494263222601E-02 
1024	 1.11573507159519E-02 
1025	 1.15879747037189E-02 
1026	 1.18720759938264E-02 
1027	 1.18913870325252E-02 
1028	 1.17652902226245E-02 
1029	 1.18321826215164E-02 
1030	 1.18072590301745E-02 
1031	 0.011762274902451 
1032	 1.19027869006124E-02 
1033	 1.17778556459193E-02 
1034	 1.11263953695302E-02 
1035	 1.10131669319755E-02 
1036	 1.10848360915461E-02 
1037	 1.12816299869437E-02 
1038	 1.20217008194133E-02 
1039	 1.24450222501757E-02 
1040	 1.21357719101543E-02 
1041	 1.24041262965629E-02 
1042	 1.21147656525507E-02 
1043	 0.011126787090415 
1044	 1.09328883558609E-02 
1045	 1.09358582395341E-02 
1046	 1.09338801772384E-02 
1047	 1.13161916712984E-02 
1048	 1.14805535430258E-02 
1049	 1.17243332140077E-02 
1050	 1.16561390365942E-02 
1051	 1.12594760296725E-02 
1052	 0.011168921909987 
1053	 1.08210691756943E-02 
1054	 0.01078177548818 
1055	 1.13664397367534E-02 
1056	 1.15833108232497E-02 
1057	 1.17066167693575E-02 
1058	 1.17569082717865E-02 
1059	 1.18200981742946E-02 
1060	 1.18298267435532E-02 
1061	 1.16349766254058E-02 
1062	 1.11841283965984E-02 
1063	 1.11516852407922E-02 
1064	 1.09843275568327E-02 
1065	 1.11091763396308E-02 
1066	 1.20703531331116E-02 
1067	 1.22530866546557E-02 
1068	 1.20337032696908E-02 
1069	 1.19234094752056E-02 
1070	 1.12123388017002E-02 
1071	 1.10428395297064E-02 
1072	 1.13407968739168E-02 
1073	 1.15922706478485E-02 
1074	 1.15972253301119E-02 
1075	 1.17137397788177E-02 
1076	 1.17318293869301E-02 
1077	 0.01142520815978 
1078	 1.12905756187739E-02 
1079	 1.13581028505927E-02 
1080	 1.12422354281295E-02 
1081	 1.08373095066846E-02 
1082	 1.07765821425756E-02 
1083	 0.010849842152365 
1084	 1.09767436400073E-02 
1085	 1.15435588940998E-02 
1086	 1.16136445644584E-02 
1087	 1.11325840750158E-02 
1088	 0.0111752666512 
1089	 1.11773125496543E-02 
1090	 1.15490985744296E-02 
1091	 1.15594539177785E-02 
1092	 1.18385842507779E-02 
1093	 1.18559447893159E-02 
1094	 1.12598966015861E-02 
1095	 1.11432393796428E-02 
1096	 1.16615998446046E-02 
1097	 1.16379613913957E-02 
1098	 1.09815025878164E-02 
1099	 1.10321831722086E-02 
1100	 1.14472895787907E-02 
1101	 1.15564629931767E-02 
1102	 1.22328445361547E-02 
1103	 1.25096519663174E-02 
1104	 1.26031783917176E-02 
1105	 1.15216811953397E-02 
1106	 1.17064028670756E-02 
1107	 1.23047952572588E-02 
1108	 0.012055289568493 
1109	 1.25455572029118E-02 
1110	 0.012947248873514 
1111	 1.30416643791431E-02 
1112	 1.28388568483929E-02 
1113	 1.29398032808671E-02 
1114	 1.29264683439467E-02 
1115	 1.15401160875172E-02 
1116	 1.14751636081898E-02 
1117	 1.39836368852802E-02 
1118	 1.45468832212831E-02 
1119	 1.28948468485077E-02 
1120	 1.23846936185665E-02 
1121	 8.93055567158497E-03 
1122	 1.15254181900144E-02 
1123	 1.58709394457733E-02 
1124	 0.020873861405168 
1125	 0.022553243678022 
1126	 1.29610399452489E-02 
1127	 8.28055661207603E-03 
1128	 1.27956934037579E-02 
1129	 1.21347929478426E-02 
1130	 1.45306606786988E-02 
1131	 1.46878560796298E-02 
1132	 9.44652195921016E-03 
1133	 8.75764341273133E-03 
1134	 1.28411122594365E-02 
1135	 1.42324585562315E-02 
1136	 1.53762952470274E-02 
1137	 1.54379102691071E-02 
1138	 1.53436837506248E-02 
1139	 1.15647439033587E-02 
1140	 1.20798578265565E-02 
1141	 1.45010306372637E-02 
1142	 1.29134600801598E-02 
1143	 0.013881231916451 
1144	 1.54758264152108E-02 
1145	 1.41615233765657E-02 
1146	 0.015303924249573 
1147	 1.60399215322357E-02 
1148	 1.43419066648831E-02 
1149	 1.39618344573491E-02 
1150	 1.39513201447893E-02 
1151	 1.56669081869841E-02 
1152	 1.58421257121532E-02 
1153	 1.49747668189296E-02 
1154	 1.46173253410136E-02 
1155	 1.44375001559709E-02 
1156	 1.39882072705803E-02 
1157	 1.31884254614098E-02 
1158	 0.012721335859075 
1159	 1.20908520359237E-02 
1160	 1.18099293842349E-02 
1161	 1.23928854646204E-02 
1162	 1.30236462309732E-02 
1163	 1.28135044272272E-02 
1164	 1.22925048616985E-02 
1165	 1.21830685617755E-02 
1166	 0.012065881921978 
1167	 1.17021890789442E-02 
1168	 1.21199126497015E-02 
1169	 1.21085572913347E-02 
1170	 1.11705671786815E-02 
1171	 1.09770666781459E-02 
1172	 1.14280792584517E-02 
1173	 1.12785066095746E-02 
1174	 1.08627990896924E-02 
1175	 1.08997999240692E-02 
1176	 0.011090553862592 
1177	 1.12226718152699E-02 
1178	 1.13792788297539E-02 
1179	 1.16738605966722E-02 
1180	 1.16632452543493E-02 
1181	 1.12803768435546E-02 
1182	 1.10010249494391E-02 
1183	 1.11213086038757E-02 
1184	 1.13236711054341E-02 
1185	 0.011216978972317 
1186	 0.011071171855876 
1187	 1.13131541123387E-02 
1188	 1.15981520421049E-02 
1189	 1.13023870082293E-02 
1190	 1.12121051436084E-02 
1191	 1.15070427250794E-02 
1192	 1.14592555349001E-02 
1193	 1.10916111669397E-02 
1194	 1.10253822669728E-02 
1195	 1.12537369206917E-02 
1196	 1.13736933800005E-02 
1197	 1.13198403547278E-02 
1198	 1.11831758124807E-02 
1199	 1.10624615356634E-02 
1200	 0.010404680077621 
1201	 0.010238557018364 
1202	 1.11259263422302E-02 
1203	 1.13000208188732E-02 
1204	 1.07542269345572E-02 
1205	 0.010604867541915 
1206	 1.05740705138522E-02 
1207	 1.05784521849023E-02 
1208	 1.09146110405491E-02 
1209	 1.10616194288351E-02 
1210	 1.06583356970902E-02 
1211	 1.05008133532163E-02 
1212	 1.10066553838078E-02 
1213	 0.01125280511231 
1214	 0.011279613762876 
1215	 1.11431255277308E-02 
1216	 1.11396954390897E-02 
1217	 1.09139367343681E-02 
1218	 1.04790478312358E-02 
1219	 1.05026311832969E-02 
1220	 1.10411136076339E-02 
1221	 1.10977526945934E-02 
1222	 1.10131525998522E-02 
1223	 1.11435144585517E-02 
1224	 1.07990265909544E-02 
1225	 1.04677918875165E-02 
1226	 1.07990896144826E-02 
1227	 1.12058242027228E-02 
1228	 1.09784915728973E-02 
1229	 1.06544000317692E-02 
1230	 1.05690531055744E-02 
1231	 1.02968500838378E-02 
1232	 1.02088173977587E-02 
1233	 1.04594327968908E-02 
1234	 1.03861029908241E-02 
1235	 1.04034843951289E-02 
1236	 0.010627575267463 
1237	 1.06692393715615E-02 
1238	 1.05508499963916E-02 
1239	 1.04395176928518E-02 
1240	 1.06014844829379E-02 
1241	 1.04982058125979E-02 
1242	 1.03851879754256E-02 
1243	 1.06252907045347E-02 
1244	 1.06998547468933E-02 
1245	 0.010356518508473 
1246	 1.01253949027492E-02 
1247	 1.03603511373761E-02 
1248	 1.07763163399046E-02 
1249	 1.07199615586456E-02 
1250	 1.03431367381377E-02 
1251	 1.04075125252071E-02 
1252	 1.07499427319443E-02 
1253	 1.08192965108655E-02 
1254	 1.06057512750906E-02 
1255	 1.04476598182185E-02 
1256	 1.05967990315428E-02 
1257	 1.05454407595895E-02 
1258	 0.010400263362936 
1259	 1.07226922013778E-02 
1260	 1.08937266225687E-02 
1261	 1.04048125820254E-02 
1262	 0.010195518981981 
1263	 1.04152280141105E-02 
1264	 1.08779641990734E-02 
1265	 0.010621147788893 
1266	 1.03692461973097E-02 
1267	 1.06964049661576E-02 
1268	 1.07128114883263E-02 
1269	 1.05958516999951E-02 
1270	 1.07587934866665E-02 
1271	 1.08000096272802E-02 
1272	 1.08922958825116E-02 
1273	 1.09675121468244E-02 
1274	 1.06466908183989E-02 
1275	 1.05284503377918E-02 
1276	 1.05331929752379E-02 
1277	 1.03745047760897E-02 
1278	 1.04836948018176E-02 
1279	 1.07339140572817E-02 
1280	 1.08107063553172E-02 
1281	 1.07523963409076E-02 
1282	 1.06522573941937E-02 
1283	 1.05217769338652E-02 
1284	 9.95526881912453E-03 
1285	 9.85161650960982E-03 
1286	 1.01503204481701E-02 
1287	 1.01861548571257E-02 
1288	 1.03865820696621E-02 
1289	 1.04966061825616E-02 
1290	 1.05959514037045E-02 
1291	 0.010137252268687 
1292	 9.92700966402387E-03 
1293	 9.79892849235731E-03 
1294	 9.90531248945915E-03 
1295	 1.04632543577517E-02 
1296	 1.03567317612255E-02 
1297	 9.70700654469441E-03 
1298	 9.69842041294914E-03 
1299	 1.01439957630657E-02 
1300	 1.03295678774816E-02 
1301	 1.03728870630809E-02 
1302	 0.010458894378119 
1303	 1.02185504813329E-02 
1304	 1.01930167082007E-02 
1305	 1.10514059355189E-02 
1306	 1.12513203369066E-02 
1307	 1.04852019156948E-02 
1308	 1.04599588002248E-02 
1309	 1.09435232088559E-02 
1310	 1.11510118392899E-02 
1311	 0.011596630741059 
1312	 1.17763462990474E-02 
1313	 1.16556107103199E-02 
1314	 0.011484677961845 
1315	 1.09874410161012E-02 
1316	 1.08578302960585E-02 
1317	 1.10717263935058E-02 
1318	 1.09840338386854E-02 
1319	 1.06031833502381E-02 
1320	 1.07163007269107E-02 
1321	 1.10499730829078E-02 
1322	 1.10386089355351E-02 
1323	 1.07762668152296E-02 
1324	 1.14185253720242E-02 
1325	 1.20650623678949E-02 
1326	 1.15339763690647E-02 
1327	 1.14960916864716E-02 
1328	 1.29827644575411E-02 
1329	 1.34854521436658E-02 
1330	 1.28399961446667E-02 
1331	 1.26340804693819E-02 
1332	 1.23947693493192E-02 
1333	 1.22198132352739E-02 
1334	 1.27979018055073E-02 
1335	 1.31112806689249E-02 
1336	 1.38399030578223E-02 
1337	 1.35847154742629E-02 
1338	 1.28354598420548E-02 
1339	 1.27714923551852E-02 
1340	 1.21716311320404E-02 
1341	 1.24390418315356E-02 
1342	 1.41640449592677E-02 
1343	 1.40224722636549E-02 
1344	 1.28541162942836E-02 
1345	 1.27157263493997E-02 
1346	 0.011398441265197 
1347	 1.06838083396508E-02 
1348	 0.011992299209632 
1349	 1.36426779433656E-02 
1350	 1.88253474134517E-02 
1351	 1.94386445408871E-02 
1352	 1.09282520144732E-02 
1353	 9.38599103299932E-03 
1354	 1.48369397156042E-02 
1355	-1.37549313726641E-02 
1356	-3.95185626099079E-02 
1357	-3.05929972062221E-02 
1358	-6.72206146626867E-02 
1359	-0.107648646370946 
1360	-6.61632474004717E-02 
1361	-4.09827473502384E-02 
1362	-0.181547185511153 
1363	-0.253075736648544 
1364	-0.290644451691684 
1365	-0.309136489718304 
1366	-0.134349545308868 
1367	-6.98477682173607E-02 
1368	-8.44146047123482E-02 
1369	-3.33737952753255E-02 
1370	 1.27541716933566E-02 
1371	-0.209250733013283 
1372	-0.239208697596559 
1373	 0.116720457440217 
1374	 0.148703824952978 
1375	-0.192378548860316 
1376	-0.136327369382187 
1377	 0.248552449869058 
1378	 0.520678304842718 
1379	 1.043702020596 
1380	 0.958538755456851 
1381	 0.184828198799599 
1382	 3.85693252529487E-02 
1383	-0.10549281014218 
1384	-7.34718533759904E-02 
1385	 0.709901228235573 
1386	 0.75463707237854 
1387	-6.28756098901469E-02 
1388	-0.229392498558244 
1389	-0.186875024552994 
1390	-0.281619613572117 
1391	-0.385710532844814 
1392	-9.73640108366344E-02 
1393	 0.343815855895671 
1394	 0.705038892149251 
1395	 0.274969195847475 
1396	 0.132494091424158 
1397	 0.183713243606651 
1398	-0.141693136370959 
1399	-0.139146148780486 
1400	 9.20876279093541E-02 
1401	 0.216111037703622 
1402	 0.186311612067089 
1403	-1.52008661233944E-02 
1404	-0.176262250119688 
1405	-9.00045353552428E-02 
1406	-0.435906467075673 
1407	-0.384948074790369 
1408	 0.082839073185713 
1409	 0.144121951625649 
1410	 4.75153550594653E-02 
1411	 3.68330865127558E-02 
1412	 0.139925214234579 
1413	 0.11518440027169 
1414	 9.6310190108486E-03 
1415	-3.09568884231686E-02 
1416	-9.02261602453988E-02 
1417	-4.01693760714411E-02 
1418	 8.30668782218972E-02 
1419	 9.33888071854039E-02 
1420	 0.119335821828271 
1421	 0.114636849088244 
1422	 5.34568148713822E-02 
1423	 3.18016728665687E-02 
1424	 2.87995705701622E-02 
1425	 2.59067806422497E-02 
1426	 1.78750082090109E-02 
1427	 1.73513157598015E-02 
1428	 2.62300123989034E-02 
1429	 2.55648992220187E-02 
1430	 0.025512607288004 
1431	 2.21761116401356E-02 
1432	 8.53525536241333E-03 
1433	 5.76247452773782E-03 
1434	 9.10940473431651E-03 
1435	 7.20831816410887E-03 
1436	 8.62860852954782E-03 
1437	 1.00216195810753E-02 
1438	 1.12038456054649E-02 
1439	 6.41701343274338E-04 
1440	 4.43639132577857E-03 
1441	 1.42998332922977E-02 
1442	 5.97879731816709E-03 
1443	 1.09515427025464E-02 
1444	 2.04697117227268E-02 
1445	 1.58866605221207E-02 
1446	 1.08544199226624E-02 
1447	 9.85412860591921E-03 
1448	 1.40200691670063E-02 
1449	 1.54244845513229E-02 
1450	 9.70150670913102E-03 
1451	 1.00335722651296E-02 
1452	 1.15381683447395E-02 
1453	 8.53595562450858E-03 
1454	 8.15400471607281E-03 
1455	 1.36578883276562E-02 
1456	 1.38832666887928E-02 
1457	 9.75890073371547E-03 
1458	 9.27471407651828E-03 
1459	 1.12339140106906E-02 
1460	 1.09946652050869E-02 
1461	 8.7885817254111E-03 
1462	 8.39896258474662E-03 
1463	 8.84197246501416E-03 
1464	 9.07805321378996E-03 
1465	 9.34477487438252E-03 
1466	 1.09902486106696E-02 
1467	 1.50735562819562E-02 
1468	 0.015786136723373 
1469	 1.69846811233754E-02 
1470	 1.47555114130179E-02 
1471	 4.77958163116737E-03 
1472	 3.44360187746057E-03 
1473	 5.64677158497069E-03 
1474	 6.53010520495651E-03 
1475	 1.21636734482922E-02 
1476	 1.33454375003776E-02 
1477	 1.06881372725317E-02 
1478	 9.83510970340309E-03 
1479	 9.78197370270451E-03 
1480	 8.92357945726455E-03 
1481	 6.52024992479429E-03 
1482	 6.07882197302626E-03 
1483	 7.25557247824656E-03 
1484	 6.82273764450115E-03 
1485	 5.92612232650887E-03 
1486	 5.88087348435501E-03 
1487	 6.04646449405744E-03 
1488	 5.35621082629797E-03 
1489	 4.17739457784883E-03 
1490	 4.52830092837405E-03 
1491	 5.17630881900507E-03 
1492	 5.2184929311006E-03 
1493	 6.32909830833979E-03 
1494	 6.4565789413942E-03 
1495	 5.06886304760133E-03 
1496	 4.67591755509847E-03 
1497	 4.58896429747606E-03 
1498	 4.63019228296982E-03 
1499	 0.005314752693894 
1500	 5.50956633935007E-03 
1501	 5.69350238862445E-03 
1502	 5.46845377089163E-03 
1503	 4.13419974327098E-03 
1504	 4.07380682076333E-03 
1505	 4.53414665761676E-03 
1506	 5.05522907898938E-03 
1507	 5.48729759569181E-03 
1508	 6.07425205135725E-03 
1509	 5.65024223615387E-03 
1510	 4.97172526332451E-03 
1511	 5.43753952403532E-03 
1512	 5.52157464707138E-03 
1513	 5.05972004980914E-03 
1514	 5.12037586914265E-03 
1515	 5.59773816587942E-03 
1516	 5.96583446052862E-03 
1517	 5.90609770241029E-03 
1518	 6.06250107214087E-03 
1519	 6.12539435782401E-03 
1520	 5.69467283169719E-03 
1521	 5.80542650661668E-03 
1522	 6.30430892265023E-03 
1523	 6.09990834508675E-03 
1524	 5.65276337932989E-03 
1525	 5.69108384011246E-03 
1526	 5.75167822093483E-03 
1527	 5.60964517602159E-03 
1528	 5.50697642287005E-03 
1529	 5.72096960708383E-03 
1530	 5.97527193235529E-03 
1531	 5.73587583973235E-03 
1532	 5.76510680106942E-03 
1533	 6.15223075973639E-03 
1534	 5.93583963507403E-03 
1535	 5.4586539242075E-03 
1536	 5.21673650193995E-03 
1537	 5.16389999970057E-03 
1538	 5.26336408496323E-03 
1539	 5.87331131626808E-03 
1540	 6.56866282481764E-03 
1541	 6.42889597549457E-03 
1542	 6.25742872429387E-03 
1543	 6.34607317724478E-03 
1544	 6.30516370781922E-03 
1545	 6.33330575462146E-03 
1546	 6.23521969176407E-03 
1547	 5.98999894649741E-03 
1548	 5.80318892680819E-03 
1549	 5.84879749064878E-03 
1550	 6.11271188508216E-03 
1551	 6.39251940102965E-03 
1552	 6.69481148626977E-03 
1553	 6.58288751479854E-03 
1554	 6.06426610597142E-03 
1555	 5.8236147415563E-03 
1556	 5.97280497123893E-03 
1557	 6.20593990915273E-03 
1558	 6.2003513053617E-03 
1559	 6.29205177404844E-03 
1560	 6.3405533404009E-03 
1561	 6.03635843133696E-03 
1562	 6.08728458793761E-03 
1563	 6.41474220614807E-03 
1564	 6.38921316184483E-03 
1565	 6.54633363211469E-03 
1566	 7.17442040549995E-03 
1567	 7.26901326962789E-03 
1568	 6.71151185445258E-03 
1569	 6.24316702957418E-03 
1570	 6.14567572755901E-03 
1571	 6.35457185057333E-03 
1572	 6.64480838565148E-03 
1573	 6.67476206042443E-03 
1574	 6.63342096549531E-03 
1575	 6.66202359089429E-03 
1576	 6.6710165700442E-03 
1577	 6.90185652349737E-03 
1578	 6.88613925326794E-03 
1579	 6.94567489210166E-03 
1580	 7.10207198368359E-03 
1581	 7.01832088695058E-03 
1582	 7.29616769519837E-03 
1583	 7.08670915195874E-03 
1584	 6.4387573041972E-03 
1585	 6.52640910451053E-03 
1586	 7.0394387814997E-03 
1587	 7.20622922169369E-03 
1588	 7.16483641771295E-03 
1589	 7.45501951430513E-03 
1590	 7.51724990006196E-03 
1591	 7.3890319072207E-03 
1592	 7.64491015811929E-03 
1593	 7.77669796394701E-03 
1594	 7.55670355837205E-03 
1595	 7.42655664577783E-03 
1596	 7.52023832115205E-03 
1597	 7.29415517575204E-03 
1598	 7.10208250155519E-03 
1599	 7.6157257731554E-03 
1600	 7.9294750477174E-03 
1601	 7.65235502820441E-03 
1602	 7.7199158721393E-03 
1603	 7.56515758736936E-03 
1604	 6.77334979898041E-03 
1605	 6.91202437608364E-03 
1606	 7.45221480036445E-03 
1607	 7.33170301451088E-03 
1608	 7.52006067196546E-03 
1609	 7.88890218093269E-03 
1610	 7.68513747552672E-03 
1611	 7.41341736023913E-03 
1612	 7.70097181810481E-03 
1613	 8.15914425170539E-03 
1614	 7.82002898876466E-03 
1615	 7.22744723544712E-03 
1616	 7.38856623469455E-03 
1617	 7.50498042844775E-03 
1618	 7.59458193364908E-03 
1619	 8.03618309659056E-03 
1620	 7.83260942539664E-03 
1621	 7.42108892643447E-03 
1622	 7.57391198072089E-03 
1623	 7.31383442792655E-03 
1624	 7.02625249414825E-03 
1625	 7.23006007276587E-03 
1626	 6.8206170095263E-03 
1627	 6.74309831958192E-03 
1628	 7.57365110930852E-03 
1629	 7.75717683749481E-03 
1630	 7.66620073023701E-03 
1631	 7.95602970382748E-03 
1632	 7.60940811094548E-03 
1633	 7.00719576204718E-03 
1634	 7.18084971176872E-03 
1635	 7.57471707726157E-03 
1636	 7.82028769788469E-03 
1637	 8.04985597781862E-03 
1638	 8.11780248808375E-03 
1639	 7.98027194149246E-03 
1640	 7.82933624145887E-03 
1641	 7.69263325974303E-03 
1642	 7.45728072772417E-03 
1643	 7.19978517315242E-03 
1644	 7.32669989663151E-03 
1645	 8.04662383513834E-03 
1646	 8.38242417997419E-03 
1647	 8.16029050832763E-03 
1648	 7.94262585779279E-03 
1649	 7.57075956086727E-03 
1650	 7.23383886641705E-03 
1651	 7.27002157171979E-03 
1652	 7.70416986214401E-03 
1653	 8.57765245529521E-03 
1654	 8.75387775281878E-03 
1655	 8.38057404524922E-03 
1656	 8.29257311884518E-03 
1657	 8.12593902417047E-03 
1658	 8.09443907849773E-03 
1659	 8.29367362757912E-03 
1660	 8.56249285725674E-03 
1661	 8.66927784637274E-03 
1662	 8.64893513757079E-03 
1663	 9.05148778730692E-03 
1664	 9.02076999583261E-03 
1665	 8.47830628411266E-03 
1666	 8.38776448100202E-03 
1667	 8.23414072440347E-03 
1668	 7.95895837304357E-03 
1669	 8.25467371320635E-03 
1670	 7.90817735018202E-03 
1671	 7.38326713967092E-03 
1672	 7.74278180374367E-03 
1673	 8.00605271740486E-03 
1674	 8.02929601279965E-03 
1675	 8.74788989324563E-03 
1676	 9.43995179414376E-03 
1677	 8.99803715342891E-03 
1678	 8.5546626899833E-03 
1679	 8.86824592962352E-03 
1680	 8.34099535151833E-03 
1681	 7.67935573165629E-03 
1682	 8.26690001497313E-03 
1683	 8.19664922179006E-03 
1684	 7.28588580472866E-03 
1685	 7.35658713438831E-03 
1686	 7.47142821778968E-03 
1687	 7.77782004305323E-03 
1688	 9.08891262830434E-03 
1689	 9.21614425006106E-03 
1690	 8.7442903685428E-03 
1691	 8.92199369262229E-03 
1692	 8.63252365857458E-03 
1693	 8.51173491802182E-03 
1694	 8.75392004516915E-03 
1695	 8.70127909248135E-03 
1696	 8.20578510955806E-03 
1697	 8.25660955303411E-03 
1698	 9.59872070555195E-03 
1699	 9.96517097044763E-03 
1700	 9.22945315977568E-03 
1701	 8.9389311646011E-03 
1702	 8.30863007156161E-03 
1703	 8.00948904951993E-03 
1704	 8.61628115189916E-03 
1705	 8.88645651483592E-03 
1706	 8.78091800301303E-03 
1707	 7.96235887706978E-03 
1708	 7.26170820045989E-03 
1709	 8.39057385072121E-03 
1710	 9.06530647864207E-03 
1711	 8.28768318441356E-03 
1712	 8.42237771643357E-03 
1713	 7.97981370608407E-03 
1714	 7.56779858759123E-03 
1715	 8.00108938476248E-03 
1716	 8.66383554529472E-03 
1717	 8.73526156568508E-03 
1718	 8.70559417140981E-03 
1719	 8.62051072134882E-03 
1720	 8.70461194187272E-03 
1721	 8.8755753886336E-03 
1722	 9.13709217098818E-03 
1723	 9.28179410825033E-03 
1724	 8.66236402539926E-03 
1725	 8.86403952713117E-03 
1726	 1.05964518639762E-02 
1727	 1.05416063100812E-02 
1728	 8.57489030250545E-03 
1729	 7.81841299231904E-03 
1730	 7.66213480253167E-03 
1731	 7.77923188330651E-03 
1732	 9.07877374846929E-03 
1733	 9.51177683481383E-03 
1734	 8.55190865698417E-03 
1735	 8.52621843148731E-03 
1736	 9.80381276692126E-03 
1737	 9.88554992446858E-03 
1738	 9.05156868867409E-03 
1739	 9.11465105857573E-03 
1740	 8.5530305294485E-03 
1741	 7.77181694198537E-03 
1742	 8.27058695538632E-03 
1743	 8.19484184349914E-03 
1744	 7.85674268537208E-03 
1745	 9.1059160984984E-03 
1746	 1.05113496480405E-02 
1747	 1.05442629068215E-02 
1748	 9.47535787617322E-03 
1749	 9.27794335194506E-03 
1750	 8.85727272880898E-03 
1751	 0.008560431646562 
1752	 8.9383005671535E-03 
1753	 8.98421130078315E-03 
1754	 8.46954579757504E-03 
1755	 8.34952509295073E-03 
1756	 8.76055017302703E-03 
1757	 0.009257039126137 
1758	 9.12250240024779E-03 
1759	 9.03303951539245E-03 
1760	 8.99727573248793E-03 
1761	 8.24083473036638E-03 
1762	 7.87944141825976E-03 
1763	 8.49821028346816E-03 
1764	 8.6372705592676E-03 
1765	 8.61008340906209E-03 
1766	 9.18795082749279E-03 
1767	 9.56465185582117E-03 
1768	 9.42448932519093E-03 
1769	 1.01791040646379E-02 
1770	 1.12096559789746E-02 
1771	 1.05619831497289E-02 
1772	 9.70695380092636E-03 
1773	 8.9759191901502E-03 
1774	 7.4285302301541E-03 
1775	 8.80453631171367E-03 
1776	 9.69568114576116E-03 
1777	 0.011180739131729 
1778	 1.15812777636147E-02 
1779	 9.96677836200985E-03 
1780	 9.59225101888607E-03 
1781	 9.5307550383908E-03 
1782	 9.19704442969073E-03 
1783	 1.12183611631789E-02 
1784	 1.13736519901761E-02 
1785	 8.48850738775305E-03 
1786	 6.99853921410733E-03 
1787	 4.26686435890515E-03 
1788	 4.46857342922654E-03 
1789	 8.11907714829576E-03 
1790	 1.25746900202103E-02 
1791	 1.58352691591988E-02 
1792	 1.38683030414848E-02 
1793	 7.96715312197938E-03 
1794	 9.01208016484084E-03 
1795	 7.51175738498491E-03 
1796	 2.97085695209854E-03 
1797	 8.67419440580408E-03 
1798	-2.98668913429929E-04 
1799	-1.00720636005946E-02 
1800	 8.01811313697228E-03 
1801	 1.56019198551238E-02 
1802	 3.39956611745304E-02 
1803	 0.04838445876157 
1804	 4.14685646327646E-02 
1805	 4.33177807013082E-02 
1806	 4.65196718526125E-02 
1807	 4.19597321586866E-02 
1808	 0.035715673867674 
1809	 1.34954961195709E-02 
1810	-6.10703068016788E-02 
1811	-7.83432701738627E-02 
1812	-6.41779273263013E-02 
1813	-1.22791603957127E-02 
1814	 0.289790054402857 
1815	 0.320237615422094 
1816	 0.121176819345131 
1817	-3.43849694780206E-03 
1818	-0.246306300628809 
1819	-0.333563782329001 
1820	-0.267562593934283 
1821	-2.95265164647374E-02 
1822	 0.162398358399314 
1823	 0.995526087565319 
1824	 1.29365820882004 
1825	-0.168097516309767 
1826	-0.365846228529197 
1827	-5.98438244356425E-02 
1828	-0.16770872546258 
1829	 0.107073799121956 
1830	 0.215249209919982 
1831	-1.01774031934936 
1832	-2.13795756533318 
1833	 8.31563728997168 
1834	 3.98202644474312 
1835	 3.07689311656726 
1836	 1.71239640818527 
1837	 0.13250421398382 
1838	-0.114559915340023 
1839	-0.258284807919157 
1840	 0.246785231892134 
1841	 15.7065736523025 
1842	-1.09571526843941 
1843	-0.898668430442854 
1844	-0.515749130176693 
1845	-0.623271895842309 
1846	 1.77342983004098 
1847	 2.03487540989235 
1848	-19.4365813903382 
1849	-3.13771768489302 
1850	-0.321497188549218 
1851	 0.888521445755563 
1852	 2.01507985715936 
1853	 2.33852154879681 
1854	 1.91351326885875 
1855	-0.365928639247188 
1856	-0.881987155230983 
1857	-0.497629833993432 
1858	-0.48580149873326 
1859	-7.81723895903457 
1860	 1.40225739554883 
1861	 1.40800015425362 
1862	 2.31904897931902 
1863	 0.473448350937437 
1864	 0.137000443586785 
1865	-0.12204012803349 
1866	-0.732367374329656 
1867	-1.45155085343099 
1868	-19.0188154565364 
1869	 7.68531769392719 
1870	 2.57323898519786 
1871	 1.50549321224552 
1872	 1.10103257181918 
1873	 0.536422189346698 
1874	 2.95277947485171 
1875	-1.09390599420007 
1876	-0.481193704047945 
1877	-0.401239994267917 
1878	-0.323895825251251 
1879	 0.116792257811533 
1880	 0.149913494195084 
1881	-0.368623582208303 
1882	-0.200193523136311 
1883	-6.25659322863893E-02 
1884	-3.70722533598713E-02 
1885	 6.22406730064601E-03 
1886	-0.185480597058077 
1887	-0.622264867300851 
1888	-0.656792937838225 
1889	-0.600436665172261 
1890	-0.119653243065749 
1891	 0.217140608318755 
1892	 0.926032599503127 
1893	 13.0736419618054 
1894	-1.46292019577828 
1895	-0.89828965228249 
1896	-0.603272982013266 
1897	-0.667322215918314 
1898	-3.48532989679007 
1899	 2.45823671669443 
1900	 4.87825687447239 
1901	 2.07065593347134 
1902	 1.54836617246249 
1903	 0.582704379173508 
1904	-0.237769922185502 
1905	-0.767275056140641 
1906	-0.889592484602556 
1907	-0.61897189148504 
1908	 0.432359415680669 
1909	-2.71157646655807 
1910	 1.17778227246058 
1911	 0.397882101562175 
1912	-1.03171848172057 
1913	-1.0402539506541 
1914	 0.255342124541324 
1915	-8.89964633029417E-02 
1916	 16.6351773451039 
1917	 1.04382436138179 
1918	 0.866837318803423 
1919	-2.80595014136658 
1920	-10.8295356303429 
1921	-1.38841022388464 
1922	 0.470206561460175 
1923	 0.91857375849857 
1924	 0.467170509131444 
1925	 0.546843442523469 
1926	 0.513358451004584 
1927	-0.40270339202295 
1928	-3.24863572756649 
1929	 3.65970654295906 
1930	 1.11747620668536 
1931	 3.20066487567452 
1932	 1.59495098963107 
1933	 1.62596829862261 
1934	 1.02406644799669 
1935	 0.36071471092022 
1936	-3.61933236331954E-02 
1937	-0.29042513691086 
1938	-0.186981150208606 
1939	-0.140257510936562 
1940	-8.43946728824624E-02 
1941	-6.69339692654138E-02 
1942	 2.95343432862323E-02 
1943	 8.85104973848014E-02 
1944	 0.066475505724331 
1945	 3.20168202329919E-02 
1946	 1.29870490078531E-03 
1947	-0.015416610835531 
1948	-1.46685724815295E-02 
1949	-0.045806962864339 
1950	-5.46688015697188E-02 
1951	-3.20708659331693E-02 
1952	-2.48456487015924E-02 
1953	-2.13165642754966E-02 
1954	-1.78288847473798E-02 
1955	-6.27903159924271E-03 
1956	-5.69201610112828E-03 
1957	-5.59267459228987E-03 
1958	 1.46043234670289E-02 
1959	 1.56483412456086E-02 
1960	 2.19706786790598E-03 
1961	-1.71638026781707E-03 
1962	-1.44704184847827E-03 
1963	-2.81581507629863E-03 
1964	-2.26035543210251E-04 
1965	 4.18113091069295E-03 
1966	 6.29562528112045E-03 
1967	 7.35880647639759E-03 
1968	 8.0990357477154E-03 
1969	 6.6577026756229E-03 
1970	 3.10228125119187E-03 
1971	-1.96978739845484E-04 
1972	 1.85740606377265E-03 
1973	 4.77559503681719E-03 
1974	 3.1493492102729E-03 
1975	 3.10584218125148E-03 
1976	 4.19475040282601E-03 
1977	 4.30700427886401E-03 
1978	 6.11850537061928E-03 
1979	 7.31554994309531E-03 
1980	 8.94540126710621E-03 
1981	 8.19709658896053E-03 
1982	 6.09969730283081E-03 
1983	 5.07394644079769E-03 
1984	 4.05667437936182E-03 
1985	 2.60033320661704E-04 
1986	-1.4608280897166E-03 
1987	 9.73233959719023E-05 
1988	 1.72180066313525E-03 
1989	 4.33673289585754E-03 
1990	 4.26471028226706E-03 
1991	 9.40184453552317E-04 
1992	-1.60868370759799E-03 
1993	-3.8148710247804E-03 
1994	-4.81348269029945E-03 
1995	-2.80195417901629E-03 
1996	-1.00382067574609E-03 
1997	-2.56220390746772E-03 
1998	-2.12939709799451E-03 
1999	-5.04720518470996E-04 
2000	-4.1982223743954E-04 
2001	-6.82355031548567E-04 
2002	-3.69069050573392E-04 
2003	-5.63886792086166E-03 
2004	-0.011854747874837 
2005	-3.55657362755698E-03 
2006	 3.90111561944786E-03 
2007	 2.51674763781854E-03 
2008	 7.06662351408719E-03 
2009	 8.99121765634319E-03 
2010	 4.18295989971201E-03 
2011	 3.36979057543382E-03 
2012	 6.02922182574053E-03 
2013	 5.25427441662655E-03 
2014	 6.32424349781647E-03 
2015	 1.03462678808833E-03 
2016	-2.85583898746877E-03 
2017	 1.33897557863331E-03 
2018	-1.03993275832807E-03 
2019	-3.59238417434579E-03 
2020	-1.60956259078627E-03 
2021	-3.64561072624462E-03 
2022	-3.91535338281487E-03 
2023	 7.15311301760554E-04 
2024	 2.18486879690572E-03 
2025	 2.19877204157866E-03 
2026	 2.09376485108458E-03 
2027	 1.78366661216743E-03 
2028	 9.19819468806147E-04 
2029	 9.83312417712517E-04 
2030	 2.79289603727084E-03 
2031	 4.79927839313661E-03 
2032	 5.92436909936934E-03 
2033	 5.0486277746201E-03 
2034	 3.59862717363819E-03 
2035	 2.37189453069298E-03 
2036	 7.25327396909997E-04 
2037	 7.45656638686142E-04 
2038	 9.85232948727418E-04 
2039	 1.38022831822663E-03 
2040	 2.92852683395074E-03 
2041	 3.75999813715007E-03 
2042	 3.70439487305259E-03 
2043	 4.19318049914453E-03 
2044	 5.29088420823817E-03 
2045	 5.98897652150437E-03 
2046	 3.50978384866772E-03 
2047	 3.22409068839333E-03 
2048	 2.94923304117836E-03 
2049	 1.59727447154444E-04 
2050	 1.71907737555584E-03 
2051	 3.48054151093725E-03 
2052	 1.84880778718733E-03 
2053	-6.05441344985565E-04 
2054	-2.01863779101882E-03 
2055	 6.64146764949446E-04 
2056	 1.53561876579791E-03 
2057	 4.85366402430652E-03 
2058	 5.37946542801554E-03 
2059	 2.99993697963463E-03 
2060	 9.2681045893329E-04 
2061	-3.28775440957156E-03 
2062	-3.07990265975193E-03 
2063	-7.33015969458616E-05 
2064	 1.00754772431399E-03 
2065	 2.70400556444831E-03 
2066	 5.45840029266364E-03 
2067	 6.41280751157582E-03 
2068	 7.17420157382837E-03 
2069	 5.68720914211977E-03 
2070	 2.52773777941692E-03 
2071	 1.76362683552244E-03 
2072	 1.62150045505675E-03 
2073	 1.75118222394938E-03 
2074	 5.42916300446737E-03 
2075	 6.81463387390925E-03 
2076	 6.46355489071839E-03 
2077	 5.92444852155367E-03 
2078	 4.53719601251004E-03 
2079	 5.42084958017339E-03 
2080	 7.57555637574581E-03 
2081	 7.59134095003272E-03 
2082	 7.26056264939103E-03 
2083	 7.28856611293806E-03 
2084	 5.29197070391819E-03 
2085	 3.06965685909346E-03 
2086	 3.45132481667666E-03 
2087	 4.04149492383619E-03 
2088	 3.80181971852501E-03 
2089	 4.36352628747275E-03 
2090	 5.55359490822309E-03 
2091	 6.59607067160267E-03 
2092	 6.45865045128918E-03 
2093	 5.32428273587119E-03 
2094	 4.72802549476709E-03 
2095	 3.11764439842009E-03 
2096	 2.07902848083824E-03 
2097	 1.13408037923145E-03 
2098	 1.29117633957357E-03 
2099	 2.25398432621894E-03 
2100	 3.04849670383513E-03 
2101	 3.20901558305731E-03 
2102	 3.11026094724705E-03 
2103	 8.78591517029848E-04 
2104	-8.07333943537704E-04 
2105	-2.88392318568284E-04 
2106	 4.22974252400206E-04 
2107	 2.2134067058542E-03 
2108	 3.0445443348949E-03 
2109	 2.12489160646953E-03 
2110	 2.17388067049259E-03 
2111	 2.92469429866858E-03 
2112	 3.3854526115011E-03 
2113	 3.38731204644514E-03 
2114	 3.88189823144449E-03 
2115	 4.23454465120218E-03 
2116	 2.74457991418246E-03 
2117	 3.12021350226176E-03 
2118	 6.08817504338649E-03 
2119	 6.73239199340994E-03 
2120	 5.58304620691065E-03 
2121	 7.34203233766775E-03 
2122	 8.54432161470542E-03 
2123	 7.85973845520455E-03 
2124	 8.17118295266233E-03 
2125	 7.83877449985765E-03 
2126	 6.36437709456901E-03 
2127	 6.46895265434204E-03 
2128	 8.23983924696126E-03 
2129	 8.10639885966907E-03 
2130	 7.29337931486161E-03 
2131	 6.32487387996404E-03 
2132	 4.37797390133411E-03 
2133	 4.25767485904376E-03 
2134	 4.68173808584089E-03 
2135	 6.72817061902858E-03 
2136	 7.30924974756179E-03 
2137	 8.24908303257097E-03 
2138	 8.17460161764817E-03 
2139	 6.84185932531561E-03 
2140	 6.59454684289323E-03 
2141	 7.14341853550064E-03 
2142	 5.72454465575136E-03 
2143	 3.01321109040178E-03 
2144	 1.20349552824563E-03 
2145	 4.80125482263929E-04 
2146	 1.01308680840723E-03 
2147	 2.44334297477462E-03 
2148	 4.50494040933438E-03 
2149	 6.10213030920099E-03 
2150	 6.25937337820407E-03 
2151	 7.75283084370031E-03 
2152	 8.4030992610343E-03 
2153	 6.61691666249654E-03 
2154	 5.43659100797505E-03 
2155	 4.97924323837818E-03 
2156	 4.49573177096738E-03 
2157	 4.11357600435709E-03 
2158	 3.66307120892084E-03 
2159	 3.89800488765901E-03 
2160	 4.22979358916605E-03 
2161	 5.27394245209474E-03 
2162	 7.6368211955497E-03 
2163	 8.95776541703553E-03 
2164	 1.08408576937158E-02 
2165	 1.18751209451306E-02 
2166	 1.17798676665753E-02 
2167	 1.13062111987687E-02 
2168	 9.78496584920182E-03 
2169	 9.13771858160732E-03 
2170	 7.93978702766978E-03 
2171	 8.49333170186587E-03 
2172	 1.06246115256791E-02 
2173	 1.01195611582118E-02 
2174	 7.14434583037404E-03 
2175	 5.60559110312261E-03 
2176	 4.37776237389378E-03 
2177	 3.56512635474266E-03 
2178	 4.56489127095226E-03 
2179	 4.72825627841251E-03 
2180	 3.83423667047829E-03 
2181	 4.30021875771753E-03 
2182	 4.3743407983304E-03 
2183	 4.19918570496223E-03 
2184	 5.66675504549974E-03 
2185	 6.35613304438884E-03 
2186	 6.75995941298928E-03 
2187	 8.20724614326718E-03 
2188	 8.23134631206921E-03 
2189	 6.69384480368454E-03 
2190	 5.80291102309226E-03 
2191	 4.45082537035595E-03 
2192	 3.95512147016758E-03 
2193	 4.03901666938179E-03 
2194	 3.20605075243959E-03 
2195	 5.97076577158345E-04 
2196	 1.36530958621766E-03 
2197	 4.99419727010806E-03 
2198	 6.08003811376714E-03 
2199	 7.65356144849734E-03 
2200	 1.11742895952187E-02 
2201	 9.26053235547908E-03 
2202	 5.63440334134477E-03 
2203	 6.3416470418554E-03 
2204	 6.99137101691338E-03 
2205	 6.71999719786644E-03 
2206	 7.97367966749656E-03 
2207	 6.87213761806749E-03 
2208	 4.67873972837527E-03 
2209	 5.36496485318935E-03 
2210	 5.47259029947693E-03 
2211	 2.6928008144245E-03 
2212	 1.13864594673154E-03 
2213	 1.10954568447917E-03 
2214	-1.22391821776717E-03 
2215	-2.23291730225933E-03 
2216	-1.40209921297091E-03 
2217	 2.13451582641946E-04 
2218	 1.5811400663126E-03 
2219	 4.14423768950629E-03 
2220	 1.09181339832689E-02 
2221	 1.21283754795025E-02 
2222	 9.63520282565059E-03 
2223	 8.52631587903555E-03 
2224	 5.21160738788714E-03 
2225	 3.94317558915758E-03 
2226	 4.46745325801986E-03 
2227	 4.96956863111033E-03 
2228	 6.30033144940468E-03 
2229	 6.50710507051412E-03 
2230	 4.91544046886603E-03 
2231	 6.66092760893987E-03 
2232	 0.011458046118905 
2233	 1.26703534365131E-02 
2234	 1.58889893439422E-02 
2235	 1.44506211405337E-02 
2236	 7.71140162313096E-03 
2237	 5.88396520457275E-03 
2238	 7.61109716218469E-03 
2239	 6.90753661822791E-03 
2240	 7.89811908623538E-03 
2241	 5.39228831040941E-03 
2242	 4.62730290249868E-04 
2243	 1.09453041812347E-03 
2244	 2.73064572439355E-03 
2245	 4.24747517546325E-03 
2246	 6.60088807117546E-03 
2247	 8.04183880921161E-03 
2248	 7.14122130295523E-03 
2249	 5.30938516050825E-03 
2250	 3.82892629015482E-03 
2251	 1.18855210011377E-03 
2252	 2.23738648602115E-04 
2253	 1.32429823807287E-03 
2254	 1.53321015747829E-03 
2255	 9.31261725976359E-04 
2256	 8.27499716769881E-04 
2257	 5.64315200116436E-04 
2258	 4.32311066352197E-03 
2259	 1.07316149990568E-02 
2260	 0.011216760657926 
2261	 8.70985975165275E-03 
2262	 8.40641784360986E-03 
2263	 3.92979150413749E-03 
2264	 2.41652376778131E-03 
2265	 6.35576266554085E-03 
2266	 6.19775077077789E-03 
2267	 1.06999064674717E-03 
2268	 5.96568925964563E-04 
2269	 2.71606034406696E-03 
2270	 3.02581741405332E-03 
2271	 5.16232815926016E-03 
2272	 6.04401763441764E-03 
2273	 4.54336014430711E-03 
2274	 4.40947613755975E-03 
2275	 5.51254775304999E-03 
2276	 6.0005867409332E-03 
2277	 6.99083898612034E-03 
2278	 6.10524404850795E-03 
2279	 3.42697303451398E-03 
2280	 2.47087755960764E-03 
2281	 9.26088152939078E-04 
2282	-1.08373675583815E-03 
2283	 2.68275870217007E-03 
2284	 3.85769634973198E-03 
2285	 1.32386842821887E-03 
2286	 4.08381612075259E-03 
2287	 8.33877170422148E-03 
2288	 7.70767464762284E-03 
2289	 1.06122087266564E-02 
2290	 1.52782005608261E-02 
2291	 9.77612602154986E-03 
2292	 7.10517521782815E-03 
2293	 1.13529188582949E-02 
2294	 1.15042559106476E-02 
2295	 1.25858029665449E-02 
2296	 1.45355916271607E-02 
2297	 7.11258286782723E-03 
2298	-4.90975102495839E-03 
2299	-9.48959743090091E-03 
2300	-7.69712498701164E-03 
2301	-3.98379997661547E-03 
2302	 1.10404929292676E-03 
2303	 6.30150906933137E-03 
2304	 5.91680744075427E-03 
2305	 7.76167947984666E-03 
2306	 1.47537423233103E-02 
2307	 8.21054363398128E-03 
2308	-1.02836737452314E-03 
2309	-2.91019163823156E-04 
2310	-1.3996674205051E-03 
2311	 4.09608273739374E-03 
2312	 1.55584273883665E-02 
2313	 1.62099983212698E-02 
2314	 1.39681537357949E-02 
2315	 1.60081101346185E-02 
2316	 1.41294334793491E-02 
2317	 8.38284145681495E-03 
2318	 4.76922791686237E-03 
2319	-2.37088495627002E-03 
2320	-2.27056895673598E-03 
2321	 1.54187676629891E-02 
2322	 2.53024490775624E-02 
2323	 2.56932583428373E-02 
2324	 2.42308749326197E-02 
2325	 1.29829674411747E-02 
2326	 2.04138169815813E-03 
2327	 7.58929791153673E-03 
2328	 9.47625253470546E-03 
2329	-3.99502969306217E-03 
2330	-8.16925019452369E-03 
2331	-0.010678949316478 
2332	-1.10726231763634E-02 
2333	 8.26806693627728E-04 
2334	 5.37863689493351E-03 
2335	 1.99070550641683E-03 
2336	-3.04675111637992E-03 
2337	-2.81743181743497E-03 
2338	 5.35363461433916E-03 
2339	 4.69163237894773E-03 
2340	 0.006249279549394 
2341	 3.78279133617523E-03 
2342	-1.29814343875895E-02 
2343	-7.49816568240406E-03 
2344	-5.59431948204289E-03 
2345	-1.70090637671493E-02 
2346	-8.77319329788195E-03 
2347	-1.82136703616938E-02 
2348	-4.35955975673016E-02 
2349	-4.72732444413224E-02 
2350	-3.82368303557524E-02 
2351	-1.53528270850278E-02 
2352	 2.37248295285331E-02 
2353	 3.99155329596879E-02 
2354	 1.54337623052562E-02 
2355	-2.11645801375006E-02 
2356	-4.09102521828963E-02 
2357	-2.91845883007236E-02 
2358	-8.26516692860638E-03 
2359	 8.76845145257411E-03 
2360	 8.12097429438429E-03 
2361	-2.10411323570501E-02 
2362	-3.95906604520801E-02 
2363	-2.75508420906279E-02 
2364	-1.95218166832105E-02 
2365	-3.75463809784973E-04 
2366	 3.11503481180828E-02 
2367	 1.56998913473033E-02 
2368	 1.00100947773787E-02 
2369	 2.33328030144626E-02 
2370	 1.65595193029664E-02 
2371	 2.28840394465812E-02 
2372	 3.62903929959692E-02 
2373	 2.75429505643698E-02 
2374	 5.46642042383357E-04 
2375	 4.65132776309142E-03 
2376	-1.25672753860263E-02 
2377	-6.30730079966345E-02 
2378	-8.02611840276193E-02 
2379	-0.102892004962814 
2380	-0.11847341056376 
2381	-8.13934984134435E-02 
2382	-3.19294044655115E-02 
2383	-2.16999594215147E-02 
2384	-1.41263640623485E-02 
2385	-1.49661629567269E-02 
2386	-2.47017279614686E-02 
2387	-3.24399578922266E-03 
2388	-3.60568985647101E-03 
2389	-2.41870945246168E-03 
2390	 3.87391687446649E-02 
2391	 3.57792524669981E-02 
2392	 4.10879379004873E-02 
2393	 6.85967512834978E-02 
2394	 4.93903164029778E-02 
2395	 6.04497439272058E-02 
2396	 0.106337244564071 
2397	 9.79967048705098E-02 
2398	 8.04592307283639E-02 
2399	 9.01577410460306E-02 
2400	 5.96112534951014E-02 
2401	 4.11332519681592E-02 
2402	 6.64057074705185E-02 
2403	 3.12336948314245E-02 
2404	 8.56470847729976E-03 
2405	 3.94997601834993E-02 
2406	 2.04546317704013E-02 
2407	-1.38137938631671E-03 
2408	 1.82640624189978E-02 
2409	 1.39053762230903E-02 
2410	 2.6138304603426E-03 
2411	-1.15580565624545E-02 
2412	-4.46998077983507E-02 
2413	-0.114570757496397 
2414	-0.294413029683064 
2415	-0.306837444553909 
2416	-0.250964661175955 
2417	-0.283380643851244 
2418	-0.139783404538101 
2419	-0.101806779951907 
2420	-0.226003812621702 
2421	-0.106325384824805 
2422	-3.43132294241438E-02 
2423	-7.74559067440373E-02 
2424	-9.89440506762335E-02 
2425	-0.161623680704394 
2426	-0.134799860854422 
2427	 0.057738668254284 
2428	 0.174990908412243 
2429	 0.158303216017318 
2430	 6.96242892875893E-02 
2431	-1.57287279538553E-02 
2432	 3.60483501356707E-02 
2433	 5.88436557228508E-02 
2434	-6.06471020617242E-02 
2435	-0.135561403009447 
2436	-0.237602252489031 
2437	-0.223102225622558 
2438	-4.91836879156678E-02 
2439	 3.85393737574772E-02 
2440	 0.176206496276627 
2441	 0.244969073078364 
2442	 4.62364627748671E-03 
2443	-8.45045837234684E-02 
2444	-5.71473524726161E-02 
2445	-0.137451664277533 
2446	-0.275733425102343 
2447	-0.128895032272656 
2448	-0.115590589849063 
2449	-7.68206571062433E-02 
2450	-1.02438541775106E-02 
2451	-6.51861451487919 
2452	-6.51300834254367 
2453	-1.4472077027458 
2454	-1.31626400679558 
2455	-1.23628327680154 
2456	-0.433636392526807 
2457	 3.94176991475236E-02 
2458	 7.92649605745168E-02 
2459	 6.75269770887594E-02 
2460	-7.02657781101497E-03 
2461	-0.100890498836309 
2462	-0.157575381057088 
2463	-0.389696059773696 
2464	-0.657920640240141 
2465	 0.184684242869088 
2466	-0.113053058395427 
2467	 0.210650066510802 
2468	 0.802401140916642 
2469	-0.376110508400549 
2470	-1.53571527990292 
2471	 0.915210361837109 
2472	 1.59366307332433 
2473	 1.98640340286581 
2474	-1.4066554867857 
2475	-5.42327777555224 
2476	 17.4788029877141 
2477	 1.07166937282738 
2478	 1.15432772593679 
2479	 1.97830599560989 
2480	 3.1963585261296 
2481	 139.301526570231 
2482	-5.3170274195197 
2483	 0.974181089694876 
2484	 0.637076559000192 
2485	 1.95557729352144 
2486	 2.69979471219348 
2487	 8.11410021194766 
2488	-3.68057354876203 
2489	 22.9257287192905 
2490	 2.74398932130873 
2491	 3.51899610054178 
2492	 1.99230338499161 
2493	 3.7861373893244 
2494	 1.9764470425705 
2495	 0.821613245742407 
2496	 0.859774552702451 
2497	 1.254780480731 
2498	 2.95435285916808 
2499	-3.75280382518742 
2500	-1.5867460426051 
