Wavelength	rt0726far00001.asd
350	 3.71026861557764E-02 
351	 3.80571281502112E-02 
352	 3.72452791414941E-02 
353	 3.66535590786177E-02 
354	 3.75096396048812E-02 
355	 3.78153607496713E-02 
356	 3.74531996661871E-02 
357	 3.73424652496397E-02 
358	 3.80871086306888E-02 
359	 3.73376437350882E-02 
360	 0.037233325386841 
361	 3.77646771109843E-02 
362	 3.74968514003948E-02 
363	 3.71686858773118E-02 
364	 3.70243095881313E-02 
365	 3.71026236301501E-02 
366	 3.72381964871264E-02 
367	 3.71367788057056E-02 
368	 3.69526396371914E-02 
369	 3.69115040029993E-02 
370	 3.70206952728819E-02 
371	 0.037056052719151 
372	 3.69308056138659E-02 
373	 3.67007599056489E-02 
374	 3.68034915084477E-02 
375	 3.67637335174095E-02 
376	 3.63639021177716E-02 
377	 3.58731073490474E-02 
378	 3.64503464557752E-02 
379	 3.71092615188367E-02 
380	 3.68869165158573E-02 
381	 3.64914234974911E-02 
382	 3.67386543740486E-02 
383	 3.70548246456943E-02 
384	 3.64959474222806E-02 
385	 3.67672933777895E-02 
386	 3.68715067551296E-02 
387	 3.65739039774178E-02 
388	 0.036683495150268 
389	 3.66060691406175E-02 
390	 3.66417148561926E-02 
391	 0.03688330881077 
392	 3.64591238984341E-02 
393	 3.66739347150975E-02 
394	 3.70452292072104E-02 
395	 3.67319125279533E-02 
396	 0.036752055028681 
397	 3.67048311752891E-02 
398	 3.65844194818618E-02 
399	 0.03675485111663 
400	 3.67652462585371E-02 
401	 3.66416107689638E-02 
402	 3.65756324907629E-02 
403	 3.70071314928178E-02 
404	 3.71347752473438E-02 
405	 3.69385850661474E-02 
406	 3.67487081051554E-02 
407	 3.70030833901319E-02 
408	 3.71681576790865E-02 
409	 3.70949130287179E-02 
410	 3.70658507598177E-02 
411	 3.70779779712401E-02 
412	 3.70558927188988E-02 
413	 3.69969281753113E-02 
414	 0.037142794691836 
415	 3.70328851646967E-02 
416	 3.69556965116749E-02 
417	 3.73325238966624E-02 
418	 3.74119699007673E-02 
419	 3.74117098827186E-02 
420	 3.74687708127075E-02 
421	 3.75596464836256E-02 
422	 3.78469035753253E-02 
423	 0.038025715318948 
424	 3.79362857375352E-02 
425	 0.038082460850931 
426	 3.81948219257125E-02 
427	 3.82969050759566E-02 
428	 3.85139696199776E-02 
429	 3.86677562828354E-02 
430	 0.03873413050581 
431	 3.87842274677238E-02 
432	 3.89750611223396E-02 
433	 3.91241516996245E-02 
434	 0.03925579290166 
435	 3.94263822215104E-02 
436	 3.96530652823466E-02 
437	 3.98521890151257E-02 
438	 3.99789064296531E-02 
439	 4.00438474874835E-02 
440	 4.03111677365838E-02 
441	 4.05729679199235E-02 
442	 4.07297368823526E-02 
443	 4.09146797736926E-02 
444	 4.11538616768589E-02 
445	 4.13866473943746E-02 
446	 4.15485680326429E-02 
447	 4.16556062773107E-02 
448	 4.18830212315069E-02 
449	 0.042134662670855 
450	 4.21507181032612E-02 
451	 4.22840851880683E-02 
452	 4.24982243803416E-02 
453	 4.27051089140387E-02 
454	 4.28368060679204E-02 
455	 4.28882687920839E-02 
456	 4.29857182362095E-02 
457	 4.32235320062108E-02 
458	 4.32594604760037E-02 
459	 0.043299633853926 
460	 4.34401032680668E-02 
461	 4.36286917645208E-02 
462	 4.36537260885458E-02 
463	 4.36667382680247E-02 
464	 4.38182397503303E-02 
465	 4.40634551825784E-02 
466	 4.41701995855425E-02 
467	 4.42682593411192E-02 
468	 4.45931884233176E-02 
469	 4.46792455707222E-02 
470	 4.47338906023936E-02 
471	 4.48834872477992E-02 
472	 4.50603456528845E-02 
473	 4.53335091286623E-02 
474	 4.55652227504495E-02 
475	 4.56521613101208E-02 
476	 4.57841676907921E-02 
477	 4.60219246887889E-02 
478	 4.62371362450862E-02 
479	 4.62188062448346E-02 
480	 4.63449592218273E-02 
481	 4.66010489789329E-02 
482	 4.68867437878414E-02 
483	 4.70370812944774E-02 
484	 4.72408443278961E-02 
485	 4.74673615213268E-02 
486	 4.76373040113008E-02 
487	 4.78651185904021E-02 
488	 4.81343127499894E-02 
489	 4.83573156974606E-02 
490	 4.84097067402233E-02 
491	 4.87499585295093E-02 
492	 4.91139140238542E-02 
493	 4.92769800734346E-02 
494	 4.95020568991141E-02 
495	 0.049922540363345 
496	 0.05038586017468 
497	 5.06367311524207E-02 
498	 5.09760788221237E-02 
499	 5.12454732597169E-02 
500	 5.14438448710625E-02 
501	 5.18759305580345E-02 
502	 5.24198822587949E-02 
503	 5.28536706963515E-02 
504	 5.30711465905762E-02 
505	 5.35342109366208E-02 
506	 5.39792190063168E-02 
507	 5.43219806675416E-02 
508	 5.46484099057355E-02 
509	 5.51544403619153E-02 
510	 5.56827390381178E-02 
511	 5.61101414513373E-02 
512	 5.65325302997963E-02 
513	 5.69543459740403E-02 
514	 5.73731917110436E-02 
515	 5.78034656473385E-02 
516	 5.84482784321822E-02 
517	 5.90006965523291E-02 
518	 5.93966340996899E-02 
519	 5.99231755884799E-02 
520	 6.03967671643254E-02 
521	 6.08689439510538E-02 
522	 6.14054310475968E-02 
523	 6.19320076026554E-02 
524	 0.062428242105112 
525	 6.29404505860974E-02 
526	 6.35448219172515E-02 
527	 6.40500270248047E-02 
528	 6.45403817312621E-02 
529	 6.50851800254506E-02 
530	 6.56538298652396E-02 
531	 6.61885743764201E-02 
532	 6.67421345014139E-02 
533	 6.73772737348147E-02 
534	 6.79535923077093E-02 
535	 6.85210208813188E-02 
536	 6.91250037548695E-02 
537	 6.97864958813484E-02 
538	 7.04015512569091E-02 
539	 7.09476902570001E-02 
540	 7.14795061333753E-02 
541	 7.22237751289025E-02 
542	 7.29523856321804E-02 
543	 7.35729277278751E-02 
544	 7.41126056538476E-02 
545	 0.074836929130035 
546	 7.55315752317954E-02 
547	 7.61028950674944E-02 
548	 7.68164103963895E-02 
549	 7.75083633723975E-02 
550	 7.81530482267458E-02 
551	 7.87891837893203E-02 
552	 7.95365750133683E-02 
553	 8.02053964451627E-02 
554	 0.080802311700893 
555	 8.15629608826316E-02 
556	 8.22045724377188E-02 
557	 8.28122934601434E-02 
558	 8.34832685226728E-02 
559	 8.40769557483469E-02 
560	 8.46736505400235E-02 
561	 8.52301451650829E-02 
562	 8.56597339999213E-02 
563	 8.62316300231253E-02 
564	 8.68059612249312E-02 
565	 8.72566542451392E-02 
566	 8.75773137938128E-02 
567	 0.087995586592686 
568	 8.84303082002913E-02 
569	 8.87286917868564E-02 
570	 0.089085310264433 
571	 8.93833496209006E-02 
572	 8.96120818735622E-02 
573	 8.98885453409593E-02 
574	 9.00805478962723E-02 
575	 9.02507647121818E-02 
576	 9.04579734214722E-02 
577	 9.06104830945714E-02 
578	 9.07098071405122E-02 
579	 9.07742559152963E-02 
580	 9.08351148739258E-02 
581	 9.09302961223659E-02 
582	 9.09231015736033E-02 
583	 9.07995863300956E-02 
584	 9.08116627965058E-02 
585	 0.090750151456127 
586	 9.06431114668319E-02 
587	 9.05587156702143E-02 
588	 9.02766672653904E-02 
589	 9.01172320888585E-02 
590	 9.01475408937109E-02 
591	 9.01179193542608E-02 
592	 8.99716454862667E-02 
593	 8.97680220532762E-02 
594	 8.95601503362139E-02 
595	 8.92714551265508E-02 
596	 8.89925994888758E-02 
597	 8.86425767862646E-02 
598	 8.80889334841798E-02 
599	 8.76806339370237E-02 
600	 8.73134419463569E-02 
601	 8.69517455685027E-02 
602	 8.67828782740896E-02 
603	 0.086599706328428 
604	 8.64018207161088E-02 
605	 8.62611971247318E-02 
606	 8.62565427737989E-02 
607	 8.61576266084676E-02 
608	 8.59798984260128E-02 
609	 0.085994221311921 
610	 8.59205729784024E-02 
611	 8.57741464409336E-02 
612	 0.085614952302911 
613	 8.54337461078549E-02 
614	 8.53058065307195E-02 
615	 8.52099051805808E-02 
616	 8.50807873864202E-02 
617	 8.50104881602966E-02 
618	 8.48719244031203E-02 
619	 8.46787233041953E-02 
620	 0.084716043919011 
621	 8.46613143691091E-02 
622	 8.45674006839677E-02 
623	 0.084557048418328 
624	 8.44755424709491E-02 
625	 8.43034864315225E-02 
626	 8.41399376049686E-02 
627	 8.41723759789798E-02 
628	 8.40938816444664E-02 
629	 8.39653315249267E-02 
630	 8.38702286267188E-02 
631	 8.37481768668656E-02 
632	 8.36650202979266E-02 
633	 8.36233812450361E-02 
634	 0.083583406533635 
635	 8.34268589103594E-02 
636	 8.34180552462819E-02 
637	 8.35603739442104E-02 
638	 8.34371532546702E-02 
639	 8.34787824319777E-02 
640	 8.35732288077704E-02 
641	 8.35492040210586E-02 
642	 8.36767087978348E-02 
643	 8.37843760231417E-02 
644	 8.37639990353946E-02 
645	 8.35816884966284E-02 
646	 8.34674143168338E-02 
647	 8.34664664600451E-02 
648	 8.35111694959575E-02 
649	 8.33820667752365E-02 
650	 8.31503878180867E-02 
651	 0.082817352993944 
652	 8.23881570269593E-02 
653	 8.19641098092271E-02 
654	 8.14035768357576E-02 
655	 8.06789921764218E-02 
656	 0.080037351199489 
657	 7.91638022406503E-02 
658	 0.07827089553995 
659	 7.75137103769396E-02 
660	 7.66626252074864E-02 
661	 7.58509928830118E-02 
662	 7.50408362456464E-02 
663	 7.41378919674501E-02 
664	 7.34632736247786E-02 
665	 7.28417005703346E-02 
666	 7.21440321371162E-02 
667	 7.14409618691987E-02 
668	 7.09903096200214E-02 
669	 7.06894250649096E-02 
670	 7.03759413813086E-02 
671	 7.02709549790024E-02 
672	 7.02487394585929E-02 
673	 7.02749347034275E-02 
674	 7.04152658316602E-02 
675	 0.070662803916679 
676	 7.09561496578042E-02 
677	 7.12544925107603E-02 
678	 0.071567624581673 
679	 7.21296922230101E-02 
680	 7.27823590458028E-02 
681	 7.32645196483097E-02 
682	 7.40023715445858E-02 
683	 7.48021157160689E-02 
684	 7.55555885503938E-02 
685	 7.64148360637069E-02 
686	 0.077473860548588 
687	 7.85395918698389E-02 
688	 7.93675344882395E-02 
689	 0.080141125964625 
690	 0.080939459588011 
691	 8.16767392992428E-02 
692	 8.22017867992991E-02 
693	 8.28485447901956E-02 
694	 8.32921782282229E-02 
695	 8.33839192639935E-02 
696	 0.083394015978843 
697	 0.083359588786257 
698	 0.083289514147791 
699	 8.31461395962701E-02 
700	 0.082760427519434 
701	 8.23947430949746E-02 
702	 8.20525804123828E-02 
703	 8.15145185549791E-02 
704	 8.08926568271143E-02 
705	 0.08023239616984 
706	 7.95538214902547E-02 
707	 7.88052876987368E-02 
708	 7.79369187328334E-02 
709	 7.69197680918572E-02 
710	 0.075766580367881 
711	 7.46395410802986E-02 
712	 7.34008862986683E-02 
713	 0.072049940812159 
714	 7.07163514547133E-02 
715	 0.069506281597305 
716	 6.81775967900261E-02 
717	 6.65753956709498E-02 
718	 6.49327338176987E-02 
719	 6.31427192988238E-02 
720	 6.16367246907718E-02 
721	 6.04641146637553E-02 
722	 5.90444168074359E-02 
723	 5.74361229052372E-02 
724	 5.58553905596188E-02 
725	 0.054152442696319 
726	 5.24778097294084E-02 
727	 5.06824239987871E-02 
728	 4.86588386329483E-02 
729	 4.65295020710159E-02 
730	 4.42951569899684E-02 
731	 0.042159445468123 
732	 4.02708706466239E-02 
733	 3.87991129915391E-02 
734	 3.75784855121408E-02 
735	 3.65398540493573E-02 
736	 3.57244961036419E-02 
737	 3.50392664671919E-02 
738	 3.44754072941334E-02 
739	 0.034059802399713 
740	 3.38405035443122E-02 
741	 0.033553771006022 
742	 3.33100347119245E-02 
743	 3.33583264235245E-02 
744	 3.33793941187415E-02 
745	 3.33083725037258E-02 
746	 3.32076472136758E-02 
747	 3.32683794218037E-02 
748	 3.33051163004269E-02 
749	 3.33128505281949E-02 
750	 3.33092035000126E-02 
751	 3.32140536304369E-02 
752	 0.033230141719949 
753	 3.32990186526248E-02 
754	 3.32506670503307E-02 
755	 3.33071642839193E-02 
756	 3.33453197876667E-02 
757	 0.033366706522292 
758	 3.36704008565386E-02 
759	 3.39831662232499E-02 
760	 3.42705796128664E-02 
761	 3.44448040747225E-02 
762	 3.43445305443841E-02 
763	 3.41852518707874E-02 
764	 3.40203127773043E-02 
765	 3.38656946824046E-02 
766	 3.39390834188648E-02 
767	 3.40792265801736E-02 
768	 3.42399682264857E-02 
769	 3.44660561851257E-02 
770	 3.46124068881801E-02 
771	 3.47230825551297E-02 
772	 3.48686616628842E-02 
773	 0.035086196245591 
774	 3.52379692046387E-02 
775	 0.035417940694076 
776	 3.57556457474721E-02 
777	 3.59079250123527E-02 
778	 3.61781973560952E-02 
779	 0.036557997440074 
780	 3.67074103017588E-02 
781	 3.69300597936859E-02 
782	 3.72295110726554E-02 
783	 3.75562394320223E-02 
784	 3.78713039695789E-02 
785	 3.81772285440691E-02 
786	 3.85263898742307E-02 
787	 3.89482510498869E-02 
788	 3.92618465971548E-02 
789	 3.95801556117876E-02 
790	 4.00113846403914E-02 
791	 4.05977619842622E-02 
792	 4.08418872685341E-02 
793	 0.041141785055932 
794	 4.16654394640746E-02 
795	 4.19928800819422E-02 
796	 4.22691102241822E-02 
797	 0.042607920320401 
798	 4.30303439677559E-02 
799	 4.32048955435063E-02 
800	 4.34640841335321E-02 
801	 4.38330609480718E-02 
802	 4.41362870158542E-02 
803	 4.41649913241535E-02 
804	 4.43267110707051E-02 
805	 4.46149176626333E-02 
806	 4.45472520538015E-02 
807	 4.45816029834472E-02 
808	 4.46735910639718E-02 
809	 4.46548163429023E-02 
810	 4.42574147261497E-02 
811	 4.42297868611912E-02 
812	 4.43349346668438E-02 
813	 4.39910095332499E-02 
814	 0.043510934439725 
815	 4.31943720097216E-02 
816	 4.28932100771171E-02 
817	 4.21975804459685E-02 
818	 4.18630914328467E-02 
819	 4.13966549118339E-02 
820	 0.040605319176709 
821	 3.98246738243528E-02 
822	 3.85536721140514E-02 
823	 3.73360586616806E-02 
824	 3.65109150924716E-02 
825	 3.52453333783433E-02 
826	 3.40088954260568E-02 
827	 0.03271571381765 
828	 0.031210407347935 
829	 2.96457448251165E-02 
830	 2.82393221915664E-02 
831	 2.71767554361252E-02 
832	 2.65742421368773E-02 
833	 2.59098015235841E-02 
834	 2.52766075761864E-02 
835	 2.47717399393668E-02 
836	 2.43953488833358E-02 
837	 2.41971221242575E-02 
838	 2.38140833119109E-02 
839	 2.31903760889583E-02 
840	 2.33011538603892E-02 
841	 2.31274482405679E-02 
842	 2.27366399636985E-02 
843	 2.25327415350828E-02 
844	 2.24406060441375E-02 
845	 2.22742339249097E-02 
846	 2.20710661687619E-02 
847	 2.19897593824413E-02 
848	 2.17526797491519E-02 
849	 2.15053577614466E-02 
850	 2.13363138658537E-02 
851	 2.11867181446627E-02 
852	 2.08096296965322E-02 
853	 2.06369157499669E-02 
854	 2.08325506599132E-02 
855	 2.07064776821751E-02 
856	 2.05123336906941E-02 
857	 2.03657412502536E-02 
858	 2.02807783906838E-02 
859	 2.00106057243383E-02 
860	 2.00330952681856E-02 
861	 2.01039982587897E-02 
862	 1.97617648821809E-02 
863	 1.96850190092842E-02 
864	 1.95340395152917E-02 
865	 1.93519601585293E-02 
866	 1.94852767090374E-02 
867	 1.90471127322169E-02 
868	 1.87524900888142E-02 
869	 1.88040754233786E-02 
870	 1.84895248793006E-02 
871	 1.83079241058026E-02 
872	 0.01832023686225 
873	 1.83788282376928E-02 
874	 1.80918560768414E-02 
875	 1.77943634951752E-02 
876	 1.75673361439343E-02 
877	 1.74230162898823E-02 
878	 0.017469201815323 
879	 1.72069441835059E-02 
880	 1.68603319048671E-02 
881	 1.68636479869305E-02 
882	 1.66663445941904E-02 
883	 1.65210777226798E-02 
884	 1.63341595880953E-02 
885	 1.58589908485112E-02 
886	 1.61178554884653E-02 
887	 1.60084742975409E-02 
888	 1.54990604345261E-02 
889	 1.58923796780677E-02 
890	 1.55932404851958E-02 
891	 1.52849604984143E-02 
892	 1.55495462970482E-02 
893	 1.59976111845734E-02 
894	 1.57616531130905E-02 
895	 1.53103517033123E-02 
896	 1.52365623207863E-02 
897	 1.49843581712129E-02 
898	 1.51180472669651E-02 
899	 0.015122073311943 
900	 1.45516928340192E-02 
901	 1.44476354631842E-02 
902	 1.44216729100122E-02 
903	 1.44776210301765E-02 
904	 1.45774309857684E-02 
905	 1.36135646023141E-02 
906	 0.013578483636334 
907	 1.40719608802137E-02 
908	 1.32705732007991E-02 
909	 1.36230091321657E-02 
910	 1.42406447482811E-02 
911	 0.014354614661518 
912	 1.37833016042689E-02 
913	 0.01357226988493 
914	 1.33554141556989E-02 
915	 1.31211945608899E-02 
916	 1.33427588949183E-02 
917	 1.29357386002815E-02 
918	 1.21782858265648E-02 
919	 1.17051768950873E-02 
920	 1.22501521410516E-02 
921	 1.31443076185212E-02 
922	 1.31592412047202E-02 
923	 1.21161221573584E-02 
924	 1.22096595991484E-02 
925	 1.18618193898852E-02 
926	 1.13977501672933E-02 
927	 1.14254251250214E-02 
928	 1.13065648306283E-02 
929	 1.25549740596976E-02 
930	 1.42405678918859E-02 
931	 0.013651957864851 
932	 9.18912547294379E-03 
933	 9.96356840640942E-03 
934	 1.43337195137563E-02 
935	 0.014394929605396 
936	 0.010847987561923 
937	 1.21109666777292E-02 
938	 1.52441684544798E-02 
939	 1.49753680802186E-02 
940	 1.12530700470695E-02 
941	 1.09700014205732E-02 
942	 1.28835058282103E-02 
943	 0.01186410854035 
944	 7.20814419865218E-03 
945	 9.57984865605029E-03 
946	 1.46421079947101E-02 
947	 1.14831420284944E-02 
948	 8.58442027169762E-03 
949	 9.44949154838259E-03 
950	 1.07516450347617E-02 
951	 7.3524008675702E-03 
952	 8.23175957581579E-03 
953	 1.11472759301203E-02 
954	 1.21204012115802E-02 
955	 8.72276229813312E-03 
956	 1.00274218909191E-02 
957	 1.26004630242247E-02 
958	 1.22419213671669E-02 
959	 7.41462043341885E-03 
960	 1.11668091426557E-02 
961	 1.28715278045907E-02 
962	 1.10794276708375E-02 
963	 1.15938322924996E-02 
964	 1.17746409999792E-02 
965	 1.07911459522352E-02 
966	 9.8581370397694E-03 
967	 0.010919267920629 
968	 1.11736234542682E-02 
969	 1.12080527042696E-02 
970	 1.10444057519222E-02 
971	 0.010198615640221 
972	 0.010396788445336 
973	 0.011441937849792 
974	 1.21129551859781E-02 
975	 1.08483640514439E-02 
976	 9.14313306709762E-03 
977	 9.59283260202152E-03 
978	 1.17556627336913E-02 
979	 1.25927064192687E-02 
980	 1.05520731798443E-02 
981	 9.64953621460126E-03 
982	 1.02627415478454E-02 
983	 9.67548062320009E-03 
984	 9.13543791740463E-03 
985	 9.63826699484729E-03 
986	 1.02279251846315E-02 
987	 9.08137132695055E-03 
988	 9.13087643185405E-03 
989	 1.02303552437633E-02 
990	 1.12048323713695E-02 
991	 1.07770372931136E-02 
992	 1.06755102442965E-02 
993	 9.61256874476287E-03 
994	 8.35804479103803E-03 
995	 8.83710567684668E-03 
996	 1.00231052781212E-02 
997	 1.00845900587389E-02 
998	 9.20554388031117E-03 
999	 8.86108840940849E-03 
1000	 9.63753301479033E-03 
1001	 1.20348891185594E-02 
1002	 1.16489859658918E-02 
1003	 0.011335869033082 
1004	 1.08087096587821E-02 
1005	 1.05649261758499E-02 
1006	 0.010304446773735 
1007	 0.010406853591295 
1008	 1.06491579909227E-02 
1009	 1.07814325499897E-02 
1010	 1.07521806311786E-02 
1011	 1.05995616749486E-02 
1012	 0.010731450720735 
1013	 1.07602754980975E-02 
1014	 1.07489479759471E-02 
1015	 1.09507194846987E-02 
1016	 1.09850067444159E-02 
1017	 1.07771602887195E-02 
1018	 1.06258646472646E-02 
1019	 0.010298029705648 
1020	 1.02640539261111E-02 
1021	 1.04169486907792E-02 
1022	 1.04087314854947E-02 
1023	 0.010449628281244 
1024	 1.11770179111287E-02 
1025	 1.08948055146623E-02 
1026	 1.06871766897431E-02 
1027	 1.07063474690635E-02 
1028	 1.06413035090698E-02 
1029	 1.06055696585127E-02 
1030	 1.09519744558918E-02 
1031	 1.08863439798194E-02 
1032	 1.05012661881717E-02 
1033	 1.03116816651988E-02 
1034	 9.85538209762571E-03 
1035	 9.88032958766602E-03 
1036	 1.02300015430975E-02 
1037	 1.05495256739713E-02 
1038	 1.11577578087069E-02 
1039	 1.17873180748477E-02 
1040	 1.20565309140856E-02 
1041	 1.20626402155565E-02 
1042	 1.19537765028755E-02 
1043	 1.14658095634059E-02 
1044	 1.12380157467917E-02 
1045	 1.07824742635997E-02 
1046	 1.09096285232308E-02 
1047	 1.17158200259432E-02 
1048	 1.17284755130976E-02 
1049	 1.17528937308279E-02 
1050	 0.011565635432995 
1051	 1.03012458303092E-02 
1052	 1.00398970426103E-02 
1053	 1.04805690314562E-02 
1054	 1.06464566451065E-02 
1055	 1.14491782385168E-02 
1056	 1.16635580880976E-02 
1057	 1.15803526853696E-02 
1058	 1.09529542423674E-02 
1059	 1.08485429492854E-02 
1060	 1.05285399394457E-02 
1061	 1.05915864767188E-02 
1062	 1.13948596312015E-02 
1063	 0.011303422536937 
1064	 1.06079494682133E-02 
1065	 1.05168266169386E-02 
1066	 1.02078050405295E-02 
1067	 1.01833829808267E-02 
1068	 1.07610959880545E-02 
1069	 0.011160489456345 
1070	 1.18208116056408E-02 
1071	 0.0119299984572 
1072	 1.18314970233179E-02 
1073	 1.15413359550515E-02 
1074	 1.13931322211665E-02 
1075	 0.01069721558984 
1076	 1.07135385802718E-02 
1077	 1.15493124663456E-02 
1078	 1.14251627478623E-02 
1079	 1.07835522991845E-02 
1080	 0.010701498316137 
1081	 1.02597052921915E-02 
1082	 1.04009992177985E-02 
1083	 1.18485991024315E-02 
1084	 1.20002435520622E-02 
1085	 0.011274474592097 
1086	 1.10510143044892E-02 
1087	 1.02302805238435E-02 
1088	 1.00200038746095E-02 
1089	 1.05667248765316E-02 
1090	 1.11621705566831E-02 
1091	 1.14636656072037E-02 
1092	 1.17598066890112E-02 
1093	 1.17583181696595E-02 
1094	 1.14339890870437E-02 
1095	 0.011466170793981 
1096	 1.14358035877868E-02 
1097	 1.14653557739561E-02 
1098	 1.18975079811585E-02 
1099	 1.18258184379238E-02 
1100	 1.11876376512324E-02 
1101	 1.11863215640266E-02 
1102	 1.14260559496359E-02 
1103	 1.14159561395192E-02 
1104	 1.18936921774105E-02 
1105	 1.16992126782733E-02 
1106	 1.13653343870711E-02 
1107	 1.18967984238743E-02 
1108	 1.20267195919559E-02 
1109	 0.012355332588523 
1110	 0.012459738747189 
1111	 1.19122023895205E-02 
1112	 1.15209205442088E-02 
1113	 1.10935142704559E-02 
1114	 1.11673006920174E-02 
1115	 1.16698686693265E-02 
1116	 1.21769502315323E-02 
1117	 1.36237215307767E-02 
1118	 1.40716803258537E-02 
1119	 1.32352644134312E-02 
1120	 1.35665991233932E-02 
1121	 1.38401717938423E-02 
1122	 1.44216568921278E-02 
1123	 1.83018544428903E-02 
1124	 1.89699912490246E-02 
1125	 1.41926216249014E-02 
1126	 1.50892798033268E-02 
1127	 1.89546619080011E-02 
1128	 1.81163682268088E-02 
1129	 1.82938691423058E-02 
1130	 2.09605265288244E-02 
1131	 1.91169700628362E-02 
1132	 1.43250288333185E-02 
1133	 1.33711171702266E-02 
1134	 1.09890064675594E-02 
1135	 1.19184828519691E-02 
1136	 1.77326373214475E-02 
1137	 1.68184948465727E-02 
1138	 1.23808647633874E-02 
1139	 1.24599771058664E-02 
1140	 1.17728198153884E-02 
1141	 0.011557687539615 
1142	 1.41434614351777E-02 
1143	 1.48764000519818E-02 
1144	 1.28173910269639E-02 
1145	 1.12334200744896E-02 
1146	 1.19680293435108E-02 
1147	 1.46969228338553E-02 
1148	 1.49208367724968E-02 
1149	 1.15570488452349E-02 
1150	 1.17247954711979E-02 
1151	 1.28973013083836E-02 
1152	 0.012833116929831 
1153	 1.42350151233614E-02 
1154	 1.46609384678525E-02 
1155	 0.014332811647297 
1156	 1.22700479873088E-02 
1157	 1.24940421874997E-02 
1158	 1.27462535617654E-02 
1159	 1.22746078195497E-02 
1160	 1.16753743588494E-02 
1161	 1.09167628815383E-02 
1162	 1.11005321186164E-02 
1163	 1.13038132147797E-02 
1164	 1.16083133487535E-02 
1165	 1.25316663997083E-02 
1166	 1.22661406267713E-02 
1167	 1.14239911087039E-02 
1168	 1.15952155707147E-02 
1169	 1.13471752892103E-02 
1170	 1.06998575008052E-02 
1171	 1.06875973103046E-02 
1172	 1.16407142489461E-02 
1173	 1.14611565130267E-02 
1174	 1.07198084696387E-02 
1175	 0.010566104592901 
1176	 1.05958736255316E-02 
1177	 1.07734505379214E-02 
1178	 1.12520812210149E-02 
1179	 1.15480158429542E-02 
1180	 1.11725208772783E-02 
1181	 1.03871742269652E-02 
1182	 1.03140541721194E-02 
1183	 1.10905893856417E-02 
1184	 1.16206253377208E-02 
1185	 0.011360359854994 
1186	 1.09693352146423E-02 
1187	 1.06142483324401E-02 
1188	 1.03052335996306E-02 
1189	 1.04377221562931E-02 
1190	 1.07109729420809E-02 
1191	 1.06975178398997E-02 
1192	 1.05978636981898E-02 
1193	 1.03708076185829E-02 
1194	 1.04499904905816E-02 
1195	 1.05471987520631E-02 
1196	 0.010537588134339 
1197	 1.05102274915207E-02 
1198	 1.03274203268542E-02 
1199	 1.01628745117022E-02 
1200	 9.95451005464272E-03 
1201	 9.90187663498138E-03 
1202	 1.02212907103819E-02 
1203	 1.04310422794817E-02 
1204	 1.03383380134902E-02 
1205	 1.03371286490617E-02 
1206	 1.04385590020751E-02 
1207	 1.03191192256717E-02 
1208	 1.01559455749538E-02 
1209	 1.00896320843821E-02 
1210	 1.01642361238808E-02 
1211	 1.01135015028349E-02 
1212	 9.95478074796881E-03 
1213	 1.01405765619838E-02 
1214	 1.01979034864613E-02 
1215	 1.01359597147924E-02 
1216	 9.89703882650439E-03 
1217	 1.00790321619804E-02 
1218	 1.02447213749697E-02 
1219	 9.89377269057658E-03 
1220	 9.81424483482815E-03 
1221	 9.98436635333716E-03 
1222	 9.81063563832914E-03 
1223	 9.7969490050565E-03 
1224	 1.00923926705798E-02 
1225	 1.02809796227232E-02 
1226	 1.02701370796155E-02 
1227	 1.02153445938989E-02 
1228	 1.02931348955565E-02 
1229	 1.02968420885791E-02 
1230	 1.00406340792884E-02 
1231	 9.90042417656103E-03 
1232	 9.79505289030791E-03 
1233	 9.82506558990458E-03 
1234	 9.92909701332645E-03 
1235	 9.92163418075171E-03 
1236	 1.00579440465264E-02 
1237	 1.01832647008662E-02 
1238	 1.01868638717463E-02 
1239	 9.99968196392623E-03 
1240	 1.02598318177827E-02 
1241	 1.02724835689608E-02 
1242	 9.98570393288222E-03 
1243	 1.01995906157993E-02 
1244	 1.03741223551083E-02 
1245	 1.01108389024281E-02 
1246	 1.00324885056977E-02 
1247	 9.98614527041707E-03 
1248	 9.88017081869162E-03 
1249	 1.00391864993285E-02 
1250	 1.02220111886348E-02 
1251	 1.01313867730936E-02 
1252	 9.91591531594904E-03 
1253	 9.71063155393239E-03 
1254	 9.63824846829603E-03 
1255	 9.83867813117846E-03 
1256	 9.80514142224859E-03 
1257	 0.0097089633126 
1258	 9.69177434515969E-03 
1259	 9.40151236435208E-03 
1260	 9.3938383781222E-03 
1261	 9.96815599293807E-03 
1262	 1.01147422783739E-02 
1263	 1.00886969419373E-02 
1264	 1.00664714259526E-02 
1265	 0.010076086109962 
1266	 9.86470689463158E-03 
1267	 9.92175768402164E-03 
1268	 1.01622629894403E-02 
1269	 1.03541854717197E-02 
1270	 0.010382527627626 
1271	 1.03831267642613E-02 
1272	 1.04144663142483E-02 
1273	 1.02832171348233E-02 
1274	 1.02098909836156E-02 
1275	 1.01788759115671E-02 
1276	 1.01002697419766E-02 
1277	 1.01491917402031E-02 
1278	 1.00837808054622E-02 
1279	 9.96338313350139E-03 
1280	 9.95873826790418E-03 
1281	 9.93158599048015E-03 
1282	 9.7615575357043E-03 
1283	 9.79685049119739E-03 
1284	 1.02028794704343E-02 
1285	 1.02099189578454E-02 
1286	 9.9262776114302E-03 
1287	 9.95493472116899E-03 
1288	 9.89914128479724E-03 
1289	 9.85767339955638E-03 
1290	 9.99597060363779E-03 
1291	 1.03329116584995E-02 
1292	 1.02046479999205E-02 
1293	 9.8779052320025E-03 
1294	 9.67566341976263E-03 
1295	 9.48714479034051E-03 
1296	 9.70188570418252E-03 
1297	 1.00349716502509E-02 
1298	 9.86022421187312E-03 
1299	 1.01867810716611E-02 
1300	 1.07206577167257E-02 
1301	 1.04616752505019E-02 
1302	 0.010130143865458 
1303	 1.00594659113367E-02 
1304	 1.00110356261623E-02 
1305	 9.79746433298481E-03 
1306	 9.7507779423111E-03 
1307	 0.010466472109709 
1308	 1.05498509393815E-02 
1309	 9.98906186046914E-03 
1310	 9.87216284776737E-03 
1311	 9.66882878577518E-03 
1312	 9.88716254260267E-03 
1313	 1.09279113285663E-02 
1314	 1.09449247025323E-02 
1315	 1.04540471244166E-02 
1316	 1.05702285259421E-02 
1317	 1.03402446313697E-02 
1318	 1.00903485737133E-02 
1319	 1.05168597765217E-02 
1320	 1.06432944180678E-02 
1321	 1.01481273113961E-02 
1322	 9.66824053949471E-03 
1323	 1.00206080758433E-02 
1324	 1.05192729567775E-02 
1325	 1.00134034259048E-02 
1326	 9.87430204260284E-03 
1327	 1.03774546657182E-02 
1328	 1.04545816717612E-02 
1329	 1.09500680631314E-02 
1330	 1.14360399421845E-02 
1331	 1.05944759768595E-02 
1332	 0.010199288080333 
1333	 1.06668170309215E-02 
1334	 1.01305173193121E-02 
1335	 1.06837796547967E-02 
1336	 1.29797635413615E-02 
1337	 1.28776739832793E-02 
1338	 1.09026520001817E-02 
1339	 1.13337734776228E-02 
1340	 1.26406397636988E-02 
1341	 1.15465109470158E-02 
1342	 9.47602485026538E-03 
1343	 1.06501309374795E-02 
1344	 1.17867440185658E-02 
1345	 1.14890936804108E-02 
1346	 1.62747245257005E-02 
1347	 2.04844472754801E-02 
1348	 1.87022610005523E-02 
1349	 1.77068606193976E-02 
1350	 2.46178385507197E-02 
1351	 2.96037404351339E-02 
1352	 1.51759542359746E-02 
1353	 5.15853131498138E-03 
1354	 3.92453726289534E-03 
1355	 8.83152871602708E-03 
1356	-8.35303790699824E-03 
1357	-1.19313455900217E-02 
1358	-3.82391747660435E-02 
1359	-4.54197802256048E-02 
1360	-0.018897262289447 
1361	 2.98266298021751E-02 
1362	 0.413419873312703 
1363	 0.471386207767063 
1364	 0.266914025393213 
1365	 0.23062600401115 
1366	 0.27725446281407 
1367	 0.243863916701868 
1368	 6.1882358976301E-03 
1369	-3.45904298082616E-02 
1370	 0.107651157721495 
1371	 0.50927097319344 
1372	 0.386098519163767 
1373	 0.406711298731364 
1374	 0.481994291605721 
1375	-6.71195977399094E-02 
1376	-0.198915739857722 
1377	 0.358308303948895 
1378	 0.57514950287175 
1379	 0.361515417085505 
1380	 0.175955803649583 
1381	-0.139358778333954 
1382	-0.146267303029484 
1383	-0.11454533925509 
1384	-3.54538024669318E-02 
1385	 0.282203308820131 
1386	 0.513177645961999 
1387	 0.962217374117682 
1388	 0.712541591361183 
1389	 7.34630799494022E-02 
1390	-1.05753499552601E-02 
1391	-9.36506053177321E-02 
1392	-0.292298891185563 
1393	-0.252468846729245 
1394	-0.378628214958823 
1395	-0.508145934676691 
1396	-0.334599124835644 
1397	-0.667548851019524 
1398	-0.767545195774342 
1399	-0.781645515266879 
1400	-1.02504178476127 
1401	-0.876363741348833 
1402	-0.17066951230991 
1403	-2.55280289608522E-02 
1404	-8.44156868690677E-02 
1405	 9.28022367468934E-02 
1406	 0.604571180397349 
1407	 0.4000881553735 
1408	 0.125317944770037 
1409	 5.64163815995161E-02 
1410	-0.181521712269523 
1411	-0.168449296545855 
1412	 0.013422737251824 
1413	 3.26969754257819E-02 
1414	 4.40664958062132E-02 
1415	 3.78485543747014E-02 
1416	-2.06015039126889E-02 
1417	-3.46544589130811E-02 
1418	-1.60747321973811E-02 
1419	-1.34113574511391E-03 
1420	 1.59036681596575E-03 
1421	 1.51410726060904E-03 
1422	 3.44567682862034E-03 
1423	 1.95061152242379E-03 
1424	-3.09175687445765E-03 
1425	-2.02857583803824E-04 
1426	 1.36191610492899E-02 
1427	 1.14949465360391E-02 
1428	-6.00873894894264E-03 
1429	-3.0431496419847E-03 
1430	 7.03750893647973E-03 
1431	 5.72988830060545E-03 
1432	 1.21258367448892E-02 
1433	 1.78325553671287E-02 
1434	 4.78657644407138E-03 
1435	 7.24764647362956E-03 
1436	 2.79130936713307E-02 
1437	 4.41291254852275E-02 
1438	 3.47565700667228E-02 
1439	 2.74038542534946E-02 
1440	 1.95596034992269E-02 
1441	-9.12925239178471E-05 
1442	 4.24003367021082E-03 
1443	 1.73053852306254E-02 
1444	 1.62922622793562E-02 
1445	 2.26742291018716E-02 
1446	 0.027524598677367 
1447	 2.09060851474397E-02 
1448	 1.39402466591237E-02 
1449	 9.03822014991796E-03 
1450	 8.94224382254136E-03 
1451	 1.07549724598448E-02 
1452	 9.7572060107634E-03 
1453	 1.02605341274836E-02 
1454	 1.27816152767965E-02 
1455	 1.51982101114962E-02 
1456	 1.38922941492632E-02 
1457	 1.30802128326588E-02 
1458	 1.37592885351468E-02 
1459	 1.19730728078317E-02 
1460	 1.00551854339421E-02 
1461	 0.010878135863507 
1462	 0.011211744765686 
1463	 7.71866005014619E-03 
1464	 6.4014536196358E-03 
1465	 8.75614230924504E-03 
1466	 1.03924303015771E-02 
1467	 1.07833187673697E-02 
1468	 1.12582960027828E-02 
1469	 1.44615830390946E-02 
1470	 1.52844437910614E-02 
1471	 1.33274130068873E-02 
1472	 1.12498311000539E-02 
1473	 6.96021886388219E-03 
1474	 7.84171590570322E-03 
1475	 1.14457529844576E-02 
1476	 1.18440881718644E-02 
1477	 1.43005046431678E-02 
1478	 1.45247421863504E-02 
1479	 1.14541161924394E-02 
1480	 9.92458469877544E-03 
1481	 9.73937531462012E-03 
1482	 8.35715653427416E-03 
1483	 4.31047024170481E-03 
1484	 4.15325083438153E-03 
1485	 6.44088587527121E-03 
1486	 6.96803191228728E-03 
1487	 8.83118273626922E-03 
1488	 8.8007597629276E-03 
1489	 6.45724602840116E-03 
1490	 5.95758547922196E-03 
1491	 6.08013804422317E-03 
1492	 6.04469193833405E-03 
1493	 6.20699758214761E-03 
1494	 6.51386870256594E-03 
1495	 7.14872482430806E-03 
1496	 7.07403961441126E-03 
1497	 6.92504174834711E-03 
1498	 6.86286504461517E-03 
1499	 5.98211686317394E-03 
1500	 5.8186628099448E-03 
1501	 6.45724948325116E-03 
1502	 6.44961358039442E-03 
1503	 6.4051953144645E-03 
1504	 6.27653052134487E-03 
1505	 5.40674690270918E-03 
1506	 5.53141039804207E-03 
1507	 6.06628823915955E-03 
1508	 5.86168830120979E-03 
1509	 6.12883042328159E-03 
1510	 6.08007589293019E-03 
1511	 5.5938176812584E-03 
1512	 5.67151825736927E-03 
1513	 5.31005592346743E-03 
1514	 4.68999578899512E-03 
1515	 5.01385443014513E-03 
1516	 5.57854038979767E-03 
1517	 5.91375398506321E-03 
1518	 6.32935495502414E-03 
1519	 6.28347120038707E-03 
1520	 5.89401533000056E-03 
1521	 5.86374643588014E-03 
1522	 6.09396256135744E-03 
1523	 5.96915855330126E-03 
1524	 5.65642729567493E-03 
1525	 6.15503246150791E-03 
1526	 6.69691723406676E-03 
1527	 6.2160461821786E-03 
1528	 5.92692308906076E-03 
1529	 6.35851655879248E-03 
1530	 6.16986829480473E-03 
1531	 5.64489713218377E-03 
1532	 6.03355753587808E-03 
1533	 6.22684341160077E-03 
1534	 5.8108661559363E-03 
1535	 5.95784057086981E-03 
1536	 6.30096660807375E-03 
1537	 0.006257802660251 
1538	 6.14745655615237E-03 
1539	 5.95975106452325E-03 
1540	 5.70059829425782E-03 
1541	 6.00556756059457E-03 
1542	 6.57280172096843E-03 
1543	 6.67381048690843E-03 
1544	 6.62286942882021E-03 
1545	 6.36613903502009E-03 
1546	 5.88157445234709E-03 
1547	 5.65121030433646E-03 
1548	 5.76735342245067E-03 
1549	 6.19568553162131E-03 
1550	 6.15338077289105E-03 
1551	 5.92384304421553E-03 
1552	 6.33001063271415E-03 
1553	 6.13678914492581E-03 
1554	 5.72459072495569E-03 
1555	 6.31206573510445E-03 
1556	 6.62366476713061E-03 
1557	 6.41508085750267E-03 
1558	 6.60870406068563E-03 
1559	 6.58457887303958E-03 
1560	 6.24072480670201E-03 
1561	 6.39021219508908E-03 
1562	 6.73858898731848E-03 
1563	 6.65262455436113E-03 
1564	 6.69650749663239E-03 
1565	 7.17100629993723E-03 
1566	 7.20600565693575E-03 
1567	 6.81765283323755E-03 
1568	 6.37386524794541E-03 
1569	 6.04468242353188E-03 
1570	 5.91886039137562E-03 
1571	 5.84022034063468E-03 
1572	 6.29264238837013E-03 
1573	 6.91130372749066E-03 
1574	 6.86823862561533E-03 
1575	 6.55962926558687E-03 
1576	 6.61400374614025E-03 
1577	 6.64016207054673E-03 
1578	 6.45578578358554E-03 
1579	 6.86712491397585E-03 
1580	 6.99762402774972E-03 
1581	 6.13057289198765E-03 
1582	 5.77483296486002E-03 
1583	 6.27645187344401E-03 
1584	 6.65920573057742E-03 
1585	 6.86452854711256E-03 
1586	 7.02995085561621E-03 
1587	 6.80090617132446E-03 
1588	 6.80095838689512E-03 
1589	 7.10631601396918E-03 
1590	 6.85396450948852E-03 
1591	 6.59953924570983E-03 
1592	 6.82173554812888E-03 
1593	 7.29767719274953E-03 
1594	 7.88152583559359E-03 
1595	 7.94612108930834E-03 
1596	 7.4152550493659E-03 
1597	 6.98941548744816E-03 
1598	 6.84872386204277E-03 
1599	 7.04471720127618E-03 
1600	 7.30519691193659E-03 
1601	 6.94698539292671E-03 
1602	 6.57730191997932E-03 
1603	 6.98606847325842E-03 
1604	 7.27508165010734E-03 
1605	 7.16061783536578E-03 
1606	 7.41789985059921E-03 
1607	 7.50508531282578E-03 
1608	 7.26890835354327E-03 
1609	 7.29896920324677E-03 
1610	 7.36463769526732E-03 
1611	 7.38835836269595E-03 
1612	 6.94134584309322E-03 
1613	 6.40680686176709E-03 
1614	 6.63759947940755E-03 
1615	 6.74946595496515E-03 
1616	 6.8536677357613E-03 
1617	 7.5196083816174E-03 
1618	 7.81668727100505E-03 
1619	 7.58575523470163E-03 
1620	 7.44746173752117E-03 
1621	 7.52521982951984E-03 
1622	 7.56358126952378E-03 
1623	 7.22329022005709E-03 
1624	 6.86896976479789E-03 
1625	 7.07285922009972E-03 
1626	 7.20197438967584E-03 
1627	 7.17339523157459E-03 
1628	 7.59100499801988E-03 
1629	 7.61680038748106E-03 
1630	 6.99302689509709E-03 
1631	 6.5669559494809E-03 
1632	 6.75198878613694E-03 
1633	 7.34268494713133E-03 
1634	 7.43570806526897E-03 
1635	 7.52803538156484E-03 
1636	 7.77636212711842E-03 
1637	 7.30526952768871E-03 
1638	 7.11813518964462E-03 
1639	 7.53937250807833E-03 
1640	 7.72292871925611E-03 
1641	 7.38004325351385E-03 
1642	 7.27266978404971E-03 
1643	 7.69263214737328E-03 
1644	 7.9893793462887E-03 
1645	 8.12953371422702E-03 
1646	 7.95767700724592E-03 
1647	 7.70179984929707E-03 
1648	 7.54977726395482E-03 
1649	 7.2911341183585E-03 
1650	 7.36411087507422E-03 
1651	 8.11651557610023E-03 
1652	 8.37687952347149E-03 
1653	 8.15996317728834E-03 
1654	 8.3093718127007E-03 
1655	 7.7961210363443E-03 
1656	 7.58849071849505E-03 
1657	 8.05905009589749E-03 
1658	 7.99697149974974E-03 
1659	 7.61477932738098E-03 
1660	 7.72433266246081E-03 
1661	 7.99188622079246E-03 
1662	 8.10205676044323E-03 
1663	 8.2726411099389E-03 
1664	 8.04766345234952E-03 
1665	 7.53269258026305E-03 
1666	 7.55161904887823E-03 
1667	 7.61462712353704E-03 
1668	 8.12387239515945E-03 
1669	 8.29118088076265E-03 
1670	 7.86349008400096E-03 
1671	 7.91439870839842E-03 
1672	 7.65587573719183E-03 
1673	 7.27776163789568E-03 
1674	 7.67897519639967E-03 
1675	 7.9119676744799E-03 
1676	 7.97789112199358E-03 
1677	 8.16315106840786E-03 
1678	 7.95692687936674E-03 
1679	 7.55714301865016E-03 
1680	 0.007673111869799 
1681	 7.87859395764262E-03 
1682	 7.75442456162449E-03 
1683	 7.86824931052733E-03 
1684	 8.18476857474813E-03 
1685	 8.30134344094413E-03 
1686	 8.07272948571726E-03 
1687	 7.75800495635394E-03 
1688	 7.57036985901819E-03 
1689	 7.24169344066076E-03 
1690	 7.09551345166415E-03 
1691	 7.24671106984257E-03 
1692	 7.44820874676337E-03 
1693	 7.85428817691536E-03 
1694	 8.17893604902245E-03 
1695	 8.47937297285006E-03 
1696	 8.54487317580432E-03 
1697	 8.27509061290872E-03 
1698	 8.35182703194257E-03 
1699	 8.42281573396232E-03 
1700	 8.23872779691364E-03 
1701	 8.07586831470367E-03 
1702	 7.88494379074167E-03 
1703	 7.40889628498093E-03 
1704	 6.95168489718679E-03 
1705	 7.33772835994882E-03 
1706	 7.8578116556282E-03 
1707	 8.26114072453684E-03 
1708	 8.85913512762207E-03 
1709	 8.38118567831238E-03 
1710	 7.69973424733289E-03 
1711	 8.0810091651385E-03 
1712	 8.40033648066301E-03 
1713	 8.11518040978661E-03 
1714	 8.24483021675997E-03 
1715	 8.32487668724092E-03 
1716	 8.37006894530915E-03 
1717	 9.16419748784595E-03 
1718	 8.98168921519121E-03 
1719	 7.50544945260426E-03 
1720	 7.06700734879187E-03 
1721	 7.41995422812904E-03 
1722	 7.70414644707097E-03 
1723	 7.97974412371666E-03 
1724	 8.58054945554095E-03 
1725	 8.92060199386563E-03 
1726	 8.31886228534333E-03 
1727	 8.42640293520406E-03 
1728	 8.73294712310749E-03 
1729	 7.76391191993586E-03 
1730	 7.59489239100795E-03 
1731	 8.5195229052172E-03 
1732	 8.83142152939203E-03 
1733	 9.21238049186752E-03 
1734	 9.06781207812028E-03 
1735	 8.60233449437338E-03 
1736	 9.25947604793767E-03 
1737	 9.52654011968099E-03 
1738	 9.06046008425672E-03 
1739	 9.0457278718673E-03 
1740	 9.43506125995823E-03 
1741	 9.38988807164837E-03 
1742	 9.69211754322001E-03 
1743	 1.07463395949948E-02 
1744	 1.02072017416962E-02 
1745	 8.26581893807759E-03 
1746	 8.10189427595824E-03 
1747	 8.35501826794078E-03 
1748	 9.47222022003832E-03 
1749	 9.39672772327814E-03 
1750	 8.47051981760883E-03 
1751	 8.49464078456591E-03 
1752	 7.9718192496857E-03 
1753	 7.98311669048375E-03 
1754	 9.94279061264879E-03 
1755	 1.03936339761778E-02 
1756	 9.48017383265373E-03 
1757	 9.34483572099209E-03 
1758	 0.008914151223279 
1759	 8.74209557604408E-03 
1760	 9.66873176691094E-03 
1761	 1.01633945851933E-02 
1762	 9.73983784228202E-03 
1763	 9.30560844448589E-03 
1764	 8.06078191997847E-03 
1765	 7.9182207479564E-03 
1766	 9.47439440129133E-03 
1767	 9.81584799824852E-03 
1768	 1.00067092352653E-02 
1769	 9.98134527550853E-03 
1770	 9.03698711125544E-03 
1771	 9.75913067255667E-03 
1772	 1.09200545617694E-02 
1773	 1.04645748530592E-02 
1774	 9.90293325721846E-03 
1775	 7.87227433219298E-03 
1776	 7.44937592077191E-03 
1777	 9.60123995697981E-03 
1778	 1.06464941505409E-02 
1779	 1.26871652031772E-02 
1780	 1.32704847032272E-02 
1781	 1.18858970765476E-02 
1782	 1.05420333773358E-02 
1783	 6.49073891289171E-03 
1784	 6.5175899024494E-03 
1785	 9.94137343429014E-03 
1786	 1.10985532937999E-02 
1787	 1.55554423728564E-02 
1788	 1.56435984178467E-02 
1789	 9.74599851760474E-03 
1790	 6.5100878805956E-03 
1791	 3.19707574343363E-03 
1792	 4.96664316557189E-03 
1793	 9.3034360750042E-03 
1794	 1.08080268020401E-02 
1795	 1.57781298590465E-02 
1796	 1.42638959221493E-02 
1797	 1.07325561870157E-02 
1798	 1.54596898188082E-02 
1799	 8.53632290115476E-03 
1800	-1.3744815118829E-03 
1801	-2.34404152242802E-03 
1802	 1.14994654425269E-02 
1803	 1.71959137624765E-02 
1804	 3.05631027365805E-02 
1805	 3.55033292655039E-02 
1806	 5.89313217646215E-03 
1807	-2.2942741393091E-03 
1808	-7.25712216854501E-04 
1809	 5.75511791758225E-03 
1810	 6.89070507603381E-02 
1811	 7.75905809662824E-02 
1812	 3.32502589326577E-02 
1813	 4.63818520310697E-03 
1814	-0.210611264603308 
1815	-0.174304004234421 
1816	 0.116636371843058 
1817	 0.100711629019242 
1818	 0.288387466919613 
1819	 0.10112109981511 
1820	 0.138983711838263 
1821	 0.199744690401263 
1822	 0.219307525024803 
1823	 0.278303644861375 
1824	 7.77023037444665E-02 
1825	-0.68508240634989 
1826	-0.799306342325009 
1827	-0.320337564140902 
1828	-0.335833798003872 
1829	-0.554238558178349 
1830	-0.287061946147397 
1831	 1.48268710719393 
1832	 2.04484739524504 
1833	-3.27985213275356 
1834	-1.30562865486525 
1835	-1.00655465552719 
1836	-0.859575362306188 
1837	-0.626547505353367 
1838	-0.591237922718903 
1839	-0.709773510065119 
1840	-1.29493387758713 
1841	-10.5768879056459 
1842	 0.14159345180912 
1843	-1.63224609544955E-02 
1844	-3.35440758467209E-02 
1845	-0.204769275534144 
1846	-0.514363859398564 
1847	-0.35985517787484 
1848	-1.38456987249731 
1849	-0.743343546957105 
1850	-0.726808530907767 
1851	-0.594173669955999 
1852	-1.63339120614171 
1853	-2.22059010113335 
1854	-1.33010907997152 
1855	 0.306507901667701 
1856	 0.515103716333188 
1857	 0.859747310122704 
1858	 1.09702077836483 
1859	 7.06263172564011 
1860	 1.04296381508191 
1861	-4.13751783495311 
1862	-4.43608832504634 
1863	-1.74913376020516 
1864	-0.96556956401543 
1865	-1.12479245278947 
1866	-1.83597898115564 
1867	-2.27913291066595 
1868	-16.4238119844683 
1869	 5.99845185651478 
1870	 1.79223774550759 
1871	 0.575254365229668 
1872	 1.00766380200581 
1873	 1.36152151093898 
1874	 5.87377675409795E-02 
1875	 0.905265065615598 
1876	 0.672885845131488 
1877	 0.575059896093691 
1878	 0.537975809320461 
1879	 0.112880019569008 
1880	-3.52555449854125E-02 
1881	-0.177476461530101 
1882	 0.348715267166091 
1883	-2.35071998623712E-02 
1884	 0.167073838638084 
1885	 0.597028455288949 
1886	-3.47480654043897E-02 
1887	-0.351348094370508 
1888	-0.209000131261904 
1889	-0.373385928806241 
1890	-1.07763505174227 
1891	-1.23537644155753 
1892	-0.58470831266971 
1893	-3.22738354044366 
1894	-0.456954619163192 
1895	-0.546806163029782 
1896	-0.630259396111649 
1897	-0.822004744624134 
1898	-4.87500748142836 
1899	-10.4661180721605 
1900	-2.24322992010898 
1901	 0.636850469537433 
1902	 0.718445403018196 
1903	 0.281904656314423 
1904	-0.186641778107612 
1905	-0.427970596612167 
1906	 0.39404451932671 
1907	 0.558691740443172 
1908	 1.29877627135239 
1909	-7.93336046840284 
1910	 1.80464955481945 
1911	 0.381041795923595 
1912	 2.1625359134625 
1913	 3.02913787363637 
1914	 1.95467978644307 
1915	 1.68875220179045 
1916	-9.48062598714153 
1917	-0.225791054005966 
1918	-0.412426299835607 
1919	-7.10266822166141 
1920	 8.29651895557863 
1921	-1.1633598890726 
1922	 7.14920132303699E-02 
1923	-0.307895280507324 
1924	-0.715929795312367 
1925	-0.356565231815175 
1926	-0.442177026787102 
1927	-1.11812862073984 
1928	-6.70386037004975 
1929	 8.10393890598911 
1930	 2.9422574513924 
1931	-12.4269980097554 
1932	-2.67193813467946 
1933	-1.72754755882707 
1934	-1.73623919609342 
1935	-1.37226408965299 
1936	-0.57867321799236 
1937	-0.250817841361782 
1938	-0.246675059632028 
1939	-0.212147856285571 
1940	-0.225641799731872 
1941	-0.237882055871159 
1942	-0.171123990433265 
1943	-6.84590097013424E-03 
1944	 8.86240087858075E-02 
1945	 4.85606799497659E-02 
1946	 4.53479300063187E-02 
1947	-2.03442618340266E-02 
1948	-0.069659118028346 
1949	-5.12524447037553E-02 
1950	-4.74421005438336E-02 
1951	-1.02321273651219E-02 
1952	 2.18314640911096E-03 
1953	 1.48890226926022E-02 
1954	-1.06447887016529E-03 
1955	-8.30616863423714E-03 
1956	 1.88056359435998E-03 
1957	 1.86862043907847E-02 
1958	 1.24957358049724E-02 
1959	 2.03962558229109E-02 
1960	 2.27918035811828E-02 
1961	 1.31572198147291E-02 
1962	 9.71275497601004E-03 
1963	 5.61828996208322E-03 
1964	 5.97821774706522E-03 
1965	 3.68506988270864E-03 
1966	 2.65915173274862E-03 
1967	 4.48954929096473E-03 
1968	 1.02416946733189E-02 
1969	 1.05518741344378E-02 
1970	 6.61970591854151E-03 
1971	 3.76996897407141E-03 
1972	 1.76769734217144E-03 
1973	-2.05252928442049E-03 
1974	-1.9079463665858E-04 
1975	 3.11548709190643E-03 
1976	 9.3006031124876E-04 
1977	 2.18798080629879E-04 
1978	-2.44268633832934E-03 
1979	-4.25379905062463E-03 
1980	-7.38601390776328E-03 
1981	-3.44792912421308E-03 
1982	 1.23144469224824E-03 
1983	 3.57067735981034E-03 
1984	 4.79281230769395E-03 
1985	 3.9354770806219E-03 
1986	 3.63849383373978E-03 
1987	 3.0750937698153E-03 
1988	 3.62939890598915E-03 
1989	 5.03593639519294E-03 
1990	 2.13062289845374E-03 
1991	-9.26768753302091E-05 
1992	 2.8504223755904E-03 
1993	 6.57060155557902E-03 
1994	 8.90674355037777E-03 
1995	 1.17839244223559E-02 
1996	 1.45896211303155E-02 
1997	 1.61925066844252E-02 
1998	 1.30215111745665E-02 
1999	 8.99795509245742E-03 
2000	 5.22575964140184E-03 
2001	-7.54633792284648E-03 
2002	-1.37153336954091E-02 
2003	-1.20032786533481E-02 
2004	-1.59451744934878E-02 
2005	-7.47883476027011E-03 
2006	 5.27081123889761E-03 
2007	 1.36071684852827E-03 
2008	-6.1362694878121E-03 
2009	-6.09571019389474E-03 
2010	-9.99776334915074E-03 
2011	-1.03947814015405E-02 
2012	-3.79609819956493E-03 
2013	 6.3798728830298E-03 
2014	 4.87194993674856E-03 
2015	 1.95524460199869E-03 
2016	 1.19057502645538E-03 
2017	 5.03225585917643E-03 
2018	 5.12260458248923E-03 
2019	 5.12758751361811E-03 
2020	 6.51519201445875E-03 
2021	 2.69832231981966E-03 
2022	 1.49564631965688E-03 
2023	 5.32654711606982E-03 
2024	 4.67112131279295E-03 
2025	 2.54038361073384E-05 
2026	-9.5776145434008E-04 
2027	-6.00915123832132E-04 
2028	-2.29315384357536E-03 
2029	-2.55476764060042E-03 
2030	 9.88752528342722E-04 
2031	-3.89975540257402E-04 
2032	-2.54797753594462E-03 
2033	-1.4653228850263E-03 
2034	-5.82029652508487E-04 
2035	 1.24500331925239E-03 
2036	 3.92897165058703E-03 
2037	 4.53666067720147E-03 
2038	 3.23162330515864E-03 
2039	 2.3724436773062E-03 
2040	 1.10520226783087E-03 
2041	 7.36032027808059E-04 
2042	-2.24831118062418E-04 
2043	 7.78603025108027E-05 
2044	 1.97375201224498E-03 
2045	 3.63188913512231E-03 
2046	 4.05403586764408E-03 
2047	 3.49062550070564E-03 
2048	 4.33560192607573E-03 
2049	 3.95786654866657E-03 
2050	 5.92468489321563E-04 
2051	 1.1595449409253E-03 
2052	 6.63925092704987E-04 
2053	-1.69100677342455E-03 
2054	 1.07964347666583E-03 
2055	 1.41525189495042E-03 
2056	 9.74013839258667E-04 
2057	-5.82974668883875E-04 
2058	-9.54330706016552E-04 
2059	-1.49477285162845E-03 
2060	-2.48095449525628E-03 
2061	-2.94720732544188E-03 
2062	-5.2446506089085E-03 
2063	-7.01261687507648E-03 
2064	-5.03877923783689E-03 
2065	-1.24233164464145E-03 
2066	 2.05171713449402E-03 
2067	 5.90735700088473E-03 
2068	 6.43324992592969E-03 
2069	 4.27443533406408E-03 
2070	 4.09842355414081E-03 
2071	 3.20101005024897E-03 
2072	 8.3262255741615E-04 
2073	 6.97605070776796E-04 
2074	 3.17198384087321E-03 
2075	 2.59389726024008E-03 
2076	 8.84038400256614E-04 
2077	 1.46551150643997E-03 
2078	 1.73062192209327E-03 
2079	 1.93352546112202E-03 
2080	 3.92408810438247E-03 
2081	 4.31206778786533E-03 
2082	 3.72631489829983E-03 
2083	 3.65385998347643E-03 
2084	 3.66177348306253E-03 
2085	 3.41508082492282E-03 
2086	 3.74275197071869E-03 
2087	 4.29672401848125E-03 
2088	 3.25031477067716E-03 
2089	 2.45930046564525E-03 
2090	 1.52468020991196E-03 
2091	-5.23335863988631E-04 
2092	-4.10146040332399E-04 
2093	 2.06963403048482E-03 
2094	 3.84063632200986E-03 
2095	 6.78673040336697E-03 
2096	 8.16271292046075E-03 
2097	 8.84680144747857E-03 
2098	 8.47522663348749E-03 
2099	 6.29320947322422E-03 
2100	 6.14405080540872E-03 
2101	 5.6911628217254E-03 
2102	 5.05235144112159E-03 
2103	 5.16968252598198E-03 
2104	 5.07067490975053E-03 
2105	 4.10727368638271E-03 
2106	 4.53543049631752E-03 
2107	 5.70769597112317E-03 
2108	 5.43560241954612E-03 
2109	 5.53297631950192E-03 
2110	 0.006157431809956 
2111	 5.96426654615445E-03 
2112	 5.47282720683059E-03 
2113	 5.14198659191373E-03 
2114	 3.72438060048843E-03 
2115	 3.72176256933392E-03 
2116	 5.70751946684332E-03 
2117	 5.60283843877132E-03 
2118	 4.54124643497524E-03 
2119	 4.5734113718392E-03 
2120	 4.28511465069698E-03 
2121	 3.4110523839431E-03 
2122	 4.04256775572517E-03 
2123	 4.9618567064349E-03 
2124	 2.68906906934102E-03 
2125	 1.7273095108312E-03 
2126	 3.48159425061288E-03 
2127	 3.65875905139524E-03 
2128	 4.07949395685786E-03 
2129	 4.40794223439738E-03 
2130	 3.5962126975076E-03 
2131	 3.98943441297339E-03 
2132	 5.16907309969748E-03 
2133	 6.30396228525975E-03 
2134	 6.92211087228819E-03 
2135	 6.34578185096213E-03 
2136	 6.39498677910753E-03 
2137	 7.33726596528221E-03 
2138	 7.16979709643873E-03 
2139	 5.43348357765749E-03 
2140	 5.79864075550454E-03 
2141	 7.28229813582647E-03 
2142	 0.007625507567369 
2143	 9.3116626584961E-03 
2144	 9.02047460538317E-03 
2145	 6.99639012546224E-03 
2146	 5.56482875878689E-03 
2147	 4.19607610522762E-03 
2148	 4.56687950975898E-03 
2149	 4.54918735635637E-03 
2150	 3.20081836712824E-03 
2151	 2.4472109603515E-03 
2152	 2.75587499219421E-03 
2153	 4.75933076682452E-03 
2154	 6.27584358341901E-03 
2155	 4.8261329247385E-03 
2156	 2.77000946341984E-03 
2157	 2.65300034448951E-03 
2158	 2.14716461403766E-03 
2159	 1.9521659834076E-03 
2160	 4.62603766051921E-03 
2161	 4.98718262034601E-03 
2162	 2.0920061519684E-03 
2163	 2.0784331036087E-03 
2164	 3.66900186557249E-03 
2165	 4.8227086239191E-03 
2166	 7.69842187651378E-03 
2167	 8.38752786954237E-03 
2168	 7.91052004577719E-03 
2169	 6.99778760858286E-03 
2170	 4.01944045886139E-03 
2171	 2.48350335543818E-03 
2172	 3.36968222630463E-03 
2173	 5.0799877427739E-03 
2174	 5.97255437819759E-03 
2175	 7.07564446553689E-03 
2176	 5.01888868225957E-03 
2177	 2.00275356969579E-03 
2178	 1.56126718346501E-03 
2179	 6.27894796958231E-04 
2180	 1.39000346469345E-03 
2181	 3.78201420060143E-03 
2182	 5.4139640622944E-03 
2183	 5.98188877396345E-03 
2184	 5.68702116160984E-03 
2185	 4.36880305705338E-03 
2186	 3.58523754301381E-03 
2187	 1.52889130525033E-03 
2188	 0.002227558870675 
2189	 6.04788449478407E-03 
2190	 6.55877653276035E-03 
2191	 5.59244343244389E-03 
2192	 6.21273397276755E-03 
2193	 5.82156854113981E-03 
2194	 5.96766992094199E-03 
2195	 8.66678716119029E-03 
2196	 9.40371959786929E-03 
2197	 8.19461378626037E-03 
2198	 8.31056966823816E-03 
2199	 8.56845339849751E-03 
2200	 9.54124062169849E-03 
2201	 8.85383202205572E-03 
2202	 7.21596705404187E-03 
2203	 7.81322763468755E-03 
2204	 9.61816515457953E-03 
2205	 1.10643028950825E-02 
2206	 1.14894952591853E-02 
2207	 9.84994857807429E-03 
2208	 6.59457117476948E-03 
2209	 5.85369246162489E-03 
2210	 5.77702002934467E-03 
2211	 6.36531767106674E-03 
2212	 7.29335094493823E-03 
2213	 6.15503151208831E-03 
2214	 6.75672958971442E-03 
2215	 7.5304232131711E-03 
2216	 6.85297461821895E-03 
2217	 6.35777536939197E-03 
2218	 7.40319536526663E-03 
2219	 6.08032066563574E-03 
2220	 2.28751636739253E-03 
2221	 7.82675542640583E-04 
2222	-1.55562930612496E-03 
2223	-1.32842016878442E-03 
2224	 8.88383588541167E-04 
2225	 2.63808392287744E-03 
2226	 7.96908590360632E-03 
2227	 8.77846147094251E-03 
2228	 6.20175931035642E-03 
2229	 6.24561989676182E-03 
2230	 5.00504163136906E-03 
2231	 5.28407646037684E-03 
2232	 8.08861206899963E-03 
2233	 8.85206502059536E-03 
2234	 9.91549046145878E-03 
2235	 7.83822393418945E-03 
2236	 3.40417467599787E-03 
2237	 4.18478831619847E-03 
2238	 5.81299943374388E-03 
2239	 6.18827672594618E-03 
2240	 6.98550052582496E-03 
2241	 7.02355853961832E-03 
2242	 6.68857717710292E-03 
2243	 5.65854668389286E-03 
2244	 5.51017056956829E-03 
2245	 8.71882826014142E-03 
2246	 1.00790353423706E-02 
2247	 8.11432599016385E-03 
2248	 6.15767287209755E-03 
2249	 3.40537513426732E-03 
2250	 9.52275125944333E-04 
2251	 9.86763918004774E-04 
2252	 6.01154304835052E-03 
2253	 8.40633108616749E-03 
2254	 6.18809930539146E-03 
2255	 4.76888787865685E-03 
2256	-7.50298641141695E-04 
2257	-1.70233354469065E-03 
2258	 3.60352677117419E-03 
2259	 5.67877707854235E-03 
2260	 7.41989586065701E-03 
2261	 1.06682483833503E-02 
2262	 1.18305474118535E-02 
2263	 9.81701726639521E-03 
2264	 1.08810874095944E-02 
2265	 1.39212192632651E-02 
2266	 1.27222931423878E-02 
2267	 9.77005081687572E-03 
2268	 7.27718014984369E-03 
2269	 3.92417822145001E-03 
2270	 1.61336086058999E-03 
2271	-1.79819721568481E-03 
2272	-3.16610007716096E-03 
2273	-4.22536630653286E-03 
2274	-5.5785555925072E-03 
2275	-4.80769136791031E-03 
2276	-2.29856310200497E-03 
2277	 5.60526164029236E-04 
2278	 1.93235213165412E-03 
2279	 5.40513257457276E-03 
2280	 6.73247981845404E-03 
2281	 5.36205263179604E-03 
2282	 5.05609402298418E-03 
2283	 3.51253199464519E-03 
2284	 3.90020482077059E-03 
2285	 5.64306120805987E-03 
2286	 6.64744068744169E-03 
2287	 7.28318739415828E-03 
2288	 5.48949832463911E-03 
2289	 5.71063040704112E-03 
2290	 4.92688867322711E-03 
2291	 2.51670089874231E-03 
2292	 0.004432348475727 
2293	 8.23221679003169E-04 
2294	-3.61641117489337E-03 
2295	 2.05140000027282E-04 
2296	 2.42768992431984E-03 
2297	-1.79356998719606E-03 
2298	-1.15093882327931E-03 
2299	 6.19149624881336E-03 
2300	 6.37064732131884E-03 
2301	 1.03708599073737E-02 
2302	 1.58229012129216E-02 
2303	 1.22757607809086E-02 
2304	 1.38319735568732E-02 
2305	 1.39285400984813E-02 
2306	 1.25104874051842E-02 
2307	 1.04954614317833E-02 
2308	 5.6503426608348E-03 
2309	 7.93745288927016E-03 
2310	 9.29544268203811E-03 
2311	 1.00099880037273E-02 
2312	 1.33207925105386E-02 
2313	 1.08058494001457E-02 
2314	 7.44440691881832E-03 
2315	 5.24201711685485E-03 
2316	 3.3470437204181E-03 
2317	 9.68847211238354E-03 
2318	 1.15575751007736E-02 
2319	 1.04276790331399E-02 
2320	 1.26783723336658E-02 
2321	 3.00063741467308E-03 
2322	-1.71668656374972E-03 
2323	-2.71725058026241E-03 
2324	-1.21204736153638E-02 
2325	-0.016824536635612 
2326	-1.98437998298529E-02 
2327	-1.96876748800376E-02 
2328	-1.48913860862669E-02 
2329	-6.2768269552911E-03 
2330	 5.12160033671736E-03 
2331	 1.02001211112825E-02 
2332	 8.52638947974914E-03 
2333	 3.20375123949807E-03 
2334	-3.64931616059034E-03 
2335	-8.27991408501923E-03 
2336	-3.05731242064476E-03 
2337	 4.42025499182919E-03 
2338	-1.24454632547556E-03 
2339	-3.31729200198144E-03 
2340	 6.49507490757651E-03 
2341	 4.92880566007697E-03 
2342	-6.0671544022645E-03 
2343	-8.90035428295311E-03 
2344	-1.44203316843955E-02 
2345	-1.57812875741013E-02 
2346	 1.97934302514513E-03 
2347	 4.92214479250786E-03 
2348	-8.70456924101696E-03 
2349	-1.77359295584715E-02 
2350	-3.66051239695425E-02 
2351	-4.34989138254813E-02 
2352	-3.20931342151826E-02 
2353	-0.033082107554662 
2354	-2.83165621180432E-02 
2355	-3.81577968329135E-03 
2356	 8.67134485564259E-04 
2357	-8.19418111648365E-03 
2358	-5.84806541155134E-03 
2359	-2.24799820137075E-02 
2360	-3.34408814908794E-02 
2361	-3.33055563490288E-02 
2362	-4.90464258276846E-02 
2363	-4.55692407727403E-02 
2364	-3.95310686267515E-02 
2365	-2.94561604986901E-02 
2366	-3.99806280814595E-03 
2367	-1.19623678880717E-02 
2368	-3.48201917864488E-02 
2369	-3.89563520476543E-02 
2370	-3.67392315735879E-02 
2371	-2.58219589217994E-02 
2372	-9.68798853808867E-03 
2373	-2.09866149597533E-02 
2374	-3.80247215345463E-02 
2375	-4.15188097416665E-02 
2376	-4.40955642241141E-02 
2377	-3.13109884579907E-02 
2378	-2.97522853804858E-03 
2379	 6.84388440263536E-03 
2380	 0.014948238136374 
2381	 0.042546285909097 
2382	 1.70723640555474E-02 
2383	-1.70206270393065E-02 
2384	-2.61518329568267E-02 
2385	-5.48836309610894E-02 
2386	-7.40105706220025E-02 
2387	-0.088319692647484 
2388	-8.04084271257471E-02 
2389	-8.73430032313308E-02 
2390	-0.106372436127101 
2391	-9.11169628036826E-02 
2392	-0.103630967881402 
2393	-0.115226523692918 
2394	-9.67724167488211E-02 
2395	-5.99414973925656E-02 
2396	-1.85590006087535E-02 
2397	-0.024072118463285 
2398	 2.1132646559531E-03 
2399	 5.41968088733311E-02 
2400	 1.44747687379022E-02 
2401	 6.12419192084888E-02 
2402	 0.126663765698329 
2403	 1.01199222329737E-02 
2404	 2.31861877136794E-02 
2405	 6.81612010445104E-02 
2406	-5.00104875274452E-02 
2407	-4.88935830351672E-02 
2408	-8.99376086257729E-02 
2409	-0.221299778010777 
2410	-0.195816812772505 
2411	-6.15948622062541E-02 
2412	 5.11804496892981E-02 
2413	 3.61321892640554E-02 
2414	 5.47522478637192E-03 
2415	-4.15192293842479E-02 
2416	-0.111752925873362 
2417	-8.72396107871181E-02 
2418	-0.140033475311538 
2419	-0.254797730744138 
2420	-0.159725679600164 
2421	-0.132671572699523 
2422	-0.147190541552442 
2423	-9.57402481445079E-02 
2424	-0.15775662172561 
2425	-0.349780037668244 
2426	-0.355473840852577 
2427	-0.256593129301636 
2428	-0.285702768811516 
2429	-0.139236251834689 
2430	 3.03824700189923E-02 
2431	 2.28795309779648E-02 
2432	-8.12183489568597E-03 
2433	-9.96498979423398E-02 
2434	-0.146017619448437 
2435	 8.4560891583749E-03 
2436	-6.43353312418581E-02 
2437	-0.106300707397946 
2438	-4.07200162798231E-02 
2439	-0.178193263150998 
2440	-0.207572410094295 
2441	-0.119828953895477 
2442	-0.1601182539931 
2443	-0.121689464976492 
2444	-0.128426320347878 
2445	-5.54930931759926E-02 
2446	-6.98630879821861E-02 
2447	-0.290537490758397 
2448	-0.277403712943223 
2449	-0.207171488171786 
2450	-0.119400692995339 
2451	 12.4422166527534 
2452	 5.73734495096582 
2453	 1.20323142557733 
2454	 0.855996076121298 
2455	 0.291573605516737 
2456	 0.420785497237063 
2457	 0.428500983725851 
2458	 0.120122254810392 
2459	 4.57418813913245E-02 
2460	-0.027983939664809 
2461	-0.293317122630621 
2462	-0.50263975885629 
2463	-0.572175404801241 
2464	-1.76556950267164 
2465	-3.16751725405769 
2466	-0.510358672477944 
2467	 8.70149033696956E-03 
2468	-0.728553604952866 
2469	-0.937752704141697 
2470	-3.73802503250791 
2471	 15.595186005604 
2472	 6.53225775002448 
2473	 4.69525249677658 
2474	 1.66528009547918 
2475	-10.8023065513763 
2476	-25.2125912603841 
2477	-0.632654310945337 
2478	-0.569971500046832 
2479	-1.06283205004676 
2480	-2.66250108195716 
2481	-197.822757864179 
2482	 6.08057398357662 
2483	-1.31462364064819 
2484	-0.663854765712041 
2485	-1.02541734111213 
2486	-1.0295119682512 
2487	-2.28608874756299 
2488	-0.454738198165666 
2489	 12.5106969474004 
2490	 1.58787360474984 
2491	 3.9975990745651 
2492	 0.867788532909825 
2493	 1.62971979360459 
2494	 5.68315149107539E-02 
2495	 6.37257757235094E-02 
2496	 0.367348566520042 
2497	 4.38897995388556E-02 
2498	 0.10082372412495 
2499	-1.08041730005177 
2500	-0.262280384981764 
