Wavelength	rt0726far00009.asd
350	 3.61664103781106E-02 
351	 3.76254503893109E-02 
352	 3.64110549557048E-02 
353	 3.57181539822898E-02 
354	 3.71436902133576E-02 
355	 3.65977556594123E-02 
356	 3.63792134222456E-02 
357	 0.036621710300751 
358	 3.67674688186295E-02 
359	 3.61501181712571E-02 
360	 3.61481752090725E-02 
361	 3.66635279363562E-02 
362	 3.66082228245282E-02 
363	 3.60004510623143E-02 
364	 3.60759095948304E-02 
365	 3.68188758412437E-02 
366	 3.61586185260653E-02 
367	 3.57791494410863E-02 
368	 0.035763489096582 
369	 3.58326287418594E-02 
370	 3.60368776740166E-02 
371	 0.035918304265796 
372	 3.56573951402959E-02 
373	 3.57365293916379E-02 
374	 3.56244211750092E-02 
375	 3.58695836373672E-02 
376	 3.61954746084745E-02 
377	 3.51441291228668E-02 
378	 3.55562826695165E-02 
379	 3.62484179591444E-02 
380	 3.58971909341943E-02 
381	 3.58181684636975E-02 
382	 3.60395808794455E-02 
383	 3.61290667196478E-02 
384	 0.03564483314519 
385	 3.58180236632566E-02 
386	 3.60971570303015E-02 
387	 0.036017342037307 
388	 3.54334909313208E-02 
389	 3.53585861402093E-02 
390	 3.57284443273928E-02 
391	 0.036152641451702 
392	 3.60699254761571E-02 
393	 3.60053985867929E-02 
394	 3.60243364650091E-02 
395	 3.59832157433365E-02 
396	 3.55971529261151E-02 
397	 3.55373601865165E-02 
398	 3.58269713682387E-02 
399	 3.59296855301352E-02 
400	 3.61899691225018E-02 
401	 3.62260341842461E-02 
402	 3.59573662142772E-02 
403	 3.62105813068204E-02 
404	 3.62479052787741E-02 
405	 3.60980175854673E-02 
406	 3.60479406564103E-02 
407	 3.61148787588956E-02 
408	 3.61043544082964E-02 
409	 3.60613354909031E-02 
410	 3.62520286344242E-02 
411	 3.63011174778467E-02 
412	 3.63012388661417E-02 
413	 3.63559178924381E-02 
414	 0.036392505982095 
415	 3.63281986928059E-02 
416	 0.036277840842735 
417	 3.63973342389722E-02 
418	 3.65728314552596E-02 
419	 3.65917138546568E-02 
420	 3.65314480956418E-02 
421	 3.67657130452563E-02 
422	 3.70077386618071E-02 
423	 3.71341223253868E-02 
424	 3.71501040716942E-02 
425	 3.73177377235255E-02 
426	 3.73996270756912E-02 
427	 3.75250886320715E-02 
428	 3.78904945485513E-02 
429	 0.037847754794244 
430	 3.78136421019551E-02 
431	 3.79969351537582E-02 
432	 0.038241940714648 
433	 0.03836636313088 
434	 0.038473898305237 
435	 0.038661816635008 
436	 3.87872533763455E-02 
437	 3.90025034184469E-02 
438	 3.92162643370256E-02 
439	 3.92625882324565E-02 
440	 3.95899768985605E-02 
441	 3.98247103025514E-02 
442	 3.98631269136771E-02 
443	 4.01243942939781E-02 
444	 4.03187847386913E-02 
445	 4.05019097293462E-02 
446	 4.07542721960064E-02 
447	 4.08798404025072E-02 
448	 4.10873356608711E-02 
449	 4.13191813758381E-02 
450	 4.13483075068212E-02 
451	 4.14629602244625E-02 
452	 4.16680706311065E-02 
453	 4.19038052150026E-02 
454	 0.042079271407685 
455	 4.20982878591269E-02 
456	 4.21996225453303E-02 
457	 4.25777240032058E-02 
458	 4.24961351452845E-02 
459	 4.24882351852085E-02 
460	 4.26918983925406E-02 
461	 4.27904199703939E-02 
462	 4.28648625310985E-02 
463	 4.29631561856696E-02 
464	 4.31297272953961E-02 
465	 4.34431385892783E-02 
466	 4.34715347678953E-02 
467	 4.34562060816977E-02 
468	 4.38536608285104E-02 
469	 4.39810173262797E-02 
470	 4.40188509842191E-02 
471	 4.41452938670241E-02 
472	 4.44242757331447E-02 
473	 4.45929464704472E-02 
474	 4.47233080480154E-02 
475	 4.49188460087787E-02 
476	 4.50396890293883E-02 
477	 4.52437243098731E-02 
478	 4.54539119441156E-02 
479	 4.54747998171159E-02 
480	 4.57093075681507E-02 
481	 4.59415290723435E-02 
482	 4.60502854614723E-02 
483	 4.62704164867377E-02 
484	 4.65516496025127E-02 
485	 4.68097106959096E-02 
486	 4.69676282009046E-02 
487	 4.70711940807206E-02 
488	 4.73565401677595E-02 
489	 4.77190705231605E-02 
490	 4.77562856789787E-02 
491	 4.80436955580697E-02 
492	 4.83626217459287E-02 
493	 4.85265388481898E-02 
494	 4.88722470638122E-02 
495	 4.92581803019926E-02 
496	 4.96043910854309E-02 
497	 4.98777559339008E-02 
498	 5.01748734119081E-02 
499	 5.05190594364609E-02 
500	 5.08952736941105E-02 
501	 5.12431907038984E-02 
502	 5.16553096598858E-02 
503	 5.20779092319756E-02 
504	 5.24559857557335E-02 
505	 0.052915573237909 
506	 0.053272105816204 
507	 5.35584581139575E-02 
508	 5.39761399503737E-02 
509	 5.44660398192326E-02 
510	 5.49266380044407E-02 
511	 5.53364876167724E-02 
512	 5.58996441218979E-02 
513	 5.63187671387041E-02 
514	 5.66748984775702E-02 
515	 5.71883566199049E-02 
516	 5.77953918264091E-02 
517	 0.058288563476015 
518	 5.86804003436152E-02 
519	 5.92636401412492E-02 
520	 5.97175800980717E-02 
521	 6.01456962376127E-02 
522	 6.06904146946963E-02 
523	 6.12886019744761E-02 
524	 6.17613309761118E-02 
525	 6.21962751790705E-02 
526	 6.28424002514331E-02 
527	 6.34255136758725E-02 
528	 6.39468722702426E-02 
529	 6.44510891538783E-02 
530	 6.49873650609988E-02 
531	 6.55181363117595E-02 
532	 0.066076466799301 
533	 6.66928017327544E-02 
534	 6.72402227105894E-02 
535	 6.77971408159177E-02 
536	 6.83939467023798E-02 
537	 6.89888386772921E-02 
538	 6.96283023045758E-02 
539	 7.02351613113486E-02 
540	 7.07848462715546E-02 
541	 7.15271942549422E-02 
542	 7.22015065338012E-02 
543	 7.27682612472669E-02 
544	 7.33369793241176E-02 
545	 7.39571093599329E-02 
546	 7.46275357461203E-02 
547	 7.53170401373442E-02 
548	 7.59594398744323E-02 
549	 0.07657943204161 
550	 7.72161811994833E-02 
551	 7.79069098003757E-02 
552	 7.86394325050904E-02 
553	 7.92717676163917E-02 
554	 7.98224286268791E-02 
555	 8.04889310158035E-02 
556	 0.081172314611606 
557	 8.17980639325629E-02 
558	 8.23535918580577E-02 
559	 8.30530910435837E-02 
560	 8.36108960211775E-02 
561	 8.40510510722699E-02 
562	 8.45834948958867E-02 
563	 8.51138889847805E-02 
564	 8.56463603393956E-02 
565	 8.61397409243913E-02 
566	 8.64322067496094E-02 
567	 8.67876622610739E-02 
568	 8.71673931453552E-02 
569	 8.74552264734921E-02 
570	 8.78019786430932E-02 
571	 8.81041979198339E-02 
572	 0.088346320231947 
573	 8.86178688341442E-02 
574	 8.87479256964136E-02 
575	 8.88755854306979E-02 
576	 8.91133736528753E-02 
577	 8.92661918683463E-02 
578	 8.93232597505006E-02 
579	 8.93419379206682E-02 
580	 8.94142142964182E-02 
581	 0.089487912255306 
582	 8.95165337657288E-02 
583	 8.94809425849837E-02 
584	 8.94104883889589E-02 
585	 0.089252758552076 
586	 8.91070366582697E-02 
587	 8.90679427340504E-02 
588	 8.88526601673144E-02 
589	 8.86770699806844E-02 
590	 8.86080322709172E-02 
591	 8.85063779166728E-02 
592	 8.84127209611961E-02 
593	 8.82937413871902E-02 
594	 8.80927364821365E-02 
595	 8.77081527925114E-02 
596	 8.72916578567664E-02 
597	 0.086855107201882 
598	 8.63506220899382E-02 
599	 8.59628128154274E-02 
600	 8.56048879209788E-02 
601	 8.52432376498701E-02 
602	 8.49957136364218E-02 
603	 8.47667739321468E-02 
604	 8.45839700281196E-02 
605	 8.44922379698128E-02 
606	 8.44124667036437E-02 
607	 0.084352205876711 
608	 8.42932011542103E-02 
609	 8.41888575594855E-02 
610	 8.40364541251613E-02 
611	 8.39322883690154E-02 
612	 8.38901827195983E-02 
613	 8.35926902892181E-02 
614	 8.35278445569753E-02 
615	 8.35944595226634E-02 
616	 8.33972764276602E-02 
617	 8.31837391489396E-02 
618	 8.30712440622662E-02 
619	 8.30711549453344E-02 
620	 0.0830630471658 
621	 8.29563448123268E-02 
622	 8.28439060116083E-02 
623	 8.28306896951668E-02 
624	 8.27379027119577E-02 
625	 8.26127438033125E-02 
626	 8.25126382671963E-02 
627	 8.24884026873387E-02 
628	 8.23896538276508E-02 
629	 8.22931067723989E-02 
630	 8.22442590919117E-02 
631	 8.20701282745556E-02 
632	 8.20591470686055E-02 
633	 8.20725675795551E-02 
634	 8.18395370720432E-02 
635	 8.17721462734116E-02 
636	 8.18768076444701E-02 
637	 8.19953081475565E-02 
638	 8.17931303294039E-02 
639	 8.17785904325621E-02 
640	 8.18897294269374E-02 
641	 8.19232488767421E-02 
642	 8.18325897137872E-02 
643	 8.19140806680567E-02 
644	 8.20384969530634E-02 
645	 8.17651240281644E-02 
646	 8.16938225733938E-02 
647	 0.081729109608542 
648	 8.16829813532362E-02 
649	 8.14596003348575E-02 
650	 8.12389611556407E-02 
651	 8.10179123055598E-02 
652	 8.07188377070319E-02 
653	 8.02560156914338E-02 
654	 7.96398028563269E-02 
655	 7.89037763828853E-02 
656	 7.82037003649375E-02 
657	 7.74298887654236E-02 
658	 7.66106538211372E-02 
659	 7.57796550330651E-02 
660	 7.50041704547694E-02 
661	 7.42012698498113E-02 
662	 7.33878034322486E-02 
663	 7.26550817662584E-02 
664	 7.19977242279903E-02 
665	 7.13684667978662E-02 
666	 0.070728961257244 
667	 0.070072733263645 
668	 6.96032111374002E-02 
669	 6.92664149662321E-02 
670	 6.89601615394892E-02 
671	 6.88158963719717E-02 
672	 6.87864206697876E-02 
673	 6.88391155275445E-02 
674	 6.89677127650212E-02 
675	 6.92310657257797E-02 
676	 6.95113035833019E-02 
677	 6.97619893182586E-02 
678	 7.01954730735616E-02 
679	 7.07081957535058E-02 
680	 7.12085590385657E-02 
681	 7.16612918814303E-02 
682	 7.23797145183512E-02 
683	 7.31867011486363E-02 
684	 7.39593296860353E-02 
685	 7.47795436263569E-02 
686	 7.57128990395647E-02 
687	 0.076665933351808 
688	 7.74862962511993E-02 
689	 7.82427343009322E-02 
690	 7.89793408833969E-02 
691	 7.96146679064914E-02 
692	 8.00296493597999E-02 
693	 0.080613751166055 
694	 8.10201307263456E-02 
695	 8.10791293790854E-02 
696	 8.10612689132156E-02 
697	 8.10559906870171E-02 
698	 0.080966997872673 
699	 8.06749213959404E-02 
700	 8.03160046156361E-02 
701	 7.99237570601219E-02 
702	 0.079494117153114 
703	 7.89786878634994E-02 
704	 0.078338375120646 
705	 7.76402047706523E-02 
706	 7.69419172038329E-02 
707	 7.62094518859386E-02 
708	 7.53291062607848E-02 
709	 7.42562688570046E-02 
710	 7.30289316524696E-02 
711	 0.071943836443799 
712	 0.070688478584453 
713	 6.92538676024286E-02 
714	 6.79494402522726E-02 
715	 6.67688493849568E-02 
716	 6.53899602312754E-02 
717	 6.36686743726237E-02 
718	 6.22391439951049E-02 
719	 6.05045343827436E-02 
720	 5.88735713829807E-02 
721	 5.75892263402378E-02 
722	 5.62282486830553E-02 
723	 5.46901794353289E-02 
724	 5.31211524972245E-02 
725	 5.14797576981031E-02 
726	 4.97639935163574E-02 
727	 4.78996324873597E-02 
728	 4.58700437043343E-02 
729	 4.37797324441608E-02 
730	 4.16404478873271E-02 
731	 3.96055939801147E-02 
732	 3.77753992007764E-02 
733	 3.64075442104062E-02 
734	 3.52966691965972E-02 
735	 3.43251654909891E-02 
736	 0.033487005736986 
737	 3.28525979909366E-02 
738	 0.032324879815462 
739	 3.18539736105501E-02 
740	 3.16294968214138E-02 
741	 3.14097575582755E-02 
742	 3.12346128945714E-02 
743	 0.031251219942581 
744	 3.12112413695292E-02 
745	 3.11163149831532E-02 
746	 3.10386103073531E-02 
747	 3.11048675473501E-02 
748	 3.10906709811273E-02 
749	 3.11060594161525E-02 
750	 3.12252534457472E-02 
751	 3.11007845110914E-02 
752	 3.11106668175431E-02 
753	 3.12008022542031E-02 
754	 3.11234442307113E-02 
755	 3.11898062891811E-02 
756	 3.12123820575879E-02 
757	 3.11825606349816E-02 
758	 3.14907555342065E-02 
759	 0.031927576584485 
760	 3.21566558378802E-02 
761	 3.19421374755377E-02 
762	 3.21348545602974E-02 
763	 0.032025581167418 
764	 3.17905084901468E-02 
765	 3.17711077746577E-02 
766	 3.17957503369932E-02 
767	 3.19016409469416E-02 
768	 3.20740221145387E-02 
769	 0.032235714811219 
770	 3.23819579105478E-02 
771	 3.24759156169811E-02 
772	 3.25397170047964E-02 
773	 3.27634284316392E-02 
774	 0.033005382172437 
775	 3.31859504992576E-02 
776	 0.033296783723813 
777	 3.35566147905773E-02 
778	 0.033806212562947 
779	 3.40042882990097E-02 
780	 0.034256014170429 
781	 3.45490578125026E-02 
782	 0.034863269815526 
783	 3.51697820523292E-02 
784	 3.54122864966106E-02 
785	 3.58550782096468E-02 
786	 3.62664166558654E-02 
787	 3.63831817938275E-02 
788	 3.68030323835506E-02 
789	 3.72526967706926E-02 
790	 3.76354111817763E-02 
791	 3.80271549556828E-02 
792	 3.82833230284411E-02 
793	 3.85900729307628E-02 
794	 3.90272582827053E-02 
795	 3.94231123273514E-02 
796	 3.97333011415356E-02 
797	 4.00183900104922E-02 
798	 4.03481469130781E-02 
799	 4.06620914306515E-02 
800	 4.08882308789524E-02 
801	 4.11174527740345E-02 
802	 4.14796485142998E-02 
803	 4.16390250577616E-02 
804	 4.17907478072639E-02 
805	 0.04197080118778 
806	 4.19987626617891E-02 
807	 4.19610904618174E-02 
808	 4.19433117191412E-02 
809	 4.19398158027069E-02 
810	 4.16887539513651E-02 
811	 4.15939379427902E-02 
812	 0.0415242489445 
813	 4.11815837619126E-02 
814	 4.08281818168977E-02 
815	 4.05005340524817E-02 
816	 4.01665218713065E-02 
817	 0.03975068444761 
818	 3.93491976508301E-02 
819	 3.87749448172607E-02 
820	 3.80739468842661E-02 
821	 3.76411010851202E-02 
822	 0.036290357727057 
823	 3.49521014733473E-02 
824	 3.42968800990835E-02 
825	 3.29926130389991E-02 
826	 3.16636988712253E-02 
827	 3.03436779111383E-02 
828	 2.89840604421163E-02 
829	 2.77400311467035E-02 
830	 2.65390279929749E-02 
831	 2.55018191505496E-02 
832	 2.48597217156621E-02 
833	 0.02407387183387 
834	 2.35076998025703E-02 
835	 2.32342271016061E-02 
836	 2.28378210474904E-02 
837	 2.26634180951802E-02 
838	 2.23816663483212E-02 
839	 2.18739556869985E-02 
840	 2.19487049686011E-02 
841	 0.021775910741769 
842	 2.14303354947546E-02 
843	 2.12370567250096E-02 
844	 2.09587710190294E-02 
845	 2.09031459641286E-02 
846	 2.09146887933063E-02 
847	 2.05943006548004E-02 
848	 2.05168474922133E-02 
849	 2.02861006366721E-02 
850	 1.99397153140597E-02 
851	 2.01350930040551E-02 
852	 1.98421437012928E-02 
853	 1.95126847248973E-02 
854	 1.95575819432492E-02 
855	 1.96097200151966E-02 
856	 1.95395426449098E-02 
857	 1.93682867951992E-02 
858	 1.91634497103954E-02 
859	 1.89171556752663E-02 
860	 0.018939463788102 
861	 1.90325750379495E-02 
862	 1.88302159934044E-02 
863	 0.018680139958845 
864	 1.86368496690734E-02 
865	 1.86067250854413E-02 
866	 1.83955564425065E-02 
867	 1.80228779698664E-02 
868	 1.79627211316381E-02 
869	 1.81181856417927E-02 
870	 1.76432556787084E-02 
871	 1.75773054755061E-02 
872	 1.76093839140478E-02 
873	 1.74104100603343E-02 
874	 1.72840671415299E-02 
875	 1.70447981802249E-02 
876	 1.68770450725217E-02 
877	 1.69154837518243E-02 
878	 1.67357147363487E-02 
879	 1.63990109354857E-02 
880	 1.61327430016647E-02 
881	 1.61563356395936E-02 
882	 1.62204890840546E-02 
883	 0.016024775951278 
884	 1.56047529968395E-02 
885	 1.52833580505931E-02 
886	 1.54434731309094E-02 
887	 1.54342823212378E-02 
888	 1.52180856660135E-02 
889	 1.54912829021856E-02 
890	 1.49769706849332E-02 
891	 1.47425911974434E-02 
892	 1.52921627456584E-02 
893	 1.52700372549415E-02 
894	 1.48919784915948E-02 
895	 1.45520411077822E-02 
896	 1.45976175205673E-02 
897	 1.48797840897295E-02 
898	 1.48369154886007E-02 
899	 1.45428978415829E-02 
900	 1.42865824847958E-02 
901	 1.40033796635698E-02 
902	 1.40971592915575E-02 
903	 1.43541156625143E-02 
904	 1.44024097950438E-02 
905	 1.43521185383116E-02 
906	 1.41888178134045E-02 
907	 1.40373445589027E-02 
908	 1.40948009029914E-02 
909	 1.42579831378675E-02 
910	 0.014184809207407 
911	 1.39243082264988E-02 
912	 1.38448626242426E-02 
913	 0.013651795275622 
914	 1.34432536701945E-02 
915	 1.34078703985429E-02 
916	 1.36615715071753E-02 
917	 1.30345470343997E-02 
918	 1.22922795494517E-02 
919	 1.21707654231877E-02 
920	 0.01291555315085 
921	 1.34097600355078E-02 
922	 1.31480650567533E-02 
923	 1.24445629888603E-02 
924	 1.30199705123275E-02 
925	 1.26272338412996E-02 
926	 1.20232027597709E-02 
927	 1.23567278648201E-02 
928	 1.23964503276607E-02 
929	 1.37816091819986E-02 
930	 1.55786800156282E-02 
931	 1.52527003028056E-02 
932	 1.26916206579726E-02 
933	 1.34171668544523E-02 
934	 1.44737042487885E-02 
935	 1.06685033601798E-02 
936	 9.08793314369617E-03 
937	 1.15039788643513E-02 
938	 1.49329905421273E-02 
939	 1.55404846335118E-02 
940	 1.05438975788465E-02 
941	 1.20012198574961E-02 
942	 0.015917965891596 
943	 1.21402592038799E-02 
944	 7.80942070954301E-03 
945	 1.00908435426362E-02 
946	 1.50408670035035E-02 
947	 1.38180776319022E-02 
948	 0.010262481183248 
949	 1.15485389342792E-02 
950	 1.44062534345301E-02 
951	 1.13677214636842E-02 
952	 1.12600433208861E-02 
953	 0.012122194339525 
954	 1.25036376987989E-02 
955	 1.20659580900897E-02 
956	 1.08444389340967E-02 
957	 1.18444214055274E-02 
958	 1.31157659565037E-02 
959	 1.05397471904441E-02 
960	 9.6973571963176E-03 
961	 1.18560078231155E-02 
962	 1.40592943112497E-02 
963	 0.012285165236713 
964	 1.27225175603846E-02 
965	 1.18963346730121E-02 
966	 1.06209762029704E-02 
967	 1.23677451769712E-02 
968	 0.012317461706224 
969	 1.18015088112157E-02 
970	 1.15183797746992E-02 
971	 0.011207205341123 
972	 1.16680293852815E-02 
973	 1.20134876163896E-02 
974	 1.19248177722159E-02 
975	 1.17748166089765E-02 
976	 1.09199197742562E-02 
977	 1.11183105189907E-02 
978	 1.20092063586531E-02 
979	 1.15068009563936E-02 
980	 1.02985459701483E-02 
981	 1.03424476662097E-02 
982	 1.12648656146954E-02 
983	 0.010998842997772 
984	 1.02798510910145E-02 
985	 1.01324741960614E-02 
986	 1.02720831389565E-02 
987	 9.67152085186538E-03 
988	 9.89818128212498E-03 
989	 1.04266587940531E-02 
990	 1.08307097847303E-02 
991	 0.010916762578596 
992	 1.04399392181863E-02 
993	 9.40812567710207E-03 
994	 8.98763134033164E-03 
995	 1.02867588789974E-02 
996	 9.57158405150643E-03 
997	 9.96875348714216E-03 
998	 1.12531841419223E-02 
999	 1.11051636061042E-02 
1000	 9.92909089112983E-03 
1001	 1.13795057613175E-02 
1002	 1.13235667193933E-02 
1003	 1.12706754629686E-02 
1004	 1.10413487032729E-02 
1005	 1.09782656172567E-02 
1006	 1.11042667920085E-02 
1007	 0.011175626984683 
1008	 1.13050716405397E-02 
1009	 1.14349488683195E-02 
1010	 1.17851449531816E-02 
1011	 1.16589099140725E-02 
1012	 1.09941131314297E-02 
1013	 0.01077621856513 
1014	 1.06353787173096E-02 
1015	 1.05668470413823E-02 
1016	 1.04790007812503E-02 
1017	 1.05840387600406E-02 
1018	 1.05574100452232E-02 
1019	 1.01506569663156E-02 
1020	 1.01511274704946E-02 
1021	 1.04220145543217E-02 
1022	 1.07604696655292E-02 
1023	 0.011012188702266 
1024	 1.18392418971637E-02 
1025	 1.21393733379545E-02 
1026	 1.20672645610728E-02 
1027	 1.18932608080438E-02 
1028	 1.11836962588083E-02 
1029	 1.09478953420727E-02 
1030	 1.06872784414345E-02 
1031	 1.07473124130474E-02 
1032	 1.13848287970146E-02 
1033	 1.14838512236078E-02 
1034	 1.14344382993162E-02 
1035	 1.13980247973533E-02 
1036	 0.010917324940731 
1037	 1.08562831896428E-02 
1038	 1.10475842920097E-02 
1039	 1.14008475375697E-02 
1040	 1.14935757981506E-02 
1041	 0.011651447591206 
1042	 1.14216349966203E-02 
1043	 1.06326509676384E-02 
1044	 1.04777208842609E-02 
1045	 1.02999928519692E-02 
1046	 1.03957756579663E-02 
1047	 1.11284690257137E-02 
1048	 1.13317174032105E-02 
1049	 1.13971038569593E-02 
1050	 1.14309310772166E-02 
1051	 1.12574570499683E-02 
1052	 1.11266789043843E-02 
1053	 1.07734828879335E-02 
1054	 1.07953959021305E-02 
1055	 1.10355916095401E-02 
1056	 1.12059544033766E-02 
1057	 1.14730293783719E-02 
1058	 1.22020932565512E-02 
1059	 1.22462605780546E-02 
1060	 1.19751020551281E-02 
1061	 1.17227174592004E-02 
1062	 1.11303217760627E-02 
1063	 1.07680611089337E-02 
1064	 0.010242219683672 
1065	 1.01523151562762E-02 
1066	 1.04533041671525E-02 
1067	 1.04912320465227E-02 
1068	 0.010780214624735 
1069	 1.08814723615152E-02 
1070	 1.06471497322617E-02 
1071	 1.05337251661984E-02 
1072	 1.04235461960048E-02 
1073	 1.03233625996093E-02 
1074	 1.05122093171896E-02 
1075	 1.09177700667015E-02 
1076	 1.10297873306977E-02 
1077	 1.13172262314142E-02 
1078	 1.13396977551583E-02 
1079	 1.10031866329401E-02 
1080	 1.08666676442512E-02 
1081	 0.010687268587605 
1082	 1.06575070421207E-02 
1083	 1.07524131411478E-02 
1084	 1.07109869866517E-02 
1085	 1.08251468990377E-02 
1086	 1.08368530118016E-02 
1087	 1.01899117600853E-02 
1088	 1.02273815123857E-02 
1089	 0.010856606186659 
1090	 1.15237004392108E-02 
1091	 1.15093476790974E-02 
1092	 1.16422372266595E-02 
1093	 1.14406188649175E-02 
1094	 1.00364866132281E-02 
1095	 9.73901406228976E-03 
1096	 9.99119681329182E-03 
1097	 1.03667157168093E-02 
1098	 1.15976121509312E-02 
1099	 1.18957324151116E-02 
1100	 1.17445198888891E-02 
1101	 1.18379610542482E-02 
1102	 1.16002026425756E-02 
1103	 1.13024519968352E-02 
1104	 1.10209922717952E-02 
1105	 1.10625518613578E-02 
1106	 1.10251563418345E-02 
1107	 1.07600645792765E-02 
1108	 1.10069680208136E-02 
1109	 1.11836871984174E-02 
1110	 1.15107862255273E-02 
1111	 1.22375258366802E-02 
1112	 1.17321687937119E-02 
1113	 1.01242320729984E-02 
1114	 9.93872410273655E-03 
1115	 8.35433970049061E-03 
1116	 8.41318525015202E-03 
1117	 0.013665279660551 
1118	 1.53690940210978E-02 
1119	 1.52580494097884E-02 
1120	 1.53680555359248E-02 
1121	 1.19182722726494E-02 
1122	 8.20364428423863E-03 
1123	 0.009582975531615 
1124	 8.35061186148786E-03 
1125	 7.04330575416613E-03 
1126	 9.79356848702474E-03 
1127	 1.10841728744896E-02 
1128	 0.013921983124361 
1129	 1.51593154051038E-02 
1130	 1.66407236629915E-02 
1131	 1.49800445240146E-02 
1132	 1.11853894201443E-02 
1133	 9.85330212944652E-03 
1134	 7.9103068310587E-03 
1135	 8.96894053183222E-03 
1136	 1.26088250541815E-02 
1137	 1.29158060962663E-02 
1138	 1.35499986208243E-02 
1139	 1.18319801201587E-02 
1140	 1.01235035012899E-02 
1141	 1.04141160062103E-02 
1142	 9.94873463282321E-03 
1143	 1.22024393097923E-02 
1144	 1.34305156023779E-02 
1145	 0.013382063825819 
1146	 1.52292883329751E-02 
1147	 1.51203973911027E-02 
1148	 1.35327683177335E-02 
1149	 1.23251722617299E-02 
1150	 1.21948963632442E-02 
1151	 0.012786391505767 
1152	 1.25310794471751E-02 
1153	 1.24779034268353E-02 
1154	 1.28102258968456E-02 
1155	 1.31338598561908E-02 
1156	 1.23190470584207E-02 
1157	 1.23261096243792E-02 
1158	 1.22425593770274E-02 
1159	 1.16150818579352E-02 
1160	 1.12757463621092E-02 
1161	 1.08245922533061E-02 
1162	 1.06752253307883E-02 
1163	 1.09549102213247E-02 
1164	 1.10440656421635E-02 
1165	 1.12570258390934E-02 
1166	 0.011484712949016 
1167	 0.01124654785856 
1168	 1.07560206253765E-02 
1169	 1.05300374307156E-02 
1170	 1.08799598301457E-02 
1171	 1.09402151478979E-02 
1172	 1.10073619999349E-02 
1173	 1.08653913376115E-02 
1174	 1.05518419528836E-02 
1175	 1.02924436229288E-02 
1176	 1.05055336611349E-02 
1177	 0.010988490436934 
1178	 1.13169758255001E-02 
1179	 1.16762618549785E-02 
1180	 1.17696909802707E-02 
1181	 1.14445828952962E-02 
1182	 1.14503860915551E-02 
1183	 1.14491134161356E-02 
1184	 1.08592375156799E-02 
1185	 0.010947814958717 
1186	 1.16728973904248E-02 
1187	 1.15430873747508E-02 
1188	 1.16013744005211E-02 
1189	 1.18194933255402E-02 
1190	 1.09680885998215E-02 
1191	 1.05584687098635E-02 
1192	 1.06001771142111E-02 
1193	 1.09507387534225E-02 
1194	 1.08613736654195E-02 
1195	 1.13172797480837E-02 
1196	 1.16386147737064E-02 
1197	 1.08999081811415E-02 
1198	 1.04082664982772E-02 
1199	 1.06281077746577E-02 
1200	 1.08083178110598E-02 
1201	 1.08969576978219E-02 
1202	 1.08397014403791E-02 
1203	 1.04820438235644E-02 
1204	 1.02914072516342E-02 
1205	 1.06599839272668E-02 
1206	 1.11050753741115E-02 
1207	 1.14177156809285E-02 
1208	 1.13846615409069E-02 
1209	 1.09000672502246E-02 
1210	 0.01076211727854 
1211	 1.06471619814159E-02 
1212	 1.04614235471105E-02 
1213	 1.06138170331842E-02 
1214	 1.06569534447932E-02 
1215	 1.06555391582889E-02 
1216	 1.07224751821852E-02 
1217	 1.07147359834862E-02 
1218	 1.05072411591905E-02 
1219	 1.05625100074233E-02 
1220	 1.06477508214102E-02 
1221	 1.06470060018709E-02 
1222	 1.05216854267691E-02 
1223	 1.04094848388684E-02 
1224	 1.03715606564466E-02 
1225	 1.02643223006944E-02 
1226	 1.03351743751453E-02 
1227	 1.05145124492816E-02 
1228	 1.04660526014263E-02 
1229	 1.04174096148563E-02 
1230	 1.05658455308087E-02 
1231	 1.05598558146208E-02 
1232	 1.05449850530758E-02 
1233	 1.05592690392009E-02 
1234	 1.02178889851276E-02 
1235	 1.01315692114618E-02 
1236	 1.02936692928622E-02 
1237	 1.02915211104534E-02 
1238	 1.02353657137232E-02 
1239	 0.01021515741189 
1240	 1.01699000059335E-02 
1241	 1.01257730793504E-02 
1242	 1.03496844102462E-02 
1243	 1.04824491261455E-02 
1244	 1.03087799250922E-02 
1245	 1.01565582692454E-02 
1246	 1.00856393655188E-02 
1247	 1.03158602693733E-02 
1248	 1.02339581492455E-02 
1249	 9.66530866510774E-03 
1250	 9.73508385182709E-03 
1251	 9.90633647796872E-03 
1252	 0.0100332993536 
1253	 1.05407026785231E-02 
1254	 1.03224949528989E-02 
1255	 9.67168015598643E-03 
1256	 9.48895499375641E-03 
1257	 9.77500151226848E-03 
1258	 9.83302945707845E-03 
1259	 9.98508596232566E-03 
1260	 1.00607267498824E-02 
1261	 1.00221088916147E-02 
1262	 1.01470382969327E-02 
1263	 1.04698432980863E-02 
1264	 1.03861154000717E-02 
1265	 9.98133118069903E-03 
1266	 1.00948515407583E-02 
1267	 1.03584398694914E-02 
1268	 1.00876715107544E-02 
1269	 9.94650256158863E-03 
1270	 1.01594528711956E-02 
1271	 1.00877409436431E-02 
1272	 9.85949481324308E-03 
1273	 1.00218891305432E-02 
1274	 1.01336098744694E-02 
1275	 1.00739735063392E-02 
1276	 1.02181030468429E-02 
1277	 1.01189080876233E-02 
1278	 9.77712169522494E-03 
1279	 9.8791766710569E-03 
1280	 1.01772258242266E-02 
1281	 1.01253823641315E-02 
1282	 1.02336188129889E-02 
1283	 1.02152587628175E-02 
1284	 9.62456986574397E-03 
1285	 9.43822459225326E-03 
1286	 9.72152352504349E-03 
1287	 9.81739841193419E-03 
1288	 9.64655684785213E-03 
1289	 9.77264237662419E-03 
1290	 1.01766606227401E-02 
1291	 1.04611951284925E-02 
1292	 1.01739057568213E-02 
1293	 9.99596640256597E-03 
1294	 9.8357471710369E-03 
1295	 9.33685509968264E-03 
1296	 9.53705004987169E-03 
1297	 1.01663988322974E-02 
1298	 1.02285723945989E-02 
1299	 1.01990101019409E-02 
1300	 1.03584073847116E-02 
1301	 0.010311241916029 
1302	 9.8023612508865E-03 
1303	 0.009702170138922 
1304	 1.02673025650041E-02 
1305	 1.03896231578299E-02 
1306	 1.02600662855416E-02 
1307	 1.01276029749117E-02 
1308	 1.02849330639405E-02 
1309	 1.00939493783945E-02 
1310	 1.00491049788859E-02 
1311	 1.07812067297989E-02 
1312	 1.09816511602331E-02 
1313	 1.03400202854649E-02 
1314	 1.02024996645371E-02 
1315	 1.05474733921152E-02 
1316	 1.06752064354444E-02 
1317	 1.06720521056475E-02 
1318	 1.05372601473142E-02 
1319	 9.85360587656945E-03 
1320	 1.00691862082928E-02 
1321	 1.09341751722483E-02 
1322	 1.17650780240837E-02 
1323	 1.13794777169961E-02 
1324	 1.16283161259974E-02 
1325	 1.17438450610677E-02 
1326	 1.07848014270181E-02 
1327	 1.06042057264581E-02 
1328	 1.08470756817033E-02 
1329	 0.010767232459492 
1330	 1.06471201604191E-02 
1331	 1.09105835113664E-02 
1332	 1.18870690089145E-02 
1333	 1.19039145343742E-02 
1334	 1.05488443368986E-02 
1335	 1.04513460706586E-02 
1336	 0.012080393760043 
1337	 1.24050047619661E-02 
1338	 1.16270676826133E-02 
1339	 1.19983208830082E-02 
1340	 1.36478618408077E-02 
1341	 1.31656598654043E-02 
1342	 1.06783740257106E-02 
1343	 0.010837141264083 
1344	 1.13480547510826E-02 
1345	 1.09221899256663E-02 
1346	 1.49116213785033E-02 
1347	 0.016499535661132 
1348	 9.47854541198164E-03 
1349	 5.64357369859772E-03 
1350	 4.09651796731011E-03 
1351	 0.00398410786765 
1352	 1.50157408095829E-02 
1353	 2.41116491372826E-02 
1354	 4.04547595870845E-02 
1355	 5.86300778798945E-02 
1356	 3.54668437668211E-02 
1357	 4.04015942765154E-02 
1358	 4.59419108142483E-02 
1359	-5.77483187507468E-02 
1360	-4.78783268447004E-02 
1361	 1.58835377927791E-02 
1362	 6.12646798872518E-02 
1363	 0.194193455316391 
1364	 8.44846520888441E-02 
1365	-5.22807415829422E-02 
1366	-0.260253958549774 
1367	-0.696880775360871 
1368	-0.846434805149799 
1369	-0.463732748240107 
1370	-0.42010523667356 
1371	-3.75555197772818E-02 
1372	-0.110569708636732 
1373	-0.656014219665886 
1374	-0.593709030020754 
1375	-0.174954198180085 
1376	-0.179460744551022 
1377	-4.14508981882406E-03 
1378	 0.109522657536193 
1379	-0.489973976773216 
1380	-0.707674205894063 
1381	-0.541921316982312 
1382	-0.545296946722358 
1383	-0.677127657119095 
1384	-0.777649553731424 
1385	-1.22159026115903 
1386	-1.02254364462129 
1387	 1.61942214347257E-02 
1388	 9.33157506840851E-02 
1389	-9.40109958372071E-02 
1390	 0.084138716693061 
1391	 0.155118722516033 
1392	-0.13849556574823 
1393	 0.162625938494257 
1394	 0.824459620590372 
1395	 0.459186282579306 
1396	-0.666383066397343 
1397	-0.278505870564029 
1398	-0.294565199691305 
1399	-0.850698785155427 
1400	-0.565699786248822 
1401	-0.205667348526938 
1402	-0.14956253212486 
1403	 6.41450020633434E-02 
1404	 0.571819007345541 
1405	 0.490014381666218 
1406	-0.221038606252207 
1407	-0.384895029950213 
1408	-0.328196668194476 
1409	-0.280628139776666 
1410	-0.104860052081032 
1411	-7.96118388999372E-02 
1412	-5.70771682059554E-02 
1413	-8.14428096142632E-02 
1414	-0.220494120957624 
1415	-0.195437101839757 
1416	-9.16082501968177E-02 
1417	-7.65921703216705E-02 
1418	-0.080607851200897 
1419	-5.50930178665007E-02 
1420	-3.73293757710646E-02 
1421	-2.75386975479017E-02 
1422	-7.22598882799548E-03 
1423	 2.40864477953229E-06 
1424	-0.012514253106946 
1425	-7.04135648892078E-03 
1426	 1.38711362023796E-02 
1427	 1.85937429377239E-02 
1428	 2.42957639095127E-02 
1429	 2.13204876888628E-02 
1430	 7.14614221509344E-03 
1431	 1.83065956216817E-03 
1432	-1.57233027792842E-02 
1433	-1.65845370218507E-02 
1434	 1.09133909825053E-02 
1435	 1.38471724265703E-02 
1436	 1.00516765871922E-02 
1437	 8.10896873116361E-03 
1438	 4.24654933383292E-03 
1439	-3.15301873295979E-03 
1440	-3.3543484994047E-03 
1441	 3.12455483548295E-03 
1442	 1.05044293907964E-02 
1443	 6.11733351984965E-03 
1444	 3.40551792193585E-03 
1445	 7.37273644681999E-03 
1446	 5.75711061359319E-03 
1447	 1.3524092053676E-03 
1448	 1.31801895149165E-03 
1449	 7.02539397711861E-03 
1450	 1.15606169363974E-02 
1451	 1.11356208840334E-02 
1452	 1.02326965474873E-02 
1453	 1.09943616832252E-02 
1454	 1.09038197314382E-02 
1455	 9.79922102342401E-03 
1456	 9.1272575382987E-03 
1457	 8.73143259547607E-03 
1458	 8.77782315396376E-03 
1459	 8.06200783274729E-03 
1460	 8.20688543129941E-03 
1461	 1.05205004009948E-02 
1462	 1.04113175425155E-02 
1463	 8.48512734638037E-03 
1464	 8.7926582961784E-03 
1465	 9.13402851681713E-03 
1466	 9.12669247767259E-03 
1467	 1.10750380043343E-02 
1468	 1.07775367380986E-02 
1469	 7.81486689548864E-03 
1470	 7.30140958068567E-03 
1471	 7.52535223609749E-03 
1472	 7.2596813900378E-03 
1473	 8.43669443967001E-03 
1474	 8.22063640401309E-03 
1475	 6.00701932467631E-03 
1476	 5.51193091714275E-03 
1477	 5.20344070418177E-03 
1478	 5.46565850312234E-03 
1479	 8.57247512531373E-03 
1480	 8.23175630995291E-03 
1481	 4.52628945481876E-03 
1482	 4.59650033931389E-03 
1483	 6.07473880120694E-03 
1484	 4.99254310773358E-03 
1485	 3.98453793254167E-03 
1486	 4.71496155376824E-03 
1487	 4.70709549842035E-03 
1488	 4.44728446639289E-03 
1489	 5.27105302851661E-03 
1490	 6.10019515439383E-03 
1491	 6.39970089451332E-03 
1492	 6.13382819787538E-03 
1493	 6.53870842610463E-03 
1494	 6.63577520877885E-03 
1495	 5.66027349290747E-03 
1496	 5.13425368445684E-03 
1497	 4.87152649951656E-03 
1498	 4.84144155954317E-03 
1499	 4.82309382475262E-03 
1500	 4.82353892114488E-03 
1501	 5.12302583064789E-03 
1502	 5.49924969119634E-03 
1503	 6.37529277466645E-03 
1504	 6.2387195613029E-03 
1505	 5.72617234484263E-03 
1506	 4.84216340578118E-03 
1507	 4.44994828762524E-03 
1508	 4.09426405366208E-03 
1509	 4.68932288391093E-03 
1510	 6.06282778897071E-03 
1511	 5.82517820166962E-03 
1512	 5.15501994882173E-03 
1513	 5.19313009494758E-03 
1514	 4.77239083411751E-03 
1515	 4.81054909389184E-03 
1516	 5.27564843776536E-03 
1517	 5.01132212377674E-03 
1518	 5.07068556945685E-03 
1519	 5.56800183419059E-03 
1520	 5.9374907714828E-03 
1521	 6.14842809109382E-03 
1522	 6.04253691889606E-03 
1523	 5.81446458568585E-03 
1524	 5.37772419338218E-03 
1525	 5.15396008591737E-03 
1526	 5.64143310721693E-03 
1527	 5.84816510235203E-03 
1528	 0.005646604524477 
1529	 5.64405355779929E-03 
1530	 5.42821959650053E-03 
1531	 5.52249679915089E-03 
1532	 5.98829400784336E-03 
1533	 5.98468271945297E-03 
1534	 5.71264660628524E-03 
1535	 5.54182967534462E-03 
1536	 5.82769431092788E-03 
1537	 6.48835181459879E-03 
1538	 6.80551219876893E-03 
1539	 6.42978382487929E-03 
1540	 5.91834002167935E-03 
1541	 5.65692670651231E-03 
1542	 5.54888936946463E-03 
1543	 5.88677124519281E-03 
1544	 6.36931227218227E-03 
1545	 6.62036066746886E-03 
1546	 6.59608621401001E-03 
1547	 6.15813465022566E-03 
1548	 5.76435891294487E-03 
1549	 5.65893018252508E-03 
1550	 5.83895486282225E-03 
1551	 6.23342072960869E-03 
1552	 6.47009347513974E-03 
1553	 6.31078486968731E-03 
1554	 6.07382271873809E-03 
1555	 6.17563253380645E-03 
1556	 5.92890740014961E-03 
1557	 5.4607541730697E-03 
1558	 5.55854721234591E-03 
1559	 5.96238304455257E-03 
1560	 6.1682191896524E-03 
1561	 5.6996478273368E-03 
1562	 5.64178527232425E-03 
1563	 6.23955900893253E-03 
1564	 6.07488998106083E-03 
1565	 5.80540924772954E-03 
1566	 6.15264110647001E-03 
1567	 6.59032862223482E-03 
1568	 6.60249422974562E-03 
1569	 6.33389160290291E-03 
1570	 6.35020056404646E-03 
1571	 6.20987412557072E-03 
1572	 5.94036252738301E-03 
1573	 6.35721796044647E-03 
1574	 6.80393662470228E-03 
1575	 6.4230023809603E-03 
1576	 0.006286842018445 
1577	 6.53571928105494E-03 
1578	 6.38453342306847E-03 
1579	 6.48369230135385E-03 
1580	 6.67527135811795E-03 
1581	 6.80272636292653E-03 
1582	 7.11180275539663E-03 
1583	 6.93393095840701E-03 
1584	 6.63318249543191E-03 
1585	 6.84636725931503E-03 
1586	 0.007170948811522 
1587	 7.44052887968807E-03 
1588	 7.47229340410452E-03 
1589	 7.02125937961448E-03 
1590	 6.67159060611998E-03 
1591	 6.76977914222428E-03 
1592	 6.74299699400646E-03 
1593	 6.46029153126046E-03 
1594	 6.5888011499652E-03 
1595	 6.98718521100427E-03 
1596	 7.1127672881721E-03 
1597	 7.39301546559978E-03 
1598	 7.48066578318594E-03 
1599	 7.21384666041974E-03 
1600	 7.42248547128355E-03 
1601	 7.21442092912472E-03 
1602	 6.91749574474706E-03 
1603	 7.4831220669055E-03 
1604	 7.44534291877922E-03 
1605	 7.09696364647488E-03 
1606	 7.19906278791996E-03 
1607	 7.20354051848112E-03 
1608	 7.15527435429662E-03 
1609	 7.17910224077613E-03 
1610	 7.21339475219883E-03 
1611	 6.99206648808753E-03 
1612	 6.69934635297977E-03 
1613	 6.50199741772474E-03 
1614	 6.6595975758452E-03 
1615	 6.95041066650759E-03 
1616	 7.01469237180739E-03 
1617	 7.15356706035486E-03 
1618	 7.04432069953175E-03 
1619	 6.81466323021868E-03 
1620	 6.80187389421455E-03 
1621	 6.88153193485373E-03 
1622	 7.12863010086109E-03 
1623	 7.38761153874357E-03 
1624	 7.31733744830358E-03 
1625	 7.20519072186782E-03 
1626	 7.37602874184258E-03 
1627	 7.76024710410086E-03 
1628	 7.71933829553057E-03 
1629	 7.16611723484208E-03 
1630	 7.14554618776069E-03 
1631	 7.4235841169407E-03 
1632	 7.39129707630676E-03 
1633	 7.11911137812232E-03 
1634	 6.95980425683976E-03 
1635	 7.03689814609818E-03 
1636	 6.95336946075791E-03 
1637	 7.57649049290788E-03 
1638	 8.54530868998398E-03 
1639	 8.25336183872112E-03 
1640	 7.74848075042882E-03 
1641	 7.57106244720775E-03 
1642	 7.38595113261252E-03 
1643	 7.57662906758927E-03 
1644	 7.62783244932112E-03 
1645	 7.38470640349544E-03 
1646	 7.43221040089534E-03 
1647	 7.52081257150945E-03 
1648	 7.27723525079335E-03 
1649	 7.18969878713239E-03 
1650	 7.07284911671324E-03 
1651	 6.93529806995997E-03 
1652	 7.27911991231935E-03 
1653	 7.50796023994536E-03 
1654	 7.52314261100133E-03 
1655	 7.31682632012545E-03 
1656	 7.37457227790845E-03 
1657	 7.66304118800406E-03 
1658	 7.69009119481666E-03 
1659	 7.55456388635946E-03 
1660	 7.3835979213841E-03 
1661	 7.1604331694325E-03 
1662	 7.15657590291446E-03 
1663	 6.90479240724047E-03 
1664	 6.96796142806198E-03 
1665	 7.69333638333007E-03 
1666	 7.7405147044641E-03 
1667	 7.34745519491129E-03 
1668	 7.79885893401808E-03 
1669	 8.2038717048409E-03 
1670	 7.77152306593372E-03 
1671	 7.65143282164973E-03 
1672	 8.04912480051721E-03 
1673	 8.11537875746024E-03 
1674	 8.4288697970614E-03 
1675	 8.8822833045572E-03 
1676	 8.78518147167667E-03 
1677	 8.49054368246885E-03 
1678	 8.2668156100439E-03 
1679	 7.97442102294737E-03 
1680	 8.03919415745033E-03 
1681	 8.26986107458005E-03 
1682	 7.88754368031009E-03 
1683	 8.09468011940962E-03 
1684	 8.32431841204657E-03 
1685	 7.42093876435242E-03 
1686	 7.28518113949395E-03 
1687	 7.78737862919823E-03 
1688	 8.13417160433737E-03 
1689	 8.48667871080316E-03 
1690	 7.97111955771917E-03 
1691	 0.007472919587919 
1692	 8.12752871979959E-03 
1693	 8.53569818826877E-03 
1694	 8.7878932547531E-03 
1695	 9.07045322413673E-03 
1696	 8.08995308640607E-03 
1697	 7.49282902934459E-03 
1698	 8.16087452223582E-03 
1699	 8.56853874989819E-03 
1700	 8.97998577235998E-03 
1701	 8.78484197534051E-03 
1702	 7.61228642381523E-03 
1703	 7.33406978459111E-03 
1704	 7.40370837461461E-03 
1705	 7.42818372129247E-03 
1706	 8.00860447127424E-03 
1707	 8.11182271855335E-03 
1708	 7.57957065028347E-03 
1709	 7.05202221268127E-03 
1710	 7.25401887647757E-03 
1711	 0.007807546958354 
1712	 7.77812797834144E-03 
1713	 8.48760651313443E-03 
1714	 8.77075365759216E-03 
1715	 8.75271482760644E-03 
1716	 8.71378037706317E-03 
1717	 7.83505831164596E-03 
1718	 8.01130608751749E-03 
1719	 8.48953893456612E-03 
1720	 7.77132147608306E-03 
1721	 0.007689334943696 
1722	 7.90830672330093E-03 
1723	 6.99997821111184E-03 
1724	 7.21929381079167E-03 
1725	 8.50791179739625E-03 
1726	 8.17723466344425E-03 
1727	 7.41455020370261E-03 
1728	 7.9789206875102E-03 
1729	 8.49511256507137E-03 
1730	 8.09779073166547E-03 
1731	 7.89691019442683E-03 
1732	 8.02479950305822E-03 
1733	 7.74300344218768E-03 
1734	 7.95594302694589E-03 
1735	 8.85581135095668E-03 
1736	 8.83772263509283E-03 
1737	 7.95544946915309E-03 
1738	 7.46033285205802E-03 
1739	 7.15309934817664E-03 
1740	 7.06126507015352E-03 
1741	 7.37438163310745E-03 
1742	 7.56478856631236E-03 
1743	 7.92120461403373E-03 
1744	 8.39722022039131E-03 
1745	 8.94722113205488E-03 
1746	 8.17948052157888E-03 
1747	 7.87729742954591E-03 
1748	 7.10875829497955E-03 
1749	 7.21622527010993E-03 
1750	 8.96188690337242E-03 
1751	 8.86749981969613E-03 
1752	 7.50869428588081E-03 
1753	 7.25496245482409E-03 
1754	 6.7133338719081E-03 
1755	 6.87025172713999E-03 
1756	 8.30253979242452E-03 
1757	 8.84577192415041E-03 
1758	 8.33957838243084E-03 
1759	 7.66401333591296E-03 
1760	 9.0429871306788E-03 
1761	 9.61026365507853E-03 
1762	 9.09538591000679E-03 
1763	 9.47813090532825E-03 
1764	 9.19583207401566E-03 
1765	 8.73524710033399E-03 
1766	 9.38198304822981E-03 
1767	 9.63618317532952E-03 
1768	 9.08300865817981E-03 
1769	 8.43855058998398E-03 
1770	 8.33592664047179E-03 
1771	 1.00551512209057E-02 
1772	 1.10074788646448E-02 
1773	 9.62945917248951E-03 
1774	 1.03674853619855E-02 
1775	 9.31665369803998E-03 
1776	 8.73262599703285E-03 
1777	 1.12589183062993E-02 
1778	 1.17663236688307E-02 
1779	 1.01835773121039E-02 
1780	 1.00031119191567E-02 
1781	 9.36686384129328E-03 
1782	 9.27563850336684E-03 
1783	 1.05373022872718E-02 
1784	 1.05994826608684E-02 
1785	 0.011013045537775 
1786	 1.04622814166989E-02 
1787	 6.32269269279067E-03 
1788	 7.29037524579698E-03 
1789	 1.27552827120225E-02 
1790	 1.39996291084475E-02 
1791	 1.64428104354896E-02 
1792	 1.46342658567339E-02 
1793	 7.88418549846612E-03 
1794	 7.42117968254606E-03 
1795	 6.46352621829353E-03 
1796	 7.99154019965727E-03 
1797	 1.66419615051196E-02 
1798	 1.37573385722745E-02 
1799	 1.61448333083657E-02 
1800	 6.42203814083946E-04 
1801	-6.25822101024615E-03 
1802	 4.30933471364139E-03 
1803	 3.13864587109538E-03 
1804	 2.33807997676837E-03 
1805	 7.54910880111275E-03 
1806	-2.25216654830098E-03 
1807	 5.59372974356135E-03 
1808	 6.44419394960008E-02 
1809	 7.01970722844993E-02 
1810	 1.65279970420116E-02 
1811	 6.18769838437065E-03 
1812	-0.044615361721165 
1813	-0.097083298076137 
1814	-2.10743186338609E-02 
1815	-6.41680187654262E-02 
1816	-0.252053507842146 
1817	-0.230394151138362 
1818	-0.206967611234977 
1819	-0.119114345165671 
1820	 0.366331628807375 
1821	 0.353571348113574 
1822	 0.392760064328208 
1823	 0.106468745399191 
1824	-8.46699817091768E-02 
1825	 0.195655339802836 
1826	 0.220229428623415 
1827	 0.305857173414862 
1828	 0.192859456346397 
1829	-0.490111584103455 
1830	-0.588399642360784 
1831	 1.4635148654999 
1832	 2.45496233751576 
1833	-2.30875201998016 
1834	-0.168066613905964 
1835	 1.69332776177115 
1836	 1.60416587868826 
1837	 0.91890647677131 
1838	 0.960469396231172 
1839	 0.635280413282973 
1840	 0.764496833334633 
1841	 15.7213751316964 
1842	-0.848712987316355 
1843	-0.595453575105023 
1844	-0.283978446526532 
1845	-0.533896350756878 
1846	 2.38676295906178 
1847	 2.86684385891137 
1848	-30.3320351675206 
1849	-3.11662685194103 
1850	-0.950577011802169 
1851	-0.176191244849895 
1852	 0.779151276252084 
1853	 0.059032679249745 
1854	 0.179321151504105 
1855	-1.5732474795307E-03 
1856	-0.167534762893866 
1857	-6.54997368527037E-02 
1858	-0.20800909209124 
1859	-6.61925089420601 
1860	 2.8994736879942 
1861	-8.91126105486745 
1862	-6.09367844849262 
1863	-2.58250906566986 
1864	-1.9550810469765 
1865	-1.78341017011543 
1866	-2.06030647030854 
1867	-2.20569278160545 
1868	-2.92065289361665 
1869	-1.3216295185506 
1870	-0.839503428197102 
1871	-0.779060219249131 
1872	-0.874080594748573 
1873	-1.51731610992949 
1874	-6.17968497440698 
1875	 1.69693385891082 
1876	 0.728718146106475 
1877	 0.379791984801917 
1878	 0.105162687906338 
1879	-0.726833653021135 
1880	-0.82141722745182 
1881	-0.727137103601038 
1882	-0.177682826243841 
1883	-8.66850314712248E-02 
1884	-6.80223614655568E-02 
1885	-4.55378201321508E-02 
1886	-0.452538303071181 
1887	-0.519192548407113 
1888	 0.129574367273624 
1889	 0.389309478247431 
1890	 0.623724384744942 
1891	 0.958953423065178 
1892	 1.61969911725686 
1893	 14.6470834536457 
1894	-0.617202776162287 
1895	 3.51905711616918E-02 
1896	 3.11660263328806E-02 
1897	-5.46660562387355E-02 
1898	-2.26646584110233 
1899	-15.7260586004926 
1900	-4.69830388284392 
1901	 1.1595546491051 
1902	 1.94796846116993 
1903	 2.03942125174629 
1904	 1.6220353318459 
1905	 1.83273709423289 
1906	 1.20578261925959 
1907	 0.96719926782521 
1908	 0.325141278464394 
1909	 6.44180055075336 
1910	-1.28002119582241 
1911	-0.07236683132527 
1912	 1.15848802990111 
1913	 1.74067154350364 
1914	 1.508925646122 
1915	 2.19940938104654 
1916	-37.2360450515037 
1917	 1.27681838397149 
1918	 0.958238043986077 
1919	 13.3607054435021 
1920	-64.728074507129 
1921	-3.26723757898561 
1922	-1.07911422874783 
1923	-6.54311028975573E-02 
1924	-0.214042948177881 
1925	 6.81433573168193E-02 
1926	 0.201811088120882 
1927	 0.130583766680102 
1928	-3.25406262418892 
1929	 3.67925205445036 
1930	 2.11583561165293 
1931	-8.77577535639449 
1932	-1.05545043266547 
1933	-0.115558172854815 
1934	 0.268510393184386 
1935	 0.223451743764033 
1936	-0.172222248731826 
1937	-0.19049795305972 
1938	-0.127281291367314 
1939	-0.124025702418226 
1940	-8.33211334717782E-02 
1941	 0.150190267516703 
1942	 4.71619653788819E-02 
1943	-4.27417136350758E-02 
1944	-2.45766238294046E-02 
1945	-0.124971978935201 
1946	-0.149966216486217 
1947	-0.125729350769897 
1948	-9.46895003652732E-02 
1949	-1.42881002355875E-02 
1950	 1.59745874194956E-02 
1951	 1.88960171946401E-02 
1952	 1.97783970277408E-02 
1953	-4.58979486526264E-03 
1954	-2.02485429355002E-02 
1955	 6.02743821983088E-03 
1956	 3.75274497502501E-03 
1957	 1.44844708319506E-02 
1958	 1.32205013979059E-02 
1959	 7.30365456018058E-03 
1960	 2.96620875795779E-02 
1961	 2.35705565637925E-02 
1962	 0.010463270521216 
1963	-2.39037266710416E-03 
1964	-0.016902352720635 
1965	-1.04744159527139E-02 
1966	-7.39007002182609E-03 
1967	-4.36299925588959E-04 
1968	 3.98308630303468E-03 
1969	 7.47919303490792E-03 
1970	 3.83281615981084E-03 
1971	 6.51119946048381E-03 
1972	 9.52395752773662E-03 
1973	 6.27438046832065E-03 
1974	 4.34344082588184E-03 
1975	 1.11331775649616E-03 
1976	-3.41633794824327E-03 
1977	-5.39369323068701E-03 
1978	-4.7108743441512E-03 
1979	-4.49594718002842E-03 
1980	-3.85286888868772E-03 
1981	-4.5479304962028E-03 
1982	-5.44767064414036E-03 
1983	-5.38384232363926E-03 
1984	-5.93158639642357E-03 
1985	-7.04413024025358E-03 
1986	-5.62668621856636E-03 
1987	-6.99509043166726E-03 
1988	-1.02341680300207E-02 
1989	-8.57213307784666E-03 
1990	-7.74989050088319E-03 
1991	-5.88144419535317E-03 
1992	-1.05886810693758E-03 
1993	-3.57299179565084E-04 
1994	 1.61468109693405E-03 
1995	 3.71562149689835E-03 
1996	 7.97844455371581E-03 
1997	 8.56513572138905E-03 
1998	 6.5376587239112E-03 
1999	 3.99818614248366E-03 
2000	 2.81506845932631E-03 
2001	 2.1307467483444E-03 
2002	 4.86960357231925E-03 
2003	 9.76840883071191E-03 
2004	 1.78312833003923E-03 
2005	-1.34686884105937E-02 
2006	-1.19354777298765E-02 
2007	-6.64680930842422E-03 
2008	-9.04595184384791E-03 
2009	-9.17647066084528E-03 
2010	-6.77902555305127E-03 
2011	-5.61514151368086E-03 
2012	-9.29781977607663E-03 
2013	-3.4162869738387E-03 
2014	 4.43828422379437E-03 
2015	 3.78786414503017E-03 
2016	 1.3903811785593E-03 
2017	-9.38283263705472E-04 
2018	-5.56281108116525E-03 
2019	-4.63559715742631E-03 
2020	-2.13585789570868E-03 
2021	 4.60576926194418E-04 
2022	 5.55253053698855E-03 
2023	 4.00606286058572E-03 
2024	 3.2429616598885E-03 
2025	 1.23774861678492E-03 
2026	 1.51494508353093E-03 
2027	 1.28783720150143E-03 
2028	 2.60516546127261E-03 
2029	 4.82246587322536E-03 
2030	 3.91024920632655E-03 
2031	 3.04184737869103E-03 
2032	 3.41773528772746E-03 
2033	 2.25642043163138E-03 
2034	 1.51092887108221E-03 
2035	 3.35617169290108E-04 
2036	-1.81434137530368E-03 
2037	-1.26819280967447E-03 
2038	 3.06382299637294E-04 
2039	 7.30039008628764E-04 
2040	 9.31525904110731E-04 
2041	 1.63245247561639E-03 
2042	 1.77082595673375E-03 
2043	 2.08135384240985E-03 
2044	 2.59483315038358E-03 
2045	 4.43361947639413E-03 
2046	 6.07591530024952E-03 
2047	 6.65577377730598E-03 
2048	 5.44913821580838E-03 
2049	 4.13943302301841E-03 
2050	 1.51532956597889E-03 
2051	 4.95899223737186E-04 
2052	 1.56620428654906E-03 
2053	 1.42778959840608E-03 
2054	 3.12709415038469E-03 
2055	 2.22339406401052E-03 
2056	 2.50799208713809E-03 
2057	 5.64219713167836E-03 
2058	 6.1077687768971E-03 
2059	 2.76603646450993E-03 
2060	 2.81273972025666E-03 
2061	 4.37599746897231E-03 
2062	 3.39337251814536E-03 
2063	 1.87922341946271E-03 
2064	 5.47900337403247E-03 
2065	 9.40940309599144E-03 
2066	 8.39591473878063E-03 
2067	 7.04891740153632E-03 
2068	 7.65549990402945E-03 
2069	 3.29498838777131E-03 
2070	-9.65140082503392E-04 
2071	 8.58313649432515E-04 
2072	 2.04518397127883E-03 
2073	 2.38031372877358E-03 
2074	 4.21650894005793E-03 
2075	 3.90172793911351E-03 
2076	 1.42116676218602E-03 
2077	 5.28943337981408E-04 
2078	-7.19940506773491E-04 
2079	-7.2611365336149E-04 
2080	 5.58925959614634E-04 
2081	 3.07082366900735E-05 
2082	 1.88864105204999E-03 
2083	 3.64021086974598E-03 
2084	 3.45424974984035E-03 
2085	 5.16723969401119E-03 
2086	 3.79026025151927E-03 
2087	 4.62536611360566E-04 
2088	 1.33078106272285E-03 
2089	 1.81515241417885E-03 
2090	 1.17364146279111E-03 
2091	 2.26748619710463E-03 
2092	 3.41037985477383E-03 
2093	 3.95060340977601E-03 
2094	 4.16499117041418E-03 
2095	 6.09858693506091E-03 
2096	 6.46894270776279E-03 
2097	 3.27254609626082E-03 
2098	 2.9407380096082E-03 
2099	 4.60532524276767E-03 
2100	 5.57796045376954E-03 
2101	 3.36869057963089E-03 
2102	 2.5418730295352E-03 
2103	 9.10302521097417E-04 
2104	-2.82751926605878E-04 
2105	 6.90639106515426E-04 
2106	 1.88468294538039E-03 
2107	 1.64067888039094E-03 
2108	 7.41853835835678E-04 
2109	 6.47181689068788E-04 
2110	 2.24771050626254E-03 
2111	 5.30565289385342E-03 
2112	 6.20477801653725E-03 
2113	 6.55061674046029E-03 
2114	 6.23181413861624E-03 
2115	 5.9267174323298E-03 
2116	 4.11284795436195E-03 
2117	 4.02838866141782E-03 
2118	 0.004562815766328 
2119	 5.01464944631905E-03 
2120	 6.0195962998298E-03 
2121	 7.3509253169928E-03 
2122	 7.0635825739658E-03 
2123	 7.69888584898444E-03 
2124	 7.74560435008414E-03 
2125	 5.63280735366345E-03 
2126	 5.09309808008147E-03 
2127	 4.43235725153019E-03 
2128	 3.33316465509598E-03 
2129	 2.55688102297472E-03 
2130	 0.002221531437387 
2131	 3.77677480208309E-03 
2132	 4.97825349337899E-03 
2133	 5.86209806906961E-03 
2134	 6.08150286642852E-03 
2135	 4.39864471608128E-03 
2136	 4.94413338062752E-03 
2137	 7.17725650132905E-03 
2138	 7.06469539691733E-03 
2139	 6.65886177924804E-03 
2140	 6.35229712035826E-03 
2141	 3.95712181865427E-03 
2142	 3.44834625577228E-03 
2143	 4.86226258174038E-03 
2144	 5.37205387360593E-03 
2145	 4.86973544519175E-03 
2146	 4.79010996811994E-03 
2147	 4.15572691701288E-03 
2148	 3.70230227005538E-03 
2149	 4.02869383320532E-03 
2150	 4.18886689557114E-03 
2151	 4.50927178337873E-03 
2152	 5.50312698351317E-03 
2153	 6.78673137984044E-03 
2154	 6.21228541699701E-03 
2155	 5.42410065516458E-03 
2156	 5.3073708577142E-03 
2157	 4.8225886458089E-03 
2158	 3.5328441216883E-03 
2159	 3.68939364253368E-03 
2160	 5.35240196591456E-03 
2161	 4.77508467380285E-03 
2162	 3.28454016512427E-03 
2163	 2.95571552130941E-03 
2164	 1.79136260035249E-03 
2165	 1.2936361504814E-03 
2166	 2.24571269604301E-03 
2167	 2.91379358453602E-03 
2168	 2.17135102439139E-03 
2169	 2.50783922870428E-03 
2170	 4.23667134469645E-03 
2171	 6.46224788671923E-03 
2172	 0.005258364821892 
2173	 5.03743170564699E-03 
2174	 4.70573598847987E-03 
2175	 4.07801471312693E-03 
2176	 3.14567652098752E-03 
2177	 2.66451525785471E-03 
2178	 3.38968599466978E-03 
2179	 2.14374228644505E-03 
2180	-6.25777077651374E-05 
2181	-1.69632584504476E-03 
2182	-2.18364045667572E-03 
2183	-2.33683424858893E-03 
2184	-8.33440120673315E-04 
2185	 2.65060116352395E-03 
2186	 3.98314943925747E-03 
2187	 2.64576774526362E-03 
2188	 3.22213268436049E-03 
2189	 4.34709433299522E-03 
2190	 5.03622104030104E-03 
2191	 6.88710395356421E-03 
2192	 6.69182239413582E-03 
2193	 4.92476842263589E-03 
2194	 4.46512481320481E-03 
2195	 3.41833207749225E-03 
2196	 2.11366981442591E-03 
2197	-5.35770031182486E-04 
2198	 2.84264961469679E-05 
2199	 2.23122299209418E-03 
2200	 4.92731842930673E-03 
2201	 7.8802901973509E-03 
2202	 8.94813557717901E-03 
2203	 7.96199954964075E-03 
2204	 5.1324829419846E-03 
2205	 2.98955605858328E-03 
2206	 4.30603850303255E-03 
2207	 3.38017918272742E-03 
2208	 3.20993673490292E-03 
2209	 5.15759939118844E-03 
2210	 3.67648930099775E-03 
2211	 3.00830734138811E-03 
2212	 4.8513872808656E-03 
2213	 4.66493658427259E-03 
2214	 2.69295418315776E-03 
2215	 1.33616568618346E-03 
2216	-1.58714510767563E-03 
2217	-2.53442828481773E-03 
2218	-1.50134248656402E-03 
2219	 3.61236906967901E-04 
2220	 3.65705696759259E-03 
2221	 4.52271254999485E-03 
2222	 5.37028479994365E-03 
2223	 4.89913455797717E-03 
2224	 2.13630395609797E-03 
2225	 1.60421958717392E-03 
2226	 1.04551352739569E-03 
2227	 1.30439906216328E-03 
2228	 4.46909160651779E-03 
2229	 3.66382971475668E-03 
2230	 5.03721476596832E-04 
2231	-5.9020959497692E-04 
2232	-5.46520034180026E-03 
2233	-6.36322444902738E-03 
2234	-3.87554836898073E-03 
2235	 1.5212088649135E-03 
2236	 1.11735789443712E-03 
2237	 2.16318972204253E-03 
2238	 3.19876494566798E-03 
2239	 1.85548692466417E-03 
2240	 3.43768573897584E-03 
2241	 5.99400849698089E-03 
2242	 7.7103443730746E-03 
2243	 7.88396061860219E-03 
2244	 8.38662515790203E-03 
2245	 8.16505962887777E-03 
2246	 4.87161914386217E-03 
2247	 2.75250477507896E-03 
2248	 2.88876952247924E-03 
2249	 3.05874121549122E-03 
2250	 1.15908918050387E-03 
2251	 1.08870199070446E-03 
2252	 2.04752766557165E-03 
2253	 1.29495451337088E-03 
2254	 4.63615022776654E-03 
2255	 7.28141313862731E-03 
2256	 5.30456108612712E-03 
2257	 4.53983950951414E-03 
2258	 7.56208466339158E-03 
2259	 8.83288528383451E-03 
2260	 8.51046412608731E-03 
2261	 8.79935093331376E-03 
2262	 7.53519533579785E-03 
2263	 8.90812843026834E-04 
2264	 3.09500888884839E-04 
2265	 3.89406913950021E-03 
2266	 3.56256657743213E-03 
2267	 4.13563929474816E-03 
2268	 3.94984932919415E-03 
2269	 7.74247153751658E-04 
2270	-3.0975640060643E-04 
2271	-9.57104563583624E-04 
2272	-6.56310021013794E-04 
2273	 2.02438328969404E-03 
2274	 6.71466872577651E-04 
2275	-2.1967497130743E-03 
2276	-1.98159424984312E-03 
2277	-4.63461857070412E-03 
2278	-4.63610100246496E-03 
2279	 1.87519631629791E-03 
2280	 3.39419858441972E-03 
2281	 1.89297646978236E-03 
2282	 1.6754399171787E-03 
2283	 3.32512706544268E-03 
2284	 4.87738483701682E-03 
2285	 0.007931625824846 
2286	 1.13630144487894E-02 
2287	 1.10069448177851E-02 
2288	 5.91762225981168E-03 
2289	 8.76682973701395E-04 
2290	-2.63535614652437E-03 
2291	-3.80542535966726E-03 
2292	 5.79994384591313E-04 
2293	 2.13766647278654E-03 
2294	-1.46000836060664E-03 
2295	-9.2495930157763E-04 
2296	-2.99855990988674E-03 
2297	-6.68501335574976E-03 
2298	 1.19990346760545E-03 
2299	 0.006240465707367 
2300	-1.02078972462729E-03 
2301	-1.97746523825601E-03 
2302	-8.81615995696822E-04 
2303	-6.4823311885894E-03 
2304	-3.86868093476758E-03 
2305	-2.21022226035191E-03 
2306	-7.72903870116262E-03 
2307	-5.40701448155722E-03 
2308	 1.37233656776935E-05 
2309	 8.57130333456236E-03 
2310	 1.86560904854473E-02 
2311	 1.90656578677867E-02 
2312	 1.73796393008094E-02 
2313	 9.15088450391891E-03 
2314	-1.71352892075329E-03 
2315	-3.54205532084625E-03 
2316	-1.04854139216939E-02 
2317	-0.016285082831733 
2318	-1.21683663798775E-02 
2319	-3.38115230599824E-03 
2320	 7.17538558369532E-03 
2321	 1.57498349917523E-02 
2322	 1.46537280220753E-02 
2323	 5.32394879238361E-03 
2324	 0.002898845988752 
2325	-3.7054639056783E-04 
2326	-4.6341621216725E-03 
2327	-6.93878382249689E-03 
2328	-0.013645985294926 
2329	-0.020195029437378 
2330	-0.02310761774249 
2331	-0.024585649163673 
2332	-2.85275124013193E-02 
2333	-2.66334596488465E-02 
2334	-1.82406314585429E-02 
2335	-1.27226247960335E-02 
2336	-8.76419426030141E-03 
2337	-7.41991326339266E-03 
2338	-1.53257888939308E-02 
2339	-2.41626709745918E-02 
2340	-0.028474139768522 
2341	-3.33068430131104E-02 
2342	-3.21876856377689E-02 
2343	-2.13782049198203E-02 
2344	-1.61852830642641E-02 
2345	-2.26913213252656E-02 
2346	-1.48288179120285E-02 
2347	-8.65256098594688E-03 
2348	-7.41073474746693E-03 
2349	-5.3513840180471E-03 
2350	-2.49151662116867E-02 
2351	-2.64589157445181E-02 
2352	-0.033894728552809 
2353	-4.89571428939031E-02 
2354	-2.65558360250123E-02 
2355	-0.019590969699551 
2356	-2.57329980071093E-02 
2357	-1.37683341049934E-02 
2358	-5.94633879251048E-03 
2359	-6.18772633411011E-03 
2360	 6.4633239147086E-04 
2361	 1.47266204959606E-02 
2362	 1.11007401273911E-02 
2363	-1.67353609572044E-02 
2364	-3.20410265871013E-02 
2365	-2.99414163221631E-02 
2366	-3.16589090224158E-02 
2367	-9.4445237825435E-03 
2368	 2.08182381019256E-02 
2369	 2.25352172680799E-02 
2370	 1.79058897036803E-02 
2371	-1.85169423122642E-03 
2372	-3.85302833704033E-02 
2373	-4.69146626640975E-02 
2374	-6.74551035752776E-02 
2375	-0.114588435055906 
2376	-0.140587089363347 
2377	-0.151717681727517 
2378	-0.146476888108636 
2379	-0.158133133831449 
2380	-0.15194263717257 
2381	-0.123791000002013 
2382	-0.18231280879816 
2383	-0.205571801645264 
2384	-0.164550826579015 
2385	-0.177160922190423 
2386	-0.166220608342647 
2387	-9.29816801823376E-02 
2388	-4.71051448644342E-02 
2389	-4.87197170838673E-02 
2390	-4.52844373822898E-02 
2391	-5.09036814322977E-02 
2392	-7.36455910278779E-02 
2393	-0.082361791426117 
2394	-6.09159848936617E-02 
2395	-6.75112934948056E-02 
2396	-9.83941679998704E-02 
2397	-8.09551662464661E-02 
2398	-6.78491953025266E-02 
2399	-6.51188236575058E-02 
2400	-1.31143005203467E-02 
2401	-0.025032867525529 
2402	-0.110979083615131 
2403	-0.153399538643079 
2404	-0.204186384670782 
2405	-0.192812850734302 
2406	-0.113273431817323 
2407	-0.133787633935119 
2408	-0.103817056738986 
2409	-9.40236725028476E-02 
2410	-0.18172600175796 
2411	-0.176560652375729 
2412	-0.276500294817488 
2413	-0.297220740397285 
2414	-0.201992835737434 
2415	-0.139045823983014 
2416	-1.94955860523399E-02 
2417	-7.31493287006465E-02 
2418	-7.71556811993679E-02 
2419	-0.057029868943362 
2420	-0.183614188305774 
2421	-0.08258606147922 
2422	-8.58113241907582E-02 
2423	-0.165805693733529 
2424	-3.27905540982582E-02 
2425	-5.84884548593254E-02 
2426	-0.253261539697411 
2427	-0.145349495628703 
2428	-0.158982827254099 
2429	-0.197979693684045 
2430	-0.106595980464286 
2431	-0.129140003485763 
2432	-0.14132925605965 
2433	-0.219376170934571 
2434	-0.276526501515421 
2435	-0.13681661391537 
2436	-7.18394637008031E-02 
2437	 3.12139533778794E-02 
2438	 7.22744712911771E-02 
2439	 0.060388883550691 
2440	 0.224825478014474 
2441	 0.191644594849481 
2442	 0.106268121760061 
2443	-5.20331717642896E-02 
2444	-0.341252225309993 
2445	-0.364944583240027 
2446	-0.288409638167566 
2447	-0.132606371429405 
2448	 3.88883509721086E-03 
2449	-1.79667495777261E-02 
2450	 1.84154747805282E-02 
2451	 1.31879585856499 
2452	-4.41742097580626 
2453	-0.944517960359462 
2454	-0.943638039684247 
2455	-0.81837919057241 
2456	-0.291229886627803 
2457	-0.174554297298425 
2458	-0.411049343669016 
2459	-0.413042298725266 
2460	-0.45101059183575 
2461	-0.776944678767056 
2462	-0.574049746844036 
2463	-0.140419930641083 
2464	-1.12599857711352 
2465	-3.61579477100229 
2466	-1.36563325426947 
2467	-1.64358322937722 
2468	-1.73953565128676 
2469	-0.662385274632411 
2470	-1.81629246381778 
2471	 8.92703269726995 
2472	 3.51661854919427 
2473	 3.95899505468213 
2474	 5.14507526692075 
2475	 40.9267118446871 
2476	 44.6181165526574 
2477	 2.00576803187414 
2478	 1.44810774462678 
2479	 2.54400923141659 
2480	 6.1720041510532 
2481	 314.623700736441 
2482	-10.7930636058205 
2483	 2.84178021379271 
2484	 1.48309085414135 
2485	 2.45129396671181 
2486	 2.34703382830449 
2487	 5.18916392455703 
2488	-1.67447328026523 
2489	 14.0194829365546 
2490	 2.6140221456394 
2491	 5.16152047780668 
2492	 2.53762699733285 
2493	 4.13619267525374 
2494	 0.833137615398517 
2495	-0.429126579561513 
2496	-0.285468774772217 
2497	 0.359969328669588 
2498	 2.43490012244286 
2499	-3.47154445624169 
2500	-3.08676182998925 
