Wavelength	rt0726close200006.asd
350	 4.95989229963499E-02 
351	 4.94502774204243E-02 
352	 5.00217392500085E-02 
353	 5.03146681403733E-02 
354	 4.98750340127695E-02 
355	 4.95980798547527E-02 
356	 4.93587858297691E-02 
357	 4.93744418836605E-02 
358	 4.97402124008711E-02 
359	 4.97597488264624E-02 
360	 4.97587763392587E-02 
361	 4.97939472512455E-02 
362	 4.97091787900705E-02 
363	 4.93009717531742E-02 
364	 4.93956353455809E-02 
365	 5.00482633425407E-02 
366	 5.00259887207201E-02 
367	 4.91914148696246E-02 
368	 4.91485738256912E-02 
369	 5.05857943239628E-02 
370	 4.92278967182632E-02 
371	 4.92193906802937E-02 
372	 5.02945128357571E-02 
373	 0.049852905926588 
374	 4.98662742379425E-02 
375	 4.98747606016819E-02 
376	 4.98038964496501E-02 
377	 5.03965175007874E-02 
378	 5.01478057974237E-02 
379	 4.98830724512111E-02 
380	 5.03302478590316E-02 
381	 5.00756823748616E-02 
382	 0.050347474491503 
383	 5.07352512557573E-02 
384	 5.03530538669508E-02 
385	 5.09469793372653E-02 
386	 0.05120303256305 
387	 5.07755125172112E-02 
388	 5.06515300816576E-02 
389	 5.12024211516985E-02 
390	 5.16655801773493E-02 
391	 5.15613099361036E-02 
392	 5.16296867229081E-02 
393	 5.16856883544691E-02 
394	 5.17637240300841E-02 
395	 0.051923232047832 
396	 5.19831713064036E-02 
397	 5.20697473424349E-02 
398	 0.052168376516584 
399	 5.21522037825903E-02 
400	 5.25017864108337E-02 
401	 5.27313379995213E-02 
402	 0.052557254469867 
403	 5.24073744050586E-02 
404	 5.24451654433957E-02 
405	 5.26354571911645E-02 
406	 5.28458372000068E-02 
407	 5.29915912281052E-02 
408	 5.30089551585241E-02 
409	 5.29968403021785E-02 
410	 5.31892897982673E-02 
411	 5.34684651477273E-02 
412	 5.35579209511971E-02 
413	 5.34543255745233E-02 
414	 5.38787291682353E-02 
415	 5.41841927453006E-02 
416	 5.42692770539353E-02 
417	 0.054290826566974 
418	 5.44698801132436E-02 
419	 5.47332317591592E-02 
420	 5.49515363090794E-02 
421	 5.49773953405543E-02 
422	 5.52070848579694E-02 
423	 5.54747240909411E-02 
424	 5.56343220611831E-02 
425	 5.59437184081053E-02 
426	 0.056264921273312 
427	 5.64841033970753E-02 
428	 5.65657861608701E-02 
429	 0.05692408323205 
430	 5.72342930210147E-02 
431	 5.74394528265786E-02 
432	 5.78718983271525E-02 
433	 0.058134766836045 
434	 5.83584749521578E-02 
435	 5.86915182940813E-02 
436	 5.89696566179057E-02 
437	 5.93400072854415E-02 
438	 5.97194186314315E-02 
439	 5.99354909259124E-02 
440	 6.02207980964536E-02 
441	 6.05644880759951E-02 
442	 6.09014969205723E-02 
443	 6.11315014975379E-02 
444	 6.13090936411297E-02 
445	 6.15441717406898E-02 
446	 6.18948693061738E-02 
447	 6.21722039993402E-02 
448	 6.24584970836856E-02 
449	 6.27141294084245E-02 
450	 6.28277130377213E-02 
451	 6.29804683818182E-02 
452	 6.31385228714935E-02 
453	 6.32891505007896E-02 
454	 0.063539471231118 
455	 0.063690482762332 
456	 6.38370791801023E-02 
457	 6.41048708489099E-02 
458	 6.41748420633246E-02 
459	 6.42441016994855E-02 
460	 6.43671377969155E-02 
461	 6.44314898236908E-02 
462	 6.44529906923841E-02 
463	 6.46298563040224E-02 
464	 6.49898352969788E-02 
465	 6.50048630754616E-02 
466	 0.064948975406654 
467	 6.50773632323308E-02 
468	 6.55092331120644E-02 
469	 6.54089763665571E-02 
470	 0.06541159763103 
471	 6.57556354801224E-02 
472	 6.59726829971853E-02 
473	 6.60585420396566E-02 
474	 6.61461275681841E-02 
475	 6.63476519074903E-02 
476	 6.65152293857056E-02 
477	 0.066779920664507 
478	 6.70251735528027E-02 
479	 6.70243277851834E-02 
480	 6.73141062255706E-02 
481	 6.76907614864828E-02 
482	 6.79245089616097E-02 
483	 0.067902523240307 
484	 6.82249706258489E-02 
485	 6.87284670752064E-02 
486	 6.90074030987393E-02 
487	 0.069096761351681 
488	 6.94012809414896E-02 
489	 6.99003557235797E-02 
490	 7.01652826453438E-02 
491	 7.03323717993918E-02 
492	 0.07058988974838 
493	 7.10187825993524E-02 
494	 7.13900773916297E-02 
495	 7.17267302097089E-02 
496	 7.20804527809797E-02 
497	 7.25114908182495E-02 
498	 7.29735645335042E-02 
499	 7.33330946465798E-02 
500	 7.36342438739136E-02 
501	 7.42015521262193E-02 
502	 0.074757680267726 
503	 7.52182431372822E-02 
504	 7.55874652871213E-02 
505	 7.59372288025517E-02 
506	 7.65201887939592E-02 
507	 7.71888830410127E-02 
508	 7.75156413715273E-02 
509	 7.79054069759127E-02 
510	 7.84757412864116E-02 
511	 7.91612554090523E-02 
512	 0.07959144899459 
513	 8.00547248447738E-02 
514	 8.06391031206143E-02 
515	 8.13144070447477E-02 
516	 8.18706080528529E-02 
517	 0.082474639976106 
518	 8.31470140382798E-02 
519	 8.36926544448515E-02 
520	 8.42672626657746E-02 
521	 8.48710049835116E-02 
522	 8.54815086655583E-02 
523	 0.086121137780378 
524	 8.67251460376032E-02 
525	 8.73340236735955E-02 
526	 8.80541950155086E-02 
527	 8.88044676468757E-02 
528	 8.95036307050699E-02 
529	 9.01169979181465E-02 
530	 9.06699494075315E-02 
531	 9.14359537487629E-02 
532	 9.22859758326716E-02 
533	 9.29745141106743E-02 
534	 9.36102996830397E-02 
535	 9.43670220929633E-02 
536	 9.52170554353862E-02 
537	 9.59027594866012E-02 
538	 9.66915873690872E-02 
539	 9.75508175274305E-02 
540	 9.83851760561308E-02 
541	 9.91407787860318E-02 
542	 9.99416301874154E-02 
543	 0.100777455999505 
544	 0.101565549560244 
545	 0.102405879925006 
546	 0.103173794677639 
547	 0.103868998336437 
548	 0.10479050790679 
549	 0.105679465322876 
550	 0.106493308121432 
551	 0.107277865540817 
552	 0.108109604301413 
553	 0.108937082316867 
554	 0.109748842877325 
555	 0.110581039225284 
556	 0.111291314283531 
557	 0.112037562398699 
558	 0.112921152387653 
559	 0.113643991302124 
560	 0.114386348076966 
561	 0.11517344362227 
562	 0.115931600288115 
563	 0.116590970822675 
564	 0.117210683073832 
565	 0.1178391237144 
566	 0.118472564899948 
567	 0.11908762658847 
568	 0.119691197555781 
569	 0.120292197222942 
570	 0.120852722569626 
571	 0.121392168793084 
572	 0.121929111163362 
573	 0.122475885601906 
574	 0.123009226953619 
575	 0.12350266117618 
576	 0.123952111752915 
577	 0.12443704544063 
578	 0.124906770518746 
579	 0.125323074355066 
580	 0.125680264895145 
581	 0.126188104420454 
582	 0.126697763848508 
583	 0.127085787944363 
584	 0.127337232986307 
585	 0.127709982167088 
586	 0.128104729364944 
587	 0.12833833759129 
588	 0.128574370629107 
589	 0.128907676108265 
590	 0.129291690220349 
591	 0.129570077866577 
592	 0.129823953880514 
593	 0.130076022918822 
594	 0.13035140524025 
595	 0.130774485987715 
596	 0.13090424053794 
597	 0.130895995449132 
598	 0.1311911867727 
599	 0.131381230698697 
600	 0.131576954081481 
601	 0.131814627801395 
602	 0.131888355391139 
603	 0.1320890525966 
604	 0.132337162500124 
605	 0.132476522880496 
606	 0.132631238506589 
607	 0.132775055194973 
608	 0.132907018497145 
609	 0.133057595802221 
610	 0.133248014429867 
611	 0.133359918359275 
612	 0.1333499792381 
613	 0.133468399497271 
614	 0.133643006402964 
615	 0.133775563438212 
616	 0.13379106734313 
617	 0.134028086635692 
618	 0.134160587788709 
619	 0.13411063027203 
620	 0.134310383950213 
621	 0.134476601403918 
622	 0.134577481457256 
623	 0.134651158311304 
624	 0.134679053582344 
625	 0.134755255676043 
626	 0.134853149736151 
627	 0.134843499257344 
628	 0.135029844360365 
629	 0.135243979628458 
630	 0.135313832435263 
631	 0.135256216364809 
632	 0.135508040743994 
633	 0.135900297927527 
634	 0.136002431582594 
635	 0.135893449985375 
636	 0.13596592975954 
637	 0.13625623054332 
638	 0.13625460609454 
639	 0.136488999562556 
640	 0.13671750346569 
641	 0.136662861275906 
642	 0.136848082164688 
643	 0.137030879100599 
644	 0.137128878251895 
645	 0.137205814134427 
646	 0.137355869070369 
647	 0.137526824406874 
648	 0.137643440579981 
649	 0.137637712288456 
650	 0.137767605604391 
651	 0.137977804791034 
652	 0.138079650527558 
653	 0.137952718626107 
654	 0.137908650938647 
655	 0.138011233579193 
656	 0.137932774607231 
657	 0.137781646928942 
658	 0.137639564164981 
659	 0.137532791475853 
660	 0.137370725626726 
661	 0.137143641768365 
662	 0.136964028911761 
663	 0.136970785320234 
664	 0.1366653935097 
665	 0.13642133966217 
666	 0.136419521359016 
667	 0.136300894296418 
668	 0.136292182777391 
669	 0.136300650950333 
670	 0.136213751770963 
671	 0.136329844400109 
672	 0.136545655630861 
673	 0.136766772753956 
674	 0.136936884611795 
675	 0.137225532245596 
676	 0.137503351956575 
677	 0.137722518091571 
678	 0.138201954349329 
679	 0.138578903166725 
680	 0.138953056014437 
681	 0.139554273741779 
682	 0.139908416975294 
683	 0.140385927833248 
684	 0.141105499302379 
685	 0.141830567850272 
686	 0.142394707993949 
687	 0.142930505844235 
688	 0.14359078143703 
689	 0.14426609357638 
690	 0.144837885992365 
691	 0.145350870652753 
692	 0.145942741868888 
693	 0.146532658221197 
694	 0.147059253062032 
695	 0.147502836322407 
696	 0.147954119909423 
697	 0.148289497728429 
698	 0.148531515134706 
699	 0.148752133708647 
700	 0.14916124728437 
701	 0.149389599501099 
702	 0.149485059534933 
703	 0.149816434347502 
704	 0.150030349240629 
705	 0.150172378191396 
706	 0.150276795599325 
707	 0.150203245022436 
708	 0.150314786721648 
709	 0.150550705817968 
710	 0.150675123102907 
711	 0.150484323008776 
712	 0.150308135261997 
713	 0.150302928336577 
714	 0.150396006912352 
715	 0.150137335003262 
716	 0.149843007018035 
717	 0.149872919848481 
718	 0.149588629314248 
719	 0.149306779787218 
720	 0.149108812514523 
721	 0.148906177945841 
722	 0.14869355942328 
723	 0.148461494557427 
724	 0.148178558637033 
725	 0.147722715344533 
726	 0.147198356996729 
727	 0.146831545844277 
728	 0.14659925751279 
729	 0.145656961916324 
730	 0.144852550937435 
731	 0.144233230573616 
732	 0.143492341081925 
733	 0.143008102210291 
734	 0.142508100441439 
735	 0.141963565969796 
736	 0.141702609790663 
737	 0.141498463379278 
738	 0.141390809805976 
739	 0.141424409273406 
740	 0.141466842988492 
741	 0.141546244148466 
742	 0.141660964768523 
743	 0.141788883332095 
744	 0.141852168860485 
745	 0.141950770989461 
746	 0.142121612360371 
747	 0.142295317352262 
748	 0.142347239907771 
749	 0.142444863194766 
750	 0.14270929560837 
751	 0.142861435316082 
752	 0.142967508994619 
753	 0.143061759048308 
754	 0.143160245441847 
755	 0.1432497642891 
756	 0.143388172041556 
757	 0.143555796632358 
758	 0.143609400103997 
759	 0.14377377622162 
760	 0.143978357956337 
761	 0.143890074745971 
762	 0.14362539661593 
763	 0.14379028617022 
764	 0.14418764574112 
765	 0.144440678973389 
766	 0.144615549785845 
767	 0.144724075682364 
768	 0.144868755697115 
769	 0.145231613965295 
770	 0.145402872720036 
771	 0.14543326574579 
772	 0.145477046243097 
773	 0.145688581066678 
774	 0.145954100181524 
775	 0.146123754128072 
776	 0.146142867624782 
777	 0.14662506014891 
778	 0.146808383382507 
779	 0.146665520193024 
780	 0.146964474276414 
781	 0.147214951803287 
782	 0.147303228898157 
783	 0.147305815021678 
784	 0.147578914756114 
785	 0.14785196937412 
786	 0.147996393943695 
787	 0.148007547561643 
788	 0.148238227431337 
789	 0.148458625582457 
790	 0.148602656351967 
791	 0.14877403739593 
792	 0.149112044325676 
793	 0.149266784086135 
794	 0.14917925250326 
795	 0.149360038320763 
796	 0.149515805466617 
797	 0.149660231147287 
798	 0.14982509110798 
799	 0.149775497236444 
800	 0.149929808762597 
801	 0.150135533015421 
802	 0.150013356914559 
803	 0.150122700371338 
804	 0.150247095500293 
805	 0.150265533202384 
806	 0.150232180356474 
807	 0.149935521375658 
808	 0.149780838624665 
809	 0.149953251616386 
810	 0.149740640460202 
811	 0.149608293599353 
812	 0.149398641143262 
813	 0.148870514555448 
814	 0.14890696773768 
815	 0.148791165061206 
816	 0.148293500068295 
817	 0.147756596947306 
818	 0.147621742050927 
819	 0.147516810338804 
820	 0.147137718996323 
821	 0.146351945086598 
822	 0.145936604691387 
823	 0.145393873167127 
824	 0.144354734837446 
825	 0.143393878560803 
826	 0.142615683661761 
827	 0.141762652024548 
828	 0.140569720072055 
829	 0.139453466845537 
830	 0.138249772977543 
831	 0.137238366828087 
832	 0.136892240325938 
833	 0.135917141641178 
834	 0.135120843305133 
835	 0.134855841212847 
836	 0.134574055524783 
837	 0.133987138334165 
838	 0.133572836161654 
839	 0.133554391316185 
840	 0.133035329722652 
841	 0.132671981231293 
842	 0.132422193793479 
843	 0.13205370544421 
844	 0.13168689627411 
845	 0.131477663421643 
846	 0.131326531471937 
847	 0.130974971543587 
848	 0.13039925794182 
849	 0.130349772379662 
850	 0.130648542676275 
851	 0.129939802515251 
852	 0.129556259279122 
853	 0.129387806757908 
854	 0.129168302940049 
855	 0.128962972572164 
856	 0.1286771948095 
857	 0.128533581606976 
858	 0.12861566007289 
859	 0.128232728516333 
860	 0.127705401779843 
861	 0.127421063915149 
862	 0.127589622120998 
863	 0.127278285251154 
864	 0.126845130372292 
865	 0.126587299113272 
866	 0.126573433016719 
867	 0.126077253335627 
868	 0.125551025947133 
869	 0.125303661495557 
870	 0.125232515611478 
871	 0.125185515172773 
872	 0.124901040478511 
873	 0.124294156130702 
874	 0.123658900818885 
875	 0.123462983439533 
876	 0.123162882270425 
877	 0.122396768218108 
878	 0.122779249527239 
879	 0.12223290482243 
880	 0.121263274488779 
881	 0.121279889457646 
882	 0.121025026909125 
883	 0.120571529145805 
884	 0.120087028780638 
885	 0.119748188382441 
886	 0.119559446635544 
887	 0.119123676464388 
888	 0.118563078459319 
889	 0.118562338998474 
890	 0.118453618317503 
891	 0.118022088682982 
892	 0.117479289843771 
893	 0.117676260596273 
894	 0.117133545606559 
895	 0.116530347958528 
896	 0.116625041763999 
897	 0.116251649880302 
898	 0.115284364994809 
899	 0.114704998088676 
900	 0.115126685158835 
901	 0.114719356366835 
902	 0.113986653345868 
903	 0.113716588082632 
904	 0.114163034411659 
905	 0.112399862939917 
906	 0.111925734347299 
907	 0.112686499605602 
908	 0.111995335920073 
909	 0.11023201277732 
910	 0.109503539756431 
911	 0.109676740328911 
912	 0.108715071807522 
913	 0.108574035315903 
914	 0.108214011157641 
915	 0.107277921971466 
916	 0.106485702017438 
917	 0.104329036594229 
918	 0.103200003077416 
919	 0.103349816712557 
920	 0.101741167712343 
921	 9.98508882956464E-02 
922	 9.89691815352501E-02 
923	 0.099040127650401 
924	 9.72565735706684E-02 
925	 9.64567652627792E-02 
926	 9.56262155276818E-02 
927	 9.35219466585233E-02 
928	 9.28044790126199E-02 
929	 9.21259444261276E-02 
930	 9.15927298724101E-02 
931	 9.13413784089762E-02 
932	 8.73139993468707E-02 
933	 8.25512176933945E-02 
934	 8.27341715234796E-02 
935	 8.79829141100212E-02 
936	 8.12299428739618E-02 
937	 7.52613165107052E-02 
938	 7.44727865770978E-02 
939	 0.077195524224528 
940	 7.27879868561306E-02 
941	 6.76432680838445E-02 
942	 6.53225024166773E-02 
943	 6.66300522508796E-02 
944	 6.64285964184178E-02 
945	 0.059317008258967 
946	 5.39223918095462E-02 
947	 6.12455396339525E-02 
948	 5.91691972032565E-02 
949	 5.35682244293257E-02 
950	 0.050147980494669 
951	 5.08145370984917E-02 
952	 4.38790651748585E-02 
953	 4.02482708256813E-02 
954	 4.15964516966193E-02 
955	 4.19003102454359E-02 
956	 0.040121499175467 
957	 3.68853219823966E-02 
958	 3.54028326327531E-02 
959	 3.86000433203704E-02 
960	 3.84788345655864E-02 
961	 3.73983626024816E-02 
962	 3.58149901748581E-02 
963	 3.29721168022398E-02 
964	 3.47891519396182E-02 
965	 3.49156001542129E-02 
966	 3.28871931711142E-02 
967	 3.27751966380683E-02 
968	 3.36144899923028E-02 
969	 3.24320740318473E-02 
970	 3.08793439577778E-02 
971	 3.33436487569778E-02 
972	 3.11872812660435E-02 
973	 3.10686873500085E-02 
974	 3.32184150002036E-02 
975	 3.11420303523893E-02 
976	 3.10535963478741E-02 
977	 0.032108959145761 
978	 3.25461398531296E-02 
979	 3.14781768687981E-02 
980	 3.46947360125926E-02 
981	 3.48689590151993E-02 
982	 3.24222497881832E-02 
983	 0.033732957276091 
984	 3.26477115201164E-02 
985	 3.09502366689561E-02 
986	 3.14102897931652E-02 
987	 0.03536788612144 
988	 3.42602927136081E-02 
989	 3.30058180922505E-02 
990	 3.43520366546747E-02 
991	 3.73027346488026E-02 
992	 3.58895643286169E-02 
993	 3.45560914000771E-02 
994	 0.035868430157368 
995	 3.89193550303804E-02 
996	 3.59177497732622E-02 
997	 3.50842781286539E-02 
998	 3.77614136962029E-02 
999	 0.039783285336859 
1000	 3.81080318565946E-02 
1001	 3.81798777166907E-02 
1002	 3.93328440348158E-02 
1003	 4.00288024768252E-02 
1004	 4.04026557222868E-02 
1005	 4.09785840758304E-02 
1006	 4.15838541725092E-02 
1007	 4.19740542385718E-02 
1008	 4.24692544403034E-02 
1009	 4.32667011447585E-02 
1010	 4.41581058086206E-02 
1011	 4.50051465273928E-02 
1012	 4.60601718407464E-02 
1013	 4.68406913286673E-02 
1014	 4.75531681525061E-02 
1015	 4.81151296605443E-02 
1016	 4.87804839166391E-02 
1017	 4.93417060952871E-02 
1018	 4.98953077917659E-02 
1019	 5.01253736592048E-02 
1020	 5.08476464901087E-02 
1021	 5.16307098200369E-02 
1022	 5.29725954267277E-02 
1023	 5.45156920114013E-02 
1024	 5.60097827996218E-02 
1025	 0.05720749258266 
1026	 5.83340986133407E-02 
1027	 5.95080155218782E-02 
1028	 6.07657845152332E-02 
1029	 6.15995433167238E-02 
1030	 6.22080988974054E-02 
1031	 0.06293495763047 
1032	 0.063151360940631 
1033	 6.40064115633016E-02 
1034	 6.53782159346448E-02 
1035	 6.65120845563102E-02 
1036	 6.76083940376156E-02 
1037	 6.89515347754577E-02 
1038	 0.070367424905258 
1039	 7.20046796683286E-02 
1040	 7.34121537721718E-02 
1041	 7.45046896455485E-02 
1042	 7.52156189265841E-02 
1043	 0.075050797790295 
1044	 7.57090425406632E-02 
1045	 7.65174606122494E-02 
1046	 7.73229532255549E-02 
1047	 7.84118284095241E-02 
1048	 7.93971176205049E-02 
1049	 8.02972056824487E-02 
1050	 8.12304013344966E-02 
1051	 8.21820547167646E-02 
1052	 8.32645467298436E-02 
1053	 8.46424749777635E-02 
1054	 8.55950555765516E-02 
1055	 8.68049694766094E-02 
1056	 8.74016146069765E-02 
1057	 8.75714761678554E-02 
1058	 8.69757905537348E-02 
1059	 8.69278827488375E-02 
1060	 8.63210774315968E-02 
1061	 8.68191022793996E-02 
1062	 8.81900863066333E-02 
1063	 8.89698106288204E-02 
1064	 9.04051372094512E-02 
1065	 9.09475937652609E-02 
1066	 9.06594551520615E-02 
1067	 9.06684160702978E-02 
1068	 9.04198806860891E-02 
1069	 9.02869524107614E-02 
1070	 9.00209631910255E-02 
1071	 9.00977857850692E-02 
1072	 9.08164309217155E-02 
1073	 9.06746313366376E-02 
1074	 9.09220067059353E-02 
1075	 9.15402126772171E-02 
1076	 9.16579910006384E-02 
1077	 9.16949719984127E-02 
1078	 9.12159459830059E-02 
1079	 8.99694335876748E-02 
1080	 8.95196912191591E-02 
1081	 8.89267215797181E-02 
1082	 0.088649279554158 
1083	 8.94122662429473E-02 
1084	 8.93198499659976E-02 
1085	 8.86267104519372E-02 
1086	 8.81335805391628E-02 
1087	 8.74719563693253E-02 
1088	 0.08678782225405 
1089	 8.58118278367824E-02 
1090	 8.55175200939124E-02 
1091	 8.50582344973007E-02 
1092	 8.46568976786843E-02 
1093	 8.41722220842792E-02 
1094	 8.37555609864656E-02 
1095	 8.31364844772851E-02 
1096	 8.23291293172637E-02 
1097	 8.14497957790803E-02 
1098	 8.06620707297898E-02 
1099	 7.96683843552694E-02 
1100	 7.77680696692306E-02 
1101	 7.68813166044348E-02 
1102	 7.67967606756355E-02 
1103	 0.07612447590147 
1104	 7.56710593681692E-02 
1105	 7.56221231765329E-02 
1106	 7.43734703890626E-02 
1107	 0.072875024005804 
1108	 0.07202723909162 
1109	 7.13095957962852E-02 
1110	 7.06719335860799E-02 
1111	 7.01681668038038E-02 
1112	 0.069699524772601 
1113	 6.96924180770331E-02 
1114	 6.92804367795756E-02 
1115	 6.84196972079126E-02 
1116	 6.82259289253385E-02 
1117	 6.88111088665747E-02 
1118	 6.79762402719572E-02 
1119	 6.81309592925198E-02 
1120	 6.60378118769389E-02 
1121	 5.86069215780321E-02 
1122	 5.10739376470644E-02 
1123	 5.37026143300674E-02 
1124	 0.055950130990828 
1125	 5.90921573376122E-02 
1126	 6.23547761504491E-02 
1127	 5.68817192629465E-02 
1128	 5.05677153227789E-02 
1129	 4.65728764104852E-02 
1130	 4.70785155803902E-02 
1131	 4.33083498898714E-02 
1132	 3.41678025805562E-02 
1133	 3.32586201487863E-02 
1134	 3.69556011296283E-02 
1135	 3.54647589280928E-02 
1136	 0.035849569245217 
1137	 3.54155664594949E-02 
1138	 3.23285732927055E-02 
1139	 2.69804842249349E-02 
1140	 2.67675694938865E-02 
1141	 3.04060088027332E-02 
1142	 3.15817939952838E-02 
1143	 3.00367747556014E-02 
1144	 2.75280173720623E-02 
1145	 2.38113653767907E-02 
1146	 2.04991024365597E-02 
1147	 2.11836549035427E-02 
1148	 2.58376760052985E-02 
1149	 2.66766683587918E-02 
1150	 2.48713373314956E-02 
1151	 2.03014995951872E-02 
1152	 1.97041920898704E-02 
1153	 1.79705477997882E-02 
1154	 1.74216859352467E-02 
1155	 1.96750487118082E-02 
1156	 1.96964329638274E-02 
1157	 1.69747950036439E-02 
1158	 1.69528613756258E-02 
1159	 1.78908105891481E-02 
1160	 1.80703194192275E-02 
1161	 1.86696040726195E-02 
1162	 1.89242390986034E-02 
1163	 0.018161455923217 
1164	 1.76000071411657E-02 
1165	 1.73935670737641E-02 
1166	 0.017447509068407 
1167	 1.77605523363613E-02 
1168	 1.77094555984218E-02 
1169	 1.74708005989961E-02 
1170	 1.75253530683232E-02 
1171	 1.74973031414874E-02 
1172	 1.71591429564442E-02 
1173	 1.71075825128447E-02 
1174	 1.74381621237788E-02 
1175	 1.74078457484556E-02 
1176	 1.68629861710232E-02 
1177	 1.71212339179239E-02 
1178	 1.72014633746858E-02 
1179	 0.016597418453691 
1180	 1.65204461667166E-02 
1181	 1.62696580460758E-02 
1182	 1.60697398639763E-02 
1183	 1.68170797888634E-02 
1184	 1.71221252400828E-02 
1185	 1.66076303645385E-02 
1186	 1.64097118126406E-02 
1187	 1.65073687774247E-02 
1188	 1.66396229054353E-02 
1189	 1.67745555521605E-02 
1190	 1.65996258402983E-02 
1191	 1.63777449000045E-02 
1192	 1.63777613800946E-02 
1193	 1.63519331137316E-02 
1194	 1.65925670485571E-02 
1195	 1.70318260107788E-02 
1196	 0.017273156324722 
1197	 1.68313289632439E-02 
1198	 1.66983869888733E-02 
1199	 1.68929412208709E-02 
1200	 1.64248590499633E-02 
1201	 1.60379397926835E-02 
1202	 1.61611588735982E-02 
1203	 1.64616934679584E-02 
1204	 1.64768686988414E-02 
1205	 1.64760675107351E-02 
1206	 1.68766116024884E-02 
1207	 1.70460557637358E-02 
1208	 1.68497329806247E-02 
1209	 1.68178185839949E-02 
1210	 1.70808901853312E-02 
1211	 1.69380827897368E-02 
1212	 1.64169705896577E-02 
1213	 1.63181607416464E-02 
1214	 1.64502167690666E-02 
1215	 0.016503888893901 
1216	 1.64550284794517E-02 
1217	 1.65686428754702E-02 
1218	 1.65903523220813E-02 
1219	 1.63401120985887E-02 
1220	 1.61657071862465E-02 
1221	 1.65606178335665E-02 
1222	 1.69773095828996E-02 
1223	 1.65402193429684E-02 
1224	 1.59194642826311E-02 
1225	 1.58629687970067E-02 
1226	 1.60466721820141E-02 
1227	 1.64324415810788E-02 
1228	 0.016884279139323 
1229	 0.016746666245675 
1230	 1.61818571901537E-02 
1231	 1.61406875999588E-02 
1232	 1.65128416099317E-02 
1233	 1.67394665305084E-02 
1234	 1.70589458301448E-02 
1235	 1.71498925333225E-02 
1236	 1.65961192993031E-02 
1237	 1.65172129475913E-02 
1238	 1.66155195198026E-02 
1239	 1.68763786695111E-02 
1240	 1.67314639380538E-02 
1241	 1.68999615571554E-02 
1242	 0.017080796847357 
1243	 1.68705544213287E-02 
1244	 1.70494800156802E-02 
1245	 1.72086496798774E-02 
1246	 1.66777033258871E-02 
1247	 1.64350560475155E-02 
1248	 1.66347218219217E-02 
1249	 1.66757085100077E-02 
1250	 1.67490303879686E-02 
1251	 1.69537840861696E-02 
1252	 1.74517412365855E-02 
1253	 1.78666531050202E-02 
1254	 1.76840673130798E-02 
1255	 1.74478165647023E-02 
1256	 1.74857870915741E-02 
1257	 1.70723948002051E-02 
1258	 1.69813127448815E-02 
1259	 1.77036663797811E-02 
1260	 1.79007449170656E-02 
1261	 1.75713199989895E-02 
1262	 1.74202170314048E-02 
1263	 1.73025717519968E-02 
1264	 1.73625684159681E-02 
1265	 1.70687646931008E-02 
1266	 1.70697695172243E-02 
1267	 1.77514367645632E-02 
1268	 1.74909432143093E-02 
1269	 1.68489805333378E-02 
1270	 1.69936347881407E-02 
1271	 1.70163911682764E-02 
1272	 1.68246584195825E-02 
1273	 1.68935781191102E-02 
1274	 1.70677959363201E-02 
1275	 1.68211781026206E-02 
1276	 0.016388614851257 
1277	 1.68450274899686E-02 
1278	 1.72644358825071E-02 
1279	 1.68780550653878E-02 
1280	 1.68929015003222E-02 
1281	 1.68588256457519E-02 
1282	 1.65738216433007E-02 
1283	 1.62806577193346E-02 
1284	 1.62513836104415E-02 
1285	 1.60349976300114E-02 
1286	 1.51680044887295E-02 
1287	 1.50861426813908E-02 
1288	 0.015674033349262 
1289	 1.58526735344006E-02 
1290	 1.61508625433688E-02 
1291	 1.66364204766943E-02 
1292	 1.66618901348636E-02 
1293	 1.61157192179286E-02 
1294	 1.57561241237367E-02 
1295	 1.57037763143799E-02 
1296	 1.55241630338522E-02 
1297	 1.53997894618386E-02 
1298	 1.54933263913224E-02 
1299	 1.56083933510598E-02 
1300	 1.56628453424691E-02 
1301	 1.57384445581388E-02 
1302	 1.61394219712699E-02 
1303	 1.62442453743093E-02 
1304	 1.61705145934619E-02 
1305	 1.64597136563627E-02 
1306	 1.62785129739431E-02 
1307	 1.53772416623093E-02 
1308	 0.015136048871824 
1309	 1.50734532398386E-02 
1310	 1.48444227989905E-02 
1311	 1.49646236212306E-02 
1312	 1.49411324307446E-02 
1313	 1.44992874431463E-02 
1314	 1.44263156687649E-02 
1315	 1.46725268691765E-02 
1316	 1.47180249016308E-02 
1317	 1.47628915211026E-02 
1318	 1.48070882179839E-02 
1319	 1.50952683674478E-02 
1320	 1.52090328743328E-02 
1321	 1.52645123875152E-02 
1322	 0.014950826877821 
1323	 0.015228013649065 
1324	 1.43540161693165E-02 
1325	 1.36486525370344E-02 
1326	 1.42153775586741E-02 
1327	 1.42590274705215E-02 
1328	 0.013102011161326 
1329	 1.30319419424346E-02 
1330	 1.48192871085883E-02 
1331	 1.50515287662429E-02 
1332	 1.48958212403291E-02 
1333	 1.62413793045604E-02 
1334	 1.59017405268294E-02 
1335	 1.51613708367076E-02 
1336	 1.46331085165312E-02 
1337	 1.51059933392338E-02 
1338	 1.48605487863593E-02 
1339	 0.014648622827509 
1340	 0.016279214395365 
1341	 1.67848910999463E-02 
1342	 1.46272708704392E-02 
1343	 1.34837092780991E-02 
1344	 1.49589417278853E-02 
1345	 1.44601988219126E-02 
1346	 9.7420059553602E-03 
1347	 8.25084848668972E-03 
1348	 9.52924328440388E-03 
1349	 7.39516388640628E-03 
1350	 7.04326196514443E-03 
1351	 6.00225047988781E-03 
1352	-9.86147067167031E-03 
1353	-2.13930014268723E-02 
1354	-0.011769243714609 
1355	-7.02809835740224E-04 
1356	-3.97336544634531E-02 
1357	-0.060958986684366 
1358	-0.071489941834486 
1359	-0.266899938899176 
1360	-0.372312096971569 
1361	-0.15226115431257 
1362	-0.048536122953651 
1363	-4.43158028295475E-02 
1364	-4.19289622159781E-02 
1365	-0.21664899675565 
1366	-0.496661288791086 
1367	-0.665511567055926 
1368	-0.692692252927208 
1369	-0.519756629156367 
1370	-0.472820480748071 
1371	-0.242006577530009 
1372	-0.187277149070921 
1373	-0.238017234848954 
1374	-0.134200642642176 
1375	-4.30292927699508E-02 
1376	-0.120762290868387 
1377	 0.070971163214925 
1378	 0.188716568301926 
1379	-0.259780391740176 
1380	-0.197439212268491 
1381	 0.485090067892255 
1382	 0.868069741799954 
1383	 0.315899157460186 
1384	 0.202635245584748 
1385	-7.69873224922978E-03 
1386	-6.25390662058918E-02 
1387	 1.29077438150935E-02 
1388	-1.96720105005769E-03 
1389	-0.130739218200929 
1390	-0.250609608059682 
1391	 1.31311796414413E-02 
1392	-0.684532085724296 
1393	-0.98455428878125 
1394	-0.413669052145293 
1395	-0.398464191455812 
1396	-0.359902184416832 
1397	-0.189867215382589 
1398	-0.472893350746174 
1399	-0.428768531902515 
1400	-0.314174692932884 
1401	-0.303726021224808 
1402	-0.162608148285303 
1403	-0.275493530284804 
1404	-0.262506234893475 
1405	-0.165661953974824 
1406	 0.109922360703926 
1407	 6.93260596031616E-02 
1408	-0.17744530633185 
1409	-3.86057892269293E-02 
1410	 0.209150001747102 
1411	 0.193858568862072 
1412	 0.310292417269974 
1413	 0.27453177347025 
1414	-4.58561794270462E-02 
1415	-0.106407492733407 
1416	-6.79580627915638E-02 
1417	-8.51253500061016E-03 
1418	 8.78758488836169E-02 
1419	 9.67951707890568E-02 
1420	 7.97045582445907E-02 
1421	 8.12488060091487E-02 
1422	 8.27240526288929E-02 
1423	 7.00069706533731E-02 
1424	 0.048477879388863 
1425	 5.57267916518484E-02 
1426	 7.53474331521222E-02 
1427	 6.53735534133581E-02 
1428	 5.39694330098236E-02 
1429	 5.32875338842604E-02 
1430	 3.51641369338147E-02 
1431	 2.29225886512281E-02 
1432	 2.52526839510159E-02 
1433	 2.92391121111312E-02 
1434	 2.60860876199186E-02 
1435	 2.69143806501622E-02 
1436	 0.036618279754589 
1437	 5.78111865064604E-02 
1438	 4.24304195016628E-02 
1439	 2.61279254429656E-02 
1440	 3.49911380858823E-02 
1441	 2.04151076839111E-02 
1442	 8.5816839188904E-03 
1443	 0.017624276697275 
1444	 1.46263813633929E-02 
1445	 1.01019868328074E-02 
1446	 1.98959426546464E-02 
1447	 2.85140915834577E-02 
1448	 2.58054385155215E-02 
1449	 1.84120874609403E-02 
1450	 1.50089921757923E-02 
1451	 1.70097072307607E-02 
1452	 1.68536021249969E-02 
1453	 1.52398385794598E-02 
1454	 1.71669331543586E-02 
1455	 1.96673037848212E-02 
1456	 1.78435738334178E-02 
1457	 1.62642284017615E-02 
1458	 1.75219468776168E-02 
1459	 1.58789255589967E-02 
1460	 1.48526365221456E-02 
1461	 1.92726872984366E-02 
1462	 1.93972184744928E-02 
1463	 0.014738761376504 
1464	 1.16871754330784E-02 
1465	 6.78534625864213E-03 
1466	 6.33974847287878E-03 
1467	 8.69655590360691E-03 
1468	 8.90591610553382E-03 
1469	 0.012797269995866 
1470	 1.47029496730786E-02 
1471	 1.39011134884692E-02 
1472	 1.11635186714682E-02 
1473	 5.87064995323064E-03 
1474	 0.006530837897519 
1475	 9.5649622018276E-03 
1476	 7.6513618897024E-03 
1477	 4.98857615627853E-03 
1478	 7.51780297077061E-03 
1479	 0.011370250639737 
1480	 9.86474831454459E-03 
1481	 8.34303083267642E-03 
1482	 1.03289584129705E-02 
1483	 8.81713432561421E-03 
1484	 8.45319629685643E-03 
1485	 1.53894586904274E-02 
1486	 1.60130973535678E-02 
1487	 1.10166328954488E-02 
1488	 8.77545294803288E-03 
1489	 5.77217994884497E-03 
1490	 5.39225634877391E-03 
1491	 7.19322378324994E-03 
1492	 0.007514384541415 
1493	 7.8113618820372E-03 
1494	 8.38857039739002E-03 
1495	 9.12338550951898E-03 
1496	 8.82527062206932E-03 
1497	 7.69238399434585E-03 
1498	 7.99707974551027E-03 
1499	 0.008618379629683 
1500	 8.58231927791207E-03 
1501	 9.58210069730517E-03 
1502	 1.00009829068164E-02 
1503	 9.37890858521931E-03 
1504	 8.64056296919749E-03 
1505	 7.40853867209921E-03 
1506	 7.1198910138577E-03 
1507	 7.42705325037159E-03 
1508	 7.28483766371347E-03 
1509	 7.87211813501688E-03 
1510	 8.92731796644562E-03 
1511	 8.41679276052344E-03 
1512	 7.85627418946163E-03 
1513	 8.07410303348638E-03 
1514	 7.6602590464963E-03 
1515	 7.52534300632105E-03 
1516	 8.25557357615159E-03 
1517	 8.41311579816013E-03 
1518	 8.15274072095576E-03 
1519	 8.30391278744735E-03 
1520	 8.21733776799688E-03 
1521	 7.95332008688166E-03 
1522	 7.8822701827085E-03 
1523	 7.93732630147704E-03 
1524	 8.21366842214678E-03 
1525	 8.69332794419746E-03 
1526	 9.11130909700426E-03 
1527	 9.38772050927111E-03 
1528	 9.25858437923278E-03 
1529	 8.59753781324091E-03 
1530	 8.45548748870242E-03 
1531	 8.60772324465062E-03 
1532	 0.008400219069116 
1533	 8.40544436023346E-03 
1534	 8.56326571015176E-03 
1535	 8.16834329995298E-03 
1536	 7.8942632768532E-03 
1537	 8.44562053172958E-03 
1538	 8.80894684732525E-03 
1539	 8.85053279994155E-03 
1540	 8.83047928759019E-03 
1541	 8.65993822671262E-03 
1542	 8.16345684182771E-03 
1543	 0.007604380115978 
1544	 7.85713417471248E-03 
1545	 8.34355832674549E-03 
1546	 8.31270574337451E-03 
1547	 8.20930432821573E-03 
1548	 8.07135878505915E-03 
1549	 7.92260956543768E-03 
1550	 8.11849674940279E-03 
1551	 8.38520218169132E-03 
1552	 8.83181521732526E-03 
1553	 9.09148235749587E-03 
1554	 8.42479479609153E-03 
1555	 7.96598604988721E-03 
1556	 8.13995633331329E-03 
1557	 8.16915324639288E-03 
1558	 8.43068012577588E-03 
1559	 8.73754535623025E-03 
1560	 8.81200234154643E-03 
1561	 8.64076664014535E-03 
1562	 8.02611261899855E-03 
1563	 7.87022363177996E-03 
1564	 8.35108546043074E-03 
1565	 9.00502138744901E-03 
1566	 9.32807090729778E-03 
1567	 9.0518002734873E-03 
1568	 9.10353079077593E-03 
1569	 8.94920385736952E-03 
1570	 8.47105189684179E-03 
1571	 8.95840948843807E-03 
1572	 9.38412099051314E-03 
1573	 9.63783360106846E-03 
1574	 1.03242028347953E-02 
1575	 9.93552103998792E-03 
1576	 8.9022201454734E-03 
1577	 8.80207884485347E-03 
1578	 9.05806584961686E-03 
1579	 8.83052020199372E-03 
1580	 8.7335467303705E-03 
1581	 9.20719677420174E-03 
1582	 9.51340318660702E-03 
1583	 9.44606767329629E-03 
1584	 9.69888728885495E-03 
1585	 9.55721753055147E-03 
1586	 8.77375610497146E-03 
1587	 8.90476746785405E-03 
1588	 9.40901635874874E-03 
1589	 0.00957367804036 
1590	 9.81196383197073E-03 
1591	 1.03203336594954E-02 
1592	 0.010765747794496 
1593	 1.04855356815892E-02 
1594	 1.01922236651817E-02 
1595	 1.00353468508797E-02 
1596	 9.93730196645916E-03 
1597	 1.02157752619959E-02 
1598	 0.010557031831377 
1599	 1.04310964051281E-02 
1600	 1.02564310216406E-02 
1601	 1.05699738958401E-02 
1602	 1.02881856745163E-02 
1603	 9.70409789370248E-03 
1604	 9.6803870828895E-03 
1605	 1.00671232901638E-02 
1606	 1.03921415200098E-02 
1607	 1.03804747864217E-02 
1608	 0.010233972571097 
1609	 9.85015488393981E-03 
1610	 9.73700236993065E-03 
1611	 9.79206212036642E-03 
1612	 9.77593878729059E-03 
1613	 1.00752962051355E-02 
1614	 1.03807913551705E-02 
1615	 1.02014821669508E-02 
1616	 9.92854897560835E-03 
1617	 1.04805908523309E-02 
1618	 1.07898181097731E-02 
1619	 0.010465756525503 
1620	 1.06981657585302E-02 
1621	 1.04576864229496E-02 
1622	 9.48524369593993E-03 
1623	 9.15481344579623E-03 
1624	 9.62180155016121E-03 
1625	 9.79377709890542E-03 
1626	 9.65166480677973E-03 
1627	 1.03221760613626E-02 
1628	 0.010938383514714 
1629	 1.09826684296823E-02 
1630	 1.09847466978678E-02 
1631	 1.04904356435553E-02 
1632	 1.00201945875397E-02 
1633	 1.02388771366523E-02 
1634	 0.010567423315378 
1635	 1.07368502013321E-02 
1636	 1.08694245501606E-02 
1637	 1.09793188584809E-02 
1638	 1.08073128245004E-02 
1639	 1.04259888333141E-02 
1640	 0.010638490884224 
1641	 1.09788452852301E-02 
1642	 1.10973863631623E-02 
1643	 1.15369840417432E-02 
1644	 1.15206790549181E-02 
1645	 1.11167169873585E-02 
1646	 1.05647837276434E-02 
1647	 9.74469499675474E-03 
1648	 9.81228355467135E-03 
1649	 1.00380327855774E-02 
1650	 9.90622418032871E-03 
1651	 1.07239264172772E-02 
1652	 0.011460724887821 
1653	 1.14475548704327E-02 
1654	 1.13758996360943E-02 
1655	 1.05738064320057E-02 
1656	 1.02774333413575E-02 
1657	 1.00506250330483E-02 
1658	 1.00922982187675E-02 
1659	 1.08274794223264E-02 
1660	 1.04898879427311E-02 
1661	 9.48128092783618E-03 
1662	 9.8552892460677E-03 
1663	 1.03017338287555E-02 
1664	 9.81451668875178E-03 
1665	 9.73821531777317E-03 
1666	 1.01709123561066E-02 
1667	 1.03762347927015E-02 
1668	 1.10623461343067E-02 
1669	 1.08387801431645E-02 
1670	 9.96361180802224E-03 
1671	 9.4500970091109E-03 
1672	 9.4065092312093E-03 
1673	 9.88633590969813E-03 
1674	 1.06261897755493E-02 
1675	 0.010125778266494 
1676	 9.92386195884174E-03 
1677	 1.11966721423414E-02 
1678	 1.20422554234872E-02 
1679	 1.20292426034627E-02 
1680	 1.21858014658817E-02 
1681	 1.21060746443022E-02 
1682	 1.13011531706059E-02 
1683	 1.13028407835982E-02 
1684	 1.18054228484252E-02 
1685	 1.15546840912075E-02 
1686	 0.011621877639029 
1687	 1.21861556528712E-02 
1688	 1.18038598524714E-02 
1689	 1.07281467057831E-02 
1690	 1.05875672899162E-02 
1691	 1.09008262758276E-02 
1692	 1.08930030263753E-02 
1693	 0.011188709218579 
1694	 1.12155322074849E-02 
1695	 1.10270135207566E-02 
1696	 1.08146239047859E-02 
1697	 1.02793103654166E-02 
1698	 1.02341773047106E-02 
1699	 0.010189587824253 
1700	 1.04346091455206E-02 
1701	 1.15584748843981E-02 
1702	 1.20772258054393E-02 
1703	 0.01142986405341 
1704	 0.010876426301999 
1705	 1.12376570092012E-02 
1706	 1.16264523318085E-02 
1707	 1.21176378089324E-02 
1708	 1.25738062878133E-02 
1709	 1.19347670024582E-02 
1710	 1.14494075273312E-02 
1711	 1.11728255810195E-02 
1712	 1.03832188588206E-02 
1713	 1.20815105833652E-02 
1714	 1.22215268352103E-02 
1715	 0.011600458425486 
1716	 1.28881320043885E-02 
1717	 1.19370064249362E-02 
1718	 1.07499500555298E-02 
1719	 1.10031205602043E-02 
1720	 1.06642401646434E-02 
1721	 0.010226711834963 
1722	 1.05817345475978E-02 
1723	 1.12800988311707E-02 
1724	 1.15903520752116E-02 
1725	 1.15474582408048E-02 
1726	 1.21809476662741E-02 
1727	 1.23780276169851E-02 
1728	 1.21616167582241E-02 
1729	 1.22589467012607E-02 
1730	 1.20857960318527E-02 
1731	 0.01199661487165 
1732	 1.17438836872934E-02 
1733	 1.14645843192867E-02 
1734	 1.18859111469727E-02 
1735	 1.20070458227538E-02 
1736	 1.16764302238867E-02 
1737	 1.19317325642742E-02 
1738	 1.22141783283311E-02 
1739	 1.18582284030605E-02 
1740	 1.12716777538657E-02 
1741	 1.16359605629989E-02 
1742	 1.14151238777133E-02 
1743	 1.05322727030598E-02 
1744	 1.13624344655928E-02 
1745	 1.13986924089749E-02 
1746	 1.24350665685639E-02 
1747	 1.28230423070372E-02 
1748	 1.20971952850503E-02 
1749	 1.17079890248844E-02 
1750	 1.07211154139698E-02 
1751	 1.05348488166086E-02 
1752	 1.12841898935142E-02 
1753	 1.14331029927678E-02 
1754	 0.011807851603555 
1755	 1.18787856911241E-02 
1756	 1.15372666852247E-02 
1757	 1.17731244511042E-02 
1758	 1.03984080811747E-02 
1759	 9.63570676916884E-03 
1760	 1.03411817779364E-02 
1761	 1.05898171720404E-02 
1762	 1.14882347374657E-02 
1763	 1.23079842689263E-02 
1764	 1.07707140493216E-02 
1765	 9.21217118198214E-03 
1766	 1.03487386444789E-02 
1767	 0.012045963077307 
1768	 1.26863989150749E-02 
1769	 1.23750435779383E-02 
1770	 1.13996172010343E-02 
1771	 1.04651539140032E-02 
1772	 1.02807764559952E-02 
1773	 0.012718549445183 
1774	 1.41168802367689E-02 
1775	 1.21288360815901E-02 
1776	 0.01211056917882 
1777	 1.17704276603766E-02 
1778	 1.13589340953065E-02 
1779	 1.22718091764915E-02 
1780	 1.26876369018433E-02 
1781	 1.20338771522944E-02 
1782	 1.26741193603932E-02 
1783	 1.56659312732277E-02 
1784	 1.51976432238489E-02 
1785	 1.25422815133441E-02 
1786	 1.08473592069911E-02 
1787	 5.29445026793565E-03 
1788	 6.71884040004794E-03 
1789	 1.56618125755064E-02 
1790	 1.36042736337006E-02 
1791	 1.69738707291913E-02 
1792	 1.46252356158292E-02 
1793	 5.92094461241867E-03 
1794	 9.55088237618609E-03 
1795	 8.63135232344999E-03 
1796	 6.67282852952287E-03 
1797	 1.33832219722539E-02 
1798	 0.011371144960515 
1799	 1.22080673966296E-02 
1800	 9.38722946331898E-03 
1801	 6.12637329489697E-03 
1802	 0.010355503864004 
1803	 1.04812684480726E-02 
1804	-1.46080368629785E-03 
1805	-9.04281688736044E-03 
1806	-2.28946400981201E-02 
1807	-1.74420475520261E-02 
1808	 0.034064230806092 
1809	 7.12345132598627E-02 
1810	 0.163042027239823 
1811	 0.132105085264396 
1812	-8.91362129322672E-02 
1813	-0.174335328022266 
1814	-0.35948944976492 
1815	-0.440374869570324 
1816	-0.25913840567504 
1817	-0.252121210605875 
1818	 8.47976301047026E-02 
1819	 0.716098356686012 
1820	 1.48318637692199 
1821	 0.149940649103463 
1822	-3.15821696543349E-02 
1823	-0.290642559125098 
1824	-0.309696545172733 
1825	 0.430952894054996 
1826	 0.641162134113554 
1827	 0.648026729620635 
1828	 0.396818608553553 
1829	-4.0927895052586 
1830	-3.31989284901598 
1831	 0.348540131668199 
1832	-0.186909244791678 
1833	-0.790990250797846 
1834	-1.0629278570329 
1835	-8.4883833742729 
1836	-8.21517251895636 
1837	-0.770945846111489 
1838	-0.748160218582328 
1839	-1.99977049252503 
1840	-0.767873049647111 
1841	-0.350407654985666 
1842	-0.33312122743206 
1843	-4.91482589389918E-02 
1844	 0.561426555039736 
1845	 0.684544994532804 
1846	 0.629424051626115 
1847	 0.664093320229974 
1848	 0.6063495933646 
1849	 0.633109823767412 
1850	 0.88418308388814 
1851	 2.24250885490818 
1852	 0.93794861926737 
1853	 0.621968770064757 
1854	 0.688732918920167 
1855	 0.597445261113094 
1856	 0.634062361466399 
1857	 3.65645688501954 
1858	-3.95766243380763 
1859	-0.160238374947912 
1860	 0.573661315749616 
1861	 0.635243867839852 
1862	 6.08803997284507 
1863	-6.19123744870862E-02 
1864	 0.411217864699459 
1865	 0.473362394810741 
1866	-1.23081315371645 
1867	-1.73633237298691 
1868	 0.100554288920221 
1869	 0.530488035884941 
1870	 1.54645788506931 
1871	 1.46262202661442 
1872	 1.24570933699891 
1873	 1.17973477986884 
1874	 1.35950115812521 
1875	 1.87437700744873 
1876	 1.99588182967541 
1877	-9.13655546763323 
1878	-1.93527664154275 
1879	 4.5882563119473 
1880	 2.80212525046856 
1881	 0.116252473391262 
1882	-0.589693872097288 
1883	-2.82770433260425 
1884	-2.31219433394996 
1885	-7.66445966422674 
1886	 3.69429148350933 
1887	 0.648679608125033 
1888	 1.37560786194402 
1889	 1.57609523009285 
1890	-3.84520506441192 
1891	-11.0013428997715 
1892	 1.05656705706789 
1893	 0.743744299720452 
1894	 2.06712497933352 
1895	 4.56557672462963 
1896	 1.95179194677967 
1897	 0.910408818310227 
1898	 0.873595230005454 
1899	 1.40003193796373 
1900	 1.29447663180361 
1901	 1.17119989252821 
1902	 0.58551089565378 
1903	-0.458952523709422 
1904	-0.195328691902557 
1905	-0.116045171384743 
1906	 0.020356750484131 
1907	 3.87888459697697 
1908	 1.75844398665681 
1909	-0.665098961152008 
1910	 1.87499855878162 
1911	 1.92750454236908 
1912	-5.28865498423576 
1913	 0.350674622440712 
1914	 0.12925241037828 
1915	-1.48673426576527 
1916	-5.24090707344558 
1917	-1.78447026059397 
1918	-2.56561804422661 
1919	-1.46336211072233 
1920	-1.02789581329588 
1921	 0.174665152501499 
1922	-0.963362193405116 
1923	-0.397678242650504 
1924	-0.220206815402061 
1925	-0.573633131098283 
1926	-0.644455040209186 
1927	-0.221019619326267 
1928	 0.538204191006754 
1929	-0.464865339944222 
1930	-0.949468402242083 
1931	-1.42953318076025 
1932	-1.58199691198363 
1933	-0.817060534700084 
1934	-0.723066392929686 
1935	-0.93477372874888 
1936	-0.916228862417925 
1937	-0.410444176751951 
1938	-0.201070528228621 
1939	-2.53136368796273E-03 
1940	 0.129383328757323 
1941	 0.256916460242299 
1942	 0.228538300098773 
1943	 0.151131674791402 
1944	 0.143432143369992 
1945	 0.108523887923758 
1946	 0.137353785457541 
1947	 0.159442928971608 
1948	 5.54350601537471E-02 
1949	 7.74243871179131E-02 
1950	 0.120979706395371 
1951	 6.96217022369831E-02 
1952	 4.83461521313087E-02 
1953	 7.88348386522603E-02 
1954	 2.25947700602375E-02 
1955	-0.088228175959665 
1956	-7.91304253307603E-02 
1957	-0.048446866429897 
1958	-3.54337735637838E-02 
1959	-7.57981484189449E-03 
1960	 2.26929420617064E-03 
1961	-2.48902950715405E-02 
1962	-3.96407452601582E-02 
1963	-2.87438622032977E-02 
1964	-1.01006673532455E-02 
1965	 3.30218298849647E-03 
1966	 1.15317396059574E-02 
1967	 2.33108612986723E-02 
1968	 2.56793070105219E-02 
1969	 0.017612346129735 
1970	 1.69710257726765E-02 
1971	 2.13815225338082E-02 
1972	 2.54414889519361E-02 
1973	 2.39616564705841E-02 
1974	 1.42212803808892E-02 
1975	 8.18267072980613E-03 
1976	 6.01279448923073E-03 
1977	 6.19694671243498E-03 
1978	 9.83856239551603E-03 
1979	 1.21176126669462E-02 
1980	 1.61070065319773E-02 
1981	 1.32791200610411E-02 
1982	 7.56032140300081E-03 
1983	 4.53072239595919E-03 
1984	 3.02196644714861E-03 
1985	 2.25469314841455E-03 
1986	 3.89485824361698E-03 
1987	 8.41327309223396E-03 
1988	 9.73911587032701E-03 
1989	 7.31729566358705E-03 
1990	 7.62023746214171E-03 
1991	 9.73112933010754E-03 
1992	 1.01439696565975E-02 
1993	 1.35637752535338E-02 
1994	 0.014769526012651 
1995	 1.56196230567588E-02 
1996	 9.32464221641089E-03 
1997	 6.42435477197374E-03 
1998	 5.81055339366475E-03 
1999	 3.34443911256606E-03 
2000	 7.92820393913109E-03 
2001	 1.23797510328029E-02 
2002	 8.27825349338539E-03 
2003	 6.84733191316021E-03 
2004	 6.0679334718741E-03 
2005	 4.64753567028877E-03 
2006	 7.92221483033594E-03 
2007	 1.22916770461705E-02 
2008	 1.72923413256814E-02 
2009	 1.51653733800536E-02 
2010	 8.04268590774855E-03 
2011	 2.22612515836745E-03 
2012	-1.05493875640719E-02 
2013	-1.58440773937663E-02 
2014	-1.55840122864474E-02 
2015	-1.32060476067818E-02 
2016	-8.16298165024032E-03 
2017	-2.85151356683651E-03 
2018	-1.68911973204509E-03 
2019	-1.40187601842094E-03 
2020	 4.06845191208434E-03 
2021	 1.02105591579791E-02 
2022	 1.68400251470906E-02 
2023	 1.73693017634255E-02 
2024	 0.015695849179567 
2025	 9.44344085695687E-03 
2026	 6.5609001353747E-03 
2027	 1.85812912614461E-03 
2028	 1.05055699702407E-03 
2029	 1.73109141709187E-03 
2030	-3.79850011179595E-04 
2031	-1.09871222342124E-03 
2032	 1.72279775354175E-03 
2033	 5.49183196374412E-03 
2034	 7.73559974656609E-03 
2035	 7.94536480960218E-03 
2036	 7.66488298819855E-03 
2037	 7.25739269773555E-03 
2038	 5.73747468728846E-03 
2039	 5.18066015522573E-03 
2040	 5.68160559924683E-03 
2041	 5.39561937348967E-03 
2042	 4.62207468542872E-03 
2043	 4.52012753587665E-03 
2044	 4.73335842614769E-03 
2045	 4.22876867927154E-03 
2046	 3.52411592669334E-03 
2047	 3.69125314815507E-03 
2048	 7.33073279245073E-03 
2049	 1.12996704685503E-02 
2050	 1.47331807249657E-02 
2051	 1.92907774181645E-02 
2052	 2.02113846080396E-02 
2053	 1.69106811216034E-02 
2054	 1.17765935219073E-02 
2055	 7.68166766027376E-03 
2056	 5.77800545137142E-03 
2057	 3.73751613029442E-03 
2058	 2.92795424971641E-03 
2059	 6.00629359300468E-03 
2060	 7.46101422311445E-03 
2061	 7.22675396079137E-03 
2062	 1.08477063529226E-02 
2063	 1.34687766304148E-02 
2064	 0.014404153649966 
2065	 1.36170507170624E-02 
2066	 1.08898126137891E-02 
2067	 7.85136632433057E-03 
2068	 7.21227766458432E-03 
2069	 9.55540463092365E-03 
2070	 9.49349999287134E-03 
2071	 1.01467436598507E-02 
2072	 1.14078715898628E-02 
2073	 1.10659319247699E-02 
2074	 8.46164475703846E-03 
2075	 8.30313057635534E-03 
2076	 9.05517252693558E-03 
2077	 8.90864901578175E-03 
2078	 1.02245598334436E-02 
2079	 9.50388390379832E-03 
2080	 7.57896235857034E-03 
2081	 4.04433643639443E-03 
2082	 3.01175523758309E-03 
2083	 4.35249310553259E-03 
2084	 8.62701181194305E-03 
2085	 1.24267471336976E-02 
2086	 1.15209320644716E-02 
2087	 1.17611354735291E-02 
2088	 1.05945417287224E-02 
2089	 8.26599929186367E-03 
2090	 8.72103990899805E-03 
2091	 7.75722657068813E-03 
2092	 6.76777076336127E-03 
2093	 4.07911744454096E-03 
2094	 3.77906888225062E-03 
2095	 5.77729298001215E-03 
2096	 5.72521796867193E-03 
2097	 4.81471312303549E-03 
2098	 5.6598485113491E-03 
2099	 6.75579244011309E-03 
2100	 6.79243448870049E-03 
2101	 9.30620027279783E-03 
2102	 1.16799103811578E-02 
2103	 1.16058640699534E-02 
2104	 9.29478348267676E-03 
2105	 7.88403026859388E-03 
2106	 8.6189853805046E-03 
2107	 9.12276436093164E-03 
2108	 1.00428463218827E-02 
2109	 8.55051585386059E-03 
2110	 6.29326921688908E-03 
2111	 7.12104591939997E-03 
2112	 8.79083291498023E-03 
2113	 8.70686641670724E-03 
2114	 9.23706178717665E-03 
2115	 9.07626622098665E-03 
2116	 5.94258486072488E-03 
2117	 5.55382839938636E-03 
2118	 7.51064627439208E-03 
2119	 8.14589147991705E-03 
2120	 8.9105341631414E-03 
2121	 9.08303057414701E-03 
2122	 9.8373603978167E-03 
2123	 1.17622858008779E-02 
2124	 1.26794673879154E-02 
2125	 1.25940978646041E-02 
2126	 9.98503431173845E-03 
2127	 0.008022190826167 
2128	 7.93478274754481E-03 
2129	 8.18456573692877E-03 
2130	 9.06150192272926E-03 
2131	 9.88437002202209E-03 
2132	 1.02583057880634E-02 
2133	 9.99748247484332E-03 
2134	 9.96350571805434E-03 
2135	 1.02976823539215E-02 
2136	 1.01977056066772E-02 
2137	 9.41619054467178E-03 
2138	 9.33544287168958E-03 
2139	 9.99867419014741E-03 
2140	 9.50542777787441E-03 
2141	 8.64938319459435E-03 
2142	 8.28693516823375E-03 
2143	 7.51496308761056E-03 
2144	 6.10709488952168E-03 
2145	 6.80606031424191E-03 
2146	 7.98895613131989E-03 
2147	 8.46546043688022E-03 
2148	 9.46169174143662E-03 
2149	 9.85490019577406E-03 
2150	 7.49630999377367E-03 
2151	 5.05727235104205E-03 
2152	 6.77880050841059E-03 
2153	 1.01810332752304E-02 
2154	 1.18550673784588E-02 
2155	 1.30252701174092E-02 
2156	 1.17900985707526E-02 
2157	 1.10715296026461E-02 
2158	 7.97483302094737E-03 
2159	 8.40350546982274E-03 
2160	 1.21155742820572E-02 
2161	 0.012321810971315 
2162	 1.06281909110081E-02 
2163	 1.02331814268672E-02 
2164	 9.71347428229957E-03 
2165	 8.35825154679804E-03 
2166	 8.18354359893897E-03 
2167	 7.90983844884494E-03 
2168	 3.82049576424391E-03 
2169	 3.68647712262719E-03 
2170	 7.10858244779375E-03 
2171	 9.19855008220383E-03 
2172	 9.86936814780674E-03 
2173	 1.04182061487485E-02 
2174	 9.20510352927786E-03 
2175	 7.97714442351332E-03 
2176	 8.81531014995097E-03 
2177	 1.00322722852094E-02 
2178	 9.8166666024431E-03 
2179	 9.6042024446558E-03 
2180	 1.06972090275974E-02 
2181	 0.011073040122278 
2182	 1.13367690725203E-02 
2183	 1.28677603421827E-02 
2184	 1.26428839978611E-02 
2185	 1.05267657939756E-02 
2186	 1.02459623455857E-02 
2187	 1.13527211427067E-02 
2188	 1.13229683326534E-02 
2189	 1.09333017524037E-02 
2190	 1.10343243433763E-02 
2191	 9.56279895712714E-03 
2192	 9.43566038757637E-03 
2193	 1.17071980824333E-02 
2194	 0.013327231932361 
2195	 1.66051316925068E-02 
2196	 0.016710108404208 
2197	 1.36199651034133E-02 
2198	 0.012508626105871 
2199	 1.01501493710074E-02 
2200	 8.98615479306958E-03 
2201	 0.01030650121177 
2202	 9.63483176203276E-03 
2203	 8.98916770575823E-03 
2204	 1.01591324813382E-02 
2205	 1.23483345358049E-02 
2206	 1.20219842796734E-02 
2207	 1.22177855821084E-02 
2208	 0.013355657104435 
2209	 1.09899261369445E-02 
2210	 1.20047139374674E-02 
2211	 0.014194043295964 
2212	 1.16383329819098E-02 
2213	 1.21246812801131E-02 
2214	 1.49955617040218E-02 
2215	 0.013433365753117 
2216	 1.27440140821972E-02 
2217	 0.012176035741147 
2218	 9.72880264727356E-03 
2219	 7.06402305775186E-03 
2220	 5.00318089431833E-03 
2221	 5.34999899602138E-03 
2222	 5.87479451333749E-03 
2223	 6.70254723487529E-03 
2224	 1.05531972355483E-02 
2225	 1.11807087210285E-02 
2226	 1.00702434997562E-02 
2227	 8.6229241877393E-03 
2228	 4.20774580357839E-03 
2229	 4.70773862873186E-03 
2230	 8.0226850050934E-03 
2231	 8.47641623560284E-03 
2232	 1.16411007580715E-02 
2233	 1.31295042612715E-02 
2234	 1.14390439283516E-02 
2235	 8.75227304191051E-03 
2236	 9.86187115311172E-03 
2237	 1.08243086223796E-02 
2238	 9.24543297100228E-03 
2239	 1.06573565447218E-02 
2240	 1.14987331226082E-02 
2241	 7.85628920593372E-03 
2242	 7.92934053689774E-03 
2243	 6.76491480067317E-03 
2244	 6.73061863531333E-03 
2245	 1.34138603042778E-02 
2246	 1.50501268794965E-02 
2247	 1.51532578487581E-02 
2248	 1.55492728558155E-02 
2249	 1.20629111884033E-02 
2250	 1.08918289338197E-02 
2251	 1.06129881274138E-02 
2252	 0.011167640932308 
2253	 1.33058187395597E-02 
2254	 1.49199761558887E-02 
2255	 1.50042151114818E-02 
2256	 1.10097751542141E-02 
2257	 9.88129878646193E-03 
2258	 9.87650813311509E-03 
2259	 8.57289253265866E-03 
2260	 8.61197225130651E-03 
2261	 0.011259317955101 
2262	 8.82326787300402E-03 
2263	 2.61869319835905E-03 
2264	 2.94636945025691E-03 
2265	 4.00927591210849E-03 
2266	 6.0880221678751E-03 
2267	 1.40805463904379E-02 
2268	 1.61717624149528E-02 
2269	 1.41659026712348E-02 
2270	 1.66262847104064E-02 
2271	 0.02142790017049 
2272	 0.022084724747634 
2273	 2.19235542490107E-02 
2274	 2.00449566385756E-02 
2275	 1.25363459967296E-02 
2276	 9.15554974407428E-03 
2277	 8.48964934281715E-03 
2278	 8.89476325664642E-03 
2279	 1.10942390601532E-02 
2280	 1.22589235523175E-02 
2281	 1.49031437942667E-02 
2282	 1.48658734199921E-02 
2283	 1.50221521979827E-02 
2284	 1.70372587173695E-02 
2285	 1.70250693055611E-02 
2286	 0.015175859690271 
2287	 1.71656126643532E-02 
2288	 1.36513112952777E-02 
2289	 8.4695972332941E-03 
2290	 1.21693945323881E-02 
2291	 1.26546320662704E-02 
2292	 1.53877755534647E-02 
2293	 2.28637680000005E-02 
2294	 2.33938044917531E-02 
2295	 2.10420281502877E-02 
2296	 1.74949631992879E-02 
2297	 8.57641281143627E-03 
2298	 6.03251164046534E-03 
2299	 1.36336484675185E-02 
2300	 1.71837374312331E-02 
2301	 1.92425067320416E-02 
2302	 2.23750474480841E-02 
2303	 1.34020693660024E-02 
2304	 1.12126126750569E-03 
2305	-3.45258439611998E-04 
2306	-9.26002971467441E-04 
2307	 1.04957909378292E-03 
2308	 4.84960144614405E-03 
2309	 1.10163737381381E-03 
2310	 1.68204531436627E-03 
2311	 5.91614497066667E-03 
2312	 4.3666400471443E-03 
2313	 1.61057309047581E-03 
2314	 1.29893095090683E-04 
2315	-9.12280770422438E-04 
2316	 3.97716608310134E-03 
2317	 1.82786733174128E-02 
2318	 2.87342355333179E-02 
2319	 2.96872857328839E-02 
2320	 1.99106233380561E-02 
2321	 9.49541553683837E-03 
2322	 5.11284362220151E-03 
2323	 2.36369877054797E-03 
2324	 9.44851231779113E-03 
2325	 1.22060513453561E-02 
2326	 1.40120540643671E-02 
2327	 0.024041499753243 
2328	 1.99052911345299E-02 
2329	 1.35255703309633E-02 
2330	 1.66021784859659E-02 
2331	 8.67850502392464E-03 
2332	 4.23518706282028E-03 
2333	 9.97687906143187E-03 
2334	 1.39488662385933E-02 
2335	 2.01132891595219E-02 
2336	 1.67936261276861E-02 
2337	 2.21082733383003E-02 
2338	 3.56019083511987E-02 
2339	 2.74917479723439E-02 
2340	 2.66480149778317E-02 
2341	 2.56945997897886E-02 
2342	-2.64322976989229E-04 
2343	-6.94913353815222E-03 
2344	 4.27211380198454E-03 
2345	-6.78788683875129E-03 
2346	-6.92558456724379E-03 
2347	 9.21985069012256E-03 
2348	 1.08780747336843E-02 
2349	 2.34279353764643E-02 
2350	 2.41413690221744E-02 
2351	 1.31889348703313E-02 
2352	 1.27711411496769E-02 
2353	 5.29963098912859E-03 
2354	 1.27700802658152E-02 
2355	 2.16646926795916E-02 
2356	 1.68833225172087E-02 
2357	 1.59106513578523E-02 
2358	 7.52327976313035E-03 
2359	 7.81514625411908E-03 
2360	 1.23947758390101E-02 
2361	 7.2320815759186E-04 
2362	 7.70726950014992E-03 
2363	 6.89734234078016E-03 
2364	-1.63818955229482E-03 
2365	 2.74631910304002E-02 
2366	 3.66925958879107E-02 
2367	 3.60965873123094E-02 
2368	 3.18696500339223E-02 
2369	-5.62340330709713E-03 
2370	-8.50214136072655E-03 
2371	-8.01885432186069E-03 
2372	-6.12157616167117E-03 
2373	 2.78459206277581E-02 
2374	 7.55935169424706E-03 
2375	-2.03712670173984E-02 
2376	-0.021952901598438 
2377	-3.38386998005824E-02 
2378	-3.23208954245453E-02 
2379	-2.19284503948569E-02 
2380	 8.28768420925052E-04 
2381	 2.93802743582506E-02 
2382	 3.13059284359697E-02 
2383	 4.89001450720512E-02 
2384	 2.35220101890135E-02 
2385	-6.26251210146889E-02 
2386	-3.34802488994537E-02 
2387	 3.00657878569631E-02 
2388	 9.27097836607555E-02 
2389	 0.173851058512399 
2390	 0.144156401920443 
2391	 8.25490835158509E-02 
2392	 1.13494415518739E-02 
2393	-1.36011421355172E-02 
2394	 2.06100910164126E-02 
2395	 1.28034835276523E-02 
2396	 1.05358872531705E-02 
2397	-8.77671323061838E-03 
2398	-3.95558479528667E-02 
2399	-1.80078422498665E-02 
2400	 5.35483622100144E-02 
2401	 0.185174116260359 
2402	 0.228206505928849 
2403	 0.218576944803862 
2404	 0.261019983754692 
2405	 0.146994049980952 
2406	-4.89390870698518E-02 
2407	-0.105397034713785 
2408	-0.118272748508571 
2409	-9.61028059666168E-03 
2410	 0.169788315221944 
2411	 0.285018068782578 
2412	 0.349706612087183 
2413	 0.297037487069351 
2414	 0.253663119854572 
2415	 0.205548423035784 
2416	 0.128670026534216 
2417	-3.87613613927606E-02 
2418	-0.187301963295073 
2419	-0.155700534813727 
2420	-0.151318632368433 
2421	-0.17994284839569 
2422	-0.192080651269415 
2423	-0.233015932662092 
2424	-0.334520732799011 
2425	-0.249353238492841 
2426	-6.15285299087499E-02 
2427	-4.77287749323918E-02 
2428	 6.19877241981862E-02 
2429	 0.252252249601891 
2430	 0.257680003442973 
2431	 0.181215466769228 
2432	 8.41905855001005E-02 
2433	-4.04261310956891E-02 
2434	-0.117639834846434 
2435	-0.169787096459559 
2436	-0.158215881895598 
2437	-0.138673097156818 
2438	-0.239614479340157 
2439	 8.68010092175919E-03 
2440	 0.265567095335933 
2441	 0.155458972473404 
2442	 0.212053860771516 
2443	 0.24037203325178 
2444	 0.35079078523225 
2445	 0.387301909959647 
2446	 0.157034278813119 
2447	 0.273505020875827 
2448	 0.63190927552485 
2449	 1.42410383512334 
2450	 1.57036564515451 
2451	 0.586846218241404 
2452	 1.89338533289192 
2453	 1.61039812486343 
2454	-2.36485455176964 
2455	 0.598664708458588 
2456	 0.68229466570459 
2457	 0.56236060986993 
2458	 0.419547768369357 
2459	 1.11067991186898E-02 
2460	 0.272423447760238 
2461	 0.762466237347412 
2462	 0.634910206671003 
2463	 0.467338946236234 
2464	 0.336718012371195 
2465	-0.162461704701616 
2466	 0.279629437097557 
2467	 0.610610739557265 
2468	 0.161584575241422 
2469	 0.355095808498033 
2470	 0.258000996037364 
2471	 0.37315321934971 
2472	 0.583595103452489 
2473	 0.514517737000672 
2474	-0.494842921926366 
2475	 0.332360581598538 
2476	 0.126151037334483 
2477	 5.6499615220082 
2478	-0.82881128794187 
2479	-5.59638892547154 
2480	-5.23213215971726 
2481	-2.08106315717231 
2482	-0.650608035917528 
2483	-0.212745858605186 
2484	 0.2319681520277 
2485	-0.566299590519307 
2486	 2.08540713966639 
2487	-1.83189136075261 
2488	-0.307796893284556 
2489	 1.52236310297868 
2490	-4.22952124010294 
2491	-0.3244125565462 
2492	 0.424047512154973 
2493	 0.800921531738744 
2494	 0.548411077803265 
2495	 4.30223941017472 
2496	 6.15176755964352 
2497	-0.721188921654886 
2498	-0.6663027233774 
2499	 1.03866454776283E-02 
2500	-0.129756673331198 
