Wavelength	rt0726close00001.asd
350	 4.13390239162687E-02 
351	 0.041538128436555 
352	 4.07970909660312E-02 
353	 4.06311099401941E-02 
354	 4.16576225323705E-02 
355	 4.18597862009838E-02 
356	 4.15213207650026E-02 
357	 4.09655230932124E-02 
358	 4.05900890858959E-02 
359	 0.040776039203109 
360	 4.10851089803553E-02 
361	 4.12897779239581E-02 
362	 4.13283922083674E-02 
363	 4.09079656347517E-02 
364	 4.07191798216315E-02 
365	 4.09936965654436E-02 
366	 4.11331902197682E-02 
367	 4.07854937005232E-02 
368	 4.04030443680536E-02 
369	 4.04920568482885E-02 
370	 4.09918258376684E-02 
371	 4.08047684229706E-02 
372	 4.03046382630948E-02 
373	 4.05776003961538E-02 
374	 4.06175085923697E-02 
375	 4.05239456779735E-02 
376	 4.03462613396267E-02 
377	 3.99237105737988E-02 
378	 4.02636046876459E-02 
379	 0.040681542067726 
380	 4.05843284253115E-02 
381	 4.09849116360865E-02 
382	 4.12266575121986E-02 
383	 0.041287758945332 
384	 4.13916126765807E-02 
385	 4.11494150302496E-02 
386	 4.10542544169865E-02 
387	 4.13173259945479E-02 
388	 0.04173334445615 
389	 4.12724487381178E-02 
390	 4.10527737582939E-02 
391	 4.16579870612322E-02 
392	 4.13636351836903E-02 
393	 4.14147998916377E-02 
394	 0.041633012670262 
395	 0.041491533303562 
396	 4.15651865491885E-02 
397	 4.16476846413379E-02 
398	 4.16499547984809E-02 
399	 0.041634487938976 
400	 4.19745274962699E-02 
401	 4.20652698802414E-02 
402	 4.17451831674044E-02 
403	 4.21775786791763E-02 
404	 4.23128312035273E-02 
405	 4.22608010307718E-02 
406	 4.24514717186551E-02 
407	 4.25457162417122E-02 
408	 4.24175599708666E-02 
409	 4.22263595767423E-02 
410	 4.23661611114451E-02 
411	 4.26769057856118E-02 
412	 4.28721423557209E-02 
413	 4.28278474637287E-02 
414	 4.28315435388313E-02 
415	 4.28021822203633E-02 
416	 4.28923390447603E-02 
417	 4.32419676506085E-02 
418	 4.33948695340928E-02 
419	 4.34502500346284E-02 
420	 4.34927511313782E-02 
421	 4.35480136632568E-02 
422	 0.043801540694759 
423	 4.41322676235193E-02 
424	 4.43642672647267E-02 
425	 4.43368062518149E-02 
426	 4.44389959207658E-02 
427	 4.47139269927888E-02 
428	 4.50095503869302E-02 
429	 0.045176932398764 
430	 4.53591048302634E-02 
431	 4.56197087901274E-02 
432	 4.58952126147697E-02 
433	 4.60831689801888E-02 
434	 4.62906027018486E-02 
435	 4.65878576551106E-02 
436	 4.67936160195988E-02 
437	 4.70196636732627E-02 
438	 4.72046249534924E-02 
439	 4.72561458577558E-02 
440	 0.047699425872202 
441	 4.80190580654544E-02 
442	 4.80384296029606E-02 
443	 0.048233397622339 
444	 4.84719434811013E-02 
445	 4.86979728522338E-02 
446	 4.88796018393204E-02 
447	 4.90228244452524E-02 
448	 4.92364776476781E-02 
449	 0.04946028829198 
450	 4.95284243518074E-02 
451	 4.96019858197973E-02 
452	 4.97417750485107E-02 
453	 4.99510212292686E-02 
454	 0.050164655946047 
455	 5.02272504340885E-02 
456	 5.02848369504428E-02 
457	 5.05090425285536E-02 
458	 5.05524624132396E-02 
459	 5.06023803118349E-02 
460	 5.07005797141828E-02 
461	 0.050722820590032 
462	 5.07911142154003E-02 
463	 5.08748018520227E-02 
464	 5.09436227143264E-02 
465	 0.051054051593481 
466	 0.051168056612776 
467	 5.13064196080893E-02 
468	 5.14889394905736E-02 
469	 5.15152852635661E-02 
470	 5.15406344809421E-02 
471	 5.16434680679835E-02 
472	 5.17541309606762E-02 
473	 0.051972202987031 
474	 5.21124431319907E-02 
475	 5.20560757907182E-02 
476	 0.05216095360229 
477	 0.052385446984195 
478	 5.25731063155077E-02 
479	 5.25395422832169E-02 
480	 0.052687549350572 
481	 5.29098011739764E-02 
482	 5.31025710696494E-02 
483	 5.33133601626171E-02 
484	 5.35382062482491E-02 
485	 5.37494152603345E-02 
486	 5.39204464451281E-02 
487	 5.40647098309025E-02 
488	 5.43369261851116E-02 
489	 5.46642484044243E-02 
490	 5.47740066470908E-02 
491	 5.50012736428094E-02 
492	 5.53135876534036E-02 
493	 5.56156491746881E-02 
494	 5.58397265441374E-02 
495	 5.61656769648265E-02 
496	 5.65118396978823E-02 
497	 5.67053480881784E-02 
498	 5.70226085267879E-02 
499	 0.057346907490384 
500	 0.057633960440107 
501	 5.80148670840373E-02 
502	 5.83341979550447E-02 
503	 5.86523955302185E-02 
504	 5.90575616323391E-02 
505	 5.95020143244393E-02 
506	 5.98206122699518E-02 
507	 6.00465644865047E-02 
508	 6.03714158193285E-02 
509	 6.08489635357256E-02 
510	 6.13255480600759E-02 
511	 6.17047155831384E-02 
512	 6.21041260536163E-02 
513	 6.25093630233337E-02 
514	 6.29071290261266E-02 
515	 6.33027873285759E-02 
516	 6.38841936276184E-02 
517	 6.43664117571135E-02 
518	 6.46964567593578E-02 
519	 6.51541875311207E-02 
520	 6.55382363595923E-02 
521	 6.59605510446876E-02 
522	 6.65258274043016E-02 
523	 6.70841571739507E-02 
524	 6.75138718249379E-02 
525	 6.79065675336084E-02 
526	 6.84816237560193E-02 
527	 6.90091183475063E-02 
528	 6.95371513949594E-02 
529	 0.070086983570096 
530	 7.05417357466689E-02 
531	 7.10467130948575E-02 
532	 0.071600780987032 
533	 7.21513240203915E-02 
534	 7.27036450518645E-02 
535	 7.33020420881426E-02 
536	 7.39133401515262E-02 
537	 7.44148144442011E-02 
538	 7.50369416215733E-02 
539	 7.56754432581689E-02 
540	 7.62175220667496E-02 
541	 7.67902212828041E-02 
542	 7.74348141921113E-02 
543	 7.80759588294523E-02 
544	 7.85967769422525E-02 
545	 7.92543651845247E-02 
546	 7.98969753462615E-02 
547	 8.04518139444844E-02 
548	 8.11023569236042E-02 
549	 8.17660188807223E-02 
550	 8.23726726835046E-02 
551	 8.28946193016452E-02 
552	 8.35193996433724E-02 
553	 8.41216572855099E-02 
554	 8.46855351318383E-02 
555	 8.53316004527549E-02 
556	 8.59281923818919E-02 
557	 8.64951354684567E-02 
558	 8.70639217969151E-02 
559	 8.76022277956854E-02 
560	 8.81163869329369E-02 
561	 0.088628353907985 
562	 8.91656051960471E-02 
563	 8.96642031957114E-02 
564	 9.01825981564607E-02 
565	 9.06966321692685E-02 
566	 9.09719017130575E-02 
567	 9.14174028365833E-02 
568	 9.19549781240423E-02 
569	 0.09234878349722 
570	 9.26131066068285E-02 
571	 9.29398465108487E-02 
572	 9.33644250820147E-02 
573	 9.37422161567433E-02 
574	 9.40595548973896E-02 
575	 9.43774240528474E-02 
576	 9.47355780172022E-02 
577	 9.50449480668083E-02 
578	 9.53388332556633E-02 
579	 0.095636672649825 
580	 9.59447110811738E-02 
581	 9.62221727944765E-02 
582	 9.64918584191915E-02 
583	 9.67552269154282E-02 
584	 9.69590100212668E-02 
585	 9.71033783070492E-02 
586	 9.72537983034141E-02 
587	 9.74647718713737E-02 
588	 9.75529351114017E-02 
589	 9.76157158698118E-02 
590	 9.77664389148293E-02 
591	 9.80958995110625E-02 
592	 9.82366271827185E-02 
593	 9.83482971331952E-02 
594	 9.85699353723096E-02 
595	 9.86371207413526E-02 
596	 9.87218517304626E-02 
597	 9.87970382603282E-02 
598	 9.87523006951771E-02 
599	 0.098830585598071 
600	 9.89228633504543E-02 
601	 9.89588128363478E-02 
602	 9.90072123044222E-02 
603	 9.91070732152924E-02 
604	 9.92151660927248E-02 
605	 9.92861295726853E-02 
606	 9.94409111211794E-02 
607	 0.099479503873137 
608	 9.94539132247384E-02 
609	 9.96711712965972E-02 
610	 9.97413722818931E-02 
611	 9.97165844422341E-02 
612	 9.97110793320399E-02 
613	 9.97185981747552E-02 
614	 9.98266550168754E-02 
615	 9.99470194871181E-02 
616	 9.99158462894747E-02 
617	 9.98795507814813E-02 
618	 9.99323978554685E-02 
619	 0.100067107105707 
620	 0.100127386012824 
621	 0.100218450727191 
622	 0.100293908493313 
623	 0.100293607714676 
624	 0.10033706174026 
625	 0.100278958665705 
626	 0.100179000739997 
627	 0.100285320034076 
628	 0.100407923075661 
629	 0.100450571441199 
630	 0.10041707485755 
631	 0.10050506724834 
632	 0.100665245338916 
633	 0.100792431378254 
634	 0.100790151375174 
635	 0.100870735865418 
636	 0.101017019918718 
637	 0.101148751026128 
638	 0.101129984189901 
639	 0.101151109323486 
640	 0.101269517198136 
641	 0.101454749677479 
642	 0.101518472525518 
643	 0.101575691963185 
644	 0.101626076173781 
645	 0.101578808107279 
646	 0.101546917716949 
647	 0.101673736195544 
648	 0.101927866930938 
649	 0.101883919245147 
650	 0.10178432303459 
651	 0.101767327461152 
652	 0.101875593836256 
653	 0.101778914716915 
654	 0.101647856319991 
655	 0.10156439744103 
656	 0.101452983126134 
657	 0.101157666756392 
658	 0.100886775304188 
659	 0.100772541560452 
660	 0.10052794817333 
661	 0.100384652399774 
662	 0.100250006928335 
663	 9.98825204040686E-02 
664	 9.97105194971815E-02 
665	 9.95750223128048E-02 
666	 9.93588098354044E-02 
667	 9.91500478096942E-02 
668	 9.91037494630326E-02 
669	 9.91160074424439E-02 
670	 9.90384755438771E-02 
671	 9.89737559624293E-02 
672	 9.91090817641086E-02 
673	 9.93422269523314E-02 
674	 9.93306834850497E-02 
675	 0.09952884576496 
676	 9.98000798831625E-02 
677	 9.99914420111258E-02 
678	 0.100173104270691 
679	 0.100569748050743 
680	 0.10101331460958 
681	 0.101233081540011 
682	 0.101653163202795 
683	 0.102150402939362 
684	 0.102549205446129 
685	 0.102685286657843 
686	 0.103194197198481 
687	 0.103782544156292 
688	 0.104040437506937 
689	 0.104491484808268 
690	 0.104996339355973 
691	 0.105400982389557 
692	 0.105588482582963 
693	 0.106045972533683 
694	 0.106451370356071 
695	 0.106623708593999 
696	 0.106818990944717 
697	 0.106974050588033 
698	 0.10701603248404 
699	 0.106917873134414 
700	 0.106956026987411 
701	 0.107123100821766 
702	 0.107254675757199 
703	 0.107120796917939 
704	 0.107027242255185 
705	 0.106960200514038 
706	 0.106880190034917 
707	 0.106800487495292 
708	 0.106730637714527 
709	 0.10657968610918 
710	 0.106269875207269 
711	 0.106012288704224 
712	 0.105693856951433 
713	 0.105262887360652 
714	 0.104742333682708 
715	 0.104247277744975 
716	 0.103635075023138 
717	 0.102853449407935 
718	 0.10233751781846 
719	 0.101826178590351 
720	 0.101437367479613 
721	 0.10122109444128 
722	 0.100643357238215 
723	 9.99155869259021E-02 
724	 9.92335869443029E-02 
725	 9.84847596439403E-02 
726	 9.77641532860154E-02 
727	 9.69590502575047E-02 
728	 0.095969718208073 
729	 9.48220818294373E-02 
730	 9.36551815231694E-02 
731	 9.25690288563975E-02 
732	 9.15746319920836E-02 
733	 9.08073364855227E-02 
734	 0.090040726812449 
735	 8.92656671431047E-02 
736	 0.088769319820168 
737	 8.83646253534177E-02 
738	 8.81083104215444E-02 
739	 8.80162213138561E-02 
740	 8.77867889874159E-02 
741	 0.087655005776594 
742	 0.087702261597488 
743	 8.78836222521043E-02 
744	 8.79194423113494E-02 
745	 8.79007449323269E-02 
746	 8.79267237676141E-02 
747	 8.80502040671431E-02 
748	 8.80865845284542E-02 
749	 8.81637202018082E-02 
750	 8.83733332919208E-02 
751	 8.84234043932531E-02 
752	 8.84442407658225E-02 
753	 8.85054076360658E-02 
754	 8.86264126169937E-02 
755	 8.87282714161143E-02 
756	 8.87550851531392E-02 
757	 0.088694680314343 
758	 0.088553040414241 
759	 8.83869581249612E-02 
760	 8.81480550921103E-02 
761	 0.087950102179502 
762	 8.79931128655506E-02 
763	 8.81798513582334E-02 
764	 8.84619282122578E-02 
765	 8.88197687410367E-02 
766	 8.93105147597165E-02 
767	 8.95844060922033E-02 
768	 8.96882277292292E-02 
769	 9.00009993318125E-02 
770	 9.02526201859136E-02 
771	 9.04114236918455E-02 
772	 0.09052682765416 
773	 9.07352549312004E-02 
774	 9.09420952862015E-02 
775	 9.10925921327498E-02 
776	 9.11884247808196E-02 
777	 9.14407054293746E-02 
778	 9.16364293121801E-02 
779	 9.17851595361353E-02 
780	 9.21254610939694E-02 
781	 0.092246734307602 
782	 9.23605869712797E-02 
783	 9.26214957934981E-02 
784	 9.27878100406465E-02 
785	 0.093058135050071 
786	 9.32967539910072E-02 
787	 9.33416551294632E-02 
788	 9.35360130703973E-02 
789	 9.38414424278493E-02 
790	 9.41806640599747E-02 
791	 9.44640108567394E-02 
792	 9.46289690958053E-02 
793	 9.48582329900923E-02 
794	 9.51674660572871E-02 
795	 9.52371637806911E-02 
796	 9.53787293557629E-02 
797	 9.56262561912735E-02 
798	 9.58915685243362E-02 
799	 9.59253009715594E-02 
800	 9.60568624518295E-02 
801	 9.62544950174329E-02 
802	 9.63176381110457E-02 
803	 9.64761170479591E-02 
804	 9.66333741139688E-02 
805	 9.67102718470942E-02 
806	 9.66814047426392E-02 
807	 9.65281737246358E-02 
808	 9.63831719313499E-02 
809	 9.62837942766838E-02 
810	 9.59143133256958E-02 
811	 9.57804737411546E-02 
812	 9.57190616542213E-02 
813	 9.53477199032964E-02 
814	 9.49286459754979E-02 
815	 9.45896257636935E-02 
816	 9.43093589489292E-02 
817	 9.39630076461364E-02 
818	 9.38166451999281E-02 
819	 9.34016871489023E-02 
820	 9.26969343080885E-02 
821	 9.23143953951198E-02 
822	 9.14192237366311E-02 
823	 9.04235360469722E-02 
824	 0.089706634802321 
825	 8.86902835255189E-02 
826	 8.76498710004088E-02 
827	 8.65079647039348E-02 
828	 8.51899486266941E-02 
829	 8.39487892731402E-02 
830	 8.26334755143914E-02 
831	 8.14316354918096E-02 
832	 0.080732436439618 
833	 7.99153869537026E-02 
834	 7.91793257207923E-02 
835	 7.86430146171598E-02 
836	 7.81997294318114E-02 
837	 7.77877826959358E-02 
838	 7.73875554776756E-02 
839	 7.70266614186679E-02 
840	 7.68405528958665E-02 
841	 7.64812266805851E-02 
842	 7.60927365276589E-02 
843	 7.58997337994834E-02 
844	 7.55537506224175E-02 
845	 7.52489053462622E-02 
846	 7.50820520855552E-02 
847	 7.50256391438779E-02 
848	 7.47548336327977E-02 
849	 7.42812766005298E-02 
850	 7.38318206743154E-02 
851	 0.073789344209943 
852	 7.33721347412908E-02 
853	 7.30739903233382E-02 
854	 7.31522625406688E-02 
855	 7.27835171333788E-02 
856	 7.25892262118225E-02 
857	 7.24665706674095E-02 
858	 7.22057114824573E-02 
859	 7.19589448114324E-02 
860	 7.16823471767815E-02 
861	 7.14568284626319E-02 
862	 7.13741354084474E-02 
863	 7.12664069016968E-02 
864	 7.08671710863947E-02 
865	 7.04029490637437E-02 
866	 7.04379385794978E-02 
867	 7.01424549087466E-02 
868	 6.97476914023679E-02 
869	 6.94882175955173E-02 
870	 6.93874517403603E-02 
871	 6.87401014371432E-02 
872	 6.83411983552521E-02 
873	 0.068543593740099 
874	 0.067986693802115 
875	 6.74659470474455E-02 
876	 6.70773904675582E-02 
877	 6.67285240220078E-02 
878	 6.64477214553435E-02 
879	 6.61581824312024E-02 
880	 6.57526758344894E-02 
881	 6.51830198349703E-02 
882	 6.47187942656132E-02 
883	 6.43945387838856E-02 
884	 6.41342776603474E-02 
885	 6.38042642647872E-02 
886	 6.34810719205898E-02 
887	 6.29367861163323E-02 
888	 6.23430481832437E-02 
889	 6.22750126664592E-02 
890	 6.18441131171123E-02 
891	 0.061501761810245 
892	 6.15016798605137E-02 
893	 6.12678587236411E-02 
894	 6.07340055576736E-02 
895	 0.06026908372919 
896	 6.01075661383886E-02 
897	 5.95637569272664E-02 
898	 5.89438421633656E-02 
899	 5.83210974912935E-02 
900	 0.057783894847543 
901	 5.77221647083005E-02 
902	 5.75976038947168E-02 
903	 5.75260548921129E-02 
904	 5.76231858035456E-02 
905	 5.65781432660123E-02 
906	 5.62255688899441E-02 
907	 5.63110649603182E-02 
908	 5.53019708874567E-02 
909	 5.51208358544429E-02 
910	 5.52232619164772E-02 
911	 5.48441366185913E-02 
912	 5.34835476866673E-02 
913	 0.052592278956575 
914	 5.16973043985517E-02 
915	 5.06516350216981E-02 
916	 4.99187418093111E-02 
917	 0.049439633696464 
918	 4.80594811944697E-02 
919	 4.63245401064726E-02 
920	 4.69129344086981E-02 
921	 4.62785120916031E-02 
922	 4.49390189713964E-02 
923	 4.39268714326648E-02 
924	 4.36925578477369E-02 
925	 4.18010809873557E-02 
926	 3.98793934103771E-02 
927	 3.99754058177722E-02 
928	 4.03406429604546E-02 
929	 4.03746145776381E-02 
930	 3.93610944117047E-02 
931	 3.68538689236409E-02 
932	 3.38895607077543E-02 
933	 3.39405813305382E-02 
934	 3.58788116727214E-02 
935	 3.49077461002647E-02 
936	 2.65912129321203E-02 
937	 2.58283932465769E-02 
938	 2.96287462727019E-02 
939	 3.01505850134065E-02 
940	 2.40558179385977E-02 
941	 2.41768818757215E-02 
942	 2.80702475965441E-02 
943	 2.65340184683098E-02 
944	 2.23638157955103E-02 
945	 2.09303837054586E-02 
946	 2.24646792662854E-02 
947	 2.31777915699807E-02 
948	 1.86972445574929E-02 
949	 1.86153474028731E-02 
950	 2.05859406173049E-02 
951	 1.68632649198668E-02 
952	 1.78450362407844E-02 
953	 1.78077315408423E-02 
954	 1.64509451241296E-02 
955	 1.71758661991666E-02 
956	 1.65596315521605E-02 
957	 1.53308294173515E-02 
958	 1.39003480793476E-02 
959	 1.27464443013319E-02 
960	 1.64565337062824E-02 
961	 1.78261264958414E-02 
962	 1.62647027990623E-02 
963	 1.60193201135627E-02 
964	 1.49716454331621E-02 
965	 1.47750271556346E-02 
966	 1.51791421623215E-02 
967	 0.014702917500712 
968	 0.014884164039061 
969	 1.47393835686974E-02 
970	 1.38745639518864E-02 
971	 1.27666968333467E-02 
972	 0.0129890752544 
973	 1.45221718965455E-02 
974	 0.015260313215002 
975	 1.24501870422552E-02 
976	 1.25912342619748E-02 
977	 1.42041969165167E-02 
978	 1.54022926707841E-02 
979	 1.51184741684441E-02 
980	 1.30244453488017E-02 
981	 1.23406259816131E-02 
982	 1.32108288223296E-02 
983	 1.31678624548369E-02 
984	 1.21540663894635E-02 
985	 1.23938746883067E-02 
986	 1.35904304958419E-02 
987	 1.34918815080819E-02 
988	 1.20036692602395E-02 
989	 0.012758211500845 
990	 1.46763686022422E-02 
991	 1.37531514585598E-02 
992	 1.32002291018846E-02 
993	 1.33471852062458E-02 
994	 1.34142173508519E-02 
995	 1.25632228281317E-02 
996	 1.34126111896598E-02 
997	 1.53804966273293E-02 
998	 1.60059548246325E-02 
999	 1.33093680924312E-02 
1000	 1.27591961256766E-02 
1001	 1.46011298554232E-02 
1002	 1.43758938699866E-02 
1003	 1.48129115769676E-02 
1004	 0.01573764352906 
1005	 1.61133657425567E-02 
1006	 1.67031581265978E-02 
1007	 1.70459862903978E-02 
1008	 1.66538893575421E-02 
1009	 1.65971117636119E-02 
1010	 1.65757888524155E-02 
1011	 1.65876952638076E-02 
1012	 1.65455369546081E-02 
1013	 1.63392453345179E-02 
1014	 1.61466428666626E-02 
1015	 1.55617686743556E-02 
1016	 1.56948733521226E-02 
1017	 1.63029601153833E-02 
1018	 1.66353071607632E-02 
1019	 1.73320444721156E-02 
1020	 1.78258939223985E-02 
1021	 1.82407487397273E-02 
1022	 1.82128866892432E-02 
1023	 1.83078417259862E-02 
1024	 1.87951006631829E-02 
1025	 1.88393406726128E-02 
1026	 1.91361214117942E-02 
1027	 1.96078227427475E-02 
1028	 2.03728678895169E-02 
1029	 2.07259709141929E-02 
1030	 2.09785865328777E-02 
1031	 2.13510450850037E-02 
1032	 2.15433044843723E-02 
1033	 2.18693972310048E-02 
1034	 2.26804444095609E-02 
1035	 2.30101691745208E-02 
1036	 2.28950278917076E-02 
1037	 2.29907594288728E-02 
1038	 2.29448751896198E-02 
1039	 2.29052767538037E-02 
1040	 2.34055064569168E-02 
1041	 2.40223812875804E-02 
1042	 2.47050382576526E-02 
1043	 2.57009668447196E-02 
1044	 0.026566959518202 
1045	 2.75944426345914E-02 
1046	 2.82038085409512E-02 
1047	 2.87848191381956E-02 
1048	 2.90033794096227E-02 
1049	 2.85551576346419E-02 
1050	 2.86154337417453E-02 
1051	 2.84496195961686E-02 
1052	 2.88320074149968E-02 
1053	 3.01050255240756E-02 
1054	 0.03069625521292 
1055	 3.11866600365946E-02 
1056	 3.16993455003818E-02 
1057	 3.20585600453786E-02 
1058	 3.19761755025831E-02 
1059	 3.20843601589223E-02 
1060	 3.22938998147213E-02 
1061	 3.25197953891775E-02 
1062	 3.25895592177582E-02 
1063	 3.27771676162712E-02 
1064	 3.30377974856941E-02 
1065	 3.34924251938829E-02 
1066	 3.41610612587169E-02 
1067	 3.45682988427016E-02 
1068	 3.55913428018003E-02 
1069	 3.56412310756255E-02 
1070	 3.43588610952034E-02 
1071	 3.39790444061983E-02 
1072	 3.35762802809295E-02 
1073	 3.32208016327923E-02 
1074	 3.31783316329453E-02 
1075	 0.034035875706139 
1076	 3.39471939173798E-02 
1077	 3.32860501757347E-02 
1078	 3.31402691189471E-02 
1079	 3.30573404414542E-02 
1080	 3.28603082054318E-02 
1081	 3.29026806809188E-02 
1082	 3.27005116803374E-02 
1083	 3.20905074318092E-02 
1084	 3.17655506535156E-02 
1085	 3.15672539877295E-02 
1086	 3.13686189238654E-02 
1087	 3.15074500572026E-02 
1088	 3.11730441436995E-02 
1089	 0.030453243320625 
1090	 0.029776010128706 
1091	 2.93869717414726E-02 
1092	 2.88738804512425E-02 
1093	 2.85964128862102E-02 
1094	 2.87958446506969E-02 
1095	 2.87417788690017E-02 
1096	 2.83808407543691E-02 
1097	 2.82939556621741E-02 
1098	 2.88301076417899E-02 
1099	 2.86387440585632E-02 
1100	 2.81591003228248E-02 
1101	 2.75626636535566E-02 
1102	 0.025831976189348 
1103	 2.50492223956617E-02 
1104	 2.44480456728094E-02 
1105	 2.47516902490417E-02 
1106	 2.47776775708988E-02 
1107	 2.49961431742535E-02 
1108	 2.51760057037497E-02 
1109	 2.40455571159788E-02 
1110	 2.37436488989392E-02 
1111	 2.40860224119385E-02 
1112	 2.37459638395972E-02 
1113	 2.30082852139715E-02 
1114	 2.26876720949675E-02 
1115	 2.15397763718788E-02 
1116	 2.15603956841635E-02 
1117	 0.024100389779945 
1118	 2.44849247224294E-02 
1119	 2.39888582966782E-02 
1120	 0.023919668392412 
1121	 1.96236353447273E-02 
1122	 2.00832670308314E-02 
1123	 2.61426233073047E-02 
1124	 2.81976578507715E-02 
1125	 0.031907625521076 
1126	 0.031975762346091 
1127	 2.62411664261511E-02 
1128	 2.67856840603626E-02 
1129	 2.46943321267399E-02 
1130	 2.11127425721735E-02 
1131	 1.90767199447588E-02 
1132	 1.67479399606135E-02 
1133	 1.63435146869277E-02 
1134	 1.83131845222169E-02 
1135	 1.86948128962917E-02 
1136	 1.94881519903465E-02 
1137	 1.91082389136078E-02 
1138	 0.01732889881765 
1139	 1.61920693996907E-02 
1140	 1.62001582350801E-02 
1141	 1.54176252142131E-02 
1142	 1.44160306152369E-02 
1143	 1.48898204917609E-02 
1144	 1.51998384617836E-02 
1145	 1.64862482084462E-02 
1146	 1.88616671990901E-02 
1147	 0.01788958618869 
1148	 1.40178153061946E-02 
1149	 1.32765291112376E-02 
1150	 1.40684054633615E-02 
1151	 1.67565021336148E-02 
1152	 1.62257216008443E-02 
1153	 1.64042777149798E-02 
1154	 1.57823858974466E-02 
1155	 1.27862037285648E-02 
1156	 1.20892616463508E-02 
1157	 1.39362105929382E-02 
1158	 1.46448130628226E-02 
1159	 1.45264535773175E-02 
1160	 1.45709551263938E-02 
1161	 0.01437258080907 
1162	 1.39644820965452E-02 
1163	 1.38757525712504E-02 
1164	 1.39113121730806E-02 
1165	 1.36983953275775E-02 
1166	 1.33209782864281E-02 
1167	 1.30743326724608E-02 
1168	 0.013241964346476 
1169	 1.34194929073372E-02 
1170	 1.32319622011424E-02 
1171	 1.31715696426422E-02 
1172	 1.31817915150207E-02 
1173	 1.30656756875333E-02 
1174	 1.27315055398794E-02 
1175	 0.012803152772103 
1176	 1.33211632896732E-02 
1177	 1.32158651547986E-02 
1178	 0.012621110916728 
1179	 1.27168869348049E-02 
1180	 1.29408581973192E-02 
1181	 1.28197028088369E-02 
1182	 1.32151834276985E-02 
1183	 1.36408707160174E-02 
1184	 1.32264702897218E-02 
1185	 0.012785155382135 
1186	 0.013025278904146 
1187	 1.34191458524888E-02 
1188	 1.33480809066324E-02 
1189	 1.29892394149953E-02 
1190	 1.30098481614478E-02 
1191	 1.29537430769314E-02 
1192	 1.27132106967391E-02 
1193	 0.012326432502453 
1194	 1.26841257164449E-02 
1195	 1.27827468107267E-02 
1196	 1.23253168681722E-02 
1197	 1.25059821191741E-02 
1198	 1.26924763053838E-02 
1199	 1.23972467145006E-02 
1200	 1.21922139005526E-02 
1201	 1.22816604916501E-02 
1202	 1.24057491950433E-02 
1203	 1.21420984117148E-02 
1204	 1.20542927265918E-02 
1205	 1.22859611053265E-02 
1206	 1.23371527150088E-02 
1207	 0.012220529149324 
1208	 1.21010121507779E-02 
1209	 1.21085983647882E-02 
1210	 1.20335205203403E-02 
1211	 1.21020384162917E-02 
1212	 1.24048104802469E-02 
1213	 1.24050682435285E-02 
1214	 1.24022441456978E-02 
1215	 1.21719004981543E-02 
1216	 1.21790051633032E-02 
1217	 1.22361532625911E-02 
1218	 1.23685092577408E-02 
1219	 1.23938827907549E-02 
1220	 1.21117670368413E-02 
1221	 1.21572338309533E-02 
1222	 1.23762284261756E-02 
1223	 1.19547860672718E-02 
1224	 1.17435905089824E-02 
1225	 0.012087727541547 
1226	 1.20822657291423E-02 
1227	 1.19947043874917E-02 
1228	 1.22201297317172E-02 
1229	 1.22731178239384E-02 
1230	 1.19951836462471E-02 
1231	 1.18519214597733E-02 
1232	 1.21088686243591E-02 
1233	 1.22850842400629E-02 
1234	 1.22351296511371E-02 
1235	 1.22634729376091E-02 
1236	 1.25804734647837E-02 
1237	 1.25242577520642E-02 
1238	 1.20875227108815E-02 
1239	 1.20717042939933E-02 
1240	 1.23339320689346E-02 
1241	 0.012138274421983 
1242	 1.19532916390021E-02 
1243	 1.19992128776911E-02 
1244	 1.19242504963239E-02 
1245	 1.18776015673091E-02 
1246	 1.21145558596666E-02 
1247	 1.21607878251431E-02 
1248	 1.17976431177102E-02 
1249	 1.18081840488175E-02 
1250	 1.21128336258694E-02 
1251	 1.20502307886671E-02 
1252	 1.19985580203635E-02 
1253	 1.21077095826024E-02 
1254	 1.18694564986205E-02 
1255	 1.17325936343926E-02 
1256	 1.18062610914997E-02 
1257	 0.011999428803398 
1258	 1.20765183472642E-02 
1259	 1.24629112364759E-02 
1260	 1.24972972739927E-02 
1261	 1.21624619284944E-02 
1262	 1.20832235942292E-02 
1263	 1.19930308452484E-02 
1264	 1.18351894028248E-02 
1265	 1.20128167417426E-02 
1266	 1.23188975042742E-02 
1267	 1.22734943444495E-02 
1268	 1.22530224206624E-02 
1269	 1.21472728441513E-02 
1270	 1.16443521981108E-02 
1271	 1.14667007619482E-02 
1272	 0.011823904018699 
1273	 1.20005130026529E-02 
1274	 1.21168934155118E-02 
1275	 1.23177995981338E-02 
1276	 1.20272403807741E-02 
1277	 1.18028076000676E-02 
1278	 1.21615399668023E-02 
1279	 1.23013285347719E-02 
1280	 1.20413961179128E-02 
1281	 1.19747992647869E-02 
1282	 1.19300997108835E-02 
1283	 1.18530217557958E-02 
1284	 1.18046400699823E-02 
1285	 1.17930258476119E-02 
1286	 1.15840700795264E-02 
1287	 1.16348777175186E-02 
1288	 1.20331431445249E-02 
1289	 1.21481128578816E-02 
1290	 1.22996482839133E-02 
1291	 1.24224876522186E-02 
1292	 1.23058398133404E-02 
1293	 1.20803280835551E-02 
1294	 1.19894195134107E-02 
1295	 1.20357872069485E-02 
1296	 1.20511650367646E-02 
1297	 1.19378356903172E-02 
1298	 1.17858003499704E-02 
1299	 1.18143627650941E-02 
1300	 0.012072093074938 
1301	 1.20252996739901E-02 
1302	 0.011786633789904 
1303	 1.18821014671498E-02 
1304	 1.20474914923126E-02 
1305	 1.20960679075874E-02 
1306	 1.21205797338255E-02 
1307	 1.24893830388819E-02 
1308	 1.28211308551784E-02 
1309	 1.28135222329739E-02 
1310	 1.26408751682048E-02 
1311	 1.28654166840149E-02 
1312	 1.29166883938784E-02 
1313	 1.22078850103766E-02 
1314	 1.20313807549937E-02 
1315	 1.23421533264705E-02 
1316	 1.23968085159877E-02 
1317	 1.25687657094296E-02 
1318	 1.24634159452737E-02 
1319	 0.011730540426993 
1320	 1.19394989729673E-02 
1321	 1.24037268866073E-02 
1322	 1.30746923109218E-02 
1323	 1.36073045867062E-02 
1324	 1.38572933204892E-02 
1325	 0.012931928295567 
1326	 1.18165899203227E-02 
1327	 1.21711313920671E-02 
1328	 1.27553313859045E-02 
1329	 1.32443562728733E-02 
1330	 1.36064929171369E-02 
1331	 1.35493986758176E-02 
1332	 1.43635917931513E-02 
1333	 1.51736038577504E-02 
1334	 1.46318515028102E-02 
1335	 1.47903594276273E-02 
1336	 1.55217658897877E-02 
1337	 1.57795979300925E-02 
1338	 1.57884321728106E-02 
1339	 1.59316969784825E-02 
1340	 1.57705523336175E-02 
1341	 1.55203896488031E-02 
1342	 1.50077473825543E-02 
1343	 1.48558898671262E-02 
1344	 0.015254880283846 
1345	 1.56473990695343E-02 
1346	 1.68041141602216E-02 
1347	 1.69015014721439E-02 
1348	 1.42912832536145E-02 
1349	 1.28491453636462E-02 
1350	 1.27738323587712E-02 
1351	 1.19175203439008E-02 
1352	 1.34330448775375E-02 
1353	 1.46833850908438E-02 
1354	 2.14108026659753E-02 
1355	-4.91490371911092E-03 
1356	-6.46143046459933E-02 
1357	-4.30226674149976E-02 
1358	 2.58369550453275E-02 
1359	-7.22714564995378E-03 
1360	 2.16393056433684E-03 
1361	 0.262889798778845 
1362	 0.118535878088006 
1363	 6.91441918537793E-03 
1364	 0.378181809912467 
1365	 0.306165680671007 
1366	 8.54862621346218E-02 
1367	 0.60435520988651 
1368	 0.842668530142189 
1369	 0.226681577996109 
1370	 0.291315908207492 
1371	 1.47314182653561 
1372	 1.23641894929701 
1373	 1.43735584086224E-02 
1374	 9.96512936476391E-02 
1375	 0.635387393915571 
1376	 0.366795888002091 
1377	 4.01091671460904E-03 
1378	 0.447702790781197 
1379	 0.351626473680855 
1380	-3.22399393372354E-02 
1381	 0.245807360594999 
1382	 0.652707884477177 
1383	 0.553917853544261 
1384	 0.186521842832298 
1385	 0.107831868486313 
1386	 0.358833157307681 
1387	 0.179681533783987 
1388	-8.96188113175993E-02 
1389	 0.290053383643279 
1390	 0.486936669760695 
1391	 0.5036422321254 
1392	-8.22373836332906E-02 
1393	-0.163548714258803 
1394	 0.192673021326237 
1395	 0.507824711726746 
1396	 1.03598639880935 
1397	 0.921269176795619 
1398	 0.739275448680918 
1399	 0.618771524842502 
1400	 8.05570643467396E-02 
1401	 2.06435803934365E-02 
1402	 0.341092083028921 
1403	 0.337504937361264 
1404	 0.396022787475222 
1405	 0.380274488426103 
1406	 0.485865607849202 
1407	 0.278135318989027 
1408	 0.094359917270041 
1409	 6.30407785821763E-02 
1410	 5.94347827645914E-02 
1411	 0.034704196599391 
1412	-2.10039248019365E-02 
1413	-6.61599987858839E-03 
1414	 3.83598697366833E-02 
1415	 3.11674445516199E-02 
1416	 3.76219097816038E-02 
1417	 0.032445919296471 
1418	-1.94630698752137E-02 
1419	-1.57901226574151E-02 
1420	 3.29292108014023E-02 
1421	 2.15463920972919E-02 
1422	-1.80218665866531E-02 
1423	-5.96534995197102E-03 
1424	 1.70020903672059E-02 
1425	 1.35390579928871E-02 
1426	 0.015162291978539 
1427	 2.29204532550699E-02 
1428	 1.86441619596487E-02 
1429	 1.48692679905839E-02 
1430	 2.39715166816912E-02 
1431	 3.06350303058357E-02 
1432	 2.58448475337785E-02 
1433	 0.024076465155896 
1434	 3.27975093472405E-02 
1435	 3.76872563408483E-02 
1436	 4.08815972476362E-02 
1437	 3.22398561989165E-02 
1438	 3.77459502403345E-02 
1439	 5.04865396926477E-02 
1440	 3.72852830448376E-02 
1441	 0.025709939813246 
1442	 3.01094645917826E-02 
1443	 2.58206715607149E-02 
1444	 1.62162261782497E-02 
1445	 1.64541074089393E-02 
1446	 1.93731633093966E-02 
1447	 1.54181349926933E-02 
1448	 1.53385426715169E-02 
1449	 2.02128580315643E-02 
1450	 1.95177847905549E-02 
1451	 1.33507504655246E-02 
1452	 9.04825441194274E-03 
1453	 0.01155668373311 
1454	 1.31548098154167E-02 
1455	 1.36606615281244E-02 
1456	 1.28462728419423E-02 
1457	 1.41361344552034E-02 
1458	 1.46304773960348E-02 
1459	 1.22144772369834E-02 
1460	 1.12413131941633E-02 
1461	 1.30672690489639E-02 
1462	 1.26946702066606E-02 
1463	 9.12249815256423E-03 
1464	 8.12779422995892E-03 
1465	 8.59927149681854E-03 
1466	 8.59748232886986E-03 
1467	 8.83571899154637E-03 
1468	 9.59044212470559E-03 
1469	 1.27616078483673E-02 
1470	 1.19975700644765E-02 
1471	 7.21994863544537E-03 
1472	 7.39912948403271E-03 
1473	 9.41012644360629E-03 
1474	 7.75042721353211E-03 
1475	 6.8316724670988E-03 
1476	 6.49993827744951E-03 
1477	 1.83715900250388E-03 
1478	 2.5660212975799E-03 
1479	 1.00828700184233E-02 
1480	 9.92501789960613E-03 
1481	 5.49285604332446E-03 
1482	 6.25194731974746E-03 
1483	 8.07939624466065E-03 
1484	 6.85819079004828E-03 
1485	 5.66520153719532E-03 
1486	 6.71570115783584E-03 
1487	 7.12610302552325E-03 
1488	 6.34121279669042E-03 
1489	 6.89911400646369E-03 
1490	 7.66841312699589E-03 
1491	 6.45121545032641E-03 
1492	 6.47071350636494E-03 
1493	 8.81494305808989E-03 
1494	 9.55432849748206E-03 
1495	 9.00661650925972E-03 
1496	 8.83491772945498E-03 
1497	 8.88727944898131E-03 
1498	 8.76242745774857E-03 
1499	 8.51620171948389E-03 
1500	 8.25102867817047E-03 
1501	 7.8391537080239E-03 
1502	 7.59911107180304E-03 
1503	 7.07135536432662E-03 
1504	 7.06258657895056E-03 
1505	 7.7968676254091E-03 
1506	 7.87373284407432E-03 
1507	 7.29486295361471E-03 
1508	 7.36496475686562E-03 
1509	 7.3021809214216E-03 
1510	 7.16206755432597E-03 
1511	 7.51433946761017E-03 
1512	 7.43298576827206E-03 
1513	 7.23175706698633E-03 
1514	 7.4559655737747E-03 
1515	 7.59332371230412E-03 
1516	 8.08047314702245E-03 
1517	 8.17479034022928E-03 
1518	 7.44375594375299E-03 
1519	 7.19598302275565E-03 
1520	 7.24970838068255E-03 
1521	 7.08865715130058E-03 
1522	 7.08810501659484E-03 
1523	 7.3725744806823E-03 
1524	 7.42238316369814E-03 
1525	 7.32240415613791E-03 
1526	 7.49841681217025E-03 
1527	 7.16654769887874E-03 
1528	 6.60792042853004E-03 
1529	 6.67604436683415E-03 
1530	 6.79818739537097E-03 
1531	 7.24544340304944E-03 
1532	 7.85113224196837E-03 
1533	 7.92240822868314E-03 
1534	 7.95929491793057E-03 
1535	 7.62664497584491E-03 
1536	 7.33732192855151E-03 
1537	 7.54704870001252E-03 
1538	 7.39617634551573E-03 
1539	 7.46814920915785E-03 
1540	 7.68082971467624E-03 
1541	 7.20690090926331E-03 
1542	 7.10828045121287E-03 
1543	 7.69475311629946E-03 
1544	 7.78918547459897E-03 
1545	 7.50795466167928E-03 
1546	 7.50623293645047E-03 
1547	 7.40830409098112E-03 
1548	 7.2401956292259E-03 
1549	 7.68981721037574E-03 
1550	 8.27355682129792E-03 
1551	 8.04339826440964E-03 
1552	 7.54664597431508E-03 
1553	 7.52672372320241E-03 
1554	 7.36802902387393E-03 
1555	 7.05209091303429E-03 
1556	 7.45550066163395E-03 
1557	 8.04480218683613E-03 
1558	 7.89874700185541E-03 
1559	 7.3621066900595E-03 
1560	 7.15130857539117E-03 
1561	 7.10728253089811E-03 
1562	 7.08058748369186E-03 
1563	 7.43060097602299E-03 
1564	 7.84672326187807E-03 
1565	 7.95390655172328E-03 
1566	 7.92070645529005E-03 
1567	 7.99864398913969E-03 
1568	 8.18035339556007E-03 
1569	 8.00074586994951E-03 
1570	 7.82308161866024E-03 
1571	 8.33901458190774E-03 
1572	 8.6799580667384E-03 
1573	 8.63338941518292E-03 
1574	 0.008472250763016 
1575	 7.84465838947758E-03 
1576	 7.60397581401636E-03 
1577	 7.51304619280723E-03 
1578	 7.23196282145422E-03 
1579	 7.83897741731303E-03 
1580	 7.9961592371592E-03 
1581	 7.00587988581633E-03 
1582	 7.00473075671836E-03 
1583	 7.87818191882144E-03 
1584	 7.84871870949498E-03 
1585	 7.7954456416164E-03 
1586	 8.29482801314624E-03 
1587	 8.2081539885293E-03 
1588	 8.21863638817321E-03 
1589	 8.39084569354786E-03 
1590	 8.25001241941529E-03 
1591	 8.27283087394898E-03 
1592	 7.90520243906239E-03 
1593	 7.60285738932497E-03 
1594	 7.90588081101158E-03 
1595	 8.19615149053484E-03 
1596	 8.21972578894484E-03 
1597	 8.04289609521553E-03 
1598	 8.22337132386878E-03 
1599	 8.39401631734909E-03 
1600	 7.97168304045497E-03 
1601	 7.89556754136073E-03 
1602	 8.54083370822296E-03 
1603	 8.56459936878218E-03 
1604	 8.27891601157167E-03 
1605	 8.75642342019018E-03 
1606	 8.61049129317836E-03 
1607	 7.76271675647717E-03 
1608	 7.74307440104182E-03 
1609	 8.15718275106849E-03 
1610	 8.21042400231737E-03 
1611	 8.41739691068073E-03 
1612	 8.64506116417891E-03 
1613	 8.36541112303624E-03 
1614	 8.32481587389039E-03 
1615	 8.38613741678233E-03 
1616	 8.38488728533322E-03 
1617	 8.63117430468312E-03 
1618	 8.38611427765172E-03 
1619	 8.62989356250739E-03 
1620	 9.34622039842525E-03 
1621	 8.9090421510484E-03 
1622	 8.72129094167331E-03 
1623	 9.26247234267543E-03 
1624	 8.79619558385019E-03 
1625	 8.18923958595788E-03 
1626	 8.71727906034236E-03 
1627	 9.0615359109292E-03 
1628	 8.64109957780708E-03 
1629	 8.7669139466219E-03 
1630	 9.04598064125487E-03 
1631	 8.47148794913534E-03 
1632	 8.39748799756935E-03 
1633	 8.91762731290915E-03 
1634	 9.11956835303819E-03 
1635	 9.29100756070756E-03 
1636	 9.03369603280697E-03 
1637	 8.77155967671381E-03 
1638	 8.9425780038565E-03 
1639	 8.81599500451517E-03 
1640	 8.94024700240736E-03 
1641	 9.21209082385727E-03 
1642	 8.91784450666123E-03 
1643	 8.70550615253149E-03 
1644	 8.79439715171027E-03 
1645	 8.83843568353519E-03 
1646	 8.72572349607956E-03 
1647	 8.49442169705134E-03 
1648	 8.30366178613485E-03 
1649	 8.42570139745952E-03 
1650	 8.44442881242424E-03 
1651	 8.29528034401981E-03 
1652	 8.59761598011396E-03 
1653	 8.33517979695853E-03 
1654	 8.43421857855251E-03 
1655	 8.86652120737966E-03 
1656	 8.93637461970644E-03 
1657	 9.00632684248162E-03 
1658	 9.32254426924102E-03 
1659	 9.79414410936263E-03 
1660	 9.75321233536038E-03 
1661	 9.70565825110164E-03 
1662	 9.63824785582659E-03 
1663	 8.77844212475279E-03 
1664	 8.58377074442272E-03 
1665	 8.97156742283033E-03 
1666	 9.00624866103209E-03 
1667	 9.03594630381632E-03 
1668	 8.96507851323158E-03 
1669	 9.20997931349414E-03 
1670	 9.1155740518901E-03 
1671	 8.71962109257154E-03 
1672	 8.83804170692251E-03 
1673	 8.82469794323102E-03 
1674	 8.53852734066273E-03 
1675	 8.61680982980354E-03 
1676	 8.97033324162386E-03 
1677	 9.10555937268609E-03 
1678	 8.7169996536544E-03 
1679	 8.56230838770629E-03 
1680	 8.62325527931162E-03 
1681	 8.62769560221411E-03 
1682	 9.02342601426514E-03 
1683	 9.08992663395211E-03 
1684	 8.9468857085139E-03 
1685	 8.8082387373198E-03 
1686	 8.51224095622777E-03 
1687	 8.69891238373951E-03 
1688	 8.90866786786079E-03 
1689	 8.78803563519808E-03 
1690	 9.05944827388403E-03 
1691	 9.51752976672367E-03 
1692	 9.40983841394944E-03 
1693	 9.14085522721947E-03 
1694	 9.04216981554569E-03 
1695	 8.99263251700549E-03 
1696	 9.12340248533556E-03 
1697	 9.37128165301224E-03 
1698	 9.5728823787954E-03 
1699	 9.79935139639476E-03 
1700	 1.00735769603696E-02 
1701	 1.01221858018039E-02 
1702	 1.02247151629962E-02 
1703	 1.01465930827193E-02 
1704	 9.76361118222717E-03 
1705	 0.009831012547946 
1706	 9.79144433617434E-03 
1707	 9.20465373076383E-03 
1708	 8.66764742867098E-03 
1709	 9.03222847984435E-03 
1710	 9.85275172847182E-03 
1711	 9.87786047770627E-03 
1712	 1.00914095409001E-02 
1713	 9.87460546743521E-03 
1714	 9.41331485714439E-03 
1715	 9.51162639181846E-03 
1716	 9.54818865461575E-03 
1717	 0.009141077447426 
1718	 8.89565399274943E-03 
1719	 8.96412731561931E-03 
1720	 9.09522160451041E-03 
1721	 8.68019004392811E-03 
1722	 8.98767191788193E-03 
1723	 9.50729440674119E-03 
1724	 8.99887273491852E-03 
1725	 9.09139808288325E-03 
1726	 9.62737859992465E-03 
1727	 9.98881836829997E-03 
1728	 1.07442580018321E-02 
1729	 1.07337897394174E-02 
1730	 9.65444874728174E-03 
1731	 9.19591832638201E-03 
1732	 9.87220119507308E-03 
1733	 1.05987451314587E-02 
1734	 1.09109035834345E-02 
1735	 0.010696701847174 
1736	 9.73525536835831E-03 
1737	 9.20387294675005E-03 
1738	 9.97826601490301E-03 
1739	 1.04666399635013E-02 
1740	 9.78139455063857E-03 
1741	 9.47022988287138E-03 
1742	 9.63358734722701E-03 
1743	 9.17631968875935E-03 
1744	 9.30619080160244E-03 
1745	 1.02516411888486E-02 
1746	 1.05967426004517E-02 
1747	 1.07755536103734E-02 
1748	 1.02863776495006E-02 
1749	 9.89714370509128E-03 
1750	 9.5645465839366E-03 
1751	 9.69159926528375E-03 
1752	 1.08780284419661E-02 
1753	 1.10767378291443E-02 
1754	 1.01272954429802E-02 
1755	 1.00297588572768E-02 
1756	 9.7834447537814E-03 
1757	 1.01214031816547E-02 
1758	 1.13312623713415E-02 
1759	 1.01699790764203E-02 
1760	 9.95493622091438E-03 
1761	 1.09167376561055E-02 
1762	 1.03485218705568E-02 
1763	 1.12176398730154E-02 
1764	 1.10811968664067E-02 
1765	 9.52818714237067E-03 
1766	 1.00937101913177E-02 
1767	 1.07819661786625E-02 
1768	 0.011313481557127 
1769	 1.15686601421835E-02 
1770	 0.01138758247923 
1771	 1.20478810146825E-02 
1772	 1.15884204993117E-02 
1773	 1.11496239558375E-02 
1774	 1.20794059513277E-02 
1775	 1.21129569791557E-02 
1776	 1.19862852981167E-02 
1777	 1.13967494985998E-02 
1778	 1.08281122678283E-02 
1779	 9.51394745231996E-03 
1780	 9.29793464431206E-03 
1781	 1.20638791248936E-02 
1782	 1.24389304261938E-02 
1783	 9.95950356670672E-03 
1784	 9.6237912146463E-03 
1785	 8.99742501850511E-03 
1786	 9.36945327508844E-03 
1787	 1.37953605773482E-02 
1788	 1.34683653575065E-02 
1789	 8.80317233856955E-03 
1790	 8.89818979096242E-03 
1791	 9.16061237407362E-03 
1792	 1.00022120745225E-02 
1793	 1.47530734573832E-02 
1794	 1.51153637140137E-02 
1795	 1.16786955858838E-02 
1796	 1.07000008580246E-02 
1797	 4.19434839824202E-03 
1798	-2.81322992622987E-03 
1799	-4.50647367733399E-03 
1800	 1.25171259180171E-02 
1801	 2.23649343201606E-02 
1802	 3.73166283543404E-02 
1803	 4.34180562920358E-02 
1804	 2.17602374896753E-02 
1805	 8.85213106297631E-03 
1806	-2.33450215200339E-02 
1807	-2.27686121326304E-02 
1808	 3.64381150559285E-02 
1809	 7.60523863214728E-02 
1810	 0.180656010775429 
1811	 0.260430912888709 
1812	 0.271288935788242 
1813	 0.206152506276285 
1814	-0.086789868162518 
1815	-0.140873467154829 
1816	-0.152238413101949 
1817	 7.92473168452464E-02 
1818	 0.361580919769412 
1819	 0.452856593653562 
1820	 0.609293776352736 
1821	 0.186847605330528 
1822	 6.44901789223057E-02 
1823	-6.81517492737187E-02 
1824	-0.45055007029895 
1825	-0.785114209501929 
1826	-0.664013395214856 
1827	-0.322206237582969 
1828	-0.293099714590402 
1829	-0.233563988512774 
1830	 9.47676812562539E-02 
1831	-1.54541519819166 
1832	-2.10338035957402 
1833	 1.04707583126275 
1834	 0.363368889329716 
1835	 1.23334421008191 
1836	 1.06290227515965 
1837	 0.598970067510104 
1838	 0.681752744163465 
1839	 1.24920909983918 
1840	 1.17173858558311 
1841	 13.2488273719282 
1842	-0.595246160470419 
1843	-0.696398767098843 
1844	-2.39067464352244 
1845	-3.8733811988158 
1846	 8.80882569322241 
1847	 8.13684590016199 
1848	-41.9186446270346 
1849	-0.552062766573985 
1850	 0.218695944982521 
1851	 0.357037794488038 
1852	 2.27751099042764 
1853	 1.9642934775284 
1854	 1.52847540187494 
1855	 0.964613826331167 
1856	 1.10882449841729 
1857	 0.645088255748649 
1858	 0.612818360897275 
1859	 13.1471065636897 
1860	-2.12991031389979 
1861	-0.14693781438988 
1862	-0.537226532894486 
1863	-0.02908702523114 
1864	-0.203889657258968 
1865	-0.360308631589045 
1866	-0.501722081245212 
1867	-0.818252372384121 
1868	-10.1097352856508 
1869	 3.68414259008275 
1870	 0.705310256780816 
1871	 4.94107558665667E-02 
1872	-0.220253021733848 
1873	 0.621937363580124 
1874	 6.77584301434804 
1875	-3.1859351064228 
1876	-1.56800890583305 
1877	-0.505037745894164 
1878	-0.34305968840298 
1879	 0.271071685892619 
1880	 0.363691652981483 
1881	-0.234599583691659 
1882	-0.770893635702082 
1883	-0.420166044491332 
1884	-0.587242742473404 
1885	-0.72127727469917 
1886	-0.431200904658038 
1887	-0.354635155277698 
1888	-0.352791386965814 
1889	-0.412929387705649 
1890	-0.339246439445576 
1891	-0.529795147938889 
1892	-1.46841555703922 
1893	-15.8187753850823 
1894	 1.81338465357428 
1895	 1.27066562166531 
1896	 0.75732849869787 
1897	 0.813741363713776 
1898	 3.21636997759491 
1899	-5.20677892630334 
1900	-4.48895954069362 
1901	 0.280464797116677 
1902	 0.38386710559597 
1903	-5.97600938294853E-02 
1904	 0.319194237386174 
1905	 1.47473794176258 
1906	 1.88800563619936 
1907	 2.02544623796638 
1908	 6.0493377781234 
1909	-11.6945365649439 
1910	-0.972725260485328 
1911	-2.41009250895489E-02 
1912	-0.117461155538921 
1913	-1.52546494503873 
1914	-2.52791252640603 
1915	-3.41180693147824 
1916	 87.5827744961171 
1917	-5.23364333797281 
1918	-1.86341245532803 
1919	-0.919414286851649 
1920	 13.8879777638042 
1921	 1.00184347125291 
1922	 0.323490783661692 
1923	-1.62948192554794E-03 
1924	-0.515236289593046 
1925	-0.516264701734752 
1926	-0.547961793331339 
1927	-0.122938524711121 
1928	 1.4851064246451 
1929	-3.54838055487984 
1930	-1.03270991534631 
1931	-0.783671789640807 
1932	-4.55372520374437E-02 
1933	-0.325120749149957 
1934	-0.729257919379374 
1935	-0.348196924354265 
1936	-0.323985694243885 
1937	-0.200668841325884 
1938	 9.95476487916302E-02 
1939	 0.172770441836437 
1940	 0.225088017602262 
1941	 0.184854073527661 
1942	 9.52669066750418E-02 
1943	 3.54762848889256E-02 
1944	-9.03474203227982E-02 
1945	-0.181793387185599 
1946	-0.115081363592617 
1947	-6.33390287786701E-02 
1948	-6.26308966167459E-02 
1949	-4.26366145920914E-02 
1950	-5.32951529832805E-02 
1951	-7.19688910451872E-02 
1952	-8.56749986366328E-02 
1953	-8.17693328411491E-02 
1954	-1.92265064839549E-02 
1955	-2.23632337437659E-02 
1956	-8.35281057318667E-02 
1957	-5.08718445338515E-02 
1958	-2.31388966452366E-02 
1959	-3.49491306937914E-02 
1960	-1.91074828483268E-02 
1961	-0.008064227662974 
1962	-2.19757915255141E-02 
1963	-1.92304308169072E-02 
1964	-7.83268111855095E-03 
1965	-0.005292248712467 
1966	-3.41879137098103E-03 
1967	-8.2555802597531E-04 
1968	 1.75278233217006E-03 
1969	 1.00196621108332E-04 
1970	-3.2108248540603E-03 
1971	-2.60438390798638E-03 
1972	-2.17537177543973E-03 
1973	-1.13565288018337E-03 
1974	 1.97591591375602E-03 
1975	 3.9024651652744E-03 
1976	 6.40731952187062E-03 
1977	 7.28025218669319E-03 
1978	 6.69477826807489E-03 
1979	 7.39504929965371E-03 
1980	 8.33274608795065E-03 
1981	 8.44384336679807E-03 
1982	 8.31733282242858E-03 
1983	 6.51005590744232E-03 
1984	 3.62125432521397E-03 
1985	 3.22209332630478E-03 
1986	 2.62733302284032E-03 
1987	 1.63331039618373E-03 
1988	 9.51548102331842E-04 
1989	-7.38227610303389E-04 
1990	-2.31287050064936E-03 
1991	 2.47450404376096E-04 
1992	 5.03702136197396E-03 
1993	 5.47534101986855E-03 
1994	 6.94442418956565E-03 
1995	 9.36045497922699E-03 
1996	 9.37936565810564E-03 
1997	 3.42560429896642E-03 
1998	 3.32995326056849E-03 
1999	 3.12929687114833E-03 
2000	 5.01965763335995E-03 
2001	 1.34633692628707E-02 
2002	 0.013688122107815 
2003	 1.31669020477723E-02 
2004	 1.64580151363276E-02 
2005	 1.22842242034721E-02 
2006	 0.014973022637438 
2007	 1.45874657026283E-02 
2008	 2.16614444840113E-03 
2009	-3.21197427074994E-03 
2010	-4.29662508777971E-03 
2011	-5.39577800435503E-03 
2012	-3.13249774434794E-03 
2013	-5.30993955446983E-03 
2014	-0.010611592008283 
2015	-1.57404669136436E-02 
2016	-1.28252748774469E-02 
2017	-5.18040793254358E-03 
2018	-2.9011537615007E-03 
2019	-1.50452947338035E-03 
2020	-1.96829878192285E-03 
2021	-5.98922553157502E-03 
2022	-5.43200850483068E-03 
2023	-2.88856511466303E-03 
2024	-1.58293114182054E-03 
2025	-8.41478265853975E-04 
2026	 2.95903566340176E-04 
2027	 1.49148134193298E-03 
2028	 2.80870218329463E-03 
2029	 3.77518061432434E-03 
2030	 2.89795712883058E-03 
2031	 3.16954587730777E-03 
2032	 3.43739628160636E-03 
2033	 3.95403925573367E-03 
2034	 3.27171820096175E-03 
2035	 3.27013785607891E-03 
2036	 5.34873375966407E-03 
2037	 4.64813849658593E-03 
2038	 4.2580267016507E-03 
2039	 4.38526798991099E-03 
2040	 3.09923020370675E-03 
2041	 2.55953193644252E-03 
2042	 4.47535183591014E-03 
2043	 4.34504625295021E-03 
2044	 2.97533923190399E-03 
2045	 1.67284988641712E-03 
2046	 6.75916562327648E-04 
2047	 1.81200792213769E-04 
2048	 1.07685640350799E-03 
2049	 2.22694628851655E-03 
2050	 3.32174218604657E-03 
2051	 5.48156481752825E-03 
2052	 6.53619135045192E-03 
2053	 7.71078043693663E-03 
2054	 9.14831795674134E-03 
2055	 7.06441918617891E-03 
2056	 6.06195200269146E-03 
2057	 4.74676969789504E-03 
2058	 4.37541515334952E-03 
2059	 4.93445164789326E-03 
2060	 4.78461188123074E-03 
2061	 5.30968432886794E-03 
2062	 3.70210297632874E-03 
2063	 1.79843631401176E-03 
2064	 1.51600846793187E-03 
2065	 1.09077220351152E-03 
2066	 1.53530312189791E-03 
2067	 2.86853760211096E-03 
2068	 1.10030258886966E-03 
2069	 2.06132342436424E-04 
2070	 1.43168074403723E-03 
2071	 8.21843194137847E-04 
2072	 1.3730350432639E-03 
2073	 2.63968684210748E-03 
2074	 5.36484086551351E-03 
2075	 4.85675463522298E-03 
2076	 2.66334691305486E-03 
2077	 2.4182221513196E-03 
2078	 1.38203476245941E-03 
2079	 1.12559779999093E-03 
2080	 1.83176553413609E-03 
2081	 4.50131732224507E-03 
2082	 6.13697085301873E-03 
2083	 4.89861314660974E-03 
2084	 4.25536336137224E-03 
2085	 5.0792910561913E-03 
2086	 5.03566753864773E-03 
2087	 4.32005882027277E-03 
2088	 6.18670120943546E-03 
2089	 8.00981533537115E-03 
2090	 6.83009110678331E-03 
2091	 6.53077016022784E-03 
2092	 6.53691592940978E-03 
2093	 5.01188040982801E-03 
2094	 4.75205145204101E-03 
2095	 7.3260294721175E-03 
2096	 7.10770131824727E-03 
2097	 5.20148715600483E-03 
2098	 4.75924497747825E-03 
2099	 4.19956962868878E-03 
2100	 2.33674796685238E-03 
2101	 3.12305322460066E-03 
2102	 3.76040938727804E-03 
2103	 3.27550540015358E-03 
2104	 3.57890485028469E-03 
2105	 4.33987137800636E-03 
2106	 4.96317655467807E-03 
2107	 5.93955806593801E-03 
2108	 7.74264822298187E-03 
2109	 7.80681783968455E-03 
2110	 6.52313539421101E-03 
2111	 6.65060011443566E-03 
2112	 5.66039807663209E-03 
2113	 4.63629645240059E-03 
2114	 4.01319041556974E-03 
2115	 3.9674520444342E-03 
2116	 2.7931337446333E-03 
2117	 3.21664853713854E-03 
2118	 6.02527732137306E-03 
2119	 6.48099494820482E-03 
2120	 6.04187912572262E-03 
2121	 6.09918295835348E-03 
2122	 6.27526790125878E-03 
2123	 6.86396263916954E-03 
2124	 7.43757948481678E-03 
2125	 7.91022637545991E-03 
2126	 7.03574778494789E-03 
2127	 6.61584887330182E-03 
2128	 6.64043612106974E-03 
2129	 5.96086747504186E-03 
2130	 5.05362670293261E-03 
2131	 3.34144001982958E-03 
2132	 1.7626707920483E-03 
2133	 2.09195701154184E-03 
2134	 2.71427779444198E-03 
2135	 4.61594485928152E-03 
2136	 5.2782299336642E-03 
2137	 6.09578217244348E-03 
2138	 6.77356994511912E-03 
2139	 7.34606926232883E-03 
2140	 7.2758379853884E-03 
2141	 6.73883428524726E-03 
2142	 6.40913665926855E-03 
2143	 5.28425719374104E-03 
2144	 4.53829510651634E-03 
2145	 5.0437545890066E-03 
2146	 5.20494988299994E-03 
2147	 4.99426066621542E-03 
2148	 5.69957555452133E-03 
2149	 6.63179819566063E-03 
2150	 7.24488794643693E-03 
2151	 7.35746933346276E-03 
2152	 7.3820534442623E-03 
2153	 6.57657754503691E-03 
2154	 5.9423073119106E-03 
2155	 6.30386230337231E-03 
2156	 5.82243069806839E-03 
2157	 6.59399441415119E-03 
2158	 9.11968450812366E-03 
2159	 9.09865465340465E-03 
2160	 8.48653122125629E-03 
2161	 8.28406051239786E-03 
2162	 6.7322199498285E-03 
2163	 4.85424047445577E-03 
2164	 2.77821094788798E-03 
2165	 2.91782100338965E-03 
2166	 2.79682872806203E-03 
2167	 2.93901618723301E-03 
2168	 5.69550772014079E-03 
2169	 7.11401338782625E-03 
2170	 7.13302035877372E-03 
2171	 7.89300980090268E-03 
2172	 8.41272042999836E-03 
2173	 9.52586227535606E-03 
2174	 1.05858232425143E-02 
2175	 1.12808831973233E-02 
2176	 1.16747915412276E-02 
2177	 7.99598245412528E-03 
2178	 4.03629157093757E-03 
2179	 2.96112722910632E-03 
2180	 4.87327433229586E-03 
2181	 8.09445652683966E-03 
2182	 8.23159456304662E-03 
2183	 7.5838699237217E-03 
2184	 6.19183575578742E-03 
2185	 4.70337513048113E-03 
2186	 4.60071072697997E-03 
2187	 7.27237430434128E-03 
2188	 6.65037145192095E-03 
2189	 4.55888908489405E-03 
2190	 4.15543288559313E-03 
2191	 2.20323897667662E-03 
2192	 1.67721978452138E-03 
2193	 3.20712393559477E-03 
2194	 4.18624920883749E-03 
2195	 6.03336686947688E-03 
2196	 7.10293041128619E-03 
2197	 7.17792836416463E-03 
2198	 8.50483362019646E-03 
2199	 1.00915584139071E-02 
2200	 1.17191601356338E-02 
2201	 1.30777284232021E-02 
2202	 1.19839893396207E-02 
2203	 8.45769416038693E-03 
2204	 3.72976386075334E-03 
2205	 2.27442823596292E-03 
2206	 2.34926486603689E-03 
2207	-3.59427356681074E-04 
2208	 2.62765525980028E-04 
2209	 2.45531448274922E-03 
2210	 3.21777053664127E-03 
2211	 7.68500575410036E-03 
2212	 1.27934012088999E-02 
2213	 1.19742858542171E-02 
2214	 8.86317834858695E-03 
2215	 5.27211578417741E-03 
2216	 1.42162547797183E-04 
2217	-1.91056815613765E-03 
2218	-1.74155897426695E-03 
2219	-1.53643328184192E-03 
2220	-1.96962201939061E-04 
2221	 1.37941477331583E-03 
2222	 2.76321060554501E-03 
2223	 4.02798249066568E-03 
2224	 8.67218960294502E-03 
2225	 9.62476327073426E-03 
2226	 7.34393981945999E-03 
2227	 6.16757047786363E-03 
2228	 2.90807871950251E-03 
2229	 1.64538264079627E-03 
2230	 2.33497811949512E-03 
2231	 2.84516801309205E-03 
2232	 3.58271922823015E-03 
2233	 3.98157004186829E-03 
2234	 3.79772274711078E-03 
2235	 5.22815133665359E-03 
2236	 4.67244560392184E-03 
2237	 2.96091408554343E-03 
2238	 3.82036024037595E-03 
2239	 3.2505310165253E-03 
2240	 5.31088726856637E-03 
2241	 9.98314245500478E-03 
2242	 8.90882223836825E-03 
2243	 7.69365551710668E-03 
2244	 6.79604313127319E-03 
2245	 3.66705203532173E-03 
2246	 4.51537870590022E-03 
2247	 5.73234124016632E-03 
2248	 5.80407761132495E-03 
2249	 8.32353127334749E-03 
2250	 8.98171143805228E-03 
2251	 6.37349304783014E-03 
2252	 4.80496648188059E-03 
2253	 5.62199325017429E-03 
2254	 4.39348815377993E-03 
2255	 5.37198178926452E-03 
2256	 8.36771810693023E-03 
2257	 7.20884062617331E-03 
2258	 7.90865280215781E-03 
2259	 9.27140046490806E-03 
2260	 8.03391316421086E-03 
2261	 3.76877545579194E-03 
2262	 7.37975849914891E-04 
2263	-3.03743001033356E-03 
2264	-5.60812642594192E-03 
2265	-9.85551825505821E-03 
2266	-8.42615404165055E-03 
2267	-1.87006171004113E-03 
2268	-2.48257270686159E-04 
2269	 4.50809753826905E-03 
2270	 4.9881277623017E-03 
2271	-3.4622664841165E-03 
2272	-3.60039361926843E-03 
2273	 2.32314513520231E-03 
2274	 2.98462095382194E-03 
2275	 2.43987107562623E-03 
2276	 4.74534961464484E-03 
2277	 4.88171783568734E-03 
2278	 6.07986541803252E-03 
2279	 1.48941003002984E-02 
2280	 1.69937827841473E-02 
2281	 1.40262733046106E-02 
2282	 1.08214952286991E-02 
2283	 1.02034386236493E-02 
2284	 4.07116676812226E-03 
2285	 1.73603115312525E-03 
2286	 6.00957833060596E-03 
2287	 4.96849792927849E-03 
2288	 7.40545237105992E-03 
2289	 1.40810769984075E-02 
2290	 9.09754672462888E-03 
2291	 3.87033651566867E-03 
2292	 8.23178009648362E-03 
2293	 4.56856675823435E-03 
2294	-8.16473516632678E-04 
2295	-2.36582223320461E-03 
2296	-7.17190321157545E-03 
2297	-4.00495256951591E-03 
2298	 2.88474841785779E-03 
2299	 5.78716831964825E-03 
2300	 2.24667667219804E-03 
2301	-2.36336452432349E-03 
2302	-1.2787489204089E-04 
2303	 2.66564416215554E-03 
2304	 8.46511441378929E-03 
2305	 0.012922518910912 
2306	 0.010491706887404 
2307	 7.29870724166784E-03 
2308	 7.39223403079592E-03 
2309	 7.13977481887459E-03 
2310	 6.62547200501979E-04 
2311	-4.33994992882749E-03 
2312	-6.06893933531467E-03 
2313	-3.4158042233323E-03 
2314	 5.62123495459897E-03 
2315	 8.89628850146097E-03 
2316	 9.11076583003436E-03 
2317	 9.1112461793006E-03 
2318	 2.94749224791161E-03 
2319	 5.10398677408697E-03 
2320	 0.010639040204899 
2321	 5.81322285733305E-03 
2322	 5.70294983682991E-03 
2323	 2.07574714726348E-03 
2324	-4.54949354630186E-03 
2325	 0.002368450020762 
2326	 2.13421684536366E-03 
2327	 6.54233082608691E-05 
2328	 8.55427707071458E-03 
2329	 4.65661556300967E-03 
2330	-7.72153428805807E-03 
2331	-0.018426485548448 
2332	-2.98422942454745E-02 
2333	-3.14702553015282E-02 
2334	-2.37394526809252E-02 
2335	-1.71581337045454E-02 
2336	-1.47537929757821E-02 
2337	-1.11973975934922E-02 
2338	-1.13970479249693E-02 
2339	-9.51952786642046E-03 
2340	 5.51655730896099E-03 
2341	 3.99378595292937E-03 
2342	-9.43383392768715E-03 
2343	-0.016345121074902 
2344	-2.47882416145916E-02 
2345	-0.021707656410996 
2346	-1.64635135579496E-02 
2347	-2.11889659026991E-02 
2348	-0.033090061273671 
2349	-0.04477443310172 
2350	-4.14060917403252E-02 
2351	-2.91168642067233E-02 
2352	-7.38183933688675E-03 
2353	-1.63069160157807E-03 
2354	-1.60537928197262E-02 
2355	-1.77491000470066E-02 
2356	-3.54712070554725E-02 
2357	-4.32278320905834E-02 
2358	-2.64358621669591E-02 
2359	-2.91217100325597E-02 
2360	-3.65026679848112E-02 
2361	-3.40417514731112E-02 
2362	-3.31806288837844E-02 
2363	-4.77970682759214E-02 
2364	-5.19166511685647E-02 
2365	-3.36408490323104E-02 
2366	-0.027176979462914 
2367	-3.31299565319766E-02 
2368	-4.04651879328825E-02 
2369	-4.45613520595467E-02 
2370	-5.69573813525258E-02 
2371	-5.40099200526612E-02 
2372	-9.13294175507445E-03 
2373	-1.80432601543163E-02 
2374	-5.74281053941721E-02 
2375	-5.81267468511106E-02 
2376	-5.77955595639292E-02 
2377	-2.89810314826851E-02 
2378	-4.68112739035968E-03 
2379	-2.29380777897451E-02 
2380	-4.96225376127024E-02 
2381	-9.57079814101636E-02 
2382	-9.27334706951694E-02 
2383	-1.75640633762489E-02 
2384	 0.001790324457815 
2385	 1.85174966527249E-02 
2386	 1.42214346651326E-02 
2387	-3.93919859502536E-02 
2388	-5.57999159188254E-02 
2389	-5.13442684498762E-02 
2390	-7.14385076357167E-02 
2391	-0.100089020057325 
2392	-0.106434783759335 
2393	-9.56707588398258E-02 
2394	-7.02478628349467E-02 
2395	-4.77246857857032E-02 
2396	-4.94643130904529E-02 
2397	-0.064613163800835 
2398	-0.111006610298301 
2399	-0.156985706566342 
2400	-0.149802209594643 
2401	-0.144822543969849 
2402	-9.15498556457838E-02 
2403	-3.33030394678446E-04 
2404	-6.31448262704641E-03 
2405	-8.23748425934821E-03 
2406	-9.64164868422656E-02 
2407	-0.224906610025317 
2408	-0.106059790127369 
2409	-7.13385532600186E-02 
2410	-0.089369908037724 
2411	-1.03966832884389E-02 
2412	-0.118244926034152 
2413	-0.199039484874369 
2414	-0.075450237940833 
2415	 5.48071780260913E-03 
2416	 4.48195713518964E-03 
2417	 9.12530050606634E-02 
2418	 3.42956406499521E-02 
2419	-0.268021136546404 
2420	-0.325349890007047 
2421	-0.272331920284435 
2422	-0.253339183351949 
2423	-0.103175448374974 
2424	-2.54483767017694E-03 
2425	-0.231182044720524 
2426	-0.52653181295972 
2427	-0.365336732137144 
2428	-0.217712200137934 
2429	-0.142361510912417 
2430	-7.37155912317258E-02 
2431	-0.190696594575503 
2432	-0.316144649221055 
2433	-0.201048626419579 
2434	-5.05211052228146E-02 
2435	 6.28044846082609E-02 
2436	-3.55680635158565E-02 
2437	-0.229749907562126 
2438	-0.219350939562295 
2439	-1.68835015401631E-02 
2440	-3.90862664378472E-02 
2441	-0.235054790439714 
2442	-0.23668420545576 
2443	-0.298549815331323 
2444	-0.272291928804068 
2445	-0.202059342246223 
2446	-0.302744772932962 
2447	-0.248794530599092 
2448	-0.307773705145392 
2449	-0.216899712440062 
2450	-0.173277324315073 
2451	-23.3210669101606 
2452	-9.29759380535476 
2453	-1.43043824009364 
2454	-1.48243986439686 
2455	-0.85497717986167 
2456	-0.562398583882686 
2457	-0.706275419927166 
2458	-0.637167009733043 
2459	-0.29651247175613 
2460	-0.192078853326658 
2461	-0.328566003715226 
2462	-0.304074662098422 
2463	-0.536265974433278 
2464	-1.11065644399331 
2465	-1.01816972210424 
2466	-0.398039079299509 
2467	-0.614949309332801 
2468	-0.923924150466185 
2469	-0.425097245118472 
2470	-1.58448147151576 
2471	 7.54919483416326 
2472	 3.53339548416908 
2473	 7.70453481373951 
2474	 7.29611917688956 
2475	 37.0812809361306 
2476	 39.4648375828417 
2477	 1.74715028322374 
2478	 0.965984481652962 
2479	 1.18117203762639 
2480	 3.39058253732742 
2481	 86.6491552717658 
2482	-2.12074046949551 
2483	 1.30494217294671 
2484	 0.325351573077294 
2485	 0.691855569463978 
2486	 1.59809006176832 
2487	 4.18403190130369 
2488	-1.86471743077699 
2489	 13.9335569731788 
2490	 1.40246527304375 
2491	 0.507335852717515 
2492	 0.670125267309674 
2493	 0.984930974215663 
2494	 0.112127546986939 
2495	 4.89438058191323E-02 
2496	-0.322822884895251 
2497	-0.195304117583427 
2498	-1.06111131202576 
2499	 1.75176997631887 
2500	 0.591528909827173 
