Wavelength	rt0726sus_algea00001.asd
350	 6.77951756422437E-02 
351	 6.85648173045111E-02 
352	 6.79805028484217E-02 
353	 6.75726994430132E-02 
354	 6.82023221224129E-02 
355	 6.78064971902026E-02 
356	 6.79383305028807E-02 
357	 6.84203807087625E-02 
358	 6.85689606744832E-02 
359	 6.78915805725561E-02 
360	 6.77431881835444E-02 
361	 6.81634458959627E-02 
362	 6.82751960643991E-02 
363	 6.80155053454553E-02 
364	 6.78233711059517E-02 
365	 6.78298682486935E-02 
366	 6.75981516128293E-02 
367	 6.76205076933178E-02 
368	 6.77973341516885E-02 
369	 0.067905249686124 
370	 6.79017002539709E-02 
371	 6.76454236270357E-02 
372	 6.75516939410419E-02 
373	 6.80938756089374E-02 
374	 0.067312241628058 
375	 6.69741821635602E-02 
376	 6.75159154026244E-02 
377	 6.70911439124049E-02 
378	 0.067334419259674 
379	 6.76659033393213E-02 
380	 6.74945725452357E-02 
381	 6.78583359535109E-02 
382	 6.78524490418964E-02 
383	 6.74577537337023E-02 
384	 6.71437678330645E-02 
385	 6.74119766272079E-02 
386	 6.76722767412201E-02 
387	 6.76850357232982E-02 
388	 6.76956957446943E-02 
389	 6.71866861250521E-02 
390	 6.69987502708468E-02 
391	 6.75465940670548E-02 
392	 6.77104090632802E-02 
393	 6.75330889689225E-02 
394	 6.73397862487362E-02 
395	 6.74333740522602E-02 
396	 6.73161317057189E-02 
397	 6.73460716761476E-02 
398	 6.75335991896517E-02 
399	 6.75712741917741E-02 
400	 6.75658041376811E-02 
401	 0.06746557487175 
402	 6.73453046019327E-02 
403	 6.76463522343388E-02 
404	 6.77758946997359E-02 
405	 6.76218576930812E-02 
406	 6.73474862252627E-02 
407	 0.067505825775971 
408	 6.76362069858281E-02 
409	 6.75523938254676E-02 
410	 0.067413654337464 
411	 6.75859360251173E-02 
412	 6.77330504785894E-02 
413	 6.76245871684508E-02 
414	 6.75851253705287E-02 
415	 6.75190199413816E-02 
416	 6.75584601136507E-02 
417	 6.78377929192751E-02 
418	 6.80065794770445E-02 
419	 6.79918264536392E-02 
420	 6.79111778811532E-02 
421	 6.80474869174091E-02 
422	 6.82929159302587E-02 
423	 6.84769082780367E-02 
424	 6.85086226396183E-02 
425	 6.85374468074096E-02 
426	 6.86250061945353E-02 
427	 6.88486298194368E-02 
428	 0.0692204104103 
429	 6.93400781743673E-02 
430	 6.94041410916228E-02 
431	 6.95481745618659E-02 
432	 6.97628381864303E-02 
433	 6.98447455955475E-02 
434	 7.00113145212003E-02 
435	 7.03931368275379E-02 
436	 7.06021785841601E-02 
437	 7.07334313705444E-02 
438	 0.070861367510042 
439	 0.07105120923658 
440	 7.13854874294924E-02 
441	 7.15871716429844E-02 
442	 7.16061869421001E-02 
443	 7.17716402623498E-02 
444	 7.19932794579365E-02 
445	 7.21988860996839E-02 
446	 7.23363334946733E-02 
447	 7.24249507470482E-02 
448	 7.25818859731968E-02 
449	 7.27721982059081E-02 
450	 7.28583056994576E-02 
451	 7.29095055141813E-02 
452	 7.30547080045169E-02 
453	 7.33006216833781E-02 
454	 7.33980849537843E-02 
455	 7.34011297632813E-02 
456	 7.34542935911662E-02 
457	 7.36638514586036E-02 
458	 7.37304032880861E-02 
459	 7.37327400702219E-02 
460	 7.37422287793745E-02 
461	 7.37975887596656E-02 
462	 7.38120114015952E-02 
463	 7.38308836111377E-02 
464	 0.073899054385527 
465	 0.073993759064414 
466	 7.40261910593646E-02 
467	 7.41060890867907E-02 
468	 7.43769074390533E-02 
469	 7.44592487283618E-02 
470	 7.44338453853344E-02 
471	 0.074435361184011 
472	 7.46049456442551E-02 
473	 7.47728039596228E-02 
474	 0.07490269252794 
475	 7.50037948416135E-02 
476	 7.51054616818661E-02 
477	 7.52265483889635E-02 
478	 7.53160542039527E-02 
479	 7.53048089429861E-02 
480	 7.54750349109304E-02 
481	 7.56706148036658E-02 
482	 7.57887562639677E-02 
483	 7.59529461531114E-02 
484	 7.61510265981181E-02 
485	 7.63480418450811E-02 
486	 7.65089039667159E-02 
487	 7.66486827838926E-02 
488	 7.69372183770449E-02 
489	 7.72864210980499E-02 
490	 7.73827099151149E-02 
491	 7.76186198445552E-02 
492	 7.79410929325687E-02 
493	 7.82400492117886E-02 
494	 7.84966704049557E-02 
495	 7.87999143407231E-02 
496	 7.91780326350167E-02 
497	 7.96086046738197E-02 
498	 7.99476949774787E-02 
499	 8.02599249454643E-02 
500	 8.06106147761541E-02 
501	 0.081028268905463 
502	 8.14889182586732E-02 
503	 0.081942120462358 
504	 8.23526856256841E-02 
505	 8.27681778683408E-02 
506	 8.31819692396734E-02 
507	 8.35874484291159E-02 
508	 8.39870846405987E-02 
509	 0.084519469574571 
510	 8.50104013115083E-02 
511	 8.53899035570339E-02 
512	 8.59600189537182E-02 
513	 8.64817405613385E-02 
514	 8.69397824064064E-02 
515	 8.74311784307698E-02 
516	 8.81519979200438E-02 
517	 8.87575390770514E-02 
518	 8.91792288312964E-02 
519	 8.97433901878952E-02 
520	 9.03373901556709E-02 
521	 9.09005757988943E-02 
522	 9.14296565901262E-02 
523	 9.20802036957267E-02 
524	 9.26751364308347E-02 
525	 9.32283384961723E-02 
526	 9.38824749923083E-02 
527	 9.45387270496141E-02 
528	 9.52120074490957E-02 
529	 9.58797256564352E-02 
530	 9.64036860509774E-02 
531	 9.69950407121824E-02 
532	 9.76342673015057E-02 
533	 9.82417851876917E-02 
534	 9.89610812422061E-02 
535	 9.96364924801626E-02 
536	 0.100240576718748 
537	 0.1009048110051 
538	 0.101628699243806 
539	 0.102346658388682 
540	 0.103018097635507 
541	 0.103744069058775 
542	 0.104475340614873 
543	 0.105173709408998 
544	 0.105819374597237 
545	 0.106468383952584 
546	 0.107151436426999 
547	 0.107858068136407 
548	 0.108510705075026 
549	 0.109171415191065 
550	 0.109818237378754 
551	 0.110418343770898 
552	 0.111031278903905 
553	 0.111678848015404 
554	 0.112352907090791 
555	 0.113010593767991 
556	 0.113641032117858 
557	 0.114250374502323 
558	 0.114832413204642 
559	 0.115335378678003 
560	 0.115881735704545 
561	 0.116440866984805 
562	 0.116910846038538 
563	 0.117499668393298 
564	 0.118085120746008 
565	 0.118553193140238 
566	 0.118875003456828 
567	 0.119302433289191 
568	 0.119738209218781 
569	 0.120003720853694 
570	 0.120288797046067 
571	 0.120614368413658 
572	 0.120955906470472 
573	 0.121251335535896 
574	 0.121459430600059 
575	 0.121691415717753 
576	 0.122009268861028 
577	 0.122209294663398 
578	 0.122347460603964 
579	 0.122481462717809 
580	 0.122668069409606 
581	 0.122927698800106 
582	 0.123128715608742 
583	 0.123224659925261 
584	 0.123346759793589 
585	 0.123531261412008 
586	 0.123789168674336 
587	 0.124093302885183 
588	 0.124303477304028 
589	 0.124396139418722 
590	 0.124430566344663 
591	 0.124536666330538 
592	 0.124586763695808 
593	 0.124654919113664 
594	 0.124761712354957 
595	 0.124641325468821 
596	 0.124561629230875 
597	 0.12450116863529 
598	 0.124307409007939 
599	 0.124277328313822 
600	 0.124208986317651 
601	 0.124045620690291 
602	 0.124087445712897 
603	 0.124119366484112 
604	 0.124046912079185 
605	 0.123886223888634 
606	 0.124014427139615 
607	 0.124054435486059 
608	 0.123952163985457 
609	 0.124012276335815 
610	 0.12398366203021 
611	 0.123911321222571 
612	 0.123863443194791 
613	 0.123792846730459 
614	 0.123705099304697 
615	 0.12360057876925 
616	 0.123493099601367 
617	 0.123513562871104 
618	 0.123512949927281 
619	 0.12345238584709 
620	 0.123521061907628 
621	 0.123575283112099 
622	 0.123585986337161 
623	 0.123567590941171 
624	 0.123557747098628 
625	 0.123546708426533 
626	 0.123564565000415 
627	 0.123669640526882 
628	 0.123667859024267 
629	 0.123609077158275 
630	 0.123559371727876 
631	 0.123482638712913 
632	 0.123452336799157 
633	 0.123412221961963 
634	 0.123265367075615 
635	 0.123108403710673 
636	 0.123099883187146 
637	 0.123170500205659 
638	 0.1229220867515 
639	 0.122779717634181 
640	 0.122739965877915 
641	 0.122688825468279 
642	 0.122603157035204 
643	 0.122577946907682 
644	 0.122578374481712 
645	 0.122469933021567 
646	 0.122354024222159 
647	 0.122286000765093 
648	 0.12221830936103 
649	 0.121857636307966 
650	 0.121657229656387 
651	 0.121553126895149 
652	 0.121311922712808 
653	 0.120996058362735 
654	 0.120694072986056 
655	 0.120405700445664 
656	 0.120042106826832 
657	 0.11952529349138 
658	 0.118922218186532 
659	 0.118312822530542 
660	 0.117823629553848 
661	 0.117192847723241 
662	 0.116460806743097 
663	 0.115857700698929 
664	 0.115287156063522 
665	 0.114797619878087 
666	 0.114363622871898 
667	 0.11379578377338 
668	 0.113552367354964 
669	 0.113373094543525 
670	 0.112926608314426 
671	 0.112798701833539 
672	 0.112781036884788 
673	 0.112792819258055 
674	 0.112911595990977 
675	 0.113263896753638 
676	 0.11359309733732 
677	 0.113770425780113 
678	 0.11415513896766 
679	 0.114684300224721 
680	 0.115275786114635 
681	 0.115871429350493 
682	 0.116704818822676 
683	 0.11764797169354 
684	 0.11868549623811 
685	 0.120117050481744 
686	 0.121812147221588 
687	 0.123347791508824 
688	 0.124390971375266 
689	 0.125457940568892 
690	 0.126746202040873 
691	 0.128158847888159 
692	 0.129447808944287 
693	 0.130754949694783 
694	 0.131778515238965 
695	 0.132424482625927 
696	 0.133042487764653 
697	 0.133871191744017 
698	 0.134786612878242 
699	 0.135490735135902 
700	 0.135918029344541 
701	 0.13629182958366 
702	 0.136665191824167 
703	 0.136946139323535 
704	 0.137092956121489 
705	 0.137219014814822 
706	 0.137366785055312 
707	 0.137390418122927 
708	 0.137352088613923 
709	 0.137183650549111 
710	 0.136841520798609 
711	 0.136662265221026 
712	 0.136406751577884 
713	 0.136019978249247 
714	 0.135674787661038 
715	 0.13572550987895 
716	 0.135811831810321 
717	 0.135470887156699 
718	 0.135065881700579 
719	 0.133916165464403 
720	 0.132604551960559 
721	 0.131713585085278 
722	 0.131233651851428 
723	 0.130641332054377 
724	 0.129728940232599 
725	 0.128646907300037 
726	 0.127417095247429 
727	 0.12613242350832 
728	 0.124793471588935 
729	 0.123089111137286 
730	 0.121098253182517 
731	 0.119035221590319 
732	 0.117094564406169 
733	 0.115709504516212 
734	 0.114601521574228 
735	 0.113622801068367 
736	 0.112812910411692 
737	 0.112086811015254 
738	 0.111443976990697 
739	 0.110946228840098 
740	 0.110752129818933 
741	 0.110528267729065 
742	 0.110329892726196 
743	 0.110370676168625 
744	 0.110352955256641 
745	 0.110373399242859 
746	 0.110446341013338 
747	 0.110424803838269 
748	 0.11050319311423 
749	 0.110613796699514 
750	 0.110675327471827 
751	 0.110806463592549 
752	 0.110851991080799 
753	 0.11083330382489 
754	 0.110871226804488 
755	 0.111013166782719 
756	 0.111068080475679 
757	 0.111129419224795 
758	 0.111925782721474 
759	 0.113124385432601 
760	 0.114191903929973 
761	 0.114204741319849 
762	 0.114400966034963 
763	 0.114040133842526 
764	 0.113347706096349 
765	 0.112795042915033 
766	 0.112600594062775 
767	 0.112583158839375 
768	 0.112686492976748 
769	 0.112957590764731 
770	 0.113132166566694 
771	 0.113250498589063 
772	 0.113407955089918 
773	 0.113665643812145 
774	 0.113909292892388 
775	 0.11414916710519 
776	 0.11443933068924 
777	 0.114707020635316 
778	 0.115058077834184 
779	 0.115463258867603 
780	 0.115758435536069 
781	 0.116023200648071 
782	 0.116356141310224 
783	 0.116772969484341 
784	 0.117087882585677 
785	 0.117536783449678 
786	 0.118034821723522 
787	 0.118419210728592 
788	 0.118789281252839 
789	 0.11922134940826 
790	 0.119714938670056 
791	 0.12019122953839 
792	 0.120381010712138 
793	 0.120688607722937 
794	 0.121248852103904 
795	 0.121599076831406 
796	 0.121996460529739 
797	 0.122334679859249 
798	 0.122527682111374 
799	 0.122819308204122 
800	 0.123205325998968 
801	 0.123572224977035 
802	 0.123764310122944 
803	 0.123778807835873 
804	 0.123925197230489 
805	 0.124181873745582 
806	 0.124163444285477 
807	 0.124115147356443 
808	 0.124171683308458 
809	 0.124338317409964 
810	 0.124339597065372 
811	 0.124385148346462 
812	 0.124420761735366 
813	 0.124306666515131 
814	 0.12413703252606 
815	 0.123921692123218 
816	 0.123533954264821 
817	 0.1228291411323 
818	 0.122320938602476 
819	 0.121611520976652 
820	 0.120708771649523 
821	 0.120276751661108 
822	 0.118931165787048 
823	 0.117436524628896 
824	 0.116443227158638 
825	 0.114798867552679 
826	 0.113249405390112 
827	 0.111609588066702 
828	 0.109600282269333 
829	 0.107846352717202 
830	 0.106127173705006 
831	 0.104510175330393 
832	 0.103292611517994 
833	 0.102059959368601 
834	 0.101023201669932 
835	 0.100293761541791 
836	 9.97710555910711E-02 
837	 9.91181248518605E-02 
838	 9.84608822748192E-02 
839	 9.79679064631751E-02 
840	 9.76391666290787E-02 
841	 9.73107947153009E-02 
842	 9.69438922156538E-02 
843	 9.65362259602704E-02 
844	 9.59567511292162E-02 
845	 9.56246465215977E-02 
846	 9.54569883340743E-02 
847	 9.50697005506679E-02 
848	 9.48533099512298E-02 
849	 9.45383525997148E-02 
850	 9.40890366435763E-02 
851	 9.38293688285727E-02 
852	 9.33854806793364E-02 
853	 9.29874827070831E-02 
854	 9.28137369403298E-02 
855	 9.26556803402131E-02 
856	 9.23740747891309E-02 
857	 9.20368773187908E-02 
858	 9.17373781253842E-02 
859	 9.13980624071617E-02 
860	 9.12343464192382E-02 
861	 9.11339996705961E-02 
862	 9.08420492691286E-02 
863	 9.03725293512346E-02 
864	 9.00511992655061E-02 
865	 8.98975604770004E-02 
866	 8.96294545783553E-02 
867	 8.91906423462846E-02 
868	 8.88346385318688E-02 
869	 8.85916226005572E-02 
870	 8.81626108312398E-02 
871	 8.77862028325413E-02 
872	 8.75059603397006E-02 
873	 8.72419009865722E-02 
874	 8.67382635282689E-02 
875	 8.62542665047678E-02 
876	 8.58334822744523E-02 
877	 0.085439660428546 
878	 8.50449509696808E-02 
879	 8.44300145879855E-02 
880	 8.37722316190097E-02 
881	 8.33743708669802E-02 
882	 8.30496089081594E-02 
883	 8.27648197655212E-02 
884	 8.23499905137667E-02 
885	 8.16506797952389E-02 
886	 8.15098857280876E-02 
887	 8.11657880107554E-02 
888	 8.05344084252493E-02 
889	 8.04294631608668E-02 
890	 8.00718454685638E-02 
891	 7.95959554336164E-02 
892	 7.93464420495132E-02 
893	 7.97424899613609E-02 
894	 7.95163950085489E-02 
895	 7.90912073502709E-02 
896	 7.90103754421812E-02 
897	 7.84078945192954E-02 
898	 7.80502210090655E-02 
899	 7.78189874166538E-02 
900	 7.73908015757152E-02 
901	 7.69951093863512E-02 
902	 7.61891541222292E-02 
903	 7.52917470392372E-02 
904	 7.48119725650997E-02 
905	 7.46867849026724E-02 
906	 7.47231624770605E-02 
907	 7.46770655666527E-02 
908	 7.43124058154934E-02 
909	 7.37397771101168E-02 
910	 7.32147465978445E-02 
911	 7.25275251693472E-02 
912	 7.12499336678441E-02 
913	 7.11106015920205E-02 
914	 7.08252095683759E-02 
915	 6.96746236636782E-02 
916	 6.81558764050277E-02 
917	 6.71519268351841E-02 
918	 6.60141476727552E-02 
919	 6.48038941271734E-02 
920	 6.47138488721869E-02 
921	 6.41739487063466E-02 
922	 6.29916742706026E-02 
923	 6.16389353401289E-02 
924	 6.14110833391271E-02 
925	 6.01777293623175E-02 
926	 5.84035338593213E-02 
927	 5.73912439219698E-02 
928	 5.82080634839786E-02 
929	 5.95162340589531E-02 
930	 5.99138618515687E-02 
931	 5.78309499319032E-02 
932	 5.25852028764915E-02 
933	 5.52618414555208E-02 
934	 5.92023775023786E-02 
935	 5.35375017034696E-02 
936	 5.54260547667335E-02 
937	 0.054256103888306 
938	 0.052308441818863 
939	 5.32601686492066E-02 
940	 4.93560598184714E-02 
941	 4.73897184902497E-02 
942	 4.77527702628159E-02 
943	 4.73155737308603E-02 
944	 4.36674175270169E-02 
945	 4.48753795853406E-02 
946	 4.89184409573743E-02 
947	 4.83991779660262E-02 
948	 0.045108175319866 
949	 4.50105411730616E-02 
950	 4.58999602018384E-02 
951	 4.23873253086951E-02 
952	 4.32388062523991E-02 
953	 4.44919382615037E-02 
954	 4.32467471824121E-02 
955	 3.96770002787835E-02 
956	 4.29616063425427E-02 
957	 4.19621823145772E-02 
958	 3.79857274700668E-02 
959	 4.02529129361233E-02 
960	 4.22290328508671E-02 
961	 4.21920733926876E-02 
962	 4.18041431542283E-02 
963	 4.35198730753564E-02 
964	 4.11902652200801E-02 
965	 3.92515209979937E-02 
966	 3.92115163326414E-02 
967	 3.96773750543684E-02 
968	 3.97021123901823E-02 
969	 3.98592963295949E-02 
970	 3.96747150985585E-02 
971	 3.82299808626238E-02 
972	 3.98846706405327E-02 
973	 4.15095839494986E-02 
974	 4.06801568828671E-02 
975	 3.74461241991022E-02 
976	 3.76634022817379E-02 
977	 3.85144355553807E-02 
978	 3.87645861546323E-02 
979	 3.94406056823553E-02 
980	 3.96962808279267E-02 
981	 3.98751682729885E-02 
982	 3.97526770833218E-02 
983	 3.86917973433785E-02 
984	 3.68396667654088E-02 
985	 3.67689826924244E-02 
986	 3.80079593940447E-02 
987	 3.78511576943736E-02 
988	 3.67738829945522E-02 
989	 3.77248587068196E-02 
990	 3.96993220977647E-02 
991	 3.91542781609983E-02 
992	 3.78108010712731E-02 
993	 3.69443224020937E-02 
994	 3.64146192324868E-02 
995	 3.55756422833609E-02 
996	 3.73215156901845E-02 
997	 3.84793227877739E-02 
998	 0.037792279935697 
999	 3.61137978863942E-02 
1000	 3.61387553215778E-02 
1001	 3.79864224941234E-02 
1002	 3.84215005520322E-02 
1003	 3.86924695903063E-02 
1004	 3.94979409223395E-02 
1005	 3.96772302031637E-02 
1006	 3.93240631796152E-02 
1007	 3.89612479016381E-02 
1008	 3.86458397696285E-02 
1009	 3.86544734829645E-02 
1010	 3.87560333138362E-02 
1011	 3.90601064957922E-02 
1012	 3.99920534841207E-02 
1013	 4.04211257820591E-02 
1014	 4.06557005774869E-02 
1015	 4.11123522528694E-02 
1016	 0.040893549926934 
1017	 3.97246173891781E-02 
1018	 3.92765533765626E-02 
1019	 0.038526266672883 
1020	 3.83700693950287E-02 
1021	 3.87172242101575E-02 
1022	 3.92209643524633E-02 
1023	 3.97333919477285E-02 
1024	 4.05098992842244E-02 
1025	 4.09745721432259E-02 
1026	 4.11670299729746E-02 
1027	 0.041050510671038 
1028	 4.03491286153719E-02 
1029	 4.02309408298422E-02 
1030	 4.00423845961891E-02 
1031	 4.00270381943309E-02 
1032	 4.04251959557865E-02 
1033	 0.04075262731063 
1034	 4.10268679445968E-02 
1035	 4.12951164342254E-02 
1036	 4.18315255654243E-02 
1037	 4.20627291010296E-02 
1038	 4.19600486961979E-02 
1039	 4.20005353285722E-02 
1040	 4.22417696277461E-02 
1041	 4.24013226498252E-02 
1042	 4.27441521241077E-02 
1043	 4.34865683139818E-02 
1044	 4.37342016507827E-02 
1045	 4.38669511652262E-02 
1046	 0.043848192005445 
1047	 4.32333954262297E-02 
1048	 4.33446089394514E-02 
1049	 4.37333260709059E-02 
1050	 4.40983287490795E-02 
1051	 0.045103685729922 
1052	 4.55529174527879E-02 
1053	 4.54190054611786E-02 
1054	 4.56955561811343E-02 
1055	 4.60719798717995E-02 
1056	 4.63641043549971E-02 
1057	 4.67062785241344E-02 
1058	 4.73498499736115E-02 
1059	 4.76231907462765E-02 
1060	 4.75827490940665E-02 
1061	 0.047787062752716 
1062	 0.04826670799703 
1063	 4.81739178107111E-02 
1064	 4.76325420019931E-02 
1065	 4.75505996552688E-02 
1066	 4.72604693558916E-02 
1067	 4.71712023056372E-02 
1068	 4.76641369485707E-02 
1069	 4.78326283536291E-02 
1070	 4.77656261992686E-02 
1071	 4.77488093664885E-02 
1072	 4.79342111591413E-02 
1073	 4.76070449738452E-02 
1074	 4.77094881093099E-02 
1075	 4.79844792301699E-02 
1076	 4.79142637110438E-02 
1077	 4.78755769068493E-02 
1078	 4.77663370001429E-02 
1079	 4.72679284581361E-02 
1080	 4.70816152719226E-02 
1081	 4.71993604455058E-02 
1082	 4.70135245967448E-02 
1083	 4.66786147437688E-02 
1084	 4.64260536015067E-02 
1085	 0.046003584727966 
1086	 4.57888009606553E-02 
1087	 4.57184413085403E-02 
1088	 4.56846270808677E-02 
1089	 4.59863011479357E-02 
1090	 4.58808224774316E-02 
1091	 4.57095156896333E-02 
1092	 4.54285630729055E-02 
1093	 4.52144394693497E-02 
1094	 4.47344899040574E-02 
1095	 4.45485518269493E-02 
1096	 4.47913480959923E-02 
1097	 4.46083313839925E-02 
1098	 0.044185275426105 
1099	 0.043834475490984 
1100	 0.042959770683242 
1101	 4.27050403901822E-02 
1102	 0.043045607154161 
1103	 4.32498491039278E-02 
1104	 4.40379962329484E-02 
1105	 0.044529589675403 
1106	 4.34893209057842E-02 
1107	 4.19559898502715E-02 
1108	 4.22061533875581E-02 
1109	 4.32140715222599E-02 
1110	 0.043233911068265 
1111	 0.044756415913537 
1112	 0.044977841051537 
1113	 4.18170951647805E-02 
1114	 4.10021430799117E-02 
1115	 0.042747454271631 
1116	 4.38239369267689E-02 
1117	 4.58714217659422E-02 
1118	 4.67745543982977E-02 
1119	 4.52309806631007E-02 
1120	 4.53391598318842E-02 
1121	 4.36588915232864E-02 
1122	 4.84067447507385E-02 
1123	 5.07404113234204E-02 
1124	 4.92780733048456E-02 
1125	 4.83825722454416E-02 
1126	 4.48330753761236E-02 
1127	 4.25569920622029E-02 
1128	 4.74469796522956E-02 
1129	 4.71619545740734E-02 
1130	 4.32211332997943E-02 
1131	 4.23094218003348E-02 
1132	 4.21670350733472E-02 
1133	 4.21003858357375E-02 
1134	 4.39550713445252E-02 
1135	 4.35011834824276E-02 
1136	 4.07520681345845E-02 
1137	 4.03671606653418E-02 
1138	 4.00395595294036E-02 
1139	 4.04829846115329E-02 
1140	 4.26374475980483E-02 
1141	 4.41279412037939E-02 
1142	 4.20405514573606E-02 
1143	 4.04858527872355E-02 
1144	 3.92592080327258E-02 
1145	 0.037901399761514 
1146	 4.02417642924008E-02 
1147	 4.06046682126175E-02 
1148	 3.73996403648345E-02 
1149	 3.64141624720165E-02 
1150	 3.72320085667406E-02 
1151	 3.94171350838273E-02 
1152	 4.01586985259855E-02 
1153	 4.20245100266199E-02 
1154	 4.15623091785111E-02 
1155	 3.95835290112211E-02 
1156	 3.81938463039424E-02 
1157	 3.62864755187531E-02 
1158	 3.61863283764862E-02 
1159	 3.71625342634129E-02 
1160	 3.70780845842232E-02 
1161	 3.69500446497019E-02 
1162	 3.71239996761461E-02 
1163	 3.67606619701538E-02 
1164	 3.61446925413693E-02 
1165	 3.58499400460102E-02 
1166	 3.58694871035163E-02 
1167	 3.58754335616429E-02 
1168	 3.56538504249611E-02 
1169	 3.55215354254779E-02 
1170	 3.53793484257592E-02 
1171	 3.52294419616906E-02 
1172	 3.48797777118109E-02 
1173	 3.47330052060781E-02 
1174	 0.034548701018864 
1175	 3.49363575224748E-02 
1176	 3.51128598930198E-02 
1177	 3.48640871711395E-02 
1178	 3.51393846844514E-02 
1179	 3.49621785572499E-02 
1180	 3.43559211142189E-02 
1181	 3.45290176335268E-02 
1182	 3.45616175795105E-02 
1183	 3.42885538118521E-02 
1184	 3.44693206797532E-02 
1185	 3.45691648873653E-02 
1186	 3.45423602177522E-02 
1187	 3.45563393557839E-02 
1188	 3.44594807789604E-02 
1189	 3.43425847956517E-02 
1190	 3.43592271163884E-02 
1191	 3.45990450900314E-02 
1192	 3.45910983530784E-02 
1193	 3.46034426582372E-02 
1194	 3.45029229830187E-02 
1195	 3.44647794649829E-02 
1196	 3.42791480115664E-02 
1197	 3.41151446640326E-02 
1198	 3.42055410902317E-02 
1199	 3.43435902536205E-02 
1200	 3.41737103813308E-02 
1201	 3.39380243402111E-02 
1202	 3.40081592694422E-02 
1203	 3.40279079347628E-02 
1204	 3.39123205295268E-02 
1205	 3.43709975008818E-02 
1206	 3.47127956424876E-02 
1207	 3.40699475710531E-02 
1208	 3.38090818042883E-02 
1209	 3.40460407456563E-02 
1210	 3.41187004303174E-02 
1211	 3.45036165623737E-02 
1212	 3.46956237434887E-02 
1213	 3.41819565547218E-02 
1214	 3.39866805539627E-02 
1215	 3.36983812028337E-02 
1216	 3.37249334110816E-02 
1217	 3.37059273360867E-02 
1218	 3.40255836142717E-02 
1219	 3.39471938376722E-02 
1220	 3.35398791139648E-02 
1221	 0.033792600323578 
1222	 3.41297331493679E-02 
1223	 3.42144783921818E-02 
1224	 0.034137322224508 
1225	 3.37584296255141E-02 
1226	 3.32803321106868E-02 
1227	 3.31713947981243E-02 
1228	 0.033505384303549 
1229	 3.36038715584244E-02 
1230	 3.33051052251268E-02 
1231	 3.31592570618958E-02 
1232	 3.33795476661648E-02 
1233	 3.36776518743135E-02 
1234	 0.033748546477093 
1235	 3.37466584479835E-02 
1236	 3.33283530667569E-02 
1237	 3.32590475973351E-02 
1238	 3.31932839680384E-02 
1239	 0.033544337605489 
1240	 3.37456873533074E-02 
1241	 3.36782868140294E-02 
1242	 3.36432157952039E-02 
1243	 0.033623218681548 
1244	 3.35399677983654E-02 
1245	 3.34908643445001E-02 
1246	 3.34057757858764E-02 
1247	 3.31850918065167E-02 
1248	 3.32734368048841E-02 
1249	 3.35488092247382E-02 
1250	 3.35431972427119E-02 
1251	 3.35481370709956E-02 
1252	 3.37645084472379E-02 
1253	 3.38398421766557E-02 
1254	 3.37215398655083E-02 
1255	 3.37777030595004E-02 
1256	 3.37958501991239E-02 
1257	 0.033514452881772 
1258	 3.34545269655536E-02 
1259	 3.36718345991984E-02 
1260	 3.39056833801067E-02 
1261	 3.42201557604721E-02 
1262	 3.42900304916388E-02 
1263	 3.43823918508443E-02 
1264	 3.44317563701901E-02 
1265	 3.42334454736216E-02 
1266	 3.41749527375191E-02 
1267	 3.42672700843121E-02 
1268	 3.41426330206853E-02 
1269	 3.41467360136312E-02 
1270	 3.42771964635105E-02 
1271	 3.42655548284385E-02 
1272	 3.44091001541765E-02 
1273	 3.43676337011086E-02 
1274	 3.40881593513088E-02 
1275	 3.40249874597219E-02 
1276	 0.034002205174409 
1277	 3.37113840107975E-02 
1278	 3.36003816910519E-02 
1279	 3.38773999036865E-02 
1280	 3.37956521736217E-02 
1281	 3.37094709873867E-02 
1282	 3.34770324520048E-02 
1283	 3.35236843767539E-02 
1284	 3.37914394315846E-02 
1285	 3.37677127088429E-02 
1286	 3.35558263681184E-02 
1287	 3.37174443655339E-02 
1288	 3.39975666769612E-02 
1289	 3.39482456563663E-02 
1290	 3.40117754845555E-02 
1291	 3.41449158375865E-02 
1292	 3.39588357694205E-02 
1293	 3.36860046857294E-02 
1294	 3.36808757283037E-02 
1295	 3.39914485747431E-02 
1296	 3.40937679121175E-02 
1297	 0.034155762899586 
1298	 3.42869200584968E-02 
1299	 3.39117248275595E-02 
1300	 3.37010549702473E-02 
1301	 3.38362453643417E-02 
1302	 3.40153430345027E-02 
1303	 3.44187067153554E-02 
1304	 0.034707630946574 
1305	 0.03455341122969 
1306	 3.44444967215439E-02 
1307	 3.41472374621323E-02 
1308	 0.034362140667745 
1309	 3.48867071781409E-02 
1310	 3.50477507468116E-02 
1311	 3.52124059439299E-02 
1312	 3.56067236132684E-02 
1313	 3.60215679187085E-02 
1314	 3.59549248535935E-02 
1315	 3.58996825545413E-02 
1316	 3.61188421859077E-02 
1317	 3.59202157946364E-02 
1318	 3.57296070105103E-02 
1319	 3.58103371841268E-02 
1320	 3.61763477991893E-02 
1321	 3.68438407028657E-02 
1322	 3.65075475227527E-02 
1323	 3.64094318573681E-02 
1324	 3.70465463483195E-02 
1325	 3.66895538493157E-02 
1326	 3.66980372954023E-02 
1327	 3.77033007886521E-02 
1328	 3.78591500038019E-02 
1329	 3.73940286173826E-02 
1330	 0.037397696987016 
1331	 3.83675762604333E-02 
1332	 3.85986832037213E-02 
1333	 3.74052767633851E-02 
1334	 3.76914478724126E-02 
1335	 3.84456389758452E-02 
1336	 3.96272905114071E-02 
1337	 0.039571129186298 
1338	 4.00681638674822E-02 
1339	 4.03248834877117E-02 
1340	 3.82003698114192E-02 
1341	 3.81425503522246E-02 
1342	 0.041413720179137 
1343	 4.21511980027955E-02 
1344	 4.03636268783659E-02 
1345	 4.07076415308776E-02 
1346	 4.27040124146354E-02 
1347	 0.043500229953995 
1348	 4.48577659267407E-02 
1349	 4.66281799680505E-02 
1350	 4.58806025821705E-02 
1351	 4.59633050841173E-02 
1352	 4.88846637186899E-02 
1353	 5.61393848914883E-02 
1354	 8.21112613485016E-02 
1355	 0.083527114125947 
1356	 0.057078593615512 
1357	 3.82951696113513E-02 
1358	 3.15158677558744E-02 
1359	-8.70946066219883E-03 
1360	-5.87042084132348E-02 
1361	 0.20393883950996 
1362	 0.33240497894344 
1363	-5.19648386070372E-02 
1364	 0.057986158798019 
1365	 0.393034107877476 
1366	 0.391498646517942 
1367	 0.497201610815891 
1368	 0.687718790142382 
1369	 0.176279055120344 
1370	 0.124482417253019 
1371	 0.666746407060036 
1372	 0.695858507448293 
1373	-1.14819501572417E-02 
1374	 0.111902726500789 
1375	 1.07865264116597 
1376	 1.04028154949556 
1377	 0.650288512113772 
1378	 0.65323211779354 
1379	-0.112430364887848 
1380	-0.474031273726222 
1381	-0.144018482787487 
1382	 0.162972681140165 
1383	 0.360393359751129 
1384	 0.354801575511838 
1385	 0.628782132956055 
1386	 0.863472519551016 
1387	 0.7766241416255 
1388	 0.445477748821155 
1389	 0.188972713277356 
1390	 0.198714466582481 
1391	-5.89232340320733E-02 
1392	 3.37139089035911E-02 
1393	 0.646171480426009 
1394	 1.13203973666624 
1395	 0.663762726257866 
1396	-0.181829309798211 
1397	-0.088972298224815 
1398	 0.197803928209376 
1399	 0.330677948809692 
1400	 0.482190468383598 
1401	 0.425925500990696 
1402	 0.061189706626552 
1403	 4.27069515189021E-02 
1404	 0.435526929451846 
1405	 0.464743384617784 
1406	 0.512622735080655 
1407	 0.323214231907484 
1408	 0.148009461549742 
1409	 0.137312554817503 
1410	 0.104381291052667 
1411	 0.123956516004717 
1412	 0.242842443405878 
1413	 0.202630200850702 
1414	 0.101124014466452 
1415	 0.091406484628518 
1416	 5.37081537657321E-02 
1417	 5.84523275843642E-02 
1418	 0.159394070740247 
1419	 0.157430525518726 
1420	 0.11184078199484 
1421	 8.18031445808136E-02 
1422	 2.82623838457027E-02 
1423	 1.97563800614639E-02 
1424	 2.82190092636426E-02 
1425	 3.73438647122791E-02 
1426	 0.068063798432199 
1427	 0.067694683521359 
1428	 4.40968088796031E-02 
1429	 4.49769709503848E-02 
1430	 4.93803859417633E-02 
1431	 4.73386354358071E-02 
1432	 5.70519030326409E-02 
1433	 6.54767740964823E-02 
1434	 7.12312350557595E-02 
1435	 6.40038069095362E-02 
1436	 4.39911380243172E-02 
1437	 3.90957265303525E-02 
1438	 4.44866129657412E-02 
1439	 4.99675143699012E-02 
1440	 4.68107066200813E-02 
1441	 4.70962849042839E-02 
1442	 4.21785225234599E-02 
1443	 3.25601541561271E-02 
1444	 3.46319121144391E-02 
1445	 3.79044830349162E-02 
1446	 0.032096918444025 
1447	 3.20832088690044E-02 
1448	 4.21647881959206E-02 
1449	 4.51583363075843E-02 
1450	 4.25096676384006E-02 
1451	 4.01464988459865E-02 
1452	 3.60445480109372E-02 
1453	 3.49034555485805E-02 
1454	 3.40485433790321E-02 
1455	 3.57479472282338E-02 
1456	 3.48823573256875E-02 
1457	 3.19077830683883E-02 
1458	 3.16408154568848E-02 
1459	 3.27508211938501E-02 
1460	 3.29011096303322E-02 
1461	 3.31797518456124E-02 
1462	 3.40920098335394E-02 
1463	 3.52369617319298E-02 
1464	 3.53853858549646E-02 
1465	 3.62211530389895E-02 
1466	 3.68140768837752E-02 
1467	 3.64767524845102E-02 
1468	 3.49827601050209E-02 
1469	 3.24966893615686E-02 
1470	 0.031152088612039 
1471	 2.73271457323424E-02 
1472	 2.78083753229698E-02 
1473	 3.39783145385411E-02 
1474	 3.49156430113529E-02 
1475	 3.54668641679544E-02 
1476	 3.44650023030925E-02 
1477	 2.93418533182483E-02 
1478	 2.82197077573703E-02 
1479	 2.85136707088106E-02 
1480	 2.82993081747974E-02 
1481	 0.030327994114659 
1482	 2.97042024477166E-02 
1483	 0.026696940145417 
1484	 2.59175287255391E-02 
1485	 2.50205736683682E-02 
1486	 2.50343794407746E-02 
1487	 2.63709047389947E-02 
1488	 2.73116392345493E-02 
1489	 2.91111983875233E-02 
1490	 2.88922850270802E-02 
1491	 0.027493402160627 
1492	 2.67886788456768E-02 
1493	 2.51781774262974E-02 
1494	 2.47700357926214E-02 
1495	 2.53903135403448E-02 
1496	 2.55235382593571E-02 
1497	 2.60438577862643E-02 
1498	 0.026039628296964 
1499	 2.54491907727741E-02 
1500	 2.52273338849879E-02 
1501	 0.024939608890494 
1502	 2.47046739142129E-02 
1503	 2.45755324199336E-02 
1504	 2.45442319332195E-02 
1505	 2.46367259345596E-02 
1506	 2.47296516511998E-02 
1507	 2.47491652298553E-02 
1508	 2.49084957743877E-02 
1509	 2.50471531780928E-02 
1510	 2.48940800244047E-02 
1511	 2.47807609846891E-02 
1512	 0.024479195628541 
1513	 2.42358173260449E-02 
1514	 2.45919022489375E-02 
1515	 2.40628218347434E-02 
1516	 2.35727622792741E-02 
1517	 2.45822681911803E-02 
1518	 2.49117351079289E-02 
1519	 2.44897419233658E-02 
1520	 0.024502819367277 
1521	 2.45061023926765E-02 
1522	 2.43933305863594E-02 
1523	 2.44932325809283E-02 
1524	 2.46632303107501E-02 
1525	 2.45730850940588E-02 
1526	 0.024487485138382 
1527	 2.43500428554609E-02 
1528	 2.40672088930112E-02 
1529	 2.40818039515317E-02 
1530	 2.40422172750445E-02 
1531	 2.39041499126223E-02 
1532	 2.43846950706828E-02 
1533	 2.49711849984217E-02 
1534	 2.47754324160995E-02 
1535	 2.44394701250534E-02 
1536	 2.48287778304941E-02 
1537	 2.53110564503526E-02 
1538	 2.50607199566757E-02 
1539	 0.024763978511522 
1540	 2.53539930910242E-02 
1541	 2.57471671204489E-02 
1542	 2.53076045205594E-02 
1543	 2.52207493477621E-02 
1544	 2.53073040561808E-02 
1545	 2.51353918016626E-02 
1546	 2.51677821040683E-02 
1547	 2.51845975177243E-02 
1548	 2.52997944136057E-02 
1549	 2.55847694304452E-02 
1550	 0.025380832268552 
1551	 2.51809562708985E-02 
1552	 2.53272837117168E-02 
1553	 2.55055615129432E-02 
1554	 2.55911530432701E-02 
1555	 2.52736760608811E-02 
1556	 2.52554523226019E-02 
1557	 0.025265748777981 
1558	 2.49573045152917E-02 
1559	 2.50853352623276E-02 
1560	 2.50363714243577E-02 
1561	 2.50665814767014E-02 
1562	 2.55900085423646E-02 
1563	 2.57920457362615E-02 
1564	 2.56900761014393E-02 
1565	 2.57119571513304E-02 
1566	 2.58171219687713E-02 
1567	 2.57965439313908E-02 
1568	 2.62356027516822E-02 
1569	 2.67464968693551E-02 
1570	 2.62754389230613E-02 
1571	 2.58551598088038E-02 
1572	 2.58689134857775E-02 
1573	 2.58058410404861E-02 
1574	 2.60829632833116E-02 
1575	 2.65157345006451E-02 
1576	 2.63958737488352E-02 
1577	 2.59463426986649E-02 
1578	 2.61027320819509E-02 
1579	 2.66533510982926E-02 
1580	 2.69481050008381E-02 
1581	 0.027210416793786 
1582	 2.70550922304912E-02 
1583	 2.63622048385094E-02 
1584	 2.64783271768371E-02 
1585	 2.71295399978141E-02 
1586	 0.026988850709583 
1587	 2.68434513960321E-02 
1588	 2.71906200201435E-02 
1589	 2.73251813806063E-02 
1590	 2.74608425751757E-02 
1591	 2.77556425686058E-02 
1592	 2.77991254201629E-02 
1593	 2.75741129909753E-02 
1594	 0.027314272016813 
1595	 2.72923289806473E-02 
1596	 2.74019492292148E-02 
1597	 2.72257089934064E-02 
1598	 2.72589443625508E-02 
1599	 2.76286350201337E-02 
1600	 2.75492273799806E-02 
1601	 2.72674419761927E-02 
1602	 2.73316801491999E-02 
1603	 2.75935156706687E-02 
1604	 0.027545170070704 
1605	 2.72586457520918E-02 
1606	 2.72580637837869E-02 
1607	 2.73091372618362E-02 
1608	 2.73101206540915E-02 
1609	 2.78989424836571E-02 
1610	 2.82538675006668E-02 
1611	 2.72833924670567E-02 
1612	 2.68479355356761E-02 
1613	 0.027364573717243 
1614	 2.72239045121347E-02 
1615	 2.72405266254501E-02 
1616	 2.77335947812066E-02 
1617	 2.74848094645986E-02 
1618	 0.026830402473765 
1619	 2.69079092447864E-02 
1620	 2.73039482707865E-02 
1621	 2.74299275398852E-02 
1622	 2.78103718653948E-02 
1623	 2.80527472840371E-02 
1624	 2.73303177506984E-02 
1625	 2.66030409357935E-02 
1626	 2.66664369284102E-02 
1627	 2.73141583222351E-02 
1628	 2.80314914879471E-02 
1629	 2.78471050915339E-02 
1630	 2.75905042769053E-02 
1631	 2.77716040012503E-02 
1632	 2.75796554048339E-02 
1633	 2.73490359232598E-02 
1634	 2.74323741959446E-02 
1635	 0.027550022494147 
1636	 2.74230136233137E-02 
1637	 0.027585335971668 
1638	 2.78906873518333E-02 
1639	 2.73456885940277E-02 
1640	 2.69135624095465E-02 
1641	 2.73070633307531E-02 
1642	 2.73788711566451E-02 
1643	 2.71623598482723E-02 
1644	 2.74129245734488E-02 
1645	 2.77222480791192E-02 
1646	 0.027527795099815 
1647	 2.74934756508429E-02 
1648	 2.75209372294294E-02 
1649	 2.67031980561191E-02 
1650	 2.67613525970933E-02 
1651	 0.027957703345531 
1652	 0.027675405530942 
1653	 2.68263766707339E-02 
1654	 2.70201365586273E-02 
1655	 2.70987955341734E-02 
1656	 2.71211497423355E-02 
1657	 2.81661106234404E-02 
1658	 0.028258888684295 
1659	 2.71117421932955E-02 
1660	 2.73814587805134E-02 
1661	 2.84828167373433E-02 
1662	 2.83903881686999E-02 
1663	 2.82267595767179E-02 
1664	 2.81840473632935E-02 
1665	 0.027206256749623 
1666	 2.73063769544471E-02 
1667	 2.86965906804093E-02 
1668	 2.82715317018909E-02 
1669	 2.81074855809973E-02 
1670	 2.79509332425473E-02 
1671	 2.78503459468329E-02 
1672	 2.80498768157825E-02 
1673	 2.79186022953048E-02 
1674	 2.83230089607911E-02 
1675	 0.028762400770163 
1676	 2.81689064146071E-02 
1677	 2.78221992323796E-02 
1678	 2.79372817907331E-02 
1679	 2.75791491819193E-02 
1680	 2.75169191448141E-02 
1681	 2.79329742647882E-02 
1682	 2.78599858198753E-02 
1683	 2.80759352511384E-02 
1684	 2.84462993076395E-02 
1685	 2.82814277861634E-02 
1686	 2.81872914113757E-02 
1687	 2.78837982805981E-02 
1688	 2.81289432615072E-02 
1689	 2.92658986258672E-02 
1690	 2.93222377264956E-02 
1691	 0.028629009648595 
1692	 2.88093356565689E-02 
1693	 2.88340033246707E-02 
1694	 2.84636522564151E-02 
1695	 2.86782615545382E-02 
1696	 2.85885231548246E-02 
1697	 2.81607257012642E-02 
1698	 2.80490031467521E-02 
1699	 2.83679697974117E-02 
1700	 2.87348707754115E-02 
1701	 2.81474145872064E-02 
1702	 2.81148143498752E-02 
1703	 2.91491559412317E-02 
1704	 2.89945170828216E-02 
1705	 2.85771799321017E-02 
1706	 2.94884870529082E-02 
1707	 2.94823620791535E-02 
1708	 2.84069884823677E-02 
1709	 2.85426856782627E-02 
1710	 2.88191519635529E-02 
1711	 2.87365752418228E-02 
1712	 2.92221296475335E-02 
1713	 2.91864186729154E-02 
1714	 2.87528154848857E-02 
1715	 0.027624891400742 
1716	 2.86155809589878E-02 
1717	 2.86712121546963E-02 
1718	 2.82538775711576E-02 
1719	 2.83730362965108E-02 
1720	 2.83344178311806E-02 
1721	 2.82720769520577E-02 
1722	 2.88215399817472E-02 
1723	 2.90127984825361E-02 
1724	 2.81715606665936E-02 
1725	 0.027478564788609 
1726	 0.028145909345006 
1727	 2.88178280035083E-02 
1728	 2.86032797175523E-02 
1729	 2.88928271821553E-02 
1730	 2.84844624985315E-02 
1731	 2.74414533704027E-02 
1732	 2.74685169091928E-02 
1733	 2.77039782780371E-02 
1734	 2.87545257069419E-02 
1735	 0.029095391124844 
1736	 2.79506818691753E-02 
1737	 2.82570515357698E-02 
1738	 2.80985171299207E-02 
1739	 2.71592490046032E-02 
1740	 2.80308511218001E-02 
1741	 2.81115489576287E-02 
1742	 2.74476855398257E-02 
1743	 2.83239407662834E-02 
1744	 2.83840194181467E-02 
1745	 2.77999911591977E-02 
1746	 2.74840747845437E-02 
1747	 2.74420795998926E-02 
1748	 0.028529293877865 
1749	 2.89076605540527E-02 
1750	 2.89468002844726E-02 
1751	 2.90040899872897E-02 
1752	 2.88663442366849E-02 
1753	 2.88328332029499E-02 
1754	 2.81799199026821E-02 
1755	 0.027970695820437 
1756	 2.84954955610507E-02 
1757	 2.81028922557821E-02 
1758	 2.84981811769662E-02 
1759	 2.77741664289797E-02 
1760	 2.57575010818753E-02 
1761	 0.026025993505129 
1762	 2.68783969306263E-02 
1763	 2.75973930211665E-02 
1764	 2.94185614141227E-02 
1765	 2.95121146339279E-02 
1766	 2.86669855134086E-02 
1767	 2.89536715473447E-02 
1768	 2.89629010300012E-02 
1769	 2.85515001597256E-02 
1770	 2.85309519912165E-02 
1771	 2.87636612315185E-02 
1772	 2.91690148730035E-02 
1773	 2.99727417880069E-02 
1774	 2.99438096152158E-02 
1775	 2.73978938835294E-02 
1776	 2.71201263449431E-02 
1777	 0.027531324116245 
1778	 2.73799797896954E-02 
1779	 2.99626382449993E-02 
1780	 2.99829864730898E-02 
1781	 2.63532208118394E-02 
1782	 2.61277142319622E-02 
1783	 2.62732525108654E-02 
1784	 2.70554835767506E-02 
1785	 3.12056771377204E-02 
1786	 3.21040435816268E-02 
1787	 3.12314358052523E-02 
1788	 3.21312468199092E-02 
1789	 3.21364411369653E-02 
1790	 3.64282447924991E-02 
1791	 3.97303726697856E-02 
1792	 3.77678687386585E-02 
1793	 3.12936091446294E-02 
1794	 2.70596534880793E-02 
1795	 2.75160197746278E-02 
1796	 3.90286089798955E-02 
1797	 5.23947595956687E-02 
1798	 5.09577701380282E-02 
1799	 4.77727501225346E-02 
1800	 3.40887428022534E-02 
1801	 2.91994807288848E-02 
1802	 4.39398517490938E-02 
1803	 4.93306299322804E-02 
1804	 6.09391900199163E-02 
1805	 6.45525224504555E-02 
1806	 5.04229278990241E-02 
1807	 0.033813550358396 
1808	-2.44626318709429E-02 
1809	-5.05048380000555E-02 
1810	-6.73618612845665E-02 
1811	-4.86162945121166E-02 
1812	 0.148509450228625 
1813	 0.259744584284801 
1814	 0.356743151468386 
1815	 0.392907047119916 
1816	 0.173860948464783 
1817	 0.231356667155263 
1818	 0.356524611973217 
1819	 0.392273086479954 
1820	 0.377116362228582 
1821	-0.112739885063495 
1822	-0.267876255049216 
1823	-0.127969340524417 
1824	 6.33222882748258E-02 
1825	 0.998673285723206 
1826	 1.38740967824904 
1827	 0.733664724154077 
1828	 0.729340351090625 
1829	 0.895407005741746 
1830	 0.908592595618314 
1831	 0.792357989772818 
1832	 1.0816689088017 
1833	 0.274697751691628 
1834	 0.257030193576952 
1835	 0.195995526280261 
1836	-0.191667771443956 
1837	-0.982603330370142 
1838	-1.08791320777928 
1839	-1.00258187082475 
1840	-0.372970640635226 
1841	-22.9290450830232 
1842	 1.05464151575461 
1843	 0.592667317367161 
1844	 1.71186757041958 
1845	 2.48014434207306 
1846	-0.541512448121506 
1847	 1.11125215221709 
1848	-7.27692163323561 
1849	-1.25087476379562 
1850	-0.822351039997307 
1851	-1.13178082528943 
1852	-2.99005130138206 
1853	-1.98492840700547 
1854	-1.22853719704013 
1855	-0.532803180941616 
1856	-0.397358756437566 
1857	 4.62844580332326E-02 
1858	 0.355436790484631 
1859	 2.3877405854449 
1860	-1.32194918391092 
1861	 9.93252551689022 
1862	 2.59027174172413 
1863	 0.33971506919641 
1864	 0.629211836296546 
1865	 0.23539416056728 
1866	-0.748196385555698 
1867	-0.89399856685068 
1868	-6.8914204079522 
1869	 2.20324560449195 
1870	-0.809019405202286 
1871	-0.848240974352522 
1872	-0.999594179938183 
1873	-0.729884116491382 
1874	 2.16625256037292 
1875	-1.14318364600024 
1876	-0.930212523608113 
1877	-1.04410384731834 
1878	-1.01692960245164 
1879	-0.895227744345948 
1880	-0.774098189076078 
1881	-0.741154301033008 
1882	-0.176387004143597 
1883	 8.48230495263153E-02 
1884	-0.195646817516023 
1885	-2.95381813758585E-02 
1886	 0.359955691842902 
1887	 0.272523830175351 
1888	 0.130506653356676 
1889	 0.113203636953202 
1890	-0.205904512942245 
1891	-0.457093956142477 
1892	-0.546069217998552 
1893	-2.2069991758502 
1894	-0.282880807334475 
1895	-3.75955917930647E-02 
1896	 1.09801962807593E-02 
1897	-0.318112075830134 
1898	-3.19895299542714 
1899	-21.4896775004445 
1900	-9.34958173716234 
1901	-1.26640108250688 
1902	-0.749009820997882 
1903	-4.35894739402218E-02 
1904	 0.118644786761066 
1905	 0.32102603147311 
1906	-6.98109695249196E-03 
1907	 0.096680791456309 
1908	 3.32486962649028 
1909	-21.3370705949595 
1910	 3.96706496467816 
1911	 0.610314110333836 
1912	 1.22044532952411 
1913	 1.86614998693817 
1914	 2.8374257624993 
1915	 3.15831482854622 
1916	-55.5858717580824 
1917	 0.757439412879899 
1918	-1.70809667679774 
1919	-5.64673238000197 
1920	 22.6096717842642 
1921	 1.08852031429036 
1922	 0.303249273527673 
1923	 1.57783952622675 
1924	 1.41815420159615 
1925	 0.724622336976772 
1926	 0.636428833763175 
1927	 0.947220482506237 
1928	 0.106490961716613 
1929	 2.0611977362965 
1930	 0.370317411267906 
1931	 0.794152103443815 
1932	 1.17872422486457 
1933	 1.58786349530092 
1934	 1.01242202782763 
1935	 0.68935304227662 
1936	 0.382457507885706 
1937	-2.09245663730347E-03 
1938	 2.36762406426175E-02 
1939	 1.74742043810634E-02 
1940	 4.28777872353131E-02 
1941	-0.104670242724429 
1942	-2.09497577277913E-02 
1943	 0.184295691931974 
1944	 0.248947111272412 
1945	 0.248135117538576 
1946	 0.209969353264513 
1947	 0.110686168653633 
1948	 7.50657920008123E-02 
1949	 5.56453469481744E-02 
1950	 4.55369151522585E-02 
1951	 0.024800714268149 
1952	 1.80034687479198E-02 
1953	-1.34440326752214E-02 
1954	 1.16944317583901E-02 
1955	 6.21072424792835E-02 
1956	 7.09365720542296E-02 
1957	 5.91097407577245E-02 
1958	 4.37599777737648E-02 
1959	 7.46293000870014E-03 
1960	-7.43532895598156E-04 
1961	 6.85158571028782E-03 
1962	 9.44366639578277E-03 
1963	 0.03124606463979 
1964	 3.54645455426951E-02 
1965	 2.40615271780306E-02 
1966	 0.019921936933378 
1967	 1.47707333086918E-02 
1968	 4.52689763688541E-03 
1969	 2.9591180808493E-03 
1970	 1.00303144504539E-02 
1971	 1.70282391526623E-02 
1972	 1.92676067685598E-02 
1973	 1.81650985112422E-02 
1974	 1.81326275917202E-02 
1975	 1.46000623392594E-02 
1976	 1.45019941152108E-02 
1977	 1.67037223155629E-02 
1978	 1.65093591517942E-02 
1979	 1.68780592092165E-02 
1980	 1.79002900637928E-02 
1981	 1.55673850737197E-02 
1982	 1.49058405725185E-02 
1983	 1.64250681779493E-02 
1984	 1.55486104105203E-02 
1985	 1.65851993023828E-02 
1986	 1.61049416800099E-02 
1987	 1.53454113908289E-02 
1988	 0.016544924076479 
1989	 0.016090025176772 
1990	 1.75349759052559E-02 
1991	 2.08050847694025E-02 
1992	 2.05161151690244E-02 
1993	 2.14373049800682E-02 
1994	 2.30782904432951E-02 
1995	 2.69697222821966E-02 
1996	 2.42648069056685E-02 
1997	 1.88594383672683E-02 
1998	 1.53265490301083E-02 
1999	 1.40938370051716E-02 
2000	 1.54418687315731E-02 
2001	 2.08511857772522E-02 
2002	 2.54291245003238E-02 
2003	 1.91453262327357E-02 
2004	 1.26800565772136E-02 
2005	 6.25534087093116E-03 
2006	 8.92475724835758E-03 
2007	 1.82752796513492E-02 
2008	 1.27714114305129E-02 
2009	 1.16335776076027E-02 
2010	 1.41963961733009E-02 
2011	 1.60031143128164E-02 
2012	 1.35001517639206E-02 
2013	 0.018846363230755 
2014	 2.24848399848379E-02 
2015	 2.15380736175254E-02 
2016	 2.32269965448955E-02 
2017	 2.10275417521252E-02 
2018	 1.95745940368731E-02 
2019	 2.12670200145456E-02 
2020	 1.60594668320523E-02 
2021	 1.36305883621013E-02 
2022	 1.66954959309407E-02 
2023	 1.86130468155153E-02 
2024	 1.95216325789045E-02 
2025	 2.32407592262158E-02 
2026	 2.23208096425561E-02 
2027	 1.86930818197641E-02 
2028	 1.48236859685843E-02 
2029	 1.37450232421413E-02 
2030	 1.10775094249398E-02 
2031	 9.85903297510642E-03 
2032	 1.23433211214396E-02 
2033	 1.21685812877349E-02 
2034	 1.42610043659478E-02 
2035	 1.82448546560296E-02 
2036	 1.83863949438846E-02 
2037	 1.70528795820205E-02 
2038	 1.71461372350607E-02 
2039	 1.75176120423086E-02 
2040	 1.70938542674763E-02 
2041	 1.74127265737831E-02 
2042	 0.019783624806363 
2043	 2.02429128174472E-02 
2044	 1.88923607983515E-02 
2045	 1.95418263253626E-02 
2046	 2.12313071264074E-02 
2047	 2.29617749486088E-02 
2048	 2.30330142755963E-02 
2049	 2.33718914617706E-02 
2050	 2.46174081902461E-02 
2051	 2.43416369335412E-02 
2052	 0.024928916858828 
2053	 2.51475256131408E-02 
2054	 0.021657144824647 
2055	 1.69701988303633E-02 
2056	 1.52338816052191E-02 
2057	 1.54151201744936E-02 
2058	 1.55686249399244E-02 
2059	 1.70268091259799E-02 
2060	 1.85605511012935E-02 
2061	 2.05286560465313E-02 
2062	 2.28246502196696E-02 
2063	 0.022231906968573 
2064	 2.26205321671294E-02 
2065	 2.08592195301773E-02 
2066	 1.79549839869299E-02 
2067	 1.91478027608472E-02 
2068	 0.019445904407763 
2069	 1.89220259604116E-02 
2070	 1.73745178413657E-02 
2071	 1.44956629258026E-02 
2072	 1.30847827449192E-02 
2073	 0.013490142449607 
2074	 1.65916740512338E-02 
2075	 1.75687336649025E-02 
2076	 1.87073801832838E-02 
2077	 1.99717337404094E-02 
2078	 2.01777199452298E-02 
2079	 2.07280541045886E-02 
2080	 2.26091849398922E-02 
2081	 2.26951104461105E-02 
2082	 2.12321650297325E-02 
2083	 2.24685083151665E-02 
2084	 2.28023804854394E-02 
2085	 2.32541781084126E-02 
2086	 2.42624518584071E-02 
2087	 2.38260437961315E-02 
2088	 2.33518289087189E-02 
2089	 2.38445189858891E-02 
2090	 2.31704027500883E-02 
2091	 2.05810721160419E-02 
2092	 2.05954813613062E-02 
2093	 0.02166564507289 
2094	 2.17206174828656E-02 
2095	 2.34771721675296E-02 
2096	 2.40935041910973E-02 
2097	 2.19103607453297E-02 
2098	 0.021610490867345 
2099	 2.24834945085083E-02 
2100	 2.36445720064336E-02 
2101	 2.36478482232629E-02 
2102	 2.36788269234285E-02 
2103	 2.23236862721167E-02 
2104	 2.13769273817527E-02 
2105	 2.07303040286083E-02 
2106	 2.11556263881179E-02 
2107	 0.022584318007991 
2108	 2.29298459860488E-02 
2109	 0.022960162639421 
2110	 2.19400563019188E-02 
2111	 2.08562020287703E-02 
2112	 0.020900208463756 
2113	 2.13752207440601E-02 
2114	 2.38158863270686E-02 
2115	 2.44990829503486E-02 
2116	 2.46952973089855E-02 
2117	 2.44171972991176E-02 
2118	 0.022381154441716 
2119	 2.22732271776992E-02 
2120	 2.34979886298172E-02 
2121	 0.023417776387675 
2122	 2.25437085458577E-02 
2123	 2.27089184006954E-02 
2124	 2.15717759195538E-02 
2125	 2.19680486697693E-02 
2126	 2.49626412717936E-02 
2127	 2.62367352111984E-02 
2128	 2.61839179447635E-02 
2129	 2.69309444093793E-02 
2130	 2.67582182769456E-02 
2131	 2.63804428188397E-02 
2132	 2.58712533207215E-02 
2133	 2.44775835041045E-02 
2134	 2.37360590679494E-02 
2135	 2.23777938787376E-02 
2136	 2.22457353246634E-02 
2137	 2.34710257931337E-02 
2138	 0.023747582835699 
2139	 2.39852841982517E-02 
2140	 2.42175163383282E-02 
2141	 2.45724615536935E-02 
2142	 2.44960345197155E-02 
2143	 2.38645144776365E-02 
2144	 2.39367499392569E-02 
2145	 2.47283166819503E-02 
2146	 2.40828783989188E-02 
2147	 2.32314885096118E-02 
2148	 2.37581423994339E-02 
2149	 2.32523113924762E-02 
2150	 0.022361658179531 
2151	 2.42671116483945E-02 
2152	 2.42310258543491E-02 
2153	 2.21541228520059E-02 
2154	 2.18215971561767E-02 
2155	 2.14884205895226E-02 
2156	 2.14121711428239E-02 
2157	 2.21415632828011E-02 
2158	 2.61281003371375E-02 
2159	 2.54197866996699E-02 
2160	 2.14303138733934E-02 
2161	 2.05182882213973E-02 
2162	 1.86072640281823E-02 
2163	 1.85901703312277E-02 
2164	 2.15254296468913E-02 
2165	 2.26165412328446E-02 
2166	 2.42496582806694E-02 
2167	 2.37752094629489E-02 
2168	 2.09674032538066E-02 
2169	 2.10937453327104E-02 
2170	 2.23448842999741E-02 
2171	 2.04793555518578E-02 
2172	 2.16082014940686E-02 
2173	 2.34166262095851E-02 
2174	 2.32736814434214E-02 
2175	 0.023176597057508 
2176	 2.26510885944085E-02 
2177	 2.03362895920103E-02 
2178	 1.81472344704612E-02 
2179	 1.67094526727067E-02 
2180	 1.77018502603246E-02 
2181	 2.10082162708105E-02 
2182	 2.21030902140129E-02 
2183	 2.42901058269518E-02 
2184	 0.026294969987096 
2185	 2.45957800408906E-02 
2186	 2.48692052151403E-02 
2187	 2.62204679782905E-02 
2188	 2.63370114359765E-02 
2189	 2.57923182714421E-02 
2190	 2.65773036194093E-02 
2191	 2.80014356583911E-02 
2192	 2.82627782110216E-02 
2193	 2.91184639408861E-02 
2194	 0.028363778024725 
2195	 2.55880596707161E-02 
2196	 2.28480065915901E-02 
2197	 1.78787536795299E-02 
2198	 1.70155268338562E-02 
2199	 1.89070139824196E-02 
2200	 1.83849902844594E-02 
2201	 2.02502232852497E-02 
2202	 0.020764648939976 
2203	 2.05846070543284E-02 
2204	 0.021548691073891 
2205	 2.20231202412397E-02 
2206	 2.39162025585116E-02 
2207	 2.48271380275663E-02 
2208	 2.36620067152709E-02 
2209	 0.023109331819641 
2210	 2.50544482705985E-02 
2211	 2.35564156292033E-02 
2212	 2.24289514279034E-02 
2213	 2.44780766627644E-02 
2214	 2.40027578008157E-02 
2215	 0.026391972780909 
2216	 2.72209961719794E-02 
2217	 2.48063545533113E-02 
2218	 0.017786008022816 
2219	 1.66818589178188E-02 
2220	 1.51698274308643E-02 
2221	 1.65719733394131E-02 
2222	 0.024828933910484 
2223	 2.70125374077064E-02 
2224	 2.60662013194555E-02 
2225	 2.52011776493007E-02 
2226	 2.20774139725319E-02 
2227	 2.08789499198917E-02 
2228	 2.10687527177054E-02 
2229	 2.06924256194719E-02 
2230	 2.04489721067604E-02 
2231	 2.02283969632846E-02 
2232	 1.87928882862829E-02 
2233	 1.83376573031091E-02 
2234	 1.89532341944463E-02 
2235	 1.93827370008671E-02 
2236	 1.84856593601964E-02 
2237	 1.85567104420883E-02 
2238	 1.88869304301889E-02 
2239	 1.82802841690064E-02 
2240	 0.021710896144692 
2241	 2.39820026422507E-02 
2242	 2.43990799515775E-02 
2243	 2.61905690844646E-02 
2244	 2.20144459622921E-02 
2245	 1.87462335107887E-02 
2246	 0.01864415014564 
2247	 1.63521316118091E-02 
2248	 1.71341901173205E-02 
2249	 2.00429309627124E-02 
2250	 2.06874125308447E-02 
2251	 0.022914661738405 
2252	 2.68655896233466E-02 
2253	 2.78310521217871E-02 
2254	 2.61740450000981E-02 
2255	 2.28292245888382E-02 
2256	 1.77733505670603E-02 
2257	 1.76151716135603E-02 
2258	 2.12415189148348E-02 
2259	 2.06783885660861E-02 
2260	 2.11264710426346E-02 
2261	 2.24113271336457E-02 
2262	 2.29446149850677E-02 
2263	 2.30324544336182E-02 
2264	 2.25665060113857E-02 
2265	 2.08919287751146E-02 
2266	 2.16148856250091E-02 
2267	 2.40668974466317E-02 
2268	 2.37403686693747E-02 
2269	 2.41206595410146E-02 
2270	 2.35637064276335E-02 
2271	 1.70374410057547E-02 
2272	 1.53948456759771E-02 
2273	 0.018930552376789 
2274	 1.99380140769123E-02 
2275	 2.15791642010227E-02 
2276	 2.09528358892544E-02 
2277	 1.83730706258942E-02 
2278	 1.73854825525373E-02 
2279	 1.41451203352843E-02 
2280	 1.42303829949141E-02 
2281	 1.82367305347779E-02 
2282	 1.94595856093568E-02 
2283	 1.97843070773364E-02 
2284	 2.12494780568394E-02 
2285	 1.98646054336322E-02 
2286	 1.82169536871888E-02 
2287	 2.01706986088763E-02 
2288	 2.25355704730456E-02 
2289	 2.55580941043145E-02 
2290	 2.71589740383649E-02 
2291	 2.66820349551747E-02 
2292	 2.85458383974913E-02 
2293	 2.91635762801099E-02 
2294	 3.02607250374317E-02 
2295	 3.49284107172068E-02 
2296	 3.35510403871108E-02 
2297	 3.09408239900439E-02 
2298	 2.96030389503115E-02 
2299	 2.11193575476536E-02 
2300	 1.59119163929406E-02 
2301	 1.59293643744243E-02 
2302	 1.42522598777575E-02 
2303	 1.03005040922221E-02 
2304	 9.0990113807481E-03 
2305	 1.30845668429905E-02 
2306	 1.51824646644005E-02 
2307	 1.79150529991519E-02 
2308	 1.81684359336776E-02 
2309	 1.15515418058138E-02 
2310	 1.13523180706831E-02 
2311	 1.76475009701855E-02 
2312	 1.95686717693105E-02 
2313	 2.31977587686867E-02 
2314	 2.70731800659954E-02 
2315	 1.79200775195571E-02 
2316	 1.31135076859212E-02 
2317	 1.93387471245819E-02 
2318	 1.87219531825402E-02 
2319	 2.14326735544068E-02 
2320	 2.57271619216686E-02 
2321	 2.34541314768459E-02 
2322	 2.12854012213153E-02 
2323	 2.74680230638071E-02 
2324	 3.69435341696433E-02 
2325	 3.83973888434717E-02 
2326	 4.16438350148617E-02 
2327	 4.69452107678421E-02 
2328	 4.49544719380423E-02 
2329	 0.03502076185196 
2330	 1.92569827004288E-02 
2331	-7.44123326380945E-04 
2332	-0.011644872917085 
2333	-9.1397575848826E-03 
2334	-2.13895349943067E-03 
2335	 9.07220875725329E-03 
2336	 8.68103101124048E-03 
2337	-4.49168510056706E-04 
2338	-1.51357597842585E-03 
2339	-8.67069284342293E-03 
2340	-1.10324056755823E-02 
2341	-2.36417843209032E-04 
2342	 2.3569465679043E-03 
2343	 7.82420878012284E-03 
2344	 2.10669513247477E-02 
2345	 1.90678998300309E-02 
2346	 1.07346883326006E-02 
2347	 1.59005480217384E-02 
2348	 6.66018961368907E-03 
2349	-1.79694762309977E-03 
2350	 1.38710948434966E-02 
2351	 1.34371605305596E-02 
2352	 1.70807880055574E-02 
2353	 3.30666586945362E-02 
2354	 3.53739145144833E-02 
2355	 3.41821929888488E-02 
2356	 2.44114461300323E-02 
2357	 8.85316236591123E-03 
2358	-3.15789105812033E-03 
2359	-5.60219111259075E-03 
2360	-1.34362063260314E-02 
2361	-1.96508222369496E-02 
2362	-1.25346777743991E-02 
2363	-2.13341719963977E-02 
2364	-0.023921969868515 
2365	-1.12956513715219E-02 
2366	-0.020351112635507 
2367	-3.63542253048796E-02 
2368	-0.039366191458848 
2369	-3.89607341124788E-02 
2370	-2.03915775406713E-02 
2371	-5.24403395448391E-06 
2372	-1.52462693050712E-03 
2373	 9.24960278933796E-03 
2374	-4.03381258558375E-03 
2375	-2.77357848540617E-02 
2376	-7.80546394054577E-03 
2377	-4.90708890060226E-03 
2378	-1.97622325313957E-02 
2379	-1.75206889324669E-02 
2380	 4.32800065263307E-03 
2381	 3.44897845655026E-02 
2382	 5.79021390689242E-02 
2383	 5.42374618526725E-02 
2384	 1.32479780211803E-02 
2385	-0.062419309954994 
2386	-0.110962273903686 
2387	-9.00588971678599E-02 
2388	-5.32240596273822E-02 
2389	 0.024775782891747 
2390	 8.48469045265387E-02 
2391	 3.54753901215267E-02 
2392	 2.91764608108039E-02 
2393	 2.18282254679139E-02 
2394	-8.60447644314321E-03 
2395	 8.78153033752596E-03 
2396	 2.73035487068434E-03 
2397	-4.01471198841346E-02 
2398	-6.90935879064752E-02 
2399	-5.91843861459982E-02 
2400	-6.89835158032141E-02 
2401	-0.124203985908541 
2402	-0.119413248661573 
2403	-7.73268438541363E-02 
2404	-8.44414905808786E-02 
2405	-8.53045156491532E-02 
2406	-3.15750060550788E-02 
2407	-1.14971991417492E-02 
2408	-6.40503975171529E-02 
2409	-5.10709868376613E-02 
2410	-5.49784401272969E-02 
2411	-0.131503731456981 
2412	-0.154289727763272 
2413	-0.142075481108752 
2414	-0.113946962772923 
2415	-0.181763686253733 
2416	-0.277550187458345 
2417	-0.352509695581731 
2418	-0.392066980330937 
2419	-0.343363611096246 
2420	-0.241783645055712 
2421	-4.50878140457967E-02 
2422	 8.77850806089774E-03 
2423	-0.112707432205752 
2424	-0.20480959610981 
2425	-0.454842455249921 
2426	-0.690605000029717 
2427	-0.540173618652503 
2428	-0.367300647618388 
2429	-0.150423427786668 
2430	-2.68092255250708E-02 
2431	-0.131300960079257 
2432	-0.241459316041477 
2433	-0.382714611988229 
2434	-0.531309872910083 
2435	-0.347805740711922 
2436	-0.116317780620511 
2437	-7.53464152285799E-02 
2438	-0.163286845740429 
2439	-0.320249744640569 
2440	-0.42642594540767 
2441	-0.355569861033019 
2442	-0.135246227274206 
2443	 7.99486410504013E-02 
2444	 9.53509325268126E-02 
2445	 1.21826466546229E-02 
2446	-9.56878743839336E-03 
2447	-0.173853319732472 
2448	-0.270367894098694 
2449	-0.191306693813663 
2450	-0.131659583106984 
2451	-2.38441059567622 
2452	 1.85232720200486 
2453	 0.279350244923249 
2454	-0.481426764582925 
2455	-0.103046118923007 
2456	 0.235549169386142 
2457	 0.170538585947464 
2458	 0.385636974238369 
2459	 0.209073048451446 
2460	-0.22960147605056 
2461	-0.636300609253855 
2462	-0.87774596904709 
2463	-0.664537989424404 
2464	-0.355491874415242 
2465	 0.653596095689416 
2466	 0.184173669810385 
2467	-0.217948598788326 
2468	-0.221361056221367 
2469	-6.04004786315507E-02 
2470	 0.63105626866432 
2471	-3.63989668940732 
2472	-0.833849208235278 
2473	 0.352390148980614 
2474	 0.371810180541031 
2475	-1.17871880037199 
2476	-7.5015649318706 
2477	-0.236271525889614 
2478	 0.190845045147508 
2479	 1.44633765672137 
2480	 5.54093869852318 
2481	 303.782957172415 
2482	-10.9193751723354 
2483	 2.02600875656349 
2484	 0.582492080537827 
2485	 1.29589903573875 
2486	 0.912845282883322 
2487	 1.18737975554881 
2488	-0.172792772687752 
2489	-7.94804141497539 
2490	-2.18595275925368 
2491	-2.8775714215849 
2492	-0.455384318309689 
2493	 0.899606027457354 
2494	 1.14404018365909 
2495	 0.334545498940668 
2496	-4.87666432234875E-03 
2497	 6.17246843262508E-02 
2498	 0.185516470688347 
2499	-0.427067169559558 
2500	-1.1128129478089 
