Wavelength	rt0704dirt00008.asd
350	 0.117514919438607 
351	 0.117596068420551 
352	 0.11780372286969 
353	 0.118231463270194 
354	 0.118702739666163 
355	 0.118644937293821 
356	 0.118507656229635 
357	 0.118739007025929 
358	 0.119461350158438 
359	 0.119492716166598 
360	 0.119789260757709 
361	 0.12047854181386 
362	 0.121035546336601 
363	 0.120948183912245 
364	 0.120855139120891 
365	 0.121121556050494 
366	 0.121478497736771 
367	 0.12183272440713 
368	 0.122171432657241 
369	 0.12248462278588 
370	 0.122604963146493 
371	 0.123175508533208 
372	 0.123911524939536 
373	 0.124083352716907 
374	 0.124373474393776 
375	 0.124505484742351 
376	 0.124681670958939 
377	 0.125841850676684 
378	 0.126566290123307 
379	 0.126784012913794 
380	 0.126886950526687 
381	 0.127582712775424 
382	 0.127949017669934 
383	 0.128086121709858 
384	 0.128533546523473 
385	 0.128984847609898 
386	 0.129671818583162 
387	 0.13042080712099 
388	 0.130620980042766 
389	 0.131041625292239 
390	 0.131616055725908 
391	 0.132069506586872 
392	 0.131982236380586 
393	 0.132427668815826 
394	 0.133089621433648 
395	 0.133296949400411 
396	 0.133561279507588 
397	 0.133827252620416 
398	 0.134113424551914 
399	 0.134510179392148 
400	 0.134594707531738 
401	 0.13475131635091 
402	 0.135214378182908 
403	 0.135649900133733 
404	 0.135915279088825 
405	 0.136000733789459 
406	 0.136008900638252 
407	 0.136251017086516 
408	 0.136507144008111 
409	 0.13671408189774 
410	 0.136988351966674 
411	 0.137165255498018 
412	 0.137243821362782 
413	 0.137305395209683 
414	 0.137551067897346 
415	 0.137817405982332 
416	 0.138029936590813 
417	 0.138182121959343 
418	 0.138409286272789 
419	 0.13881367595083 
420	 0.139291931708296 
421	 0.139543316279808 
422	 0.139807569033331 
423	 0.140152191909243 
424	 0.140600048738395 
425	 0.141189318639728 
426	 0.141598693021515 
427	 0.141942858844156 
428	 0.142513591859313 
429	 0.143191163101898 
430	 0.143649354081003 
431	 0.143969095736252 
432	 0.144713476214478 
433	 0.145341908549881 
434	 0.145868774723491 
435	 0.146415910713309 
436	 0.147054302982075 
437	 0.147525833571271 
438	 0.147985040885758 
439	 0.148722190889026 
440	 0.149080852175094 
441	 0.149424436315939 
442	 0.149966668702742 
443	 0.150541077462006 
444	 0.151011724478405 
445	 0.151412779102768 
446	 0.151816277194742 
447	 0.152216604200402 
448	 0.152578028234804 
449	 0.152860081608195 
450	 0.153035695488732 
451	 0.153240395933061 
452	 0.153477377765925 
453	 0.153718510294835 
454	 0.153924748795514 
455	 0.154018447100576 
456	 0.15407763192861 
457	 0.154207912963769 
458	 0.15432327154833 
459	 0.154323317540894 
460	 0.154272084250399 
461	 0.154380724210175 
462	 0.154290026618061 
463	 0.15427303707408 
464	 0.154501002924702 
465	 0.15451841737409 
466	 0.15453616905833 
467	 0.154601555240942 
468	 0.154677783928635 
469	 0.154695319540039 
470	 0.154697128621335 
471	 0.154756883333222 
472	 0.154973236762433 
473	 0.154983546609951 
474	 0.155027360983372 
475	 0.155321046836225 
476	 0.155386976788398 
477	 0.155577117103103 
478	 0.155846493788458 
479	 0.155923742717713 
480	 0.156308587092249 
481	 0.156601796613891 
482	 0.156648009998148 
483	 0.157031940695317 
484	 0.157333534694149 
485	 0.157642225634209 
486	 0.158123504239809 
487	 0.158322385945111 
488	 0.158621234499485 
489	 0.159105545532098 
490	 0.159541850606969 
491	 0.160101671784592 
492	 0.160577421071949 
493	 0.160882573268972 
494	 0.161459969976924 
495	 0.16203289956521 
496	 0.162524849897435 
497	 0.162984563904036 
498	 0.163602666131348 
499	 0.164240770717543 
500	 0.164788406463319 
501	 0.165233327188096 
502	 0.165662739305088 
503	 0.166198415828099 
504	 0.166890186823202 
505	 0.167476334205384 
506	 0.168160949682573 
507	 0.168950822844812 
508	 0.169693118614122 
509	 0.170449639253323 
510	 0.171166930035527 
511	 0.171845927353095 
512	 0.172666316290488 
513	 0.173414782407081 
514	 0.174163024428925 
515	 0.175052522467818 
516	 0.175817434989992 
517	 0.17656577888006 
518	 0.177359897896909 
519	 0.178164973059168 
520	 0.178988456424062 
521	 0.179830061530834 
522	 0.180678480118095 
523	 0.181452503345684 
524	 0.182342025302612 
525	 0.18331055618216 
526	 0.184179024600577 
527	 0.185093972727811 
528	 0.18610716915527 
529	 0.187189514697842 
530	 0.188189295731466 
531	 0.189204466966793 
532	 0.19027609159265 
533	 0.191410779675413 
534	 0.192553395561605 
535	 0.19372884882325 
536	 0.194898048620008 
537	 0.195941225895907 
538	 0.197099736777104 
539	 0.198271475514984 
540	 0.199358772394712 
541	 0.200570296095496 
542	 0.201792755335178 
543	 0.202968884457029 
544	 0.204096882032726 
545	 0.205295987837302 
546	 0.206507214179326 
547	 0.207682601945115 
548	 0.2088519402793 
549	 0.209953994276324 
550	 0.21105222743134 
551	 0.212215199677165 
552	 0.213267113540089 
553	 0.214210369054193 
554	 0.215124941504063 
555	 0.216152977645213 
556	 0.217075211119448 
557	 0.217961592738592 
558	 0.218907757314438 
559	 0.219893538007607 
560	 0.220838255504689 
561	 0.221754117373813 
562	 0.22270723942677 
563	 0.223598146824773 
564	 0.224364618091387 
565	 0.225013245749627 
566	 0.225674905728012 
567	 0.226241719430626 
568	 0.226770686753794 
569	 0.227351980063203 
570	 0.227912431952208 
571	 0.228427599962721 
572	 0.228899432206934 
573	 0.22935247897118 
574	 0.229760585120381 
575	 0.230166733166972 
576	 0.230627686368052 
577	 0.231216368135051 
578	 0.231734439198106 
579	 0.232159038074697 
580	 0.232575470189401 
581	 0.232917402556889 
582	 0.233285629395277 
583	 0.23368321602122 
584	 0.233910504543306 
585	 0.233889596389818 
586	 0.233633056738214 
587	 0.233245504699953 
588	 0.233047136601257 
589	 0.233150884441429 
590	 0.233519016001676 
591	 0.233988087332807 
592	 0.234419246756341 
593	 0.2348643839677 
594	 0.235383627429017 
595	 0.235950962614649 
596	 0.236573749772631 
597	 0.237182885923997 
598	 0.237676660943029 
599	 0.238111196800972 
600	 0.23850953541461 
601	 0.238815373895965 
602	 0.238834798524979 
603	 0.238856296708203 
604	 0.238843503948998 
605	 0.238687453851232 
606	 0.238488156392449 
607	 0.238299874347531 
608	 0.238082196537166 
609	 0.237710789021147 
610	 0.237397999231525 
611	 0.237110931653309 
612	 0.236797735870291 
613	 0.236524589333486 
614	 0.236201269719552 
615	 0.235909544567544 
616	 0.235800083749004 
617	 0.235677830640021 
618	 0.235496646784135 
619	 0.235280661326371 
620	 0.235137393837852 
621	 0.235048102650097 
622	 0.23499554212569 
623	 0.234933767290103 
624	 0.234723774989693 
625	 0.234370603073451 
626	 0.234035221846155 
627	 0.234001986550649 
628	 0.233914477906127 
629	 0.233956557565174 
630	 0.234193426213421 
631	 0.234113226006707 
632	 0.234032176022669 
633	 0.234094489940024 
634	 0.234294662035776 
635	 0.234135671671279 
636	 0.234026869503847 
637	 0.234112099274486 
638	 0.234032842100347 
639	 0.234035242563971 
640	 0.234062750181914 
641	 0.233993057400786 
642	 0.233829260202431 
643	 0.233443851563453 
644	 0.232824717933733 
645	 0.232055033798375 
646	 0.231066351735525 
647	 0.230310867368165 
648	 0.23002520404345 
649	 0.229728759248932 
650	 0.22904772288867 
651	 0.228325052357008 
652	 0.228063957952151 
653	 0.227454255437428 
654	 0.226810426918341 
655	 0.22623336152166 
656	 0.225503922766731 
657	 0.224771969678139 
658	 0.224148029144058 
659	 0.223620354466836 
660	 0.22294408964781 
661	 0.222149933243145 
662	 0.221236919743737 
663	 0.220231826823497 
664	 0.219399056711278 
665	 0.218623909297527 
666	 0.217838473168587 
667	 0.217183940302935 
668	 0.216426327036664 
669	 0.215818739070502 
670	 0.215644294093013 
671	 0.215482235301003 
672	 0.215281820410194 
673	 0.215134710333857 
674	 0.215239747097548 
675	 0.215479347519891 
676	 0.215771086487822 
677	 0.216121903205284 
678	 0.216730371151984 
679	 0.217610230798788 
680	 0.218660743511358 
681	 0.219777477791627 
682	 0.221267321852835 
683	 0.223059207560092 
684	 0.224910049122574 
685	 0.226559968715772 
686	 0.228898050476228 
687	 0.231920870769083 
688	 0.235058787591038 
689	 0.238269857042551 
690	 0.241577436258315 
691	 0.244947468525332 
692	 0.248390641407321 
693	 0.252687480191642 
694	 0.257538816129718 
695	 0.262281511377832 
696	 0.266748940653942 
697	 0.270888205170259 
698	 0.275101087809278 
699	 0.279451018918724 
700	 0.283782237065021 
701	 0.288465146854217 
702	 0.293136588590683 
703	 0.297169268793842 
704	 0.30083630066567 
705	 0.30443295270494 
706	 0.307982558434755 
707	 0.311356861725705 
708	 0.314425839208544 
709	 0.317158899695832 
710	 0.319585544462877 
711	 0.321906636081024 
712	 0.323947111488441 
713	 0.325553695247027 
714	 0.3266389836205 
715	 0.327114914840956 
716	 0.327373214486262 
717	 0.327957887777803 
718	 0.329177334381941 
719	 0.330803664660236 
720	 0.332213392856908 
721	 0.333246528213386 
722	 0.33336082123456 
723	 0.333352779172186 
724	 0.333693698245063 
725	 0.334246555332808 
726	 0.334504060319799 
727	 0.334624981826137 
728	 0.334750097722555 
729	 0.334445672887851 
730	 0.334563663241736 
731	 0.335003132831418 
732	 0.335266667313314 
733	 0.335265757361685 
734	 0.335138725563291 
735	 0.33504291091354 
736	 0.335162028155912 
737	 0.335549104485743 
738	 0.33596881021179 
739	 0.336266519693783 
740	 0.336759462437401 
741	 0.337103387569392 
742	 0.337419408509917 
743	 0.337985473559139 
744	 0.338227588530037 
745	 0.338513001445674 
746	 0.338920382490402 
747	 0.339029541394103 
748	 0.339323477503506 
749	 0.339595982241433 
750	 0.339650929361787 
751	 0.339923163606632 
752	 0.34016039855574 
753	 0.340287426432105 
754	 0.340352174639359 
755	 0.340529019470916 
756	 0.340651353343949 
757	 0.340508375054403 
758	 0.33963636440863 
759	 0.338755420748586 
760	 0.337938957873877 
761	 0.337340683091983 
762	 0.337088472388626 
763	 0.33797729498287 
764	 0.339400341497679 
765	 0.340566051041339 
766	 0.341647506517688 
767	 0.342313286192489 
768	 0.342656745587067 
769	 0.343108777336481 
770	 0.343455196523934 
771	 0.343802617497403 
772	 0.34422644493637 
773	 0.344577119724765 
774	 0.344792631166597 
775	 0.344978012312896 
776	 0.345280734581127 
777	 0.345548845468122 
778	 0.345951420744443 
779	 0.346382599206965 
780	 0.346487174661247 
781	 0.34691338901141 
782	 0.347295827308258 
783	 0.347401171889137 
784	 0.347743922359618 
785	 0.347894641857831 
786	 0.347910210424578 
787	 0.348004562283758 
788	 0.348151865896611 
789	 0.348584237093347 
790	 0.349219264574474 
791	 0.349741884202501 
792	 0.350304403281302 
793	 0.350702324202249 
794	 0.350889524684883 
795	 0.351112032786389 
796	 0.351289518618357 
797	 0.351523599399672 
798	 0.351884538072467 
799	 0.352170503541747 
800	 0.35227329456153 
801	 0.352448359507493 
802	 0.353045737223764 
803	 0.353453206089503 
804	 0.353880323667394 
805	 0.354294285967724 
806	 0.354348821325954 
807	 0.354341617047011 
808	 0.354154146728534 
809	 0.353762204009815 
810	 0.353652922682931 
811	 0.353034445380282 
812	 0.352140760786729 
813	 0.351599122630732 
814	 0.350990771492253 
815	 0.350522954877515 
816	 0.350466762143076 
817	 0.3509432939188 
818	 0.351400062236543 
819	 0.351560351527504 
820	 0.351308067264308 
821	 0.350550008874848 
822	 0.35008197908556 
823	 0.349874459522517 
824	 0.349526150591155 
825	 0.348394661447518 
826	 0.347348553798632 
827	 0.346338146690211 
828	 0.345161879555886 
829	 0.344356810808434 
830	 0.3435539215769 
831	 0.342780155620151 
832	 0.342353596200258 
833	 0.34185163355789 
834	 0.341686271560877 
835	 0.341764540794978 
836	 0.341297699006948 
837	 0.341297944179216 
838	 0.341451868014836 
839	 0.341360629301488 
840	 0.341107596860257 
841	 0.341167546387042 
842	 0.341381723361576 
843	 0.341381222729479 
844	 0.341082283780672 
845	 0.340845478995197 
846	 0.340707300221354 
847	 0.340489211756015 
848	 0.340368293941729 
849	 0.340178028805712 
850	 0.339866741316991 
851	 0.339579264505371 
852	 0.339527298253316 
853	 0.339530995648037 
854	 0.339432512792461 
855	 0.33931634825677 
856	 0.33924527201412 
857	 0.339236796366856 
858	 0.339234940847936 
859	 0.338983810729338 
860	 0.338839093677636 
861	 0.338617077682383 
862	 0.338079215850594 
863	 0.338475288865778 
864	 0.338467195777342 
865	 0.338051459583309 
866	 0.338401533282189 
867	 0.337847331869772 
868	 0.337515451674983 
869	 0.337648894776494 
870	 0.336934051800984 
871	 0.33691922303627 
872	 0.336824975456392 
873	 0.33612045274984 
874	 0.335961302109346 
875	 0.33571203291108 
876	 0.33525460962862 
877	 0.334728053385268 
878	 0.334589283804192 
879	 0.334403475689239 
880	 0.333977258524144 
881	 0.333371768244928 
882	 0.3332173389877 
883	 0.33293087979616 
884	 0.332453205391631 
885	 0.332121987769414 
886	 0.331565008859218 
887	 0.331058302365654 
888	 0.330710653133618 
889	 0.330358433109205 
890	 0.330018879460479 
891	 0.329339514676093 
892	 0.328181116177976 
893	 0.326957529373045 
894	 0.32592647927892 
895	 0.325075055334701 
896	 0.324249054636388 
897	 0.323211752624337 
898	 0.323084177549484 
899	 0.323353457303562 
900	 0.323020180007847 
901	 0.321815196588304 
902	 0.321782401245049 
903	 0.322137554711785 
904	 0.321451754318893 
905	 0.320774978459766 
906	 0.319863210451281 
907	 0.318734676928977 
908	 0.317691427787774 
909	 0.316945891105416 
910	 0.316303211257771 
911	 0.31561483783455 
912	 0.314840332008183 
913	 0.314005786963554 
914	 0.312936260532482 
915	 0.311717205914071 
916	 0.310766715373922 
917	 0.311147344403357 
918	 0.311804755527849 
919	 0.311376243757371 
920	 0.308664820351681 
921	 0.307675032557532 
922	 0.307075148331522 
923	 0.305567129466019 
924	 0.304258060308376 
925	 0.302087307080503 
926	 0.300193857833548 
927	 0.299396570368018 
928	 0.296069695802724 
929	 0.290927502186466 
930	 0.286973253128271 
931	 0.287428637392612 
932	 0.279451665437618 
933	 0.271296019815135 
934	 0.269792626629321 
935	 0.274021859705249 
936	 0.271958074465737 
937	 0.266026504519145 
938	 0.260329836957188 
939	 0.258664185377434 
940	 0.263784919231878 
941	 0.264869032293327 
942	 0.259570075275172 
943	 0.251607510431356 
944	 0.250588964241641 
945	 0.253095161513405 
946	 0.252814823020428 
947	 0.245410134984539 
948	 0.238805443722735 
949	 0.23707648123432 
950	 0.239570053791979 
951	 0.242125246436974 
952	 0.239467651474689 
953	 0.230913739746317 
954	 0.225381078541375 
955	 0.232599894155888 
956	 0.232233438774777 
957	 0.231520085259111 
958	 0.230359026516496 
959	 0.224656568319054 
960	 0.227391593170819 
961	 0.230997821396353 
962	 0.232363929356942 
963	 0.232738775218791 
964	 0.229899535929214 
965	 0.231258682342504 
966	 0.234833274468832 
967	 0.233491350676992 
968	 0.233530667571318 
969	 0.232253870179835 
970	 0.23068381637015 
971	 0.232480012629538 
972	 0.231394981791352 
973	 0.23268996357127 
974	 0.234700495863238 
975	 0.229916497195559 
976	 0.230613811195967 
977	 0.233220350773157 
978	 0.234214807731141 
979	 0.232918231009999 
980	 0.233806367729239 
981	 0.235081586885438 
982	 0.235571646842166 
983	 0.235439615425437 
984	 0.236565581885605 
985	 0.236975854082033 
986	 0.236946492511829 
987	 0.238361412811224 
988	 0.239658944071782 
989	 0.241311379126206 
990	 0.242116267611421 
991	 0.240506718636817 
992	 0.241232969157557 
993	 0.241584572069937 
994	 0.241962384792965 
995	 0.244219445471348 
996	 0.242534044354526 
997	 0.24394974622624 
998	 0.246921691562083 
999	 0.245741819578424 
1000	 0.246372998202443 
1001	 0.246883735467037 
1002	 0.246953093660716 
1003	 0.24768889842791 
1004	 0.249160685478096 
1005	 0.250455931686297 
1006	 0.252074243041659 
1007	 0.253218433539824 
1008	 0.254759197337981 
1009	 0.255534312275583 
1010	 0.255708752920654 
1011	 0.256350984473702 
1012	 0.256754912146589 
1013	 0.257292510998243 
1014	 0.257880386229558 
1015	 0.258978619029489 
1016	 0.259413944059022 
1017	 0.258893934990962 
1018	 0.259547267128439 
1019	 0.260821976176888 
1020	 0.261880670857189 
1021	 0.263388431219045 
1022	 0.265087406891076 
1023	 0.266074954420531 
1024	 0.266058608640827 
1025	 0.266368198643908 
1026	 0.267166678603258 
1027	 0.268104557907062 
1028	 0.269362310182384 
1029	 0.270487580934792 
1030	 0.271819495389558 
1031	 0.272893208405364 
1032	 0.273758101949068 
1033	 0.274801288464571 
1034	 0.275811333936773 
1035	 0.276882387244667 
1036	 0.278111573314845 
1037	 0.279295431660841 
1038	 0.280321675780645 
1039	 0.28179855981123 
1040	 0.283031318824075 
1041	 0.283505967755998 
1042	 0.28425715924195 
1043	 0.284888657265012 
1044	 0.285337575284739 
1045	 0.285406301090122 
1046	 0.286206058996867 
1047	 0.287062391373355 
1048	 0.28801755965125 
1049	 0.290155907711078 
1050	 0.290980937243357 
1051	 0.290922049340094 
1052	 0.291143812964776 
1053	 0.290392290641417 
1054	 0.290582916919177 
1055	 0.291494481512165 
1056	 0.292273209678045 
1057	 0.293226277790764 
1058	 0.295055246701044 
1059	 0.295291748066592 
1060	 0.294728705165853 
1061	 0.294590771003694 
1062	 0.293379795456211 
1063	 0.293470547346598 
1064	 0.294531974896857 
1065	 0.295198443789988 
1066	 0.296724777274202 
1067	 0.297082158999448 
1068	 0.296412105075914 
1069	 0.296376294695669 
1070	 0.296157505566842 
1071	 0.295818269701903 
1072	 0.295560985973616 
1073	 0.295811504865154 
1074	 0.295510977271111 
1075	 0.294417407474295 
1076	 0.29438026298769 
1077	 0.295197177313966 
1078	 0.29488824204337 
1079	 0.294508228469558 
1080	 0.293968578351595 
1081	 0.292147932242976 
1082	 0.291588232217167 
1083	 0.292118814848941 
1084	 0.291921672868454 
1085	 0.291896043952346 
1086	 0.291661892679645 
1087	 0.291047916130495 
1088	 0.290286933524227 
1089	 0.289159462284434 
1090	 0.288447602000322 
1091	 0.287679993682632 
1092	 0.286617289106804 
1093	 0.285827445867458 
1094	 0.285461155181295 
1095	 0.284674893979697 
1096	 0.283782766627891 
1097	 0.282809692049146 
1098	 0.281668817630976 
1099	 0.280378760733677 
1100	 0.27861325334509 
1101	 0.277177861042136 
1102	 0.275535101238449 
1103	 0.274432537233325 
1104	 0.274275141206326 
1105	 0.273438206790156 
1106	 0.272319223877911 
1107	 0.271825673022722 
1108	 0.27002457657935 
1109	 0.267464352117844 
1110	 0.266989891298231 
1111	 0.268626805508929 
1112	 0.268202896396705 
1113	 0.268588662884082 
1114	 0.268427930021185 
1115	 0.265009088927452 
1116	 0.262284914637408 
1117	 0.261909657316521 
1118	 0.26038521907283 
1119	 0.255441693254136 
1120	 0.25155652644304 
1121	 0.252161263750147 
1122	 0.242497702566728 
1123	 0.238740552119398 
1124	 0.253950179570023 
1125	 0.253817737523777 
1126	 0.246119269043053 
1127	 0.247508579630022 
1128	 0.227872918182172 
1129	 0.221253530875767 
1130	 0.227977398673774 
1131	 0.227700031312108 
1132	 0.222802603056576 
1133	 0.219704601605807 
1134	 0.217407119974052 
1135	 0.216760145754708 
1136	 0.214843907862177 
1137	 0.214802904010051 
1138	 0.220529469557742 
1139	 0.217262276558342 
1140	 0.209102324980291 
1141	 0.210053115655487 
1142	 0.203544816879955 
1143	 0.195901775210822 
1144	 0.199748514954272 
1145	 0.199568967446466 
1146	 0.200078861501179 
1147	 0.201163378287578 
1148	 0.193258019767914 
1149	 0.187176775252035 
1150	 0.184218593445394 
1151	 0.18344977974366 
1152	 0.181936583192317 
1153	 0.180651191402453 
1154	 0.180750474413241 
1155	 0.18099518306638 
1156	 0.182108134719887 
1157	 0.182504617256849 
1158	 0.183049876798315 
1159	 0.183373102888718 
1160	 0.183007456868889 
1161	 0.182489692187755 
1162	 0.182681891320956 
1163	 0.183671057845016 
1164	 0.183622836322689 
1165	 0.183260404328609 
1166	 0.183939780830786 
1167	 0.183745924169763 
1168	 0.18361808575519 
1169	 0.185217822346689 
1170	 0.185789961564569 
1171	 0.185740067100751 
1172	 0.18498802236209 
1173	 0.185171203360313 
1174	 0.185223166834679 
1175	 0.185202244465532 
1176	 0.184871773535723 
1177	 0.184579175530877 
1178	 0.184636247556527 
1179	 0.184575820363206 
1180	 0.184829465105584 
1181	 0.184819084020861 
1182	 0.183857317880649 
1183	 0.183487662281094 
1184	 0.184229232017555 
1185	 0.184483396533189 
1186	 0.184412111181426 
1187	 0.184353430403555 
1188	 0.183886754407669 
1189	 0.183668767828199 
1190	 0.183525967637724 
1191	 0.183113460584114 
1192	 0.182952787159713 
1193	 0.182757393360043 
1194	 0.183236296531474 
1195	 0.183681779563362 
1196	 0.183182903606334 
1197	 0.18310356105427 
1198	 0.183465656185288 
1199	 0.183115517740532 
1200	 0.183590699473298 
1201	 0.184550682850361 
1202	 0.184362065260928 
1203	 0.183939384138008 
1204	 0.183850841985481 
1205	 0.183988589804551 
1206	 0.184127054808557 
1207	 0.184358049593174 
1208	 0.185280600643317 
1209	 0.185368585972368 
1210	 0.184189466474661 
1211	 0.184128538532147 
1212	 0.184918439555531 
1213	 0.184596892156522 
1214	 0.184640065732564 
1215	 0.185203717110772 
1216	 0.186431707884527 
1217	 0.186509923368786 
1218	 0.186004770459324 
1219	 0.185778428928525 
1220	 0.185875193341523 
1221	 0.186108524533786 
1222	 0.186867824873133 
1223	 0.187877201759321 
1224	 0.187840678677349 
1225	 0.187347175895051 
1226	 0.187488569164865 
1227	 0.188065727055291 
1228	 0.188946320630864 
1229	 0.189703217285146 
1230	 0.189874527570768 
1231	 0.189998192722343 
1232	 0.190264096383901 
1233	 0.190396925614964 
1234	 0.190776767333579 
1235	 0.190908509123004 
1236	 0.190762337305054 
1237	 0.19083486951977 
1238	 0.190773583471786 
1239	 0.191250245863972 
1240	 0.191327169316845 
1241	 0.192010666422915 
1242	 0.192499755393437 
1243	 0.191966805280399 
1244	 0.192222617826565 
1245	 0.192717370845058 
1246	 0.192712336948937 
1247	 0.192716154632301 
1248	 0.192905767069333 
1249	 0.193380142372266 
1250	 0.193389761873584 
1251	 0.193286968700233 
1252	 0.193594191019377 
1253	 0.193501529337643 
1254	 0.193286704622304 
1255	 0.19364387309988 
1256	 0.193668712639448 
1257	 0.193099390343936 
1258	 0.192731625141676 
1259	 0.192497575302753 
1260	 0.192405465169107 
1261	 0.192474037605127 
1262	 0.192240647137108 
1263	 0.192007315553156 
1264	 0.191705855227317 
1265	 0.191558899549451 
1266	 0.191591672565494 
1267	 0.191643020512003 
1268	 0.191551180257172 
1269	 0.19122458152397 
1270	 0.190673179792268 
1271	 0.190909503247441 
1272	 0.191601383951086 
1273	 0.191470908653995 
1274	 0.191345117461941 
1275	 0.1915686370883 
1276	 0.191505302359222 
1277	 0.191296281623785 
1278	 0.19123214401372 
1279	 0.191205523032783 
1280	 0.191350274191714 
1281	 0.191189984882535 
1282	 0.191212776777564 
1283	 0.190964002416259 
1284	 0.189915834238164 
1285	 0.189542718052121 
1286	 0.190038277970689 
1287	 0.189745324523718 
1288	 0.189003592126 
1289	 0.188620378854178 
1290	 0.18811935463857 
1291	 0.187267488593471 
1292	 0.186860345864175 
1293	 0.187143208637267 
1294	 0.186563440767814 
1295	 0.185344897716129 
1296	 0.184872953443088 
1297	 0.184233679301242 
1298	 0.183149381132296 
1299	 0.18241902892419 
1300	 0.181465147169517 
1301	 0.179882647716582 
1302	 0.179208003513726 
1303	 0.179164975971507 
1304	 0.178347278825514 
1305	 0.17808508556887 
1306	 0.177530289854816 
1307	 0.176372689108957 
1308	 0.175363680947524 
1309	 0.174681373768675 
1310	 0.173861796919686 
1311	 0.172740921281444 
1312	 0.171748969423604 
1313	 0.17100851737691 
1314	 0.169959758415083 
1315	 0.168478408723885 
1316	 0.167437386973638 
1317	 0.167142285187832 
1318	 0.16610640350261 
1319	 0.16437521284735 
1320	 0.163195267431554 
1321	 0.16236829886399 
1322	 0.160446295025771 
1323	 0.158222053575687 
1324	 0.15747078283407 
1325	 0.15846368825708 
1326	 0.157491972621611 
1327	 0.154890382273575 
1328	 0.155067415953572 
1329	 0.15484403514933 
1330	 0.152599186383001 
1331	 0.151924356765213 
1332	 0.15140742009182 
1333	 0.14868269554599 
1334	 0.145622759867218 
1335	 0.142961773057977 
1336	 0.141222103314051 
1337	 0.140123972158047 
1338	 0.139532144625685 
1339	 0.13873032286108 
1340	 0.139497733565492 
1341	 0.139832221765915 
1342	 0.139187687177401 
1343	 0.137977270996821 
1344	 0.136546615580257 
1345	 0.135949917194643 
1346	 0.132555374361766 
1347	 0.133468479422177 
1348	 0.146407747516331 
1349	 0.153707198109603 
1350	 0.163030320684472 
1351	 0.168181576784186 
1352	 0.136505518827168 
1353	 0.119784053987496 
1354	 0.107625998593583 
1355	 0.128872518618497 
1356	 0.166894392655377 
1357	 0.220629832527897 
1358	 0.356251861501451 
1359	 0.31260087742212 
1360	 0.190002790757732 
1361	 0.258005516056454 
1362	 0.381011608237285 
1363	 0.481012234355703 
1364	 0.297506569310453 
1365	 0.462532566201834 
1366	 1.58580939477403 
1367	 0.889058069879924 
1368	 0.753784026777881 
1369	 1.09918150798158 
1370	 1.03067101577971 
1371	 0.290220195878305 
1372	 0.208653800650901 
1373	 0.473523400763715 
1374	 0.632175461255504 
1375	 13.4609695417014 
1376	 6.28833459856966 
1377	 0.948391450869433 
1378	 0.792182662233181 
1379	 0.411446892669547 
1380	 0.333833582945322 
1381	 0.408268283128918 
1382	 0.446622318707811 
1383	 0.62715942174731 
1384	 0.865774289007112 
1385	 3.11434880566931 
1386	-13.3324297676333 
1387	 0.339537831587324 
1388	 0.558294883581367 
1389	 1.92563020144084 
1390	 1.93394651770668 
1391	 1.31547862720516 
1392	 1.67443468080449 
1393	 2.71749304022363 
1394	 3.1383086936776 
1395	 3.08425127524823 
1396	-234.224095389143 
1397	-44.038998508055 
1398	 3.79380915820034 
1399	 2.63020480737887 
1400	 92.9536896356992 
1401	-5.66290641044318 
1402	-2.8845217697532 
1403	-1.83431379051096 
1404	 2.42690719285345 
1405	 1.39023864407612 
1406	 0.744057401140634 
1407	 0.653614846837261 
1408	 0.895555349824404 
1409	 0.525437656901236 
1410	 0.185114947428665 
1411	 0.194082793113107 
1412	 0.338569787800264 
1413	 0.319056607002341 
1414	 0.579373824275158 
1415	 0.545063737891801 
1416	-0.113896703135092 
1417	 0.136366684856851 
1418	 0.93759279772062 
1419	 0.86506356957796 
1420	 0.633484517941601 
1421	 0.601400317015855 
1422	 0.25883008015498 
1423	 0.228764402619457 
1424	 0.67341355270623 
1425	 0.585721301569371 
1426	 0.246792974771448 
1427	 0.163638117783469 
1428	 1.54751328838321E-02 
1429	 6.04732151612596E-03 
1430	 0.185975823594237 
1431	 0.21394724913267 
1432	 0.19439255171197 
1433	 0.202988010812516 
1434	 0.112573858613185 
1435	 6.56224339583109E-02 
1436	 4.37537983380281E-02 
1437	 0.120207580926262 
1438	 0.122379287495782 
1439	 0.127930162034509 
1440	 0.15779411229053 
1441	 0.113961840155914 
1442	 4.38848074306559E-02 
1443	 3.25615878429596E-02 
1444	 8.20609314508994E-02 
1445	 9.22883761204763E-02 
1446	 3.44828980717539E-02 
1447	 2.35363523512324E-02 
1448	 3.85691528869108E-02 
1449	 3.12374807601528E-02 
1450	 4.54666430846049E-02 
1451	 6.84023236468818E-02 
1452	 6.94088034410623E-02 
1453	 6.57828699903648E-02 
1454	 5.94384736995349E-02 
1455	 0.060338667768148 
1456	 5.48951314039773E-02 
1457	 3.58583828417832E-02 
1458	 3.56022921788535E-02 
1459	 4.64945481801779E-02 
1460	 4.76459732705236E-02 
1461	 5.10008900128446E-02 
1462	 5.03358225842981E-02 
1463	 4.45432664589247E-02 
1464	 4.32957438727389E-02 
1465	 3.88836976731228E-02 
1466	 0.039284743196177 
1467	 4.71465410345655E-02 
1468	 4.53599156249928E-02 
1469	 4.17842026114132E-02 
1470	 4.17427623588944E-02 
1471	 0.034551324599438 
1472	 3.39203146533343E-02 
1473	 4.06765939899608E-02 
1474	 4.45497317054267E-02 
1475	 5.15435475368541E-02 
1476	 4.87634410435641E-02 
1477	 4.19017876386751E-02 
1478	 4.00226899305418E-02 
1479	 2.96725144783265E-02 
1480	 3.03492785641147E-02 
1481	 4.26982131833413E-02 
1482	 4.48037788443225E-02 
1483	 0.045463403212812 
1484	 4.61263731097188E-02 
1485	 0.041099662748387 
1486	 4.21833736025802E-02 
1487	 4.77547143750559E-02 
1488	 4.97853368193871E-02 
1489	 5.17822304063952E-02 
1490	 0.052196588378872 
1491	 5.11180996118578E-02 
1492	 5.12306098102732E-02 
1493	 0.050706717604019 
1494	 5.14895895243985E-02 
1495	 0.053782557432589 
1496	 5.38521694601357E-02 
1497	 0.053026509175074 
1498	 5.36032880558597E-02 
1499	 5.40327853987342E-02 
1500	 5.40545307220958E-02 
1501	 5.41388308943923E-02 
1502	 5.52824880124006E-02 
1503	 0.057298578071057 
1504	 5.79055057050277E-02 
1505	 5.83719718819198E-02 
1506	 5.92138711991074E-02 
1507	 5.97473327928697E-02 
1508	 5.91602991456381E-02 
1509	 5.92093314383698E-02 
1510	 5.97202693851553E-02 
1511	 0.059419576115268 
1512	 6.02994297140043E-02 
1513	 6.20095910017642E-02 
1514	 6.24552041672561E-02 
1515	 6.20424894128328E-02 
1516	 6.21683378117083E-02 
1517	 6.33772409184516E-02 
1518	 6.38853857363799E-02 
1519	 6.46479422522839E-02 
1520	 6.62360455531649E-02 
1521	 0.06663409901287 
1522	 6.69818298489169E-02 
1523	 0.067237849238754 
1524	 6.71377086818524E-02 
1525	 6.78565679932199E-02 
1526	 6.84383039711416E-02 
1527	 6.89569437477762E-02 
1528	 6.96080221911711E-02 
1529	 7.02877945812319E-02 
1530	 7.10166809660909E-02 
1531	 7.11880960616604E-02 
1532	 0.071639301644156 
1533	 7.20613757869642E-02 
1534	 7.17469595119955E-02 
1535	 7.21990944222725E-02 
1536	 7.36595390835822E-02 
1537	 7.47502759955518E-02 
1538	 7.55209144476287E-02 
1539	 7.61490308499123E-02 
1540	 7.61695952455245E-02 
1541	 0.076152339966571 
1542	 7.62837843065935E-02 
1543	 7.67330671378758E-02 
1544	 7.76735805296371E-02 
1545	 7.81629481168201E-02 
1546	 7.84961905779429E-02 
1547	 7.96511570884888E-02 
1548	 0.081153579606237 
1549	 8.16945384466129E-02 
1550	 8.16331534484788E-02 
1551	 8.20000686819654E-02 
1552	 0.082342376952299 
1553	 0.083108676085338 
1554	 8.42793986548765E-02 
1555	 0.084360893853485 
1556	 8.38092476013639E-02 
1557	 8.41257333303913E-02 
1558	 8.52948885848907E-02 
1559	 8.61080440924312E-02 
1560	 8.61130912106861E-02 
1561	 8.59889880109603E-02 
1562	 8.63191644005231E-02 
1563	 8.72099739408346E-02 
1564	 8.77786413713815E-02 
1565	 8.77695577858752E-02 
1566	 8.76719269757434E-02 
1567	 0.087639631710587 
1568	 8.84961203690113E-02 
1569	 8.94984799676291E-02 
1570	 8.95839964247789E-02 
1571	 9.01481393915373E-02 
1572	 9.06530215875187E-02 
1573	 9.04854021191683E-02 
1574	 9.08918050887824E-02 
1575	 9.12819103643025E-02 
1576	 9.14738869371152E-02 
1577	 9.17750041449407E-02 
1578	 0.092669566948239 
1579	 9.34863553193681E-02 
1580	 9.34124789786726E-02 
1581	 9.38425620017878E-02 
1582	 9.44810250636822E-02 
1583	 9.45709571485345E-02 
1584	 9.45928180508625E-02 
1585	 9.45046226392612E-02 
1586	 9.47379731256369E-02 
1587	 9.56272637676238E-02 
1588	 9.60918546124212E-02 
1589	 9.65908359400293E-02 
1590	 9.73288395779241E-02 
1591	 9.69064906728208E-02 
1592	 0.096530020352414 
1593	 9.72986866587572E-02 
1594	 9.78639584854454E-02 
1595	 9.78061345860225E-02 
1596	 9.82889695254812E-02 
1597	 9.94576702188083E-02 
1598	 9.95326356542912E-02 
1599	 9.90084480765691E-02 
1600	 9.92405213743822E-02 
1601	 9.95947983509317E-02 
1602	 0.100142330819283 
1603	 0.101025982016109 
1604	 0.101754845990907 
1605	 0.10170890447442 
1606	 0.101348905206977 
1607	 0.100898310963194 
1608	 0.100875791222764 
1609	 0.101497896766516 
1610	 0.101413141004131 
1611	 0.101177741498293 
1612	 0.10184084174794 
1613	 0.102321875182371 
1614	 0.102116731381274 
1615	 0.102682578483233 
1616	 0.103164948630352 
1617	 0.103496416363909 
1618	 0.103397948264202 
1619	 0.102382240723819 
1620	 0.103026975746889 
1621	 0.103258500958641 
1622	 0.102540311134943 
1623	 0.103616352269415 
1624	 0.104042929125893 
1625	 0.103183265452808 
1626	 0.103772632212335 
1627	 0.104658227101548 
1628	 0.104752015885239 
1629	 0.105573323279605 
1630	 0.106084011592978 
1631	 0.105590733165551 
1632	 0.105460416504949 
1633	 0.105281867064827 
1634	 0.105184297122138 
1635	 0.106370996822599 
1636	 0.107005520994566 
1637	 0.106822505883104 
1638	 0.107381960314938 
1639	 0.107459247598013 
1640	 0.107180267855298 
1641	 0.107169791538976 
1642	 0.10754224828395 
1643	 0.107843841061358 
1644	 0.107633268520806 
1645	 0.108152803317403 
1646	 0.108260179259493 
1647	 0.107616432636658 
1648	 0.107672244919088 
1649	 0.108038639512982 
1650	 0.108539908941658 
1651	 0.108584113455682 
1652	 0.108724338844283 
1653	 0.109226502858345 
1654	 0.108907517972578 
1655	 0.108475144478814 
1656	 0.108703399821631 
1657	 0.108541722684255 
1658	 0.108492503698651 
1659	 0.109557507488498 
1660	 0.109817056304986 
1661	 0.10888159532101 
1662	 0.109073826178997 
1663	 0.109934122247797 
1664	 0.110194348383813 
1665	 0.110820054557746 
1666	 0.110850000156654 
1667	 0.109943529653617 
1668	 0.109364502876477 
1669	 0.109370825281142 
1670	 0.108771135065346 
1671	 0.108785628839907 
1672	 0.109413074919397 
1673	 0.109138743015723 
1674	 0.10895127697783 
1675	 0.108943629733915 
1676	 0.108916735626063 
1677	 0.109385552942375 
1678	 0.109793678051188 
1679	 0.109806499848967 
1680	 0.109453033838949 
1681	 0.109639111428708 
1682	 0.109490332347775 
1683	 0.109169885865563 
1684	 0.1102214516326 
1685	 0.10983477107536 
1686	 0.109142029864278 
1687	 0.110265754246888 
1688	 0.10993277959008 
1689	 0.109016623102543 
1690	 0.109254777285881 
1691	 0.109100295693634 
1692	 0.108415452914166 
1693	 0.108826265371635 
1694	 0.109655573183665 
1695	 0.109247546645502 
1696	 0.109114696481472 
1697	 0.109207269510394 
1698	 0.109211028205332 
1699	 0.109412545384592 
1700	 0.110192385631869 
1701	 0.110869573102847 
1702	 0.109528908966471 
1703	 0.108757381915395 
1704	 0.108603720847581 
1705	 0.108121998388064 
1706	 0.108758558508788 
1707	 0.108685993609519 
1708	 0.108476619011808 
1709	 0.10890030463699 
1710	 0.108678712969745 
1711	 0.108512194369178 
1712	 0.108076682417933 
1713	 0.107698980567751 
1714	 0.107218934007805 
1715	 0.107565783477251 
1716	 0.106509864144574 
1717	 0.104430306094377 
1718	 0.104376935340664 
1719	 0.105170978482221 
1720	 0.10560715603326 
1721	 0.106195002547353 
1722	 0.105143651949768 
1723	 0.104201674788686 
1724	 0.10441823780224 
1725	 0.104444099435631 
1726	 0.105220442196035 
1727	 0.104314222829347 
1728	 0.101724687827941 
1729	 0.101190788781938 
1730	 0.102119594559812 
1731	 0.102564196860104 
1732	 0.102498320168059 
1733	 0.102532953414548 
1734	 0.102157122712202 
1735	 0.101061553494853 
1736	 0.099919814443553 
1737	 9.90969935351407E-02 
1738	 9.75256966459983E-02 
1739	 9.61331216169154E-02 
1740	 9.72775556894259E-02 
1741	 9.83584859130203E-02 
1742	 9.78241178050444E-02 
1743	 9.85909887224937E-02 
1744	 9.96731514254452E-02 
1745	 9.81478783968337E-02 
1746	 9.76653120662174E-02 
1747	 9.72861957989421E-02 
1748	 9.66845659952459E-02 
1749	 0.096426922434623 
1750	 9.59182069060294E-02 
1751	 9.52689391319535E-02 
1752	 9.40438079049821E-02 
1753	 9.40591463674034E-02 
1754	 9.57828503275582E-02 
1755	 9.67221281498479E-02 
1756	 9.81353210207781E-02 
1757	 9.73550631241594E-02 
1758	 9.46992519714213E-02 
1759	 9.12676902057257E-02 
1760	 9.11778117158742E-02 
1761	 9.23216416619112E-02 
1762	 9.25950607289215E-02 
1763	 9.30937088690519E-02 
1764	 9.25982077590639E-02 
1765	 9.13657538164601E-02 
1766	 8.98221030074722E-02 
1767	 8.76473162997582E-02 
1768	 8.66861762416431E-02 
1769	 8.63656918818003E-02 
1770	 0.085918907370364 
1771	 8.50926054977982E-02 
1772	 8.36261024933806E-02 
1773	 8.48075752136371E-02 
1774	 8.56991201804963E-02 
1775	 8.43600252738725E-02 
1776	 8.40468062430553E-02 
1777	 7.99264438591891E-02 
1778	 7.62763297542079E-02 
1779	 7.35208048161136E-02 
1780	 7.44219640746068E-02 
1781	 7.62902576854723E-02 
1782	 7.83555000049804E-02 
1783	 8.68303278928288E-02 
1784	 9.07149227229018E-02 
1785	 9.13960251982396E-02 
1786	 9.14498065800468E-02 
1787	 9.17600537273218E-02 
1788	 8.97379223043318E-02 
1789	 7.97726058226073E-02 
1790	 7.50473831938974E-02 
1791	 7.43507624337264E-02 
1792	 7.60228233621201E-02 
1793	 8.08048010434078E-02 
1794	 8.74217281999705E-02 
1795	 0.10134145611202 
1796	 0.104251329534233 
1797	 0.110623747747131 
1798	 0.116151991909694 
1799	 9.82673145371637E-02 
1800	 5.64363954052723E-02 
1801	 4.76707863174916E-02 
1802	 9.77335799390212E-02 
1803	 9.11505569354216E-02 
1804	 9.17733700899756E-02 
1805	 9.95689876349984E-02 
1806	-3.53277150825652E-02 
1807	-4.05876306742446E-02 
1808	 0.284105372952541 
1809	 0.492557625492296 
1810	 0.711072310133867 
1811	 0.77170542036027 
1812	 9.67993766338897E-02 
1813	-1.82559303089881E-02 
1814	-0.038018038829443 
1815	 0.10748835177283 
1816	 0.945678407143358 
1817	 2.42547122859608 
1818	-8.04485530507833 
1819	-0.489585114899112 
1820	-3.23015677692737 
1821	-0.465501288525827 
1822	-0.189473010616739 
1823	 0.446280515737098 
1824	 0.794473691940341 
1825	 2.47576214725741 
1826	 7.41064495876016 
1827	-2.57958631663159 
1828	-1.64227807774799 
1829	-4.51274438023626 
1830	-5.6100884506343 
1831	-3.81953525896642 
1832	-1.1433244888277 
1833	-0.151713878107551 
1834	 0.145008171496196 
1835	 0.439645539932257 
1836	 0.552262955386357 
1837	 1.03115692546124 
1838	 2.35692872397683 
1839	-16.6334268847852 
1840	 6.84413382861301 
1841	 3.5720824559381 
1842	-9.69254176771915 
1843	-40.6779620626372 
1844	 2.12662325582657 
1845	 1.48628021720583 
1846	 0.8630729147088 
1847	 0.792941756017874 
1848	 0.811345147775625 
1849	-3.21682964463814 
1850	-1.45045146979046 
1851	-0.219418913796416 
1852	 0.385026411928445 
1853	 0.347948725943712 
1854	 0.221886801958844 
1855	-0.170558248391597 
1856	-0.226250106906864 
1857	-0.50603546326539 
1858	-0.893937745105425 
1859	-2.21003237954588 
1860	 2.40759859670119 
1861	 1.01503813510779 
1862	 0.59345253227808 
1863	 0.373408309486694 
1864	 0.402879730300344 
1865	 0.419130316322182 
1866	 0.573665288225024 
1867	 0.621389547770467 
1868	 0.728851607780262 
1869	 0.570481610902448 
1870	 0.083581884565581 
1871	 0.186123234216722 
1872	 0.585681097416317 
1873	 1.35079529296712 
1874	 6.7597624051902 
1875	-5.36691419128912 
1876	-3.21767424094331 
1877	-2.11713223678242 
1878	 3.18190267295306 
1879	 1.91813396723896 
1880	 1.59993813428561 
1881	 1.11211029701196 
1882	 0.908088489435599 
1883	 1.0342703660768 
1884	 2.13528276458814 
1885	 1.1929233892139 
1886	 1.27325779287051 
1887	 0.547943769208727 
1888	-0.724255386546656 
1889	-0.297487604295246 
1890	 0.865649810381488 
1891	 1.53544123618466 
1892	 5.36247436463042 
1893	 3.04974894161758 
1894	 1.30312470633838 
1895	 4.29173000224833 
1896	 2.29571953322993 
1897	 3.65097746058031 
1898	 2.58338100568666 
1899	 2.62703363466211E-02 
1900	-0.272087326660581 
1901	 4.34961355930135 
1902	 0.777059977774961 
1903	-3.87253854844128 
1904	-2.75855629029467 
1905	-3.44443859798165 
1906	-2.22417723939947 
1907	-0.976302147264373 
1908	 1.36826085929204 
1909	 2.07228388570627 
1910	 3.40983807876912 
1911	 4.71376619319769 
1912	-0.280856715590075 
1913	 1.10059624055082 
1914	 2.64460503395442 
1915	 2.55549559190099 
1916	 1.94762439094548 
1917	 2.33342762266589 
1918	 82.9719630852776 
1919	-0.314807107299151 
1920	-2.54944030368603 
1921	 0.502688330601138 
1922	 0.380777354760518 
1923	 0.402433260039975 
1924	 0.538960794167794 
1925	 0.410206937235436 
1926	 0.433659902068999 
1927	 0.472255522741712 
1928	-7.42937057190705 
1929	-0.366488492377503 
1930	-0.342528675370263 
1931	-0.596283818312168 
1932	-1.44208058589412 
1933	 0.664193171132043 
1934	 0.224008387904145 
1935	 0.383841412130748 
1936	-7.80171752554199 
1937	 29.079222469276 
1938	-2.64953553265998 
1939	-5.48558735024132 
1940	 1.36998928264101 
1941	 0.329117048305041 
1942	 0.334187803764119 
1943	 0.764097349456859 
1944	 1.21443534395023 
1945	 1.77017842693513 
1946	 1.78289599175583 
1947	 0.495843193388935 
1948	-4.19511117375119E-02 
1949	 0.595578597292968 
1950	 1.13126911452829 
1951	 1.0880380410895 
1952	 1.16400862147397 
1953	 1.20404667383555 
1954	 0.967688194014985 
1955	 0.4339710645943 
1956	 0.449154062102135 
1957	 0.603889364109433 
1958	 0.34272997518425 
1959	 0.121899199712045 
1960	 6.81393257623701E-02 
1961	-0.047475586675682 
1962	-8.99869402906772E-02 
1963	-5.51756923406184E-03 
1964	 5.31028325789211E-02 
1965	 1.38895954268408E-02 
1966	 2.52891353623883E-02 
1967	 5.14690739551114E-02 
1968	 7.96953872553262E-02 
1969	 0.060933073342973 
1970	 7.41102023668737E-02 
1971	 5.88521647771662E-02 
1972	 3.88283139080522E-02 
1973	 5.21420322675685E-02 
1974	 3.83097783799767E-02 
1975	 4.74502978347796E-02 
1976	 4.80568939891769E-02 
1977	 1.86209493946623E-02 
1978	 1.26602058261619E-03 
1979	-9.91100002082413E-03 
1980	-2.39658737986064E-02 
1981	-3.55919776193894E-02 
1982	-4.36376217148178E-02 
1983	-3.05407455785613E-02 
1984	-1.21642281913137E-02 
1985	 5.04802649496449E-03 
1986	 2.87085121601384E-02 
1987	 4.29694876872151E-02 
1988	 5.08558059179168E-02 
1989	 4.83440286543604E-02 
1990	 4.92495929908344E-02 
1991	 5.89520169464143E-02 
1992	 7.31700659408267E-02 
1993	 0.081731122604202 
1994	 8.76815957761561E-02 
1995	 9.78746374807527E-02 
1996	 0.105830678087133 
1997	 8.04185939641065E-02 
1998	 5.94862505695108E-02 
1999	 3.36772128226858E-02 
2000	-2.91455560504065E-02 
2001	-0.028895592269569 
2002	 1.44528754652619E-02 
2003	 3.07614410861338E-02 
2004	 0.081114257770125 
2005	 8.07613660408242E-02 
2006	 0.037114326273065 
2007	 3.87562576936851E-02 
2008	 5.87181419560869E-02 
2009	 5.77766715349376E-02 
2010	 4.51355218527566E-02 
2011	 0.034559963759419 
2012	 6.7810881687262E-03 
2013	 1.38930537477508E-02 
2014	 1.77949173439797E-02 
2015	 6.63541731566418E-02 
2016	 9.44849057838271E-02 
2017	 7.90216495438771E-02 
2018	 9.64045923411214E-02 
2019	 0.10825763829503 
2020	 8.58495359574715E-02 
2021	 7.82062311889455E-02 
2022	 5.91434100363974E-02 
2023	 2.83359770649445E-02 
2024	 2.00175495408227E-02 
2025	 3.36462221702983E-02 
2026	 3.43654690672944E-02 
2027	 3.25843792056165E-02 
2028	 3.44684783285987E-02 
2029	 4.33074481371469E-02 
2030	 4.80749744665316E-02 
2031	 4.93403379217952E-02 
2032	 5.04289170725492E-02 
2033	 0.042680852742323 
2034	 3.39715162582951E-02 
2035	 0.030931442695029 
2036	 2.76107092892275E-02 
2037	 0.028610767266674 
2038	 3.10942518125987E-02 
2039	 3.03420824911036E-02 
2040	 3.08247556278081E-02 
2041	 0.029264288236428 
2042	 2.05224432054897E-02 
2043	 1.91821689651531E-02 
2044	 2.29788667119396E-02 
2045	 1.87087098938322E-02 
2046	 2.07521770971656E-02 
2047	 2.83151655715719E-02 
2048	 2.61832500372573E-02 
2049	 3.06383770734799E-02 
2050	 3.87039582500734E-02 
2051	 3.60193967638079E-02 
2052	 3.59128193681843E-02 
2053	 3.44672582913159E-02 
2054	 2.34021012594152E-02 
2055	 2.28466579219299E-02 
2056	 2.21663013262468E-02 
2057	 2.12378481238449E-02 
2058	 2.16505260286568E-02 
2059	 2.59897506890692E-02 
2060	 2.67939595498494E-02 
2061	 2.64650098314096E-02 
2062	 2.57411352887812E-02 
2063	 2.28002522907344E-02 
2064	 2.88495872214731E-02 
2065	 3.65142859616069E-02 
2066	 4.07654941177606E-02 
2067	 4.51955772461752E-02 
2068	 4.57924870170029E-02 
2069	 3.73942515868881E-02 
2070	 3.47500471670575E-02 
2071	 0.037432214993042 
2072	 3.30464250863701E-02 
2073	 3.01367946930753E-02 
2074	 2.62701587025135E-02 
2075	 2.63221564236404E-02 
2076	 2.78831710193529E-02 
2077	 2.78529547027437E-02 
2078	 2.89487678277685E-02 
2079	 3.05746237356598E-02 
2080	 3.07937528525336E-02 
2081	 3.13714474067135E-02 
2082	 3.49775043629076E-02 
2083	 0.03717425078811 
2084	 3.73281206722087E-02 
2085	 3.97038801241273E-02 
2086	 4.22830207424773E-02 
2087	 0.041892199210787 
2088	 4.21858738847521E-02 
2089	 4.24192712557793E-02 
2090	 4.16598012766392E-02 
2091	 4.49912018749345E-02 
2092	 4.50462660647523E-02 
2093	 4.16309865832981E-02 
2094	 4.09049674843212E-02 
2095	 3.99089126450797E-02 
2096	 4.01523962020375E-02 
2097	 4.35548723986256E-02 
2098	 4.59036958140966E-02 
2099	 4.84171567998006E-02 
2100	 5.04580956800069E-02 
2101	 5.08953212622545E-02 
2102	 5.15606371542565E-02 
2103	 5.11451014738864E-02 
2104	 5.03770776494739E-02 
2105	 5.14402071842502E-02 
2106	 4.86341357581002E-02 
2107	 4.87875361416417E-02 
2108	 5.21951197181584E-02 
2109	 0.051839159342422 
2110	 5.19652257575012E-02 
2111	 5.31545585690037E-02 
2112	 5.06800578818169E-02 
2113	 0.04784857545978 
2114	 4.25477784709834E-02 
2115	 4.20342259679199E-02 
2116	 4.37983317522215E-02 
2117	 4.25687049975323E-02 
2118	 0.042292384229188 
2119	 4.36929747798074E-02 
2120	 4.39019428851809E-02 
2121	 4.29587281303465E-02 
2122	 4.51196986694347E-02 
2123	 4.99621377578327E-02 
2124	 5.31966614156582E-02 
2125	 5.38118396386822E-02 
2126	 5.56664363261508E-02 
2127	 0.055359296420486 
2128	 5.20694201374122E-02 
2129	 4.95551458156049E-02 
2130	 4.70799755863196E-02 
2131	 4.36734812623332E-02 
2132	 4.34832139905784E-02 
2133	 4.68416269925017E-02 
2134	 4.82599731846242E-02 
2135	 5.11772532588845E-02 
2136	 5.38779173174479E-02 
2137	 5.64079687841516E-02 
2138	 5.61913854109564E-02 
2139	 5.57462168570159E-02 
2140	 5.53626020618418E-02 
2141	 0.053137581021115 
2142	 0.050240413229742 
2143	 4.70851137495312E-02 
2144	 4.36210791755627E-02 
2145	 4.18484769313011E-02 
2146	 4.01152781651966E-02 
2147	 3.92520658095669E-02 
2148	 4.43347795217941E-02 
2149	 4.90911276905836E-02 
2150	 5.05424967053903E-02 
2151	 5.48116829610392E-02 
2152	 6.01544336115061E-02 
2153	 5.80359547055945E-02 
2154	 5.50916272129541E-02 
2155	 5.90912290784812E-02 
2156	 5.89434562187681E-02 
2157	 5.77228399943148E-02 
2158	 5.88268861840161E-02 
2159	 5.82640304209348E-02 
2160	 5.17308598415537E-02 
2161	 4.99963980187336E-02 
2162	 5.21827281929854E-02 
2163	 5.14496788595429E-02 
2164	 4.95802425454457E-02 
2165	 5.01331474412601E-02 
2166	 5.21054689212618E-02 
2167	 5.30525089109432E-02 
2168	 0.054324305556522 
2169	 5.55525118589388E-02 
2170	 5.70963499998416E-02 
2171	 5.54724969182659E-02 
2172	 5.61102657322437E-02 
2173	 5.43380195596315E-02 
2174	 5.15735972294237E-02 
2175	 5.48856563578824E-02 
2176	 0.059659514034664 
2177	 6.39407197514869E-02 
2178	 6.59628622917346E-02 
2179	 6.94176480382813E-02 
2180	 6.96869799977009E-02 
2181	 7.15073457605341E-02 
2182	 7.29061394872353E-02 
2183	 6.33227761536174E-02 
2184	 5.77514763568817E-02 
2185	 0.055758640423555 
2186	 5.30715766188871E-02 
2187	 5.34070350960825E-02 
2188	 5.43012799885595E-02 
2189	 5.45849034042154E-02 
2190	 5.39393876242637E-02 
2191	 5.67280525959344E-02 
2192	 5.64178776329705E-02 
2193	 5.09466498542069E-02 
2194	 5.02007328583982E-02 
2195	 4.94461889511496E-02 
2196	 5.08269147981721E-02 
2197	 6.29326042960281E-02 
2198	 6.44021312195175E-02 
2199	 6.13836778016322E-02 
2200	 5.24198871242984E-02 
2201	 5.27656197319998E-02 
2202	 4.49941582006572E-02 
2203	 3.99692277448592E-02 
2204	 4.32859807362428E-02 
2205	 3.64806424468154E-02 
2206	 3.45239897302628E-02 
2207	 4.00197468572254E-02 
2208	 4.47853969842364E-02 
2209	 0.051617181686126 
2210	 4.71090384405141E-02 
2211	 3.87882606147939E-02 
2212	 4.15014567846757E-02 
2213	 4.18070656061785E-02 
2214	 3.84703194779083E-02 
2215	 3.98046037907175E-02 
2216	 4.13296283698688E-02 
2217	 4.50175643886616E-02 
2218	 5.26570654054943E-02 
2219	 5.85173824102918E-02 
2220	 0.067769839977156 
2221	 0.06736524249414 
2222	 5.96781306748098E-02 
2223	 5.85007020745166E-02 
2224	 5.20413047151932E-02 
2225	 5.23432283792101E-02 
2226	 6.18902176924152E-02 
2227	 6.53703550507459E-02 
2228	 6.98248332070201E-02 
2229	 7.07910376162395E-02 
2230	 6.93875316084054E-02 
2231	 6.67347831610854E-02 
2232	 5.73125403571321E-02 
2233	 5.55643643967053E-02 
2234	 6.01753392936232E-02 
2235	 5.50348730313327E-02 
2236	 5.81055701320433E-02 
2237	 6.11841378060942E-02 
2238	 5.27169788766166E-02 
2239	 5.30919611826137E-02 
2240	 5.56268417176731E-02 
2241	 5.46287128698143E-02 
2242	 5.75899465729633E-02 
2243	 6.09051750790553E-02 
2244	 6.05265354913284E-02 
2245	 5.47093993680496E-02 
2246	 5.21111570890454E-02 
2247	 5.19752495001644E-02 
2248	 5.24724399839329E-02 
2249	 0.056084437186362 
2250	 6.61424388456367E-02 
2251	 0.073477730297525 
2252	 6.41166291127508E-02 
2253	 0.060156909179372 
2254	 5.54557437616821E-02 
2255	 4.02004629268989E-02 
2256	 4.16322186333213E-02 
2257	 5.00612086540669E-02 
2258	 4.70681011630008E-02 
2259	 5.10002830672514E-02 
2260	 5.45710583284745E-02 
2261	 5.57137308082764E-02 
2262	 0.058222710459451 
2263	 6.92426562642988E-02 
2264	 0.066841692861891 
2265	 5.23562691962341E-02 
2266	 5.02763031015768E-02 
2267	 4.54939101933502E-02 
2268	 4.46783879920825E-02 
2269	 5.89863558902343E-02 
2270	 0.060839903797936 
2271	 0.054518477955549 
2272	 5.18439788518311E-02 
2273	 4.83580117618135E-02 
2274	 4.47257121456937E-02 
2275	 0.042247196505488 
2276	 3.57037404264482E-02 
2277	 1.72965839362223E-02 
2278	 1.29113533694386E-02 
2279	 0.013932432733419 
2280	 0.020573286594162 
2281	 4.42684445918057E-02 
2282	 5.94076953064256E-02 
2283	 4.93756839807206E-02 
2284	 3.99005530851156E-02 
2285	 2.99175600176256E-02 
2286	 3.42416197666751E-02 
2287	 5.63829160495439E-02 
2288	 6.66951105222085E-02 
2289	 6.29038217009552E-02 
2290	 5.40893980884172E-02 
2291	 4.64562443803354E-02 
2292	 4.33859070955249E-02 
2293	 4.60266631372852E-02 
2294	 5.24732970092757E-02 
2295	 5.08783470719657E-02 
2296	 4.27249005611839E-02 
2297	 3.89045127127448E-02 
2298	 0.019475731085995 
2299	 9.49366629218991E-03 
2300	 1.72841435238252E-02 
2301	 1.26998510126583E-02 
2302	 2.62808874365612E-02 
2303	 2.78973020416248E-02 
2304	 1.06309807920347E-02 
2305	 2.92549820075353E-02 
2306	 3.23872560650452E-02 
2307	 2.98639581934615E-02 
2308	 5.54904332228559E-02 
2309	 6.02334928042446E-02 
2310	 6.44267653847867E-02 
2311	 7.92626992866298E-02 
2312	 9.13398118597912E-02 
2313	 0.089198866774676 
2314	 8.43859102139481E-02 
2315	 7.79766359572383E-02 
2316	 5.81315265320025E-02 
2317	 6.89255758398104E-02 
2318	 0.078104513734087 
2319	 6.42950005981008E-02 
2320	 5.98624896459967E-02 
2321	 5.24764156265845E-02 
2322	 2.83437965922917E-02 
2323	-1.73919036928837E-03 
2324	-8.40906992449407E-03 
2325	-2.06852073813836E-02 
2326	-3.24742087509791E-02 
2327	-1.38382642405589E-02 
2328	 4.02438508391485E-03 
2329	-3.29239654526581E-03 
2330	-9.5464674389283E-03 
2331	 5.85716163356461E-03 
2332	 2.12551853241628E-02 
2333	 5.34812403979935E-02 
2334	 0.056776542068634 
2335	 2.69400778563172E-02 
2336	 1.17995007340276E-02 
2337	 8.14899096517531E-03 
2338	 3.49039265373971E-02 
2339	 9.77627796136505E-02 
2340	 0.141135490069145 
2341	 0.132678609544744 
2342	 0.132297898195485 
2343	 0.172355117695456 
2344	 0.158029497363422 
2345	 6.20679120391352E-02 
2346	 1.71918369518259E-02 
2347	-1.22492871810696E-02 
2348	-1.73000078375847E-02 
2349	 9.87147656076609E-02 
2350	 0.181525065143447 
2351	 0.105926520793679 
2352	-1.30522823598496E-02 
2353	-5.92157452853515E-02 
2354	-6.36662741363564E-02 
2355	-4.14145118828957E-02 
2356	 0.126038741306211 
2357	 0.187983633642965 
2358	 0.163645276660354 
2359	 0.25982136090562 
2360	 0.244271332126511 
2361	 0.103024452163737 
2362	 0.103484193166637 
2363	 5.71404494172127E-02 
2364	-8.07128047373489E-02 
2365	-6.42126453823031E-02 
2366	-3.11574813303633E-02 
2367	 2.45400517661576E-03 
2368	 0.103284743348502 
2369	 0.120525283556679 
2370	 8.36958511953381E-02 
2371	 0.108976862097738 
2372	 4.82318886317524E-02 
2373	-2.92528787936138E-02 
2374	-1.99128909136434E-02 
2375	-7.44853845354023E-02 
2376	-7.15978467683585E-02 
2377	-8.68810158000529E-03 
2378	 7.37334266669014E-02 
2379	 1.00181179774822E-02 
2380	-0.150561501504782 
2381	-9.41488656986346E-02 
2382	 8.59662765587061E-02 
2383	 0.186774778083664 
2384	 0.216823010724231 
2385	 0.159845878766407 
2386	 1.86566503618511E-02 
2387	 0.101538619379736 
2388	 0.470323061339027 
2389	 0.504924098342134 
2390	 0.337602712016837 
2391	 0.237901371956198 
2392	 0.246948207094658 
2393	 0.287199573051483 
2394	 0.220367289953284 
2395	 0.147171617552584 
2396	-2.68727563077702E-02 
2397	-0.202418398908072 
2398	-0.234762088859908 
2399	-0.199612501026311 
2400	-0.351489294508219 
2401	-0.192612482618565 
2402	-0.106264719025398 
2403	-0.168946402258822 
2404	-6.67598874040921E-02 
2405	-7.55331546912707E-02 
2406	-6.61378413957561E-02 
2407	-8.68879377550042E-02 
2408	-0.370140171714991 
2409	-0.113707711112305 
2410	-2.40880293351537 
2411	-0.383656907204312 
2412	-0.231524577297155 
2413	-1.4146178319493 
2414	-1.01308113812908 
2415	-0.412836818256961 
2416	-0.536276984765488 
2417	-0.271864141959162 
2418	-0.603559833390268 
2419	-1.48339053048522 
2420	-4.1125386520015 
2421	-1.25094774794662 
2422	-0.545172149318473 
2423	-0.6163141661132 
2424	-2.72196105318413 
2425	-3.44979051812992 
2426	-6.64143928205586 
2427	-1.31914834390695 
2428	-11.5640158491011 
2429	 3.31502594870349 
2430	 1.68099229739153 
2431	 0.76544087160394 
2432	 0.240548583055798 
2433	 12.9883473007487 
2434	 1.2287052150812 
2435	 1.75413431046441 
2436	 1.52725751339804 
2437	 1.40410237376486 
2438	 0.907325522786874 
2439	-0.42656708110759 
2440	-0.258261636802224 
2441	 0.456712836671992 
2442	 0.358935176885886 
2443	 8.02347143544399E-03 
2444	-0.391960386703428 
2445	-0.862198165438355 
2446	-0.62856388439584 
2447	-0.106520787093464 
2448	 1.36259011035614E-02 
2449	-0.141667937579764 
2450	-0.388053059562427 
2451	-1.17804259033468 
2452	-2.09618831210981 
2453	-2.32973097977103 
2454	-6.58599078745047 
2455	-2.15140890092824 
2456	-0.988814058889313 
2457	-0.705598556029564 
2458	-0.651986812089866 
2459	-0.849623627121439 
2460	-0.916415523623525 
2461	-0.82111380934189 
2462	-1.23609881855095 
2463	-0.638256409934879 
2464	-0.668443741882428 
2465	-4.83425128309456 
2466	-0.439725374513837 
2467	-0.356070668384604 
2468	-0.107112483990095 
2469	 0.493523939701368 
2470	 0.460515076453948 
2471	 0.858079566472464 
2472	 1.44538516637039 
2473	 1.15818365288145 
2474	 1.0069982105526 
2475	 0.25336879846922 
2476	-1.47288255817439 
2477	-4.17203119259803 
2478	 1.16172800787864 
2479	 1.04895222571808 
2480	 6.59040529406992 
2481	-1.9920988254264 
2482	-1.57502214485379 
2483	-0.134888819916673 
2484	 0.671233263521666 
2485	 0.441503191205109 
2486	 0.55875152746859 
2487	 0.929197092200624 
2488	 0.948677634242367 
2489	 0.663169756211147 
2490	 0.292237134628705 
2491	 9.05118417167723E-02 
2492	-0.205411329025511 
2493	-0.209108175905926 
2494	-0.129432803235011 
2495	-0.276396903359648 
2496	-0.302995922429731 
2497	-0.70548554805068 
2498	-1.52505780860777 
2499	 2.93900257755335 
2500	 5.87092661513082E-02 
