Wavelength	rt0704dirt00009.asd
350	 0.125964675965128 
351	 0.125726295367974 
352	 0.126109953312517 
353	 0.126552493278527 
354	 0.126601029335631 
355	 0.126771896867543 
356	 0.126683251534738 
357	 0.126875250227122 
358	 0.127785137755008 
359	 0.128296610152196 
360	 0.128398727499758 
361	 0.128472020853564 
362	 0.129019086364543 
363	 0.129208702129205 
364	 0.129331646181206 
365	 0.129658726857472 
366	 0.13022895892592 
367	 0.130301337943908 
368	 0.130427989303878 
369	 0.131099771117035 
370	 0.131278515637765 
371	 0.131703359013899 
372	 0.132265758764349 
373	 0.13244650705209 
374	 0.132914787224616 
375	 0.133228050045453 
376	 0.133548872384944 
377	 0.134969598298193 
378	 0.135318973045762 
379	 0.135134701953885 
380	 0.135395377196289 
381	 0.136275654330293 
382	 0.13671348115059 
383	 0.136931835667007 
384	 0.137649552532543 
385	 0.138078400613401 
386	 0.138702616516209 
387	 0.139558912020874 
388	 0.140094717359057 
389	 0.140187362195785 
390	 0.140558061957968 
391	 0.141434525188739 
392	 0.141438344869701 
393	 0.141724219198957 
394	 0.142204261597478 
395	 0.14248010278921 
396	 0.143226352352901 
397	 0.143671884426483 
398	 0.143773189444914 
399	 0.144132940834301 
400	 0.144138844704451 
401	 0.144265333187703 
402	 0.144758970365208 
403	 0.145005278651351 
404	 0.145379742827066 
405	 0.145776020302443 
406	 0.145981964324995 
407	 0.14624569878664 
408	 0.146442508513444 
409	 0.146614006336541 
410	 0.146969431611795 
411	 0.147383771324303 
412	 0.147583038935758 
413	 0.147539882957388 
414	 0.147855300180012 
415	 0.148199238246609 
416	 0.148461974408087 
417	 0.148653158850338 
418	 0.148935862593951 
419	 0.149300432186246 
420	 0.149734128428303 
421	 0.150233257016069 
422	 0.150586033403188 
423	 0.150891864830378 
424	 0.151313285121574 
425	 0.152025763383597 
426	 0.15254670134139 
427	 0.153001827630477 
428	 0.153734675284327 
429	 0.154311673467805 
430	 0.154809587538264 
431	 0.155359370409119 
432	 0.156092222042495 
433	 0.15682391452268 
434	 0.157456885957707 
435	 0.158006021129666 
436	 0.158753548918059 
437	 0.159394458925324 
438	 0.159962680765744 
439	 0.160635753117796 
440	 0.161090249145912 
441	 0.161556319369234 
442	 0.162163166634972 
443	 0.162811534405513 
444	 0.163298842667114 
445	 0.163732974772198 
446	 0.164248018129368 
447	 0.164709914238973 
448	 0.165090985436515 
449	 0.165439023833673 
450	 0.16583666705135 
451	 0.166035245196359 
452	 0.166287519843184 
453	 0.166672089626264 
454	 0.166753563059581 
455	 0.166904784992131 
456	 0.167062918793813 
457	 0.167076925782728 
458	 0.167205961077715 
459	 0.167268218818794 
460	 0.167259633673085 
461	 0.167367368265815 
462	 0.167464593800171 
463	 0.167527505277495 
464	 0.167554865772116 
465	 0.167537268713915 
466	 0.167597139806531 
467	 0.167719901843279 
468	 0.16780755440791 
469	 0.167715109989131 
470	 0.167826600844704 
471	 0.168137682478392 
472	 0.168069866794236 
473	 0.168109750066972 
474	 0.168354307191283 
475	 0.168703536426638 
476	 0.168734908956635 
477	 0.168910648920698 
478	 0.169241333563194 
479	 0.169441508681951 
480	 0.169699233571614 
481	 0.169977804164797 
482	 0.170261683610957 
483	 0.170642957735859 
484	 0.170919233064076 
485	 0.17124266854377 
486	 0.171792475175022 
487	 0.172135380264748 
488	 0.172525766379588 
489	 0.17304857199214 
490	 0.173587165808291 
491	 0.173963840443648 
492	 0.174424859255869 
493	 0.175119711751309 
494	 0.175715756334771 
495	 0.176309238966928 
496	 0.176884295593392 
497	 0.177393846115006 
498	 0.177956169564216 
499	 0.178610677129504 
500	 0.179298997168906 
501	 0.179830434700928 
502	 0.180310528962697 
503	 0.180860058301542 
504	 0.181554513388181 
505	 0.182263164153279 
506	 0.183034460544123 
507	 0.183866222599568 
508	 0.184710863524672 
509	 0.185520182205502 
510	 0.186355057996301 
511	 0.18723590669088 
512	 0.188053941346157 
513	 0.188838483193674 
514	 0.189641203386173 
515	 0.190512251857275 
516	 0.191425622419933 
517	 0.192345565961519 
518	 0.193234080406007 
519	 0.19405796123401 
520	 0.194970073100519 
521	 0.195895685893299 
522	 0.196756387355131 
523	 0.197620528874885 
524	 0.19858043476297 
525	 0.199622090984697 
526	 0.200657404125832 
527	 0.201656529735297 
528	 0.202727339910866 
529	 0.203882321338358 
530	 0.204895492887474 
531	 0.20608412381685 
532	 0.207396387586755 
533	 0.208644275310857 
534	 0.209778040585173 
535	 0.210919802240201 
536	 0.212133303898575 
537	 0.213395210760505 
538	 0.214636708391445 
539	 0.2158171425413 
540	 0.216964918175382 
541	 0.218303973710633 
542	 0.219573393432108 
543	 0.220784404647341 
544	 0.222108487997265 
545	 0.2233991758511 
546	 0.224652463300727 
547	 0.225890945625792 
548	 0.227162292229075 
549	 0.228382428898963 
550	 0.229566253428613 
551	 0.230742004407931 
552	 0.231780331916494 
553	 0.232780229169574 
554	 0.233810185945434 
555	 0.234879551478456 
556	 0.235860707528282 
557	 0.236817754052944 
558	 0.237807254734732 
559	 0.238733053550537 
560	 0.239650582330365 
561	 0.240562255630539 
562	 0.241448600804151 
563	 0.242383752766952 
564	 0.243196146907004 
565	 0.243824301912476 
566	 0.244483264828075 
567	 0.245041093999079 
568	 0.245550874203687 
569	 0.246113460214171 
570	 0.246707676155607 
571	 0.247298117130663 
572	 0.247828721617042 
573	 0.248227256428453 
574	 0.248657845872231 
575	 0.249173804960661 
576	 0.24975593953887 
577	 0.25026709173097 
578	 0.250787538068239 
579	 0.251325355646787 
580	 0.251834047493394 
581	 0.252195466751481 
582	 0.252515025937168 
583	 0.25284677704759 
584	 0.253120617163496 
585	 0.25300806955252 
586	 0.252619310038988 
587	 0.252225493257184 
588	 0.25185820607849 
589	 0.251839281453229 
590	 0.252243892887179 
591	 0.252850480462239 
592	 0.253247481522221 
593	 0.253623454667352 
594	 0.25419192562542 
595	 0.254867064659739 
596	 0.255494968949877 
597	 0.256070963725975 
598	 0.256660055900379 
599	 0.257121622220772 
600	 0.257562497260016 
601	 0.257963703033776 
602	 0.258026949892233 
603	 0.258241490210057 
604	 0.258404492084102 
605	 0.258221929497819 
606	 0.258179388113067 
607	 0.25799489737793 
608	 0.257691169035727 
609	 0.257624261164134 
610	 0.257459219398975 
611	 0.257218201403072 
612	 0.256983746564007 
613	 0.256796285280359 
614	 0.256527605552341 
615	 0.256269990252554 
616	 0.256211942078244 
617	 0.256154427163608 
618	 0.256085427098806 
619	 0.256004179319885 
620	 0.255892646442134 
621	 0.255781717417569 
622	 0.255678532114892 
623	 0.255580943501679 
624	 0.25552044884853 
625	 0.255155981799444 
626	 0.254667568624376 
627	 0.254716071637734 
628	 0.254769699814788 
629	 0.254885126018506 
630	 0.255101903583997 
631	 0.255114056054716 
632	 0.255147630424691 
633	 0.255211127490223 
634	 0.255212733995783 
635	 0.255126467589991 
636	 0.255072530196924 
637	 0.255052690104614 
638	 0.254875625418141 
639	 0.25489193290203 
640	 0.25490697813585 
641	 0.254668558787664 
642	 0.254395508724558 
643	 0.25403152499298 
644	 0.253400516567029 
645	 0.252269418136501 
646	 0.251239606834327 
647	 0.250520160744046 
648	 0.250147177321888 
649	 0.249975700527198 
650	 0.249493308607689 
651	 0.248897875931514 
652	 0.248608569523911 
653	 0.248229679361326 
654	 0.24771657505362 
655	 0.247160474000871 
656	 0.246861824475019 
657	 0.246563704467104 
658	 0.246182422380883 
659	 0.245677354439645 
660	 0.245023351129648 
661	 0.244358521458783 
662	 0.243634362107632 
663	 0.242730308429555 
664	 0.241897681458677 
665	 0.241177739177791 
666	 0.240527315080027 
667	 0.239832974458755 
668	 0.239129849210194 
669	 0.23855786680966 
670	 0.238230956755255 
671	 0.237931182232368 
672	 0.237658246793198 
673	 0.237508982778205 
674	 0.237646051932923 
675	 0.237827662669458 
676	 0.238156550791989 
677	 0.238705285470936 
678	 0.239298542977348 
679	 0.240027615024462 
680	 0.240967606568408 
681	 0.242185239838096 
682	 0.243731975514564 
683	 0.245441272515518 
684	 0.247115019064579 
685	 0.248694154378856 
686	 0.250866928826294 
687	 0.253641906085854 
688	 0.256587498179487 
689	 0.259885130779745 
690	 0.262991021819459 
691	 0.265834877131514 
692	 0.268720537413468 
693	 0.272620567736532 
694	 0.277083414816163 
695	 0.281392996089909 
696	 0.285548450739258 
697	 0.289076703683741 
698	 0.292458165489324 
699	 0.296063825276732 
700	 0.299907647210117 
701	 0.304106936622568 
702	 0.308242482220511 
703	 0.311781807740373 
704	 0.314953394432405 
705	 0.318082442486474 
706	 0.321212932869567 
707	 0.324131975287934 
708	 0.326830897384582 
709	 0.32934071788797 
710	 0.331680090123535 
711	 0.333797906487575 
712	 0.335624730263369 
713	 0.337007526902424 
714	 0.337718497617926 
715	 0.3377358432142 
716	 0.337488412475355 
717	 0.337682493306335 
718	 0.33883800082413 
719	 0.340787705976731 
720	 0.342468053884497 
721	 0.343437661765103 
722	 0.343499798969951 
723	 0.343388819424213 
724	 0.343603403897299 
725	 0.344170693348594 
726	 0.344719853692218 
727	 0.345055685994893 
728	 0.34514340790127 
729	 0.34519200238547 
730	 0.345610011254808 
731	 0.346356930110222 
732	 0.34712956338784 
733	 0.347353198318815 
734	 0.347292803169659 
735	 0.347254410957325 
736	 0.347574420760625 
737	 0.348164616870054 
738	 0.348782962795401 
739	 0.349270216791917 
740	 0.349845806872566 
741	 0.350368764140291 
742	 0.350881820439748 
743	 0.351475890384409 
744	 0.351757304895962 
745	 0.352072834902716 
746	 0.352506552011707 
747	 0.352703295839518 
748	 0.353081556993161 
749	 0.353425425658971 
750	 0.353544018147727 
751	 0.353891258866632 
752	 0.354076686223902 
753	 0.354180186856508 
754	 0.354489253560986 
755	 0.354698107366377 
756	 0.354836541011189 
757	 0.354734709651972 
758	 0.353573529645396 
759	 0.352049839389027 
760	 0.35050902938235 
761	 0.350000193987901 
762	 0.350268768253998 
763	 0.351620162607326 
764	 0.353348649560712 
765	 0.354759633146291 
766	 0.355909169689421 
767	 0.35674043270362 
768	 0.357346249825737 
769	 0.357914667844963 
770	 0.358403265906867 
771	 0.358786194459286 
772	 0.359099758134446 
773	 0.359568263728751 
774	 0.359794194189997 
775	 0.359954743431861 
776	 0.360389415779754 
777	 0.360719148791751 
778	 0.361112964994034 
779	 0.361557757614626 
780	 0.361838152354242 
781	 0.36209667557763 
782	 0.362408018879992 
783	 0.362732445336799 
784	 0.362791579541808 
785	 0.362906377389979 
786	 0.363027106240982 
787	 0.363040060690171 
788	 0.363247657298277 
789	 0.363597151547726 
790	 0.364106483527264 
791	 0.36483016577639 
792	 0.365470674631029 
793	 0.365822390376734 
794	 0.365919740426574 
795	 0.366116016676993 
796	 0.366411429725737 
797	 0.366720939688542 
798	 0.366948776707718 
799	 0.367018087171107 
800	 0.367142168468846 
801	 0.367478615615531 
802	 0.368085001121434 
803	 0.368729756740483 
804	 0.369165627730314 
805	 0.369383164901652 
806	 0.369602485635989 
807	 0.369710202752118 
808	 0.369577948940596 
809	 0.369158105397176 
810	 0.368614630843209 
811	 0.368116173620445 
812	 0.367505944413657 
813	 0.366577837256904 
814	 0.365903814781056 
815	 0.365314330611684 
816	 0.365279635726044 
817	 0.366409640506444 
818	 0.366752490755428 
819	 0.366755955448925 
820	 0.36668004202168 
821	 0.366192448614698 
822	 0.365847481523679 
823	 0.365581104127064 
824	 0.365190558873577 
825	 0.364552199260519 
826	 0.363736038336144 
827	 0.362811063412611 
828	 0.361937460307879 
829	 0.361207804713263 
830	 0.360536280312553 
831	 0.359965748778098 
832	 0.359652699286276 
833	 0.359590149967296 
834	 0.359719324917903 
835	 0.3598211281828 
836	 0.359516403679857 
837	 0.359506771981028 
838	 0.359731268554052 
839	 0.359935561267607 
840	 0.359811455293271 
841	 0.359848394558891 
842	 0.359986036579194 
843	 0.360000134994484 
844	 0.359947131029703 
845	 0.359833829553912 
846	 0.359780506573945 
847	 0.359911657510088 
848	 0.359707388236954 
849	 0.359420248295487 
850	 0.359286100335188 
851	 0.359361107513644 
852	 0.35903703767855 
853	 0.358825108946691 
854	 0.359000713322374 
855	 0.358835080929955 
856	 0.358671192655523 
857	 0.358698664765043 
858	 0.358915717619582 
859	 0.358816957499522 
860	 0.35869430732507 
861	 0.358544264186739 
862	 0.358298416498153 
863	 0.35849746376191 
864	 0.358405200710372 
865	 0.358070788443318 
866	 0.358235479295692 
867	 0.35815925365632 
868	 0.357920512124946 
869	 0.357671983433026 
870	 0.357500742042141 
871	 0.357173184129064 
872	 0.356815515582123 
873	 0.356617760504661 
874	 0.356752122557924 
875	 0.356532958105169 
876	 0.356012533617678 
877	 0.355505098759948 
878	 0.355245039970711 
879	 0.355177769847979 
880	 0.35499984982776 
881	 0.354465971319668 
882	 0.354332389998768 
883	 0.353859984035619 
884	 0.353222910291984 
885	 0.353190838505019 
886	 0.352865176621373 
887	 0.352480704533495 
888	 0.352220798795994 
889	 0.352014918793161 
890	 0.350963785972579 
891	 0.34999238858604 
892	 0.349508699546479 
893	 0.348212844295763 
894	 0.346727375566127 
895	 0.34590807546659 
896	 0.345952026590052 
897	 0.344581963540938 
898	 0.343440155938172 
899	 0.342929810989595 
900	 0.342876230992514 
901	 0.343229306384987 
902	 0.342904017952917 
903	 0.342477925519528 
904	 0.342737797078102 
905	 0.342302623862975 
906	 0.340988399346721 
907	 0.339413600766349 
908	 0.338741698369626 
909	 0.338426890453475 
910	 0.337889355020317 
911	 0.336844938236648 
912	 0.335424480083112 
913	 0.334438262091571 
914	 0.333592135591 
915	 0.332851830935869 
916	 0.332572269572365 
917	 0.332506385273398 
918	 0.332605108804891 
919	 0.332335079885866 
920	 0.330639282540555 
921	 0.330329421474777 
922	 0.329835140520966 
923	 0.328168302067278 
924	 0.32750686610522 
925	 0.323965019908789 
926	 0.320480614642709 
927	 0.320270623009704 
928	 0.317403633301436 
929	 0.314947319332415 
930	 0.311886617477148 
931	 0.305195312414098 
932	 0.297318904141548 
933	 0.296404539743182 
934	 0.299325304919946 
935	 0.296916546667393 
936	 0.294446784186578 
937	 0.286134783916963 
938	 0.281422772619202 
939	 0.287401815242609 
940	 0.286730718937473 
941	 0.27965381487106 
942	 0.272176299988437 
943	 0.272161838640294 
944	 0.275237064704014 
945	 0.272612626992717 
946	 0.265663295405641 
947	 0.261870060560881 
948	 0.26309725198424 
949	 0.262236414158889 
950	 0.25960939833678 
951	 0.259324759666677 
952	 0.256343879231545 
953	 0.251977766351031 
954	 0.250421396221288 
955	 0.254639433505016 
956	 0.251808141626102 
957	 0.250670698814098 
958	 0.252420358075042 
959	 0.252379105990484 
960	 0.251055555506293 
961	 0.249016870709226 
962	 0.24841940043067 
963	 0.250840959783416 
964	 0.248497489481836 
965	 0.250501190682013 
966	 0.255601223612782 
967	 0.255867160442281 
968	 0.253321574609719 
969	 0.25354284012599 
970	 0.255357081614365 
971	 0.252855198043567 
972	 0.251287786345179 
973	 0.252010194887605 
974	 0.253866127541102 
975	 0.253961948604461 
976	 0.253036818994069 
977	 0.253030241855171 
978	 0.253963855555186 
979	 0.254329466817549 
980	 0.254770162831752 
981	 0.256824747675238 
982	 0.258643516661871 
983	 0.256949605462083 
984	 0.257491501746943 
985	 0.2581278979262 
986	 0.258721378635497 
987	 0.260818508152212 
988	 0.262422388920326 
989	 0.263383518549992 
990	 0.263514617911822 
991	 0.26274975333337 
992	 0.262340411227768 
993	 0.263462216097816 
994	 0.265191875176251 
995	 0.265674643741477 
996	 0.266495427625512 
997	 0.26668509073505 
998	 0.267481001071149 
999	 0.270435132700216 
1000	 0.271390889035699 
1001	 0.271792259627997 
1002	 0.271932367438799 
1003	 0.272752101332792 
1004	 0.274532608508005 
1005	 0.275609629605171 
1006	 0.276936177303379 
1007	 0.277588310035467 
1008	 0.2782177914025 
1009	 0.278693953812208 
1010	 0.279483236078393 
1011	 0.280505632498552 
1012	 0.280457684597113 
1013	 0.280737965052736 
1014	 0.281417465615792 
1015	 0.282096798216661 
1016	 0.28296229501355 
1017	 0.284820168170208 
1018	 0.285681784551271 
1019	 0.2853282280762 
1020	 0.28634251129572 
1021	 0.287674448903223 
1022	 0.289311580619746 
1023	 0.291482265064187 
1024	 0.293329259248567 
1025	 0.294622473592716 
1026	 0.295155769414899 
1027	 0.295901294995541 
1028	 0.296537376299728 
1029	 0.297291061025865 
1030	 0.297968905192512 
1031	 0.298522077556278 
1032	 0.298978081937492 
1033	 0.299548124232531 
1034	 0.299710768233066 
1035	 0.300539247444042 
1036	 0.301645596633095 
1037	 0.302965956262358 
1038	 0.304809698819023 
1039	 0.306904037592164 
1040	 0.307967793689717 
1041	 0.309351170232449 
1042	 0.310283878623831 
1043	 0.310501233321963 
1044	 0.311276872881754 
1045	 0.31214854768228 
1046	 0.313115136006813 
1047	 0.314397886385391 
1048	 0.315192007847613 
1049	 0.3158746087207 
1050	 0.316594426003212 
1051	 0.316973451087468 
1052	 0.317475337298897 
1053	 0.318077177978217 
1054	 0.318725392885272 
1055	 0.319426634347623 
1056	 0.320045475143691 
1057	 0.320654790652136 
1058	 0.321523224903101 
1059	 0.321764391361026 
1060	 0.321659365127609 
1061	 0.321552711194085 
1062	 0.32085244950816 
1063	 0.320861590749986 
1064	 0.321192399642562 
1065	 0.32139666004741 
1066	 0.321925664697702 
1067	 0.322284511612459 
1068	 0.322482035488646 
1069	 0.322683268704515 
1070	 0.323230942442566 
1071	 0.323267716084069 
1072	 0.322837823151725 
1073	 0.322460582972777 
1074	 0.322208187440719 
1075	 0.321559861612643 
1076	 0.321547385636665 
1077	 0.322430503207177 
1078	 0.322142571647125 
1079	 0.321580366992665 
1080	 0.320860872563264 
1081	 0.318905510367876 
1082	 0.318141099126232 
1083	 0.318370822246982 
1084	 0.317811676200285 
1085	 0.317311244227648 
1086	 0.316763076498814 
1087	 0.31539167931639 
1088	 0.314519876285284 
1089	 0.313972154418013 
1090	 0.313901742648863 
1091	 0.313245336316878 
1092	 0.312484938177332 
1093	 0.311586237145007 
1094	 0.310167433887175 
1095	 0.309061688490706 
1096	 0.308440026860107 
1097	 0.307127878138191 
1098	 0.30495853648145 
1099	 0.3036785217687 
1100	 0.302653560900708 
1101	 0.301042630385811 
1102	 0.299806249735494 
1103	 0.298567947065422 
1104	 0.296833348903314 
1105	 0.294497837132495 
1106	 0.292928957201595 
1107	 0.292414804261915 
1108	 0.293420139854298 
1109	 0.292765871915763 
1110	 0.292011517505646 
1111	 0.291998735294961 
1112	 0.290706336648352 
1113	 0.286704519415823 
1114	 0.284991819161651 
1115	 0.283899323726044 
1116	 0.281859193491791 
1117	 0.28077379402758 
1118	 0.278464819968762 
1119	 0.274651099596711 
1120	 0.271765789933774 
1121	 0.273743267542623 
1122	 0.264422007439268 
1123	 0.257197989034855 
1124	 0.260561023311776 
1125	 0.255254849693332 
1126	 0.252016631064245 
1127	 0.256381853429621 
1128	 0.256848839292608 
1129	 0.255148325058166 
1130	 0.258500551854995 
1131	 0.252998642855427 
1132	 0.235682126545342 
1133	 0.232719542644982 
1134	 0.239323451475811 
1135	 0.235421444913843 
1136	 0.230278230984156 
1137	 0.224681605363321 
1138	 0.212116525913144 
1139	 0.203869093934559 
1140	 0.203609123086535 
1141	 0.211798895188064 
1142	 0.216950945052946 
1143	 0.210926247045059 
1144	 0.205330882191301 
1145	 0.204288884372208 
1146	 0.202392004966514 
1147	 0.203996074609891 
1148	 0.203582737682176 
1149	 0.198263152764409 
1150	 0.197050580567497 
1151	 0.19870553935147 
1152	 0.197607213087633 
1153	 0.195783793049183 
1154	 0.196134917892398 
1155	 0.197187398876434 
1156	 0.195275647322573 
1157	 0.195587648852183 
1158	 0.198605115691526 
1159	 0.198801689217279 
1160	 0.198331296666499 
1161	 0.19951651759164 
1162	 0.198637808472417 
1163	 0.196732709582628 
1164	 0.197381631156569 
1165	 0.198925393011074 
1166	 0.199306229258225 
1167	 0.199787817511605 
1168	 0.200831617879811 
1169	 0.201167648188158 
1170	 0.201289789571346 
1171	 0.201447608504901 
1172	 0.202061536269927 
1173	 0.202047410594637 
1174	 0.201438808161003 
1175	 0.201132982093059 
1176	 0.201612465190827 
1177	 0.20212415270695 
1178	 0.202328740307716 
1179	 0.20217472983875 
1180	 0.201722402798791 
1181	 0.201655448739914 
1182	 0.201116498427118 
1183	 0.200447100496692 
1184	 0.199794748234214 
1185	 0.198429987944999 
1186	 0.1984010355993 
1187	 0.199487023930303 
1188	 0.199901703725208 
1189	 0.200472523526633 
1190	 0.200839543630706 
1191	 0.200226501253677 
1192	 0.200056916655592 
1193	 0.200192095570181 
1194	 0.20029195222861 
1195	 0.199470362875288 
1196	 0.199261742080578 
1197	 0.19945928002885 
1198	 0.199386875891972 
1199	 0.199550752316612 
1200	 0.199541123535538 
1201	 0.199261280423132 
1202	 0.199080299927575 
1203	 0.199422971504049 
1204	 0.200436451787546 
1205	 0.20069804566126 
1206	 0.200340111422575 
1207	 0.200563305051195 
1208	 0.200824698154484 
1209	 0.201364939036309 
1210	 0.202274027922012 
1211	 0.202351226260102 
1212	 0.201722330358456 
1213	 0.20129727362735 
1214	 0.201332568015143 
1215	 0.201539109177976 
1216	 0.202131334943655 
1217	 0.202688180975718 
1218	 0.20332119063697 
1219	 0.203818308956455 
1220	 0.203631190464806 
1221	 0.204002677730246 
1222	 0.20450880065109 
1223	 0.204570185209838 
1224	 0.205170331015273 
1225	 0.205565493132172 
1226	 0.205706725466157 
1227	 0.205940035741488 
1228	 0.206181018089808 
1229	 0.206434532568702 
1230	 0.206441894296933 
1231	 0.206686053332211 
1232	 0.207147361620926 
1233	 0.207691904288801 
1234	 0.208391742677577 
1235	 0.20878750442921 
1236	 0.208805231313233 
1237	 0.209063678800411 
1238	 0.209352690748362 
1239	 0.209500808398233 
1240	 0.209543698894259 
1241	 0.209448852509281 
1242	 0.208925589549151 
1243	 0.208730204171438 
1244	 0.209221267630717 
1245	 0.209597194904257 
1246	 0.21009746785561 
1247	 0.210748195519572 
1248	 0.210729075372717 
1249	 0.210505643843399 
1250	 0.210368319111813 
1251	 0.210079373757173 
1252	 0.209989596777445 
1253	 0.210028001377741 
1254	 0.210066463580989 
1255	 0.210146368053703 
1256	 0.210236397691697 
1257	 0.210400915261853 
1258	 0.210373311309839 
1259	 0.210382073208427 
1260	 0.210238554865136 
1261	 0.209722835885063 
1262	 0.209435831521918 
1263	 0.209254691879464 
1264	 0.208977901647783 
1265	 0.208769514751204 
1266	 0.208533345330658 
1267	 0.208116884377348 
1268	 0.207730313802143 
1269	 0.207106543340246 
1270	 0.20711073996066 
1271	 0.207994156858084 
1272	 0.208320539565969 
1273	 0.208444423922203 
1274	 0.208730774554506 
1275	 0.208515017034061 
1276	 0.208199632479054 
1277	 0.208273084769978 
1278	 0.208218923019579 
1279	 0.207835080320564 
1280	 0.207681060422208 
1281	 0.207564875780991 
1282	 0.207571594773676 
1283	 0.207326322152714 
1284	 0.207045741838875 
1285	 0.206641163194981 
1286	 0.206105680058946 
1287	 0.20555058054288 
1288	 0.204599089306877 
1289	 0.204130422736972 
1290	 0.204008530487499 
1291	 0.20363701444505 
1292	 0.202612693246444 
1293	 0.202104310697955 
1294	 0.201626410577034 
1295	 0.200561266797719 
1296	 0.200174131730012 
1297	 0.200262492703041 
1298	 0.199298432580751 
1299	 0.197874724661887 
1300	 0.196644455835836 
1301	 0.195404716660648 
1302	 0.194320471721629 
1303	 0.193388826857794 
1304	 0.192498448382236 
1305	 0.191184491125392 
1306	 0.190154031815422 
1307	 0.189247331574763 
1308	 0.188408168512674 
1309	 0.1880144210424 
1310	 0.186859708570891 
1311	 0.184958389452042 
1312	 0.183532331101214 
1313	 0.181797737686943 
1314	 0.180803956296517 
1315	 0.181030186144186 
1316	 0.180239530772269 
1317	 0.179163666737795 
1318	 0.17796875626245 
1319	 0.176422567069042 
1320	 0.174659926472172 
1321	 0.172163838612501 
1322	 0.170528869853059 
1323	 0.170607609595915 
1324	 0.169118950042867 
1325	 0.166819377289598 
1326	 0.165803678849412 
1327	 0.16398681461498 
1328	 0.161781905424277 
1329	 0.161191931987223 
1330	 0.160285269857243 
1331	 0.158701118101701 
1332	 0.158431680111678 
1333	 0.158343833908787 
1334	 0.155858052756918 
1335	 0.154206830504245 
1336	 0.150411528709646 
1337	 0.147309378522955 
1338	 0.144858150767535 
1339	 0.144422875282226 
1340	 0.143616159426371 
1341	 0.142147377313239 
1342	 0.145282115085732 
1343	 0.145820999562992 
1344	 0.141196401785969 
1345	 0.139011959238925 
1346	 0.137023995474402 
1347	 0.137521980309198 
1348	 0.144097470308018 
1349	 0.144268692150216 
1350	 0.141034614144825 
1351	 0.141444975360915 
1352	 0.136452836571985 
1353	 0.125778191018173 
1354	 0.102681472428738 
1355	 0.146892540234089 
1356	 0.257384533644614 
1357	 0.16779225918343 
1358	 8.59353815052082E-02 
1359	-2.94351403114481E-02 
1360	-0.128457779151613 
1361	-0.11505104970787 
1362	-0.109951776378115 
1363	 0.159754384660897 
1364	 0.545871939714635 
1365	 0.825775009505596 
1366	 1.06553558199013 
1367	 0.608802979045519 
1368	 0.872271680232796 
1369	 1.03937030241458 
1370	 0.73240168061876 
1371	 0.650116361369273 
1372	 0.926815035653731 
1373	 0.771917344361806 
1374	 0.507253055619959 
1375	 18.0209943090607 
1376	 5.14964727589191 
1377	-0.784794564190731 
1378	-0.601380960015663 
1379	 0.293172560576936 
1380	 0.318120151417047 
1381	 0.246521018541807 
1382	 0.461268844311863 
1383	 0.707848853518058 
1384	 0.470269346197341 
1385	 0.899979732689281 
1386	-9.49833015125224 
1387	 0.990586923395429 
1388	-0.108471253130614 
1389	-0.544106276707777 
1390	 0.136888415891763 
1391	 0.159037109516544 
1392	 0.42001758106118 
1393	 1.44428764448859 
1394	 3.94674223063483 
1395	 2.94708376879555 
1396	-8.49399455877502 
1397	-10.1381060034125 
1398	 2.63156619942125 
1399	 2.20696582710243 
1400	 81.3021828048406 
1401	-3.31742274486651 
1402	-2.40697362725639 
1403	-3.53212493532731 
1404	 1.56009649195751 
1405	 1.07451834580005 
1406	 0.773645600097854 
1407	 0.489603423090686 
1408	 0.243265313598467 
1409	 0.116519168848465 
1410	-6.68815427244721E-02 
1411	-0.203296783569761 
1412	-0.227235777583016 
1413	-0.120047943774151 
1414	-0.159502300063342 
1415	-0.533496468919292 
1416	-0.218336068192606 
1417	-0.084018961224899 
1418	-0.142113343308924 
1419	-9.22132348454861E-02 
1420	 0.333408836467685 
1421	 0.353724055886137 
1422	 4.88981371646815E-02 
1423	 2.67905908976824E-02 
1424	 0.114860620993118 
1425	 0.109054203400289 
1426	 0.125080564276859 
1427	 0.116605535030731 
1428	 5.05231911973615E-02 
1429	 0.021028018397333 
1430	-2.90593282026063E-02 
1431	-2.94357348456011E-02 
1432	 2.57214494395029E-02 
1433	 5.18567208966551E-02 
1434	 9.53529893911801E-02 
1435	 0.143614016592095 
1436	 0.283154704656625 
1437	 0.220872742497983 
1438	 1.64592883330014E-02 
1439	 9.53221687760235E-03 
1440	-2.98599159072025E-02 
1441	-8.84510723910981E-02 
1442	-0.010573624581533 
1443	 4.27476844108828E-03 
1444	-1.40749004143564E-02 
1445	 2.57290819229084E-02 
1446	 3.66724182034033E-02 
1447	 2.14828331402866E-02 
1448	 1.42805056001503E-02 
1449	 7.5477655734486E-03 
1450	 2.44816259111587E-02 
1451	 4.20667895962641E-02 
1452	 3.88525551790816E-02 
1453	 3.05201285795119E-02 
1454	 0.031063374803213 
1455	 2.32299397534851E-02 
1456	 2.66437418716817E-02 
1457	 4.31583929259469E-02 
1458	 4.63065216004094E-02 
1459	 4.59892040832364E-02 
1460	 4.38209915677357E-02 
1461	 3.78444692530627E-02 
1462	 3.25875957565549E-02 
1463	 2.04448460604634E-02 
1464	 1.83999480403029E-02 
1465	 0.024733137171695 
1466	 2.48985285277825E-02 
1467	 2.69875912684885E-02 
1468	 2.81780821850969E-02 
1469	 2.05623385757771E-02 
1470	 2.64118956057871E-02 
1471	 4.83129123973188E-02 
1472	 0.050105619701145 
1473	 4.10804845721088E-02 
1474	 4.72037676517264E-02 
1475	 5.69238800692821E-02 
1476	 5.41166426469738E-02 
1477	 0.049970599237207 
1478	 5.36533803746432E-02 
1479	 5.39838826292175E-02 
1480	 4.97695710009837E-02 
1481	 0.051482937307464 
1482	 5.25850581314061E-02 
1483	 4.42364030568438E-02 
1484	 0.041635411933839 
1485	 4.83549166084572E-02 
1486	 4.96838900845075E-02 
1487	 4.44919899305199E-02 
1488	 4.53368669946813E-02 
1489	 4.93946983544275E-02 
1490	 5.13514868972337E-02 
1491	 5.39105535684792E-02 
1492	 5.55989032036413E-02 
1493	 5.64880049077564E-02 
1494	 5.71205333242213E-02 
1495	 5.77140790061709E-02 
1496	 5.84188907391849E-02 
1497	 5.90074383418525E-02 
1498	 5.89385461727103E-02 
1499	 0.057728903688688 
1500	 5.84165430789675E-02 
1501	 6.08635117370717E-02 
1502	 6.13774586300111E-02 
1503	 6.15502367120911E-02 
1504	 6.21643611767232E-02 
1505	 6.21427233162566E-02 
1506	 6.12920371214593E-02 
1507	 6.13225667558447E-02 
1508	 6.23347796199771E-02 
1509	 6.41930385308821E-02 
1510	 6.59653910588549E-02 
1511	 6.64409709362078E-02 
1512	 0.066966174271367 
1513	 6.64896062685634E-02 
1514	 6.50336937161543E-02 
1515	 6.52732174410015E-02 
1516	 6.62398842847353E-02 
1517	 6.72798593509686E-02 
1518	 6.82280544914136E-02 
1519	 0.068820005759246 
1520	 6.94964431899722E-02 
1521	 6.96817515685897E-02 
1522	 7.05217902574213E-02 
1523	 7.19182874263153E-02 
1524	 7.27516748182693E-02 
1525	 7.34293544456354E-02 
1526	 7.42579476306184E-02 
1527	 7.57560608156437E-02 
1528	 7.69847072456966E-02 
1529	 7.68296470065072E-02 
1530	 7.66576492746461E-02 
1531	 7.73303409952134E-02 
1532	 7.76675140815113E-02 
1533	 7.73292143457443E-02 
1534	 7.77850962596239E-02 
1535	 7.86018185760798E-02 
1536	 0.079142718619782 
1537	 8.10895078167386E-02 
1538	 0.082506904471547 
1539	 8.21328785705099E-02 
1540	 8.27009146131509E-02 
1541	 8.35543369190305E-02 
1542	 8.34291320081307E-02 
1543	 0.083320520298494 
1544	 8.37245531562024E-02 
1545	 8.45071841809534E-02 
1546	 8.52119267290223E-02 
1547	 8.58903507434905E-02 
1548	 8.63079447766245E-02 
1549	 8.62309860861287E-02 
1550	 0.086940131583451 
1551	 8.79908281339039E-02 
1552	 8.87319033384963E-02 
1553	 9.03643617029307E-02 
1554	 9.13091551630491E-02 
1555	 9.09596437860605E-02 
1556	 9.10808034419324E-02 
1557	 9.10564503546192E-02 
1558	 0.091063669022534 
1559	 9.16047659696366E-02 
1560	 9.19280348453442E-02 
1561	 9.20516320230646E-02 
1562	 9.24960678151856E-02 
1563	 0.093780486950939 
1564	 9.47111067681069E-02 
1565	 9.45502221872232E-02 
1566	 9.46580451862925E-02 
1567	 9.49127108693073E-02 
1568	 9.49754211408452E-02 
1569	 9.58821506938521E-02 
1570	 9.65807418888583E-02 
1571	 0.09618949785463 
1572	 0.096144659829656 
1573	 9.65305158934559E-02 
1574	 9.66285587851349E-02 
1575	 9.65045340651204E-02 
1576	 9.70426850544985E-02 
1577	 9.81989620000972E-02 
1578	 9.87513385502528E-02 
1579	 9.93690453849212E-02 
1580	 0.100253453211618 
1581	 0.100194428956425 
1582	 0.100305168965265 
1583	 0.100982839248155 
1584	 0.101043166475929 
1585	 0.101389726791193 
1586	 0.102463497620361 
1587	 0.103162024202426 
1588	 0.103477529766663 
1589	 0.103781416279659 
1590	 0.103556127331696 
1591	 0.103487393439899 
1592	 0.103934028007353 
1593	 0.104410133032668 
1594	 0.105091162242617 
1595	 0.10506430504998 
1596	 0.104926320319424 
1597	 0.105844991322379 
1598	 0.106143016560787 
1599	 0.105750464170663 
1600	 0.106641280901987 
1601	 0.106870280429989 
1602	 0.105919459226977 
1603	 0.106641774105886 
1604	 0.107223608608953 
1605	 0.106893988692076 
1606	 0.107464240421255 
1607	 0.107597484905784 
1608	 0.107087753844472 
1609	 0.106853688017265 
1610	 0.106815535765929 
1611	 0.107435871324383 
1612	 0.10840583382438 
1613	 0.108888763132859 
1614	 0.108653793400617 
1615	 0.108062438244227 
1616	 0.107879260164937 
1617	 0.1089531093506 
1618	 0.110773329626608 
1619	 0.111222728351239 
1620	 0.110731618734203 
1621	 0.110816453846307 
1622	 0.110588079879816 
1623	 0.110921615942997 
1624	 0.111988356293115 
1625	 0.11177088816562 
1626	 0.111462994887404 
1627	 0.112147554841181 
1628	 0.11257602034723 
1629	 0.112868059464229 
1630	 0.11352816897908 
1631	 0.113521944107481 
1632	 0.113145981271287 
1633	 0.112755384602924 
1634	 0.112229696180567 
1635	 0.112370895049512 
1636	 0.112819722364634 
1637	 0.113429114492122 
1638	 0.113768985174258 
1639	 0.11299709640731 
1640	 0.113023742741146 
1641	 0.114248437307478 
1642	 0.114647609532525 
1643	 0.114747344466762 
1644	 0.114521192258091 
1645	 0.113928647826715 
1646	 0.113801771776703 
1647	 0.114066537122678 
1648	 0.114760376244013 
1649	 0.114722338292829 
1650	 0.114591990974505 
1651	 0.115294828814022 
1652	 0.11505940658954 
1653	 0.11488815526802 
1654	 0.115067201918491 
1655	 0.115400556857529 
1656	 0.115432684408625 
1657	 0.115414903758486 
1658	 0.115126494850112 
1659	 0.113979256195869 
1660	 0.11411412723375 
1661	 0.115503123159951 
1662	 0.115765797389535 
1663	 0.115839672603051 
1664	 0.115927176416583 
1665	 0.115156807781442 
1666	 0.114603062276549 
1667	 0.114931467185686 
1668	 0.114858558291571 
1669	 0.114296795863839 
1670	 0.114599695246004 
1671	 0.115069317959862 
1672	 0.11609344198253 
1673	 0.116353491626728 
1674	 0.116105552691276 
1675	 0.116145011416982 
1676	 0.115692650959665 
1677	 0.115492479420596 
1678	 0.115592520312486 
1679	 0.115437062222372 
1680	 0.115328427335927 
1681	 0.116243301384849 
1682	 0.117084662609906 
1683	 0.116595992766095 
1684	 0.116102638639707 
1685	 0.115171545214444 
1686	 0.114408122804315 
1687	 0.115225086005544 
1688	 0.116128729250322 
1689	 0.116210192469785 
1690	 0.115903275958442 
1691	 0.115492310940974 
1692	 0.114761926395169 
1693	 0.114684130524422 
1694	 0.114879848483662 
1695	 0.114195397148637 
1696	 0.114146178122159 
1697	 0.11468873754862 
1698	 0.114554833693486 
1699	 0.114128169802907 
1700	 0.11438063709163 
1701	 0.114234887445767 
1702	 0.113469509440432 
1703	 0.114118967690779 
1704	 0.114187329744341 
1705	 0.112896208295661 
1706	 0.112818104107946 
1707	 0.112851192759595 
1708	 0.112494206894056 
1709	 0.112589834660676 
1710	 0.112522562736715 
1711	 0.112594739042167 
1712	 0.113096188549031 
1713	 0.111869082921439 
1714	 0.11150003472453 
1715	 0.111744147673516 
1716	 0.112895807343275 
1717	 0.113467289818057 
1718	 0.113352629744041 
1719	 0.112908738479071 
1720	 0.111360359504802 
1721	 0.109823261460156 
1722	 0.110546324733919 
1723	 0.110765859076424 
1724	 0.109310063197886 
1725	 0.110311390515066 
1726	 0.111038378399465 
1727	 0.108865277380855 
1728	 0.108698856920971 
1729	 0.109701902096393 
1730	 0.109932197649114 
1731	 0.111958362536966 
1732	 0.112457651566969 
1733	 0.10871870239629 
1734	 0.106525093785466 
1735	 0.106324040925705 
1736	 0.106743680518656 
1737	 0.109316379624026 
1738	 0.109424368046663 
1739	 0.106510774135191 
1740	 0.104174715250076 
1741	 0.102406844992589 
1742	 0.101705620676279 
1743	 0.102477285493278 
1744	 0.102124108648834 
1745	 0.101524442914825 
1746	 0.101037808071661 
1747	 0.100754995732255 
1748	 0.101688339018774 
1749	 0.101227340567931 
1750	 0.100739201465733 
1751	 9.97678521798338E-02 
1752	 9.63313937970079E-02 
1753	 9.57959462633139E-02 
1754	 9.74560792886624E-02 
1755	 9.64723092237735E-02 
1756	 0.094846371266072 
1757	 9.65564068212178E-02 
1758	 0.095897727176503 
1759	 9.53924830828866E-02 
1760	 9.70137936988066E-02 
1761	 9.64558366240268E-02 
1762	 9.44405494847133E-02 
1763	 9.51308322931617E-02 
1764	 9.59032810830998E-02 
1765	 9.46451314454488E-02 
1766	 9.37673614418567E-02 
1767	 0.092796102085809 
1768	 9.29918909075772E-02 
1769	 0.094035408114914 
1770	 9.33208863013027E-02 
1771	 9.13387334385445E-02 
1772	 8.95920554279177E-02 
1773	 0.086778666499096 
1774	 8.60580225018998E-02 
1775	 9.27932941200135E-02 
1776	 0.092643853177785 
1777	 8.71598311932418E-02 
1778	 8.66805504214069E-02 
1779	 8.37133812650695E-02 
1780	 8.21318237187865E-02 
1781	 8.87051848844044E-02 
1782	 8.91787863690424E-02 
1783	 8.41062281688819E-02 
1784	 8.33345202759047E-02 
1785	 8.05174696169347E-02 
1786	 0.08179012511515 
1787	 0.090365853599704 
1788	 8.81495198436754E-02 
1789	 8.37368169428494E-02 
1790	 7.62970227351066E-02 
1791	 6.31362718103083E-02 
1792	 0.061255690698824 
1793	 6.75014346690005E-02 
1794	 6.88024715525595E-02 
1795	 7.35019376992634E-02 
1796	 9.14467613246976E-02 
1797	 8.58567500935245E-02 
1798	 5.99738476700177E-02 
1799	 3.84750922641087E-02 
1800	 0.029154385309935 
1801	 3.14485627478406E-02 
1802	 0.134013416983439 
1803	 0.168046714301872 
1804	 0.110091208890691 
1805	 8.83507656614889E-02 
1806	-6.4396398597403E-03 
1807	-2.18860665941223E-02 
1808	 0.188531370986839 
1809	 0.286154400863127 
1810	 0.332621935697354 
1811	 0.356680713837692 
1812	-7.29392010095937E-02 
1813	-0.174256149972316 
1814	-3.11265980770111E-02 
1815	 6.60631189960777E-02 
1816	 0.332038687561752 
1817	 1.92079331839081 
1818	-3.99378058751394 
1819	-0.286454423699098 
1820	-0.5444939549403 
1821	-0.214531797281741 
1822	-0.170031182557821 
1823	 3.47810923095647E-02 
1824	 7.01775264831216E-02 
1825	-0.327118078966767 
1826	-0.345196379365088 
1827	-0.989497690122092 
1828	-0.852476498123974 
1829	-3.50134587921246 
1830	-6.00779868584004 
1831	-3.00069129472565 
1832	-1.11941036487809 
1833	-0.90025147038625 
1834	-0.69319770791768 
1835	-0.142139627101372 
1836	 3.19659075565466E-02 
1837	 0.939926311985558 
1838	 1.85016762245034 
1839	-6.75794845780235 
1840	-1.3561677515361 
1841	-1.91806398548349 
1842	 7.27831407494699 
1843	 38.4323867598388 
1844	-3.01497284659608 
1845	-2.38767471391575 
1846	-1.25499848803473 
1847	-1.20607189041745 
1848	-1.86351910197415 
1849	 2.2014147444523 
1850	 0.219345601338139 
1851	-0.418021776673072 
1852	-0.534996321176903 
1853	-0.35706547928014 
1854	-0.470354212380991 
1855	-0.457718368984721 
1856	-0.421295859639256 
1857	-0.845880432741297 
1858	-0.958556181053602 
1859	 1.51697148089501 
1860	-6.74483613899201 
1861	-2.62187114854655 
1862	-1.02236659629571 
1863	-0.784997139983652 
1864	-0.882138847770513 
1865	-0.758805593420333 
1866	-0.66222973037999 
1867	-0.501592599152334 
1868	 0.194187047901643 
1869	 0.371966877032252 
1870	-4.13024221849876E-02 
1871	 0.251883878265513 
1872	-7.01867510655781E-02 
1873	-0.858748797836638 
1874	 3.23504729618212 
1875	-1.35108314173471 
1876	-0.456026530642987 
1877	-2.48441772301709 
1878	 2.59324265688229 
1879	-1.54577898986832 
1880	-1.04881588518598 
1881	 2.26218342742299E-03 
1882	 0.276746358517218 
1883	 0.496020172575903 
1884	 0.490853661158279 
1885	-0.52945168368899 
1886	-2.08994819091365 
1887	-3.97724579976486 
1888	-5.53444979101642 
1889	-3.83070703806254 
1890	 8.43506196428218E-02 
1891	 0.808753563871423 
1892	 0.908306729972599 
1893	-2.32034832422939E-02 
1894	-1.10371401338446 
1895	 14.2598656099262 
1896	 3.21371269165752 
1897	 3.62571125088701 
1898	 5.50392600313273 
1899	 1.73918306462338 
1900	 1.82895813266902 
1901	-14.3600991715471 
1902	-4.60034862430793 
1903	-4.47729499930283 
1904	-1.93752829389659 
1905	-0.574789883831802 
1906	 3.09394903412897 
1907	 7.47207011254023 
1908	-14.7705480935121 
1909	-8.53938660681105 
1910	-3.48130156950531 
1911	-2.06070311752749 
1912	-1.27600142453001 
1913	-1.67662846511045 
1914	-1.31056144572156 
1915	-0.697008272798246 
1916	 0.233254804771851 
1917	 1.16508521362463 
1918	 95.8917828913387 
1919	-1.7149826798352 
1920	 5.744565563922 
1921	-0.766025706281553 
1922	-0.66357097865567 
1923	-0.398639440822103 
1924	-0.335779528946114 
1925	-0.374014256988386 
1926	-0.531642097315453 
1927	-0.937071488086802 
1928	 18.4802326934453 
1929	 1.79590671008139 
1930	 1.1438095733148 
1931	 1.44544790120149 
1932	 6.0320851788449 
1933	-3.53121725626001 
1934	-1.47769559511216 
1935	-2.14957386656266 
1936	 17.4012308565847 
1937	-38.8579825363322 
1938	 1.01778963042124 
1939	 1.22032045777209 
1940	-1.06749370541365 
1941	-0.291436701971377 
1942	-0.376559592329553 
1943	-0.452541163544534 
1944	-0.103903072242632 
1945	 0.20888290305106 
1946	 0.697649232754867 
1947	 0.291692687531032 
1948	-0.440319738229355 
1949	-0.683641509806921 
1950	-0.563345555164147 
1951	-0.952534967064544 
1952	-0.758217617822378 
1953	-0.281589728076485 
1954	 1.17447417261558 
1955	 1.57220720462917 
1956	 1.43216213058431 
1957	 1.09734755107569 
1958	 0.632231153584131 
1959	 0.268445733455624 
1960	 0.29083843474967 
1961	 0.297471470311196 
1962	 0.232867459940889 
1963	 0.266470642041713 
1964	 0.206457181678468 
1965	 0.114238567508231 
1966	 6.85758038426063E-02 
1967	 4.81341172289065E-02 
1968	 0.010869749633483 
1969	-3.16463127109334E-02 
1970	-3.22600096223128E-02 
1971	-0.039706182137883 
1972	-4.63316255042875E-02 
1973	-8.16952070980608E-03 
1974	 9.73263375711214E-03 
1975	 1.62087059488838E-02 
1976	 1.85236956577614E-02 
1977	 1.02647758819645E-02 
1978	 1.38450712300957E-02 
1979	 9.23997445345114E-03 
1980	-1.58179149806064E-03 
1981	-3.94730481604019E-03 
1982	 1.00719307817106E-03 
1983	-4.36107830728949E-03 
1984	-4.58757336976118E-03 
1985	 3.33374518815672E-03 
1986	 1.16262038943835E-02 
1987	 1.51807936283445E-02 
1988	 2.02355436283318E-02 
1989	 2.68294151508639E-02 
1990	 3.65488648787232E-02 
1991	 3.43392872038341E-02 
1992	 1.56779407233201E-02 
1993	 1.06409696706229E-02 
1994	 1.19099900960819E-02 
1995	 7.33330952796501E-03 
1996	 1.12394971721728E-02 
1997	 0.047752991416712 
1998	 8.41844846949098E-02 
1999	 9.99717342925168E-02 
2000	 0.10985353108685 
2001	 0.105678375330315 
2002	 0.069408834957296 
2003	 6.09885286841089E-02 
2004	 8.88562910787798E-02 
2005	 8.98822915925558E-02 
2006	 4.47627500667002E-02 
2007	 2.51627001632226E-03 
2008	-2.83308852196361E-02 
2009	-3.12282285163213E-02 
2010	 2.33374361879173E-02 
2011	 4.18954898469348E-02 
2012	 5.87874617256362E-02 
2013	 0.066966179268735 
2014	 5.56350920917424E-02 
2015	 5.32526115788844E-02 
2016	 4.54543383047946E-02 
2017	 2.44042172089415E-02 
2018	 1.52443287446208E-02 
2019	 4.0903812299891E-04 
2020	 0.011331586290617 
2021	 2.24673842763322E-02 
2022	 1.20548489183468E-02 
2023	 1.85560290149254E-02 
2024	 1.98437474161216E-02 
2025	 8.59480499730138E-03 
2026	 9.84422725436178E-03 
2027	 1.99329582396348E-02 
2028	 2.83777499564743E-02 
2029	 2.30272395940478E-02 
2030	 2.34837019402963E-02 
2031	 1.97237412639691E-02 
2032	 4.55579506914242E-03 
2033	 8.71274824999192E-04 
2034	 5.6288552995662E-03 
2035	 6.20468042412872E-03 
2036	 1.29703565635273E-02 
2037	 2.24713586890778E-02 
2038	 3.09372625369315E-02 
2039	 3.35965793519604E-02 
2040	 3.31729856562168E-02 
2041	 3.23252823958569E-02 
2042	 2.30336650087012E-02 
2043	 1.93723989543901E-02 
2044	 1.88455474835922E-02 
2045	 1.99928457800754E-02 
2046	 2.15705248734691E-02 
2047	 2.62820096621654E-02 
2048	 1.83627462778704E-02 
2049	 2.00841629265123E-02 
2050	 2.24874547116551E-02 
2051	 1.36360256417517E-02 
2052	 1.90830677415577E-02 
2053	 2.75646879300899E-02 
2054	 3.00317278392637E-02 
2055	 3.27454541176243E-02 
2056	 3.44114681769111E-02 
2057	 3.44972581232834E-02 
2058	 3.17112103628997E-02 
2059	 2.56699709662714E-02 
2060	 2.58255566198211E-02 
2061	 0.025753711652617 
2062	 2.99995122668425E-02 
2063	 3.89190846535754E-02 
2064	 3.36998281709141E-02 
2065	 3.24480014864795E-02 
2066	 3.77403687627892E-02 
2067	 3.59650924131054E-02 
2068	 3.68853419476901E-02 
2069	 0.037098094541543 
2070	 2.64793208819468E-02 
2071	 2.51178256853186E-02 
2072	 3.08250662275298E-02 
2073	 2.96505564472366E-02 
2074	 2.86574940508067E-02 
2075	 3.01997820003897E-02 
2076	 2.47790621513309E-02 
2077	 2.77754529293057E-02 
2078	 3.97055829083215E-02 
2079	 4.59161600555351E-02 
2080	 5.40399044221287E-02 
2081	 5.83308131711548E-02 
2082	 5.49944974166487E-02 
2083	 5.08811483176766E-02 
2084	 3.85388112759077E-02 
2085	 3.28871324785447E-02 
2086	 3.69741343372174E-02 
2087	 3.67016240009496E-02 
2088	 4.15643694853988E-02 
2089	 4.81398123871402E-02 
2090	 4.79173333811484E-02 
2091	 0.048007776831788 
2092	 4.90146437782599E-02 
2093	 4.93594234523971E-02 
2094	 5.01279092936182E-02 
2095	 5.17221903936505E-02 
2096	 5.29306926997554E-02 
2097	 5.52596924853787E-02 
2098	 5.52210756009508E-02 
2099	 0.052594834228435 
2100	 5.45332640104946E-02 
2101	 0.053913254198086 
2102	 4.52296249106683E-02 
2103	 3.95935427691386E-02 
2104	 3.72197534311787E-02 
2105	 3.18833612054128E-02 
2106	 3.26490217599287E-02 
2107	 3.66846114836664E-02 
2108	 3.41071603919167E-02 
2109	 3.43716225359955E-02 
2110	 4.24504448887158E-02 
2111	 4.61631596792317E-02 
2112	 4.97679663315024E-02 
2113	 5.15092611968604E-02 
2114	 4.90342999005298E-02 
2115	 4.66319500476407E-02 
2116	 4.38345613482372E-02 
2117	 4.19314245483947E-02 
2118	 3.99490151065738E-02 
2119	 4.15075860828233E-02 
2120	 4.66865965607681E-02 
2121	 4.65408801760118E-02 
2122	 4.67449617973178E-02 
2123	 4.32609681495272E-02 
2124	 3.73378654620248E-02 
2125	 3.54215035896266E-02 
2126	 3.62929710983557E-02 
2127	 3.73693597233122E-02 
2128	 4.30091459688518E-02 
2129	 4.71637566423003E-02 
2130	 5.08850870213751E-02 
2131	 6.14399130953737E-02 
2132	 6.65998541789143E-02 
2133	 6.32059009228854E-02 
2134	 0.061714613855849 
2135	 5.54136304728131E-02 
2136	 5.33584114726194E-02 
2137	 5.46328938596644E-02 
2138	 5.39896418873904E-02 
2139	 5.47768008359303E-02 
2140	 5.32587470494179E-02 
2141	 4.66726635707213E-02 
2142	 0.045420967983189 
2143	 0.046509011821006 
2144	 4.72766547420751E-02 
2145	 5.05505881412337E-02 
2146	 4.88109479880944E-02 
2147	 4.72322820698514E-02 
2148	 4.59902145809366E-02 
2149	 0.046554140437741 
2150	 4.95000488358851E-02 
2151	 5.05336883315432E-02 
2152	 4.92676514955284E-02 
2153	 4.89046623087122E-02 
2154	 5.47513467853183E-02 
2155	 5.75252557808749E-02 
2156	 6.26838674184138E-02 
2157	 6.47868923705723E-02 
2158	 6.08022166575897E-02 
2159	 6.20737699958291E-02 
2160	 6.73565785065491E-02 
2161	 6.87433570558925E-02 
2162	 6.98949040927336E-02 
2163	 7.02717919235082E-02 
2164	 6.91233627792298E-02 
2165	 6.83092226825079E-02 
2166	 6.64582065440446E-02 
2167	 6.65653170842198E-02 
2168	 6.73801046579135E-02 
2169	 6.49402193561611E-02 
2170	 5.86685849550326E-02 
2171	 6.31601292275756E-02 
2172	 6.35162405163903E-02 
2173	 5.76336309799996E-02 
2174	 5.47308208959895E-02 
2175	 0.053928111607528 
2176	 0.058809542814045 
2177	 6.18931942857913E-02 
2178	 6.23015477072483E-02 
2179	 6.43073115603938E-02 
2180	 5.43701833142237E-02 
2181	 4.70697304700751E-02 
2182	 5.01601713173475E-02 
2183	 4.93908924737135E-02 
2184	 5.10370464991041E-02 
2185	 5.70798996376021E-02 
2186	 6.09761979796511E-02 
2187	 6.43376332401865E-02 
2188	 6.65356930570828E-02 
2189	 6.79580876654669E-02 
2190	 6.93156910556974E-02 
2191	 0.068570618004051 
2192	 6.63980132929675E-02 
2193	 6.77681831029107E-02 
2194	 6.42401082166365E-02 
2195	 5.35059728257797E-02 
2196	 4.74902519509142E-02 
2197	 3.76303279073894E-02 
2198	 3.37490435634928E-02 
2199	 3.25016040218664E-02 
2200	 3.85853764780212E-02 
2201	 4.82412102909924E-02 
2202	 5.45379677650067E-02 
2203	 6.05908208181753E-02 
2204	 6.58206281708899E-02 
2205	 7.12560506573392E-02 
2206	 7.20406756110171E-02 
2207	 7.05037968955226E-02 
2208	 7.08514333865042E-02 
2209	 6.76433700207726E-02 
2210	 6.36732529871187E-02 
2211	 6.39391121961793E-02 
2212	 6.07635722521235E-02 
2213	 4.68983725792876E-02 
2214	 4.49998839969079E-02 
2215	 4.95214470440839E-02 
2216	 4.61527972601796E-02 
2217	 4.89045351506743E-02 
2218	 6.04507955462568E-02 
2219	 6.55436048661468E-02 
2220	 7.18599428266284E-02 
2221	 7.14310225475442E-02 
2222	 6.99695916027298E-02 
2223	 6.57781912043229E-02 
2224	 4.67080267351302E-02 
2225	 4.40050619427504E-02 
2226	 4.75872963593962E-02 
2227	 5.03203524865138E-02 
2228	 6.46543290437125E-02 
2229	 7.11095699307217E-02 
2230	 7.45106929950961E-02 
2231	 7.50655605478746E-02 
2232	 6.99132170834254E-02 
2233	 6.77686723393108E-02 
2234	 6.18814962630256E-02 
2235	 6.54402724867893E-02 
2236	 6.27367079546914E-02 
2237	 6.01298440634002E-02 
2238	 5.84713602573769E-02 
2239	 4.90865152830669E-02 
2240	 4.96192999164536E-02 
2241	 4.71880902177777E-02 
2242	 3.94794712016889E-02 
2243	 4.10427321457927E-02 
2244	 4.49414408618889E-02 
2245	 4.53345914543612E-02 
2246	 4.47080005990372E-02 
2247	 4.37921566498472E-02 
2248	 4.19496311113875E-02 
2249	 4.07659257956627E-02 
2250	 4.17419464618781E-02 
2251	 4.35491886936664E-02 
2252	 4.20545736576412E-02 
2253	 4.39533152376217E-02 
2254	 4.60194892466184E-02 
2255	 4.39747887878482E-02 
2256	 4.94157310194412E-02 
2257	 0.05411024759264 
2258	 4.87272090445413E-02 
2259	 4.88628085478475E-02 
2260	 5.22584101087269E-02 
2261	 5.24750243210292E-02 
2262	 5.35722677854077E-02 
2263	 6.45211373900927E-02 
2264	 6.81674190147798E-02 
2265	 6.32133597649353E-02 
2266	 6.47957031975837E-02 
2267	 7.07823908231989E-02 
2268	 7.23022632679871E-02 
2269	 6.89484026216156E-02 
2270	 7.21978436088766E-02 
2271	 8.19377220321768E-02 
2272	 8.39599661288668E-02 
2273	 9.14485214327499E-02 
2274	 8.53921374922534E-02 
2275	 6.00972624957675E-02 
2276	 5.06332650046842E-02 
2277	 3.91824737349879E-02 
2278	 0.034389743072646 
2279	 0.039284604977086 
2280	 4.28726775358927E-02 
2281	 5.13770788557002E-02 
2282	 0.057000680030622 
2283	 5.06971871363789E-02 
2284	 4.68752407376921E-02 
2285	 0.042723025597688 
2286	 0.037326945909573 
2287	 4.08825954305741E-02 
2288	 4.41836063652771E-02 
2289	 0.030910880147735 
2290	 2.93233026170662E-02 
2291	 2.64515407588745E-02 
2292	 3.55453898307637E-02 
2293	 5.88685980346899E-02 
2294	 5.46532903125392E-02 
2295	 5.92387676220186E-02 
2296	 5.23208550412036E-02 
2297	 2.74767423235955E-02 
2298	 1.87019185783315E-02 
2299	 1.12679019932096E-02 
2300	-1.11078126155113E-03 
2301	 7.40451561716242E-03 
2302	 3.45832810408385E-02 
2303	 3.50975983604502E-02 
2304	 0.047729054282513 
2305	 0.063202870565575 
2306	 4.40196127525133E-02 
2307	 4.13526235312385E-02 
2308	 4.19227100422179E-02 
2309	 2.82244040850867E-02 
2310	 2.82585937974008E-02 
2311	 2.90836501514099E-02 
2312	 2.89711302699339E-02 
2313	 4.06404446452537E-02 
2314	 0.039910291971782 
2315	 4.00731280864187E-02 
2316	 4.22645100342455E-02 
2317	 2.48572741163399E-02 
2318	 1.68943578692963E-02 
2319	 1.36621289697842E-02 
2320	 1.27911432972562E-02 
2321	 4.17648628903535E-03 
2322	-1.81698975732012E-02 
2323	-1.10589167198074E-02 
2324	-0.010081618164444 
2325	 1.49249618431667E-03 
2326	 4.05735996211941E-02 
2327	 3.15245263401856E-02 
2328	 2.25066699769408E-02 
2329	 2.70989849790274E-02 
2330	 2.62396596038178E-02 
2331	 3.52652208461779E-02 
2332	 4.49047701891223E-02 
2333	 5.72979427872098E-02 
2334	 4.40994746247049E-02 
2335	 5.43350693817806E-02 
2336	 0.045262990224869 
2337	 3.0331387698266E-03 
2338	 2.39455919098333E-02 
2339	 3.90667799337431E-02 
2340	 0.048836384242679 
2341	 5.10842962621253E-02 
2342	 2.58928295670539E-02 
2343	 4.88237031609737E-02 
2344	 8.51724611848446E-02 
2345	 6.91214079082156E-02 
2346	 4.42656194226144E-02 
2347	 3.59830086227294E-02 
2348	-2.25088088017844E-02 
2349	-0.025356425423492 
2350	 0.065396128333774 
2351	 6.92931824746624E-02 
2352	 1.80515463028903E-02 
2353	-3.93960573969586E-02 
2354	-0.117270210906427 
2355	-0.145944838593118 
2356	-7.90482014885813E-02 
2357	 4.56341977372124E-02 
2358	 0.103561844330433 
2359	 0.120997803319005 
2360	 8.85688936194373E-02 
2361	 6.69303062238811E-02 
2362	 0.107353260019983 
2363	 0.054769552723889 
2364	 2.54305854154105E-02 
2365	-0.013654551459763 
2366	-0.131651205404284 
2367	-0.181730485630941 
2368	-0.192779111048165 
2369	-0.24243403368192 
2370	-0.219380189934037 
2371	-0.153790755381745 
2372	-0.239301087940077 
2373	-0.309050257754217 
2374	-0.259618570630043 
2375	-0.178996673930437 
2376	-9.23216318328747E-02 
2377	-6.62705185744967E-02 
2378	 4.32386531341544E-02 
2379	 2.82869386598719E-02 
2380	-1.36959494378768E-02 
2381	 0.212835992501143 
2382	 0.256168010065486 
2383	 0.229226358766672 
2384	 0.233835881346595 
2385	 1.01613947310003E-02 
2386	-0.200996889005919 
2387	-0.472198213195268 
2388	-0.743564298936272 
2389	-0.925676410847074 
2390	-0.599443540911767 
2391	-0.260750335491936 
2392	-0.103613280498799 
2393	 9.03136259170579E-02 
2394	-0.184914922885551 
2395	-0.553500556839038 
2396	-0.283105115054986 
2397	-0.152301892500095 
2398	-0.1896529027309 
2399	-0.275368698537885 
2400	-0.495692106269272 
2401	-0.434160608166841 
2402	-0.156971311513285 
2403	 5.61566633893438E-02 
2404	-0.186407725727117 
2405	-0.676399861713092 
2406	-1.26339422937507 
2407	-3.30977458695786 
2408	-3.82717649646293 
2409	-6.54834445276432 
2410	-8.49800773938693 
2411	-0.984013864035889 
2412	-1.92061150393113 
2413	-3.3532805864234 
2414	-4.07811159079628 
2415	-3.49917697036537 
2416	-1.91264468951376 
2417	-2.22863728363019 
2418	-3.08734280524969 
2419	-2.72319163093934 
2420	-6.9301892281947 
2421	-0.258089899924106 
2422	-0.079366268502212 
2423	 0.179927106376025 
2424	 1.88844624277 
2425	 0.298776798865148 
2426	-27.7328654248203 
2427	 2.34515841530869 
2428	 21.5280792239618 
2429	-8.18093260371177 
2430	-5.04639645502671 
2431	-1.83188115982762 
2432	-1.52122101208352 
2433	 35.4311550028239 
2434	 1.99002337944452 
2435	 1.81185331529559 
2436	 1.60473897114523 
2437	 1.09732179947427 
2438	 1.02949052851819 
2439	 1.29970202060686 
2440	 0.154112681871975 
2441	 0.175567632201578 
2442	-6.10183178454071E-02 
2443	-0.369047283644032 
2444	-0.255879266802215 
2445	-0.312729328288771 
2446	-0.110595700850508 
2447	 8.66660916936604E-02 
2448	 0.220307916745025 
2449	 0.685838059604527 
2450	 1.15387674533922 
2451	 1.40154230279252 
2452	 0.923707451287338 
2453	 0.707790242376007 
2454	 0.628973458760171 
2455	-0.484740665438102 
2456	-0.171423830909693 
2457	 0.279916416524634 
2458	 0.299761381007965 
2459	 0.33354956537731 
2460	 0.17454674006866 
2461	-0.632787308709455 
2462	-1.89089037338046 
2463	-2.1289174040425 
2464	 0.855892268680534 
2465	 9.92779660787887 
2466	 3.56329492779277 
2467	 2.05123281985773 
2468	 0.248895848391078 
2469	-0.12346014053405 
2470	-0.291369198381713 
2471	-0.660530062809531 
2472	-0.775953774295997 
2473	-0.46280676091291 
2474	-0.348000771814349 
2475	 0.190063804058694 
2476	 1.05694359687458 
2477	 2.08920413477118 
2478	-1.05818210685875 
2479	-0.93153951907625 
2480	-8.63727138651248 
2481	 5.10307236034035 
2482	 3.29222519162837 
2483	 1.60622620336427 
2484	 2.36669977054411 
2485	 2.99418669182723 
2486	 1.65991341917663 
2487	 1.8496918519398 
2488	 2.06657638267593 
2489	 1.04919797923496 
2490	 0.421379431100355 
2491	 0.285394992968101 
2492	 0.141398613547388 
2493	 0.562117695861952 
2494	 0.934453466857123 
2495	-0.35745545913748 
2496	-1.31552530189246 
2497	-0.532017106075622 
2498	-0.599956196954189 
2499	-1.05711102623165 
2500	-1.13755206672103 
