Wavelength	rt0704dirt00003.asd
350	 0.107982635245174 
351	 0.10788523602245 
352	 0.108199038473353 
353	 0.108737917045244 
354	 0.109164593310808 
355	 0.109227728507661 
356	 0.109201499942488 
357	 0.109361524008588 
358	 0.109850369662521 
359	 0.110339506244013 
360	 0.110603801356351 
361	 0.110778382191186 
362	 0.111188581313817 
363	 0.111467531364443 
364	 0.111612094552817 
365	 0.111789903474864 
366	 0.112356096713326 
367	 0.112741057076811 
368	 0.112934023615463 
369	 0.113090716851047 
370	 0.113348071817703 
371	 0.113723660389305 
372	 0.114105207760938 
373	 0.114358209486053 
374	 0.11489008551406 
375	 0.115216546543654 
376	 0.115367380453267 
377	 0.116170997780222 
378	 0.116900066658973 
379	 0.117411241958383 
380	 0.117748399252879 
381	 0.118060227366352 
382	 0.118274755408322 
383	 0.118688936979367 
384	 0.119567307369747 
385	 0.119791368073939 
386	 0.119721768013474 
387	 0.119992423186837 
388	 0.121286691991239 
389	 0.121816953769306 
390	 0.121903593922035 
391	 0.122117265446152 
392	 0.12246803306966 
393	 0.1230941956718 
394	 0.123517578483016 
395	 0.123348328611058 
396	 0.123817164542195 
397	 0.124250181535675 
398	 0.124452813363429 
399	 0.12472973024729 
400	 0.124859639498364 
401	 0.125003562007324 
402	 0.125295717409075 
403	 0.125721735853684 
404	 0.125973241019667 
405	 0.126160705766853 
406	 0.126465091595839 
407	 0.126411293029769 
408	 0.126684923250367 
409	 0.127213126901011 
410	 0.127174928901544 
411	 0.127398373603827 
412	 0.127570783479749 
413	 0.127520051573441 
414	 0.127920444960749 
415	 0.12830646273758 
416	 0.128516493950241 
417	 0.128581363017073 
418	 0.128857174440175 
419	 0.129263511456317 
420	 0.129681360487583 
421	 0.129996201150186 
422	 0.130240359224479 
423	 0.130527791042966 
424	 0.13096351938152 
425	 0.131635058257124 
426	 0.131952631265894 
427	 0.132224892610098 
428	 0.133038470922112 
429	 0.133510930806262 
430	 0.133947496162 
431	 0.134531362438949 
432	 0.13516958955424 
433	 0.135654023953021 
434	 0.136154593454603 
435	 0.136809261733861 
436	 0.137415101656683 
437	 0.137896095848659 
438	 0.138314435536989 
439	 0.138802845094058 
440	 0.139371474109416 
441	 0.13988176729067 
442	 0.140311342966499 
443	 0.140833760160003 
444	 0.141283700578902 
445	 0.141697422366492 
446	 0.142117734650227 
447	 0.142369818654502 
448	 0.142775365619709 
449	 0.143227792148026 
450	 0.143346466982802 
451	 0.143586506285491 
452	 0.143881528385909 
453	 0.144119350454029 
454	 0.14424815788059 
455	 0.144400884413848 
456	 0.144513403513999 
457	 0.144509468441461 
458	 0.144667377278035 
459	 0.144689736114684 
460	 0.144597378602445 
461	 0.144738511726789 
462	 0.144767975239548 
463	 0.144707581878441 
464	 0.144684365374986 
465	 0.144939013565644 
466	 0.144951676693785 
467	 0.144847860119436 
468	 0.145009625721204 
469	 0.145069264281561 
470	 0.145091252460031 
471	 0.145146149440336 
472	 0.145259389717639 
473	 0.145294113847278 
474	 0.145395310772785 
475	 0.145660096343376 
476	 0.145740496398589 
477	 0.145863121071239 
478	 0.146061593739288 
479	 0.14624685057491 
480	 0.146580745000862 
481	 0.146884096281043 
482	 0.147069969030506 
483	 0.147320206659152 
484	 0.14759767987848 
485	 0.147911209063624 
486	 0.148266921346937 
487	 0.148605650479992 
488	 0.148933145122092 
489	 0.149273381709511 
490	 0.149664931424565 
491	 0.150134835150125 
492	 0.150637352945144 
493	 0.15112789386226 
494	 0.151604807075297 
495	 0.152186454160806 
496	 0.152735592586095 
497	 0.15305126326382 
498	 0.153577619422005 
499	 0.154168921642229 
500	 0.154715234332346 
501	 0.155261877806064 
502	 0.155764137829943 
503	 0.15626858185627 
504	 0.156824223412274 
505	 0.157352047977854 
506	 0.158030876192882 
507	 0.158836187511399 
508	 0.159581064321092 
509	 0.160266380532134 
510	 0.160898579927329 
511	 0.161527640513684 
512	 0.162309285129194 
513	 0.163046164534905 
514	 0.163727743856761 
515	 0.164429203410489 
516	 0.165242072441546 
517	 0.166004702497956 
518	 0.166688785273289 
519	 0.167458648805114 
520	 0.168261218235547 
521	 0.169033202046355 
522	 0.169748899673666 
523	 0.170491829672965 
524	 0.171297250240798 
525	 0.172163418156723 
526	 0.173059877306958 
527	 0.173930023695287 
528	 0.174842752601888 
529	 0.17580777225073 
530	 0.176663952281449 
531	 0.177761632134166 
532	 0.178889426241016 
533	 0.179729410517951 
534	 0.180713862876472 
535	 0.181824556625594 
536	 0.182971073213164 
537	 0.184015929324211 
538	 0.185140815175165 
539	 0.186195925846675 
540	 0.187103211885195 
541	 0.188283280808018 
542	 0.18945671245452 
543	 0.190523593435917 
544	 0.191525001482479 
545	 0.192630236029578 
546	 0.193740136631441 
547	 0.194794525757929 
548	 0.195888738311194 
549	 0.196937192392458 
550	 0.197916718478992 
551	 0.198836388445486 
552	 0.199731206575564 
553	 0.200613588671417 
554	 0.201486294914407 
555	 0.202337092019307 
556	 0.20312321609214 
557	 0.203940422549439 
558	 0.204820041173157 
559	 0.205490601899792 
560	 0.206257848057347 
561	 0.207114316795434 
562	 0.207865767380769 
563	 0.208555308553474 
564	 0.209205517231746 
565	 0.209808310742975 
566	 0.210292506007804 
567	 0.21076045051794 
568	 0.211284043292254 
569	 0.211879697426876 
570	 0.212343386328649 
571	 0.21286299236501 
572	 0.21342723966418 
573	 0.213793909044988 
574	 0.214286959011144 
575	 0.21480692160276 
576	 0.215238584746541 
577	 0.215742827774399 
578	 0.216372341626027 
579	 0.216977800837602 
580	 0.217331010786874 
581	 0.217748698778431 
582	 0.218189905237389 
583	 0.218557191693631 
584	 0.218732126279202 
585	 0.218737755865409 
586	 0.218607102543944 
587	 0.21838316090503 
588	 0.218063296095011 
589	 0.2180968253627 
590	 0.218533644814117 
591	 0.218968854047018 
592	 0.219326405981607 
593	 0.219677494052883 
594	 0.220084153668352 
595	 0.220475407727544 
596	 0.220919865138262 
597	 0.221451323565414 
598	 0.222044940167572 
599	 0.222379039119578 
600	 0.2226628155527 
601	 0.222998359358581 
602	 0.223196720860336 
603	 0.223316647326518 
604	 0.223315455558958 
605	 0.223177800770286 
606	 0.223169227528724 
607	 0.223147519176185 
608	 0.223057470303325 
609	 0.222953752003736 
610	 0.222795753290333 
611	 0.222629764419386 
612	 0.222506559749705 
613	 0.222456946986259 
614	 0.222280992062035 
615	 0.222075640400921 
616	 0.222076395399179 
617	 0.222070330708962 
618	 0.222011233997278 
619	 0.221921352231254 
620	 0.221905942257097 
621	 0.221791005892118 
622	 0.221677297260375 
623	 0.221691493793342 
624	 0.221645649132325 
625	 0.221400096272634 
626	 0.221067485512381 
627	 0.220992489517838 
628	 0.22105408962038 
629	 0.221265290882345 
630	 0.221543175418817 
631	 0.221499856006149 
632	 0.221443860521142 
633	 0.22151524071917 
634	 0.22171983999739 
635	 0.221719416911205 
636	 0.221612723466836 
637	 0.22150061535224 
638	 0.221417260141448 
639	 0.221366400994029 
640	 0.221264802455294 
641	 0.221055501469293 
642	 0.220925920856034 
643	 0.220515976491126 
644	 0.219810561255533 
645	 0.219082274546853 
646	 0.218185211278413 
647	 0.217502385369357 
648	 0.217250799853031 
649	 0.217045280044543 
650	 0.216533708493633 
651	 0.216049542620921 
652	 0.216059022313702 
653	 0.215747100967978 
654	 0.215330810470864 
655	 0.215006909421833 
656	 0.214871936898242 
657	 0.214483508730191 
658	 0.214103525413862 
659	 0.213914959595291 
660	 0.213501008604744 
661	 0.21283883429463 
662	 0.212058408906934 
663	 0.211382223984659 
664	 0.210651226918932 
665	 0.210038690088819 
666	 0.209549955993089 
667	 0.20884360827618 
668	 0.208091530683152 
669	 0.207539026740325 
670	 0.207355683566113 
671	 0.207197074643442 
672	 0.206943851402222 
673	 0.206738826660579 
674	 0.206928272372345 
675	 0.207065605777063 
676	 0.207221318924043 
677	 0.207556001429961 
678	 0.20821984171049 
679	 0.208878134669052 
680	 0.209661052671953 
681	 0.210846225928035 
682	 0.212087540729648 
683	 0.213567843199716 
684	 0.215183145225561 
685	 0.216529499926501 
686	 0.218470247798677 
687	 0.220854784146318 
688	 0.223161186502708 
689	 0.225820061670027 
690	 0.228481578839225 
691	 0.230965006470377 
692	 0.233273260213731 
693	 0.236381898538777 
694	 0.239896654657867 
695	 0.243222942333497 
696	 0.246375731225296 
697	 0.249145335815417 
698	 0.251784675184423 
699	 0.254426434368952 
700	 0.257267787323441 
701	 0.260472949344193 
702	 0.26361066060388 
703	 0.266060997289849 
704	 0.268321768539834 
705	 0.270553441546373 
706	 0.272704535932611 
707	 0.274634529470347 
708	 0.276560250161786 
709	 0.278334396080175 
710	 0.279742855189596 
711	 0.281091622745032 
712	 0.282203952105693 
713	 0.282903480003217 
714	 0.283044399252629 
715	 0.282747050291891 
716	 0.28219370541823 
717	 0.28180096281875 
718	 0.282207076081442 
719	 0.283526470354479 
720	 0.284769746708109 
721	 0.285332868059639 
722	 0.285183926728291 
723	 0.284774327684601 
724	 0.28454800281309 
725	 0.284758053887987 
726	 0.284728738619208 
727	 0.28471533206386 
728	 0.284865781797455 
729	 0.284306741074932 
730	 0.284326679413451 
731	 0.284865939869307 
732	 0.285252495184716 
733	 0.285249595313679 
734	 0.285108164122751 
735	 0.285031967227213 
736	 0.285150949842599 
737	 0.285478548093559 
738	 0.285886190596688 
739	 0.28625814864232 
740	 0.286645273850559 
741	 0.286941435760815 
742	 0.287247313275713 
743	 0.287719356753255 
744	 0.288012127747892 
745	 0.288324108696061 
746	 0.288677912292005 
747	 0.288797906011706 
748	 0.28908212593172 
749	 0.289321150992214 
750	 0.28934621806442 
751	 0.28966312561432 
752	 0.289838553834452 
753	 0.289888780143048 
754	 0.290063058537954 
755	 0.290294766481879 
756	 0.290473213733495 
757	 0.290353061653867 
758	 0.289179939344403 
759	 0.287711890352232 
760	 0.286337486625542 
761	 0.285936396420925 
762	 0.286177732644006 
763	 0.287251879052388 
764	 0.288704584442031 
765	 0.290075895600456 
766	 0.291408569999473 
767	 0.292215254980609 
768	 0.292596545844692 
769	 0.293114507575945 
770	 0.293464898516536 
771	 0.293789067692626 
772	 0.294197634848505 
773	 0.29450531580383 
774	 0.294717402150196 
775	 0.294922534522496 
776	 0.295238272032569 
777	 0.295672524937235 
778	 0.296053065251545 
779	 0.296308050865031 
780	 0.296497043032003 
781	 0.296809849734972 
782	 0.297206569924426 
783	 0.297582841624112 
784	 0.297821445016778 
785	 0.297760265942674 
786	 0.297669906957122 
787	 0.297898625096221 
788	 0.298178534692384 
789	 0.298529085430432 
790	 0.298978639252418 
791	 0.299550548684871 
792	 0.300199065585808 
793	 0.300595260641836 
794	 0.300687861756497 
795	 0.300893361788375 
796	 0.301060999286613 
797	 0.301287383442071 
798	 0.301650752453286 
799	 0.30194136500802 
800	 0.302134298052974 
801	 0.302385850296636 
802	 0.30291146710343 
803	 0.303541056491615 
804	 0.303959996173849 
805	 0.304158831384413 
806	 0.304438588361477 
807	 0.304588124322928 
808	 0.304412027447344 
809	 0.303908467736079 
810	 0.303595585809434 
811	 0.303085799632525 
812	 0.302474638938067 
813	 0.302001466229218 
814	 0.301246184201453 
815	 0.300772281454332 
816	 0.300991259224079 
817	 0.30183824409818 
818	 0.302189213046979 
819	 0.302193438848859 
820	 0.302071265342411 
821	 0.301900323817324 
822	 0.301473111184429 
823	 0.300998133666317 
824	 0.300692321380598 
825	 0.30055930233445 
826	 0.299728156544372 
827	 0.298581345096811 
828	 0.297946855780963 
829	 0.297229715822945 
830	 0.296752320786026 
831	 0.296463666949724 
832	 0.296092239964739 
833	 0.296000891443774 
834	 0.296223507292373 
835	 0.296436103989897 
836	 0.295971179617522 
837	 0.295980574990819 
838	 0.296205404101735 
839	 0.296283261461173 
840	 0.296390454362662 
841	 0.296635383504879 
842	 0.296930518825995 
843	 0.297074151901111 
844	 0.296712514565729 
845	 0.296733724338611 
846	 0.297053768643763 
847	 0.296954910473909 
848	 0.296710073963252 
849	 0.296583385843479 
850	 0.296601798839393 
851	 0.2964926425108 
852	 0.296404797139996 
853	 0.296341554731616 
854	 0.296347329193805 
855	 0.296613409980997 
856	 0.296616665402765 
857	 0.296697529550458 
858	 0.297120199043947 
859	 0.296994312183398 
860	 0.296909561316661 
861	 0.296819681002839 
862	 0.296533852132328 
863	 0.2971413560162 
864	 0.297323235932277 
865	 0.296917331315902 
866	 0.296918490879641 
867	 0.296991631132051 
868	 0.297007633998025 
869	 0.296876739847159 
870	 0.296549715079722 
871	 0.296515975755866 
872	 0.296289715850526 
873	 0.295753554102557 
874	 0.296110610266588 
875	 0.296053008298798 
876	 0.295711943964673 
877	 0.295549323573913 
878	 0.295424033172972 
879	 0.295472740227818 
880	 0.295355686443018 
881	 0.294762086543067 
882	 0.294825672819666 
883	 0.294633034644088 
884	 0.294230216556003 
885	 0.294319322991504 
886	 0.293905791431479 
887	 0.293517265642309 
888	 0.293363277315121 
889	 0.293108353936306 
890	 0.29294423734819 
891	 0.292247191256069 
892	 0.29100656547539 
893	 0.290700799908034 
894	 0.289426142711692 
895	 0.288056031381779 
896	 0.287810775238068 
897	 0.287789304497328 
898	 0.287292651562822 
899	 0.286811877671724 
900	 0.286958584654026 
901	 0.287045337704761 
902	 0.286562163825999 
903	 0.2863393158536 
904	 0.2870448746378 
905	 0.286050071301002 
906	 0.284665643652011 
907	 0.283674701239762 
908	 0.283300753909051 
909	 0.282826918731055 
910	 0.282823311993836 
911	 0.282587131480932 
912	 0.280568167340136 
913	 0.278982077113728 
914	 0.278919369579621 
915	 0.279711541670605 
916	 0.279249709605906 
917	 0.279911339394813 
918	 0.279965407955972 
919	 0.278968724038692 
920	 0.27866145435604 
921	 0.277764255316973 
922	 0.277025690194102 
923	 0.276724773489784 
924	 0.27535873276731 
925	 0.27325460081857 
926	 0.27101659777701 
927	 0.269273144218186 
928	 0.268072063327404 
929	 0.264383571343462 
930	 0.260824581236236 
931	 0.261915040489261 
932	 0.251779995735989 
933	 0.243550797914399 
934	 0.244544121982577 
935	 0.250287383637005 
936	 0.246595616546111 
937	 0.243992139509849 
938	 0.242175076007878 
939	 0.238668494523357 
940	 0.237075760639643 
941	 0.237052873326949 
942	 0.235663082398614 
943	 0.230126114164378 
944	 0.22639370153728 
945	 0.230175038651538 
946	 0.233283359288207 
947	 0.224871822055864 
948	 0.223330540987461 
949	 0.224916923972835 
950	 0.224635912853715 
951	 0.219486281136654 
952	 0.215805664127051 
953	 0.214297912998302 
954	 0.217133670765983 
955	 0.224474777302131 
956	 0.218074686409986 
957	 0.213355625165375 
958	 0.215980020547091 
959	 0.221029843543602 
960	 0.214938555879068 
961	 0.210890272559271 
962	 0.21395837361223 
963	 0.220080775749342 
964	 0.220481107221332 
965	 0.219542640285165 
966	 0.21962751113029 
967	 0.220644298850063 
968	 0.222092574524203 
969	 0.22187538870852 
970	 0.220237670460986 
971	 0.21946141870341 
972	 0.221800938884925 
973	 0.222089402995981 
974	 0.219709907946777 
975	 0.219203479928803 
976	 0.221017141176511 
977	 0.222806462750363 
978	 0.223095176816813 
979	 0.222127349624667 
980	 0.222549293542113 
981	 0.224320777163301 
982	 0.225788902760743 
983	 0.225118708231792 
984	 0.225948732368792 
985	 0.227186773668126 
986	 0.227513051954014 
987	 0.226511380409137 
988	 0.228097240143991 
989	 0.230309308041395 
990	 0.231212017118878 
991	 0.230063103564701 
992	 0.22996767061391 
993	 0.230444226114873 
994	 0.231935450606934 
995	 0.23462284145397 
996	 0.231972579435062 
997	 0.233559608144435 
998	 0.236980611940565 
999	 0.234192211657773 
1000	 0.233574815349664 
1001	 0.229158050284714 
1002	 0.228765746369253 
1003	 0.229599342275388 
1004	 0.230889573877301 
1005	 0.231680236016337 
1006	 0.233087798421334 
1007	 0.234178105245823 
1008	 0.234005088767947 
1009	 0.233993562812066 
1010	 0.234414075201585 
1011	 0.235013761166996 
1012	 0.236068087638464 
1013	 0.237261374590565 
1014	 0.238085922518405 
1015	 0.239089162984864 
1016	 0.239536796342526 
1017	 0.239034928878728 
1018	 0.239456505055566 
1019	 0.239994125429655 
1020	 0.24067247947161 
1021	 0.24163273276396 
1022	 0.243156899933478 
1023	 0.244421828585913 
1024	 0.245547602170484 
1025	 0.246701243137804 
1026	 0.247523043818142 
1027	 0.248176074369587 
1028	 0.248344499120267 
1029	 0.248866968654143 
1030	 0.249241974319354 
1031	 0.250120106694473 
1032	 0.251391082313718 
1033	 0.252324076438697 
1034	 0.253530954379638 
1035	 0.254359994530664 
1036	 0.254605803296481 
1037	 0.255349096674933 
1038	 0.256114676878256 
1039	 0.257249670606276 
1040	 0.258423804133578 
1041	 0.25952045731069 
1042	 0.260252114835306 
1043	 0.260634092244414 
1044	 0.261328617890049 
1045	 0.261920380036515 
1046	 0.262493437899526 
1047	 0.263152907164187 
1048	 0.263911880106323 
1049	 0.264663430875525 
1050	 0.265390249962992 
1051	 0.266787359039262 
1052	 0.267177769668858 
1053	 0.266601979426119 
1054	 0.266503972405991 
1055	 0.265436517786361 
1056	 0.265493940280907 
1057	 0.26616357690575 
1058	 0.268001141037201 
1059	 0.26861848126357 
1060	 0.269562223343149 
1061	 0.269882255739603 
1062	 0.26909488754606 
1063	 0.269119816316821 
1064	 0.269333579151568 
1065	 0.269686122782497 
1066	 0.270527679970186 
1067	 0.270836403828791 
1068	 0.271113205522932 
1069	 0.271210611225591 
1070	 0.270766069591775 
1071	 0.270526830899812 
1072	 0.270263571738546 
1073	 0.270099527301801 
1074	 0.270146010048006 
1075	 0.270359156337114 
1076	 0.270444801584381 
1077	 0.270842893136442 
1078	 0.270785029283379 
1079	 0.270210647772384 
1080	 0.270134841084312 
1081	 0.270495986395614 
1082	 0.270107918650961 
1083	 0.269386794711137 
1084	 0.268923239297691 
1085	 0.267963473904332 
1086	 0.267213468674742 
1087	 0.266996898552795 
1088	 0.266615720766434 
1089	 0.266398778265057 
1090	 0.265098515025832 
1091	 0.264642309112252 
1092	 0.264668528060867 
1093	 0.263970459913319 
1094	 0.263165886643416 
1095	 0.262366449604314 
1096	 0.260837484411257 
1097	 0.260027819398963 
1098	 0.25971345369483 
1099	 0.259147221780601 
1100	 0.259148238376125 
1101	 0.258293258483086 
1102	 0.256547328921912 
1103	 0.255318955704452 
1104	 0.253913806986235 
1105	 0.25203804505796 
1106	 0.251074919770059 
1107	 0.252044826912838 
1108	 0.252131358216239 
1109	 0.250577274244167 
1110	 0.250106637492905 
1111	 0.249408510883897 
1112	 0.248239910310588 
1113	 0.247852197870077 
1114	 0.24776684836047 
1115	 0.246140056266193 
1116	 0.244985471930502 
1117	 0.245777183224936 
1118	 0.2447593316938 
1119	 0.242802632636644 
1120	 0.241432593039201 
1121	 0.240347881831431 
1122	 0.237324236306062 
1123	 0.233872690716341 
1124	 0.219997082590892 
1125	 0.21716932811626 
1126	 0.215705236211689 
1127	 0.201896409340934 
1128	 0.202133294313239 
1129	 0.206496379683259 
1130	 0.212475824303859 
1131	 0.209528573311343 
1132	 0.21251264024902 
1133	 0.211266028815982 
1134	 0.198734035102441 
1135	 0.19695775078296 
1136	 0.204648317833679 
1137	 0.20338124773149 
1138	 0.199009209704567 
1139	 0.195654893294149 
1140	 0.193357108141731 
1141	 0.189361502824112 
1142	 0.189181984058501 
1143	 0.19311599745897 
1144	 0.184601801280908 
1145	 0.177450851055137 
1146	 0.183796980627097 
1147	 0.183729417385301 
1148	 0.180475603315002 
1149	 0.180303287993573 
1150	 0.17823811578041 
1151	 0.167497509829276 
1152	 0.167078149462604 
1153	 0.175105105652998 
1154	 0.174971603709601 
1155	 0.17369402428011 
1156	 0.170706310903601 
1157	 0.169395101613813 
1158	 0.170659986630137 
1159	 0.172555029155458 
1160	 0.17381198232448 
1161	 0.174984649551875 
1162	 0.174881208551772 
1163	 0.17407335340915 
1164	 0.174712740859452 
1165	 0.175559733405258 
1166	 0.17591955254144 
1167	 0.17684375827894 
1168	 0.177475858969788 
1169	 0.176518982156044 
1170	 0.175262605025227 
1171	 0.175392134773591 
1172	 0.176920836231114 
1173	 0.177018208221429 
1174	 0.177292230356387 
1175	 0.177127349592318 
1176	 0.176585822194174 
1177	 0.175762898170146 
1178	 0.175806743363373 
1179	 0.17708404412839 
1180	 0.177460362451356 
1181	 0.177145207673483 
1182	 0.176935973105822 
1183	 0.176094781578332 
1184	 0.175784096890599 
1185	 0.17584878047762 
1186	 0.175588765219935 
1187	 0.175605055424888 
1188	 0.175615916946636 
1189	 0.175550838529934 
1190	 0.175572526581701 
1191	 0.175386077366067 
1192	 0.175469545534452 
1193	 0.17551523284503 
1194	 0.175614363926617 
1195	 0.175681653923338 
1196	 0.176035742792013 
1197	 0.176073685381319 
1198	 0.175513266181026 
1199	 0.175190757671558 
1200	 0.175482054154298 
1201	 0.175560857146244 
1202	 0.175195789939246 
1203	 0.175231138172782 
1204	 0.175485210822793 
1205	 0.175779225543083 
1206	 0.176023924982547 
1207	 0.176138235097118 
1208	 0.176274372452296 
1209	 0.176273770017898 
1210	 0.17657982699656 
1211	 0.176767165453149 
1212	 0.176626737611696 
1213	 0.1769122323085 
1214	 0.177283961388571 
1215	 0.177885228293279 
1216	 0.178486760148693 
1217	 0.178758446630403 
1218	 0.179010467712489 
1219	 0.179160365125351 
1220	 0.17903723253158 
1221	 0.179417096273625 
1222	 0.179612678192832 
1223	 0.179932575114578 
1224	 0.180654667476204 
1225	 0.180915402637373 
1226	 0.181332861524224 
1227	 0.181532151130051 
1228	 0.181433835878508 
1229	 0.18161543961496 
1230	 0.181628478760375 
1231	 0.18144774648415 
1232	 0.181511255648585 
1233	 0.181866819593497 
1234	 0.182235550839193 
1235	 0.182647087351484 
1236	 0.183238002456364 
1237	 0.183600296121369 
1238	 0.183845406650688 
1239	 0.184271008870048 
1240	 0.184474251938275 
1241	 0.184523242962876 
1242	 0.184606255836766 
1243	 0.184526800538145 
1244	 0.184550437775968 
1245	 0.184454078398425 
1246	 0.184563519723818 
1247	 0.185039394045826 
1248	 0.185219955675531 
1249	 0.185301288734436 
1250	 0.185309953557319 
1251	 0.18524242042385 
1252	 0.185276575976566 
1253	 0.185141605770429 
1254	 0.185369074885154 
1255	 0.185792647998152 
1256	 0.185759838528629 
1257	 0.185556723023923 
1258	 0.185490905041403 
1259	 0.184871241725363 
1260	 0.184645296177703 
1261	 0.184950379198005 
1262	 0.184962087812806 
1263	 0.184935254915404 
1264	 0.184939287667417 
1265	 0.184810618701397 
1266	 0.184375228949967 
1267	 0.184826060285595 
1268	 0.185543578256802 
1269	 0.185001136291199 
1270	 0.184649282120711 
1271	 0.184722311230844 
1272	 0.184117043949073 
1273	 0.184186285951566 
1274	 0.185121846939757 
1275	 0.184941178791129 
1276	 0.184232444119723 
1277	 0.184536267152608 
1278	 0.184782291517298 
1279	 0.184540192404182 
1280	 0.18483846284004 
1281	 0.184705178821683 
1282	 0.18383441136585 
1283	 0.183499152744507 
1284	 0.183514526802731 
1285	 0.183297656208045 
1286	 0.183301704615738 
1287	 0.183055405005424 
1288	 0.182235733665834 
1289	 0.181858744255685 
1290	 0.181681755812677 
1291	 0.181407171273077 
1292	 0.181147820585828 
1293	 0.180688472175482 
1294	 0.179753343292591 
1295	 0.178979624884831 
1296	 0.178080126489919 
1297	 0.177690747772821 
1298	 0.177168199895063 
1299	 0.175934744202522 
1300	 0.175459927445609 
1301	 0.175111713717033 
1302	 0.174488862474009 
1303	 0.173872646519817 
1304	 0.172839392118358 
1305	 0.171727561680664 
1306	 0.170484061975629 
1307	 0.168894673561509 
1308	 0.167745794963862 
1309	 0.166783245408187 
1310	 0.165699472602177 
1311	 0.164824837055254 
1312	 0.16396299644331 
1313	 0.162909634262106 
1314	 0.161985723133928 
1315	 0.161571019219873 
1316	 0.160903174488292 
1317	 0.160180580290253 
1318	 0.159096056093484 
1319	 0.157498200029057 
1320	 0.15647941560211 
1321	 0.155605884932406 
1322	 0.154714167508723 
1323	 0.153925556888197 
1324	 0.152764104656403 
1325	 0.150959268099463 
1326	 0.14925690237204 
1327	 0.149804808056584 
1328	 0.148843508641867 
1329	 0.146673500090342 
1330	 0.144349577263589 
1331	 0.138708193220775 
1332	 0.135975842523088 
1333	 0.136071389091022 
1334	 0.135457655324529 
1335	 0.134433477547939 
1336	 0.133483579413319 
1337	 0.133768874815137 
1338	 0.134998807138222 
1339	 0.133643554859902 
1340	 0.131929690533413 
1341	 0.132388777042018 
1342	 0.13126177602635 
1343	 0.129712176493704 
1344	 0.131583265896216 
1345	 0.132382103991923 
1346	 0.127207707930637 
1347	 0.124659185146672 
1348	 0.13053953177976 
1349	 0.135839187384095 
1350	 0.144044477773109 
1351	 0.14372606080212 
1352	 0.118898951811838 
1353	 0.113330831832775 
1354	 8.18527784954121E-02 
1355	 0.11608278711156 
1356	 0.251669211869924 
1357	 0.350647421744545 
1358	 0.434764972314921 
1359	 0.360065019001057 
1360	 0.410303259200901 
1361	 0.843731581389798 
1362	 1.17528237754341 
1363	 1.10326399284649 
1364	 0.889970868623012 
1365	 0.595811913256144 
1366	 0.529847281503908 
1367	 0.120628013741984 
1368	-4.00453438475132E-02 
1369	 0.332139910302095 
1370	 0.264159022128658 
1371	-5.60124363243118E-02 
1372	-0.102955794916755 
1373	-5.03816797014869E-02 
1374	 6.63156022807464E-02 
1375	 6.74336560008211 
1376	 4.06599783690127 
1377	 0.623935287163322 
1378	 0.372384938916338 
1379	-6.56666727739708E-02 
1380	-0.156894630683426 
1381	-0.37561802910959 
1382	-0.430882836287322 
1383	 0.095794303713801 
1384	 0.614436808890563 
1385	 3.68266751098202 
1386	-22.8303551767367 
1387	 2.68612391993892 
1388	 1.56182055628241 
1389	 1.25495952584685 
1390	 0.779003918504296 
1391	 0.373675642095058 
1392	 3.03633753572223E-02 
1393	 0.085731689240214 
1394	-0.640222264563942 
1395	-1.14973476529158 
1396	-8.39423678324765 
1397	-3.49547241031008 
1398	 0.754919968053613 
1399	 0.767363669850775 
1400	 19.1573950978573 
1401	-2.67796481046864 
1402	-4.36706426186803 
1403	-6.1117488470858 
1404	 2.65479594904532 
1405	 1.48404035608962 
1406	 0.281435545396535 
1407	 0.200844991636697 
1408	 0.984777333602529 
1409	 0.915895638521308 
1410	 0.558321032347382 
1411	 0.522107139216044 
1412	 0.381254344168069 
1413	 0.487613488039903 
1414	 1.99212386303807 
1415	 2.04653315126773 
1416	 0.604813954520246 
1417	 0.554397007198289 
1418	 0.319424403498484 
1419	 0.209839125421153 
1420	 0.315737237922235 
1421	 0.414939578824788 
1422	 0.490024454834036 
1423	 0.399957515764351 
1424	 0.345032231407059 
1425	 0.284907277480294 
1426	 9.40051563199852E-02 
1427	 4.35686162953299E-02 
1428	 9.94611655971809E-02 
1429	 0.102420434259882 
1430	 0.105004701145984 
1431	 0.082854902225884 
1432	-2.61597897420933E-03 
1433	-2.09753014922458E-04 
1434	 6.98903258845385E-02 
1435	 8.59958995710303E-02 
1436	 0.18778918673293 
1437	 0.172896145144805 
1438	 1.88861174081237E-02 
1439	-3.88955764584864E-02 
1440	-1.15502892299443E-02 
1441	 4.82429415279829E-02 
1442	 0.102464977702398 
1443	 6.74389333770481E-02 
1444	 6.82739173833727E-03 
1445	 2.44140907168098E-02 
1446	 0.047220949224598 
1447	 4.64041687781746E-02 
1448	 3.86664706834393E-02 
1449	 2.63636336322367E-02 
1450	 4.05415589057401E-02 
1451	 5.21855509626146E-02 
1452	 4.65140369307452E-02 
1453	 5.07113486168467E-02 
1454	 4.88740250042821E-02 
1455	 3.97800058541022E-02 
1456	 3.44781471348235E-02 
1457	 2.97851795088364E-02 
1458	 2.99186902281404E-02 
1459	 3.35056075544541E-02 
1460	 2.94745247773882E-02 
1461	 0.02479803397278 
1462	 2.54998063417047E-02 
1463	 2.00295154411979E-02 
1464	 1.71293396673315E-02 
1465	 2.26387138006021E-02 
1466	 0.027703707042771 
1467	 2.91093649418126E-02 
1468	 3.36554654840264E-02 
1469	 4.71907397047789E-02 
1470	 5.29963033634878E-02 
1471	 5.16620286499409E-02 
1472	 5.35923551719606E-02 
1473	 5.99511884141586E-02 
1474	 5.88457665096265E-02 
1475	 4.90416446815298E-02 
1476	 4.98068393777045E-02 
1477	 5.21561011262476E-02 
1478	 5.38221552243181E-02 
1479	 6.35708972163953E-02 
1480	 6.34346636632408E-02 
1481	 5.53678607296901E-02 
1482	 5.25696412737368E-02 
1483	 5.11980961235964E-02 
1484	 4.89738671771903E-02 
1485	 0.046617902868866 
1486	 4.65101633823813E-02 
1487	 0.045699789246059 
1488	 4.57441544225729E-02 
1489	 4.84346751092806E-02 
1490	 4.92872449438464E-02 
1491	 4.92426780260611E-02 
1492	 4.92388565211315E-02 
1493	 4.89237513307491E-02 
1494	 4.84692406263326E-02 
1495	 4.64142120191549E-02 
1496	 4.75461881601889E-02 
1497	 5.24299807059228E-02 
1498	 5.27427547120967E-02 
1499	 5.11084174425633E-02 
1500	 5.15085218754419E-02 
1501	 5.04340203488192E-02 
1502	 4.96845136669265E-02 
1503	 5.03117805646647E-02 
1504	 5.17625946207753E-02 
1505	 5.36397835220223E-02 
1506	 5.40997274762854E-02 
1507	 5.46196485956263E-02 
1508	 5.59928138454168E-02 
1509	 5.68724356462927E-02 
1510	 0.056133860492451 
1511	 5.55379534670609E-02 
1512	 0.05724353212739 
1513	 5.77374825195526E-02 
1514	 5.74285307931421E-02 
1515	 5.91285670044559E-02 
1516	 5.98648304073317E-02 
1517	 0.058835342418347 
1518	 5.88229947242135E-02 
1519	 5.93309751447559E-02 
1520	 5.91541191541324E-02 
1521	 5.97853148928326E-02 
1522	 6.11922934476999E-02 
1523	 6.23292017192231E-02 
1524	 6.32633645196104E-02 
1525	 6.31773953902056E-02 
1526	 6.28105213907354E-02 
1527	 6.42853004109622E-02 
1528	 6.52875303667198E-02 
1529	 6.54199517378987E-02 
1530	 0.066961345331003 
1531	 6.69631810138403E-02 
1532	 6.58867229815162E-02 
1533	 6.64848167822628E-02 
1534	 6.71762607826374E-02 
1535	 6.73356127660371E-02 
1536	 0.068224847271927 
1537	 7.01912509619106E-02 
1538	 7.06526095629051E-02 
1539	 6.96944525414134E-02 
1540	 7.00097750003334E-02 
1541	 7.04346043302196E-02 
1542	 7.07256591260198E-02 
1543	 7.18985326064927E-02 
1544	 0.072211382883213 
1545	 7.18882534458089E-02 
1546	 0.072605784962909 
1547	 7.34860681404817E-02 
1548	 7.42085263615723E-02 
1549	 7.46847728153181E-02 
1550	 7.45947632787263E-02 
1551	 7.51326248094693E-02 
1552	 0.076098252364713 
1553	 7.68401375750461E-02 
1554	 7.75855670305073E-02 
1555	 7.84405662723528E-02 
1556	 7.87715631630034E-02 
1557	 7.81769808751043E-02 
1558	 7.85897125634625E-02 
1559	 7.98740593175845E-02 
1560	 8.01879203338051E-02 
1561	 8.04517641526501E-02 
1562	 8.15010224405239E-02 
1563	 8.19463805017356E-02 
1564	 8.19672013123273E-02 
1565	 8.22776055722622E-02 
1566	 8.21984520440321E-02 
1567	 8.23133056332533E-02 
1568	 8.22101212092535E-02 
1569	 8.19641509142575E-02 
1570	 8.27730488337118E-02 
1571	 8.31169565140449E-02 
1572	 8.24960768599502E-02 
1573	 8.30879674187545E-02 
1574	 8.46248065923781E-02 
1575	 8.53239549495234E-02 
1576	 8.56983981524783E-02 
1577	 8.61819077169433E-02 
1578	 0.086037245578642 
1579	 8.61930438777067E-02 
1580	 8.72009659937588E-02 
1581	 8.80249134936059E-02 
1582	 8.84873846073465E-02 
1583	 8.84486747383943E-02 
1584	 8.85249099391944E-02 
1585	 8.90636449094731E-02 
1586	 8.91464546080752E-02 
1587	 8.87640720527435E-02 
1588	 8.88630535908774E-02 
1589	 0.08965707250979 
1590	 9.02858861277257E-02 
1591	 9.07356467287805E-02 
1592	 9.10650175558577E-02 
1593	 9.06120841013403E-02 
1594	 9.02399281040458E-02 
1595	 0.091000352382871 
1596	 9.16862673055716E-02 
1597	 9.15235005342896E-02 
1598	 9.14890102470277E-02 
1599	 9.13035118073511E-02 
1600	 9.08661423013463E-02 
1601	 9.14526484055285E-02 
1602	 9.22220297021084E-02 
1603	 9.28375219245997E-02 
1604	 9.36559910959512E-02 
1605	 9.37784092112339E-02 
1606	 9.37476885765666E-02 
1607	 9.39805501118255E-02 
1608	 9.41029617681891E-02 
1609	 9.45221105641284E-02 
1610	 9.48557251769183E-02 
1611	 9.46834282854927E-02 
1612	 9.50324160235156E-02 
1613	 9.60779643263662E-02 
1614	 9.68899908954805E-02 
1615	 9.70811700413126E-02 
1616	 9.70760939064765E-02 
1617	 9.67301630933802E-02 
1618	 9.68758572027011E-02 
1619	 9.77101246921683E-02 
1620	 9.77100510501035E-02 
1621	 9.72397993961578E-02 
1622	 9.70422133477897E-02 
1623	 9.78380598239512E-02 
1624	 9.84152126578947E-02 
1625	 0.09808483377669 
1626	 9.83634407761443E-02 
1627	 9.81364977948185E-02 
1628	 9.79406682481546E-02 
1629	 9.92458922058854E-02 
1630	 9.98263272276926E-02 
1631	 9.87159606477562E-02 
1632	 9.82085226624665E-02 
1633	 9.90553935762479E-02 
1634	 9.95828381969531E-02 
1635	 9.97173656972518E-02 
1636	 0.100430116094503 
1637	 0.100531723994403 
1638	 0.100182812841495 
1639	 0.101226755387034 
1640	 0.101804983770795 
1641	 0.101190178516453 
1642	 0.101300840943977 
1643	 0.101850286006712 
1644	 0.102216824658969 
1645	 0.102390261486133 
1646	 0.102279508935074 
1647	 0.102047687323916 
1648	 0.101698398404935 
1649	 0.101605581290435 
1650	 0.10171439694699 
1651	 0.100663242974271 
1652	 0.100183198536041 
1653	 0.101049470348222 
1654	 0.101175102589194 
1655	 0.101843296814859 
1656	 0.102361658290135 
1657	 0.102120975659723 
1658	 0.102036706615772 
1659	 0.102418467638827 
1660	 0.10251037042678 
1661	 0.10228806062569 
1662	 0.102632776459669 
1663	 0.103150334130764 
1664	 0.103272984103613 
1665	 0.103383013954101 
1666	 0.10358668645802 
1667	 0.103703916500691 
1668	 0.10322399453065 
1669	 0.103325521660219 
1670	 0.10189054869453 
1671	 0.101505539578516 
1672	 0.103109131034812 
1673	 0.103278406823379 
1674	 0.103554603898749 
1675	 0.104550694485551 
1676	 0.103841787962438 
1677	 0.103318330585779 
1678	 0.104619255511269 
1679	 0.10454052461136 
1680	 0.103304240789418 
1681	 0.103547525824981 
1682	 0.103983870867429 
1683	 0.103821472987024 
1684	 0.103856408214152 
1685	 0.103823727718115 
1686	 0.102786489995835 
1687	 0.102295036120274 
1688	 0.103892626884552 
1689	 0.105047210290389 
1690	 0.104900992150338 
1691	 0.104643394739678 
1692	 0.103885487111485 
1693	 0.102922658881522 
1694	 0.102573275407741 
1695	 0.10255872921528 
1696	 0.102390557849315 
1697	 0.102609274023441 
1698	 0.103301162793916 
1699	 0.103120964106729 
1700	 0.102609452870723 
1701	 0.102601640304656 
1702	 0.102621375284719 
1703	 0.103306379561194 
1704	 0.104313803494877 
1705	 0.103440027181079 
1706	 0.101404724581559 
1707	 0.101157177489784 
1708	 0.101909992197688 
1709	 0.102532668699354 
1710	 0.103507968328491 
1711	 0.103408872420702 
1712	 0.101872076588891 
1713	 0.102163571770847 
1714	 0.102011280440093 
1715	 0.100882613562948 
1716	 9.95057130295871E-02 
1717	 9.91964311570666E-02 
1718	 0.10012635131382 
1719	 0.101287780239167 
1720	 0.100721223922497 
1721	 9.99039414707849E-02 
1722	 9.89591228557403E-02 
1723	 9.76094748977845E-02 
1724	 9.87112415682793E-02 
1725	 0.100397949807181 
1726	 9.90076928918764E-02 
1727	 9.68395427586051E-02 
1728	 9.66035719000968E-02 
1729	 9.59244406440705E-02 
1730	 9.54315317776631E-02 
1731	 0.097376824425419 
1732	 9.81379276660717E-02 
1733	 9.72535715200033E-02 
1734	 9.73479383459017E-02 
1735	 9.63564369238645E-02 
1736	 9.36427155168391E-02 
1737	 9.32451301326129E-02 
1738	 9.41612413631252E-02 
1739	 9.32316993801874E-02 
1740	 9.39994561862337E-02 
1741	 9.46029872566923E-02 
1742	 0.092952128510625 
1743	 9.30274275214025E-02 
1744	 9.27641578106751E-02 
1745	 9.09250652118707E-02 
1746	 8.96436902785731E-02 
1747	 8.88498665615629E-02 
1748	 8.84241271000158E-02 
1749	 8.81972583910715E-02 
1750	 8.77421987027469E-02 
1751	 0.087621177887304 
1752	 8.85373811843872E-02 
1753	 8.92533177224066E-02 
1754	 9.07061954196788E-02 
1755	 0.090897840681786 
1756	 9.02576141184067E-02 
1757	 8.75443460920136E-02 
1758	 8.41344404114486E-02 
1759	 8.28685121093212E-02 
1760	 8.45638862042116E-02 
1761	 8.45315630455369E-02 
1762	 8.54295951400433E-02 
1763	 8.46991162780937E-02 
1764	 7.88998874966142E-02 
1765	 0.078203703300692 
1766	 7.93280794126803E-02 
1767	 7.96885056666545E-02 
1768	 8.49662652817093E-02 
1769	 8.54951353979874E-02 
1770	 8.41414194291135E-02 
1771	 0.083605757485155 
1772	 7.74360517474463E-02 
1773	 7.51676689081398E-02 
1774	 7.66385222670781E-02 
1775	 8.02415966514207E-02 
1776	 8.12504485297958E-02 
1777	 7.78988373165986E-02 
1778	 7.72501535570414E-02 
1779	 7.63283870705644E-02 
1780	 7.76787928373523E-02 
1781	 8.76596869922155E-02 
1782	 8.88576097998842E-02 
1783	 8.27821752324577E-02 
1784	 0.080680939040145 
1785	 0.074953493297287 
1786	 7.06788284298214E-02 
1787	 6.94325575037374E-02 
1788	 6.69404887684816E-02 
1789	 6.17147976344992E-02 
1790	 6.27729670704332E-02 
1791	 6.93157083092426E-02 
1792	 7.10050305507491E-02 
1793	 6.20135924717784E-02 
1794	 0.067486480902957 
1795	 7.16728005004972E-02 
1796	 8.25878244340049E-02 
1797	 0.104803143932718 
1798	 6.92928939650201E-02 
1799	 3.47746168674252E-02 
1800	 3.20812427494625E-02 
1801	 2.56676842749989E-02 
1802	 0.111585301610449 
1803	 0.144530533019801 
1804	 9.87868517306826E-02 
1805	 8.53484291360167E-02 
1806	 2.20997635414508E-02 
1807	 2.81163323392969E-02 
1808	 0.160619639057601 
1809	 0.333104734931897 
1810	 0.882752933835459 
1811	 1.06610350149223 
1812	 0.417678937773875 
1813	 0.250971395952715 
1814	-0.145706720328528 
1815	-0.199498988681766 
1816	 0.521844456138905 
1817	 2.08520461254244 
1818	-2.0423036369731 
1819	 4.52746644719833 
1820	-3.18378818791395 
1821	-0.422565244932632 
1822	-0.298279594258379 
1823	-0.177404519917766 
1824	-7.79802635886923E-02 
1825	 0.170770941307405 
1826	 1.25319934137093 
1827	-1.67449207131248 
1828	-1.25574841868866 
1829	-1.71498659062933 
1830	-2.11260224785791 
1831	-3.65135239640339 
1832	-1.44051210491749 
1833	-0.641936369268267 
1834	-0.660178213512497 
1835	-0.782859994012096 
1836	-0.845759441671508 
1837	-1.76860333271145 
1838	-2.62061193515616 
1839	 6.1755225436522 
1840	 0.99108403923061 
1841	 1.97068215823265 
1842	-4.39249815424537 
1843	-17.5287905156533 
1844	-0.245818284118056 
1845	 2.71956869152388E-02 
1846	 0.856818504462758 
1847	 1.0069602746353 
1848	 1.86993418288516 
1849	-6.09861475266717 
1850	-0.806129165205457 
1851	 0.252562314655044 
1852	 0.296130574649596 
1853	 0.943766635163156 
1854	 1.16247160372256 
1855	 1.23096524657841 
1856	 1.38808729259305 
1857	 1.46742631967678 
1858	 1.37377904917168 
1859	 0.998137965167833 
1860	 3.32350669564066 
1861	 2.49355067470031 
1862	 0.213794473912366 
1863	-0.596773594198766 
1864	-0.590055429142172 
1865	-0.660049183452206 
1866	-0.929276765820618 
1867	-0.780042142485646 
1868	-0.170540007587966 
1869	-0.077082543769524 
1870	-0.247504130410942 
1871	 0.134073709598517 
1872	 0.317536858515244 
1873	-0.203745494261699 
1874	-3.04795313693994 
1875	 4.08768903352411 
1876	 2.64583844326261 
1877	 5.95094632517106 
1878	-8.81308193476507 
1879	-1.35296721163109 
1880	-0.922198089131148 
1881	-0.899436942899884 
1882	-0.98562257866132 
1883	-0.81130206991758 
1884	-0.517608203226076 
1885	 0.412709875602534 
1886	 1.25465995563621 
1887	 1.89371817683364 
1888	 1.40741743699999 
1889	 0.256116348368964 
1890	-1.42641701547251 
1891	-2.01319982478972 
1892	-2.48034209782087 
1893	-0.125358949159864 
1894	 0.511116782066936 
1895	-0.697276014992585 
1896	-0.801031426775593 
1897	-1.2181972767715 
1898	-2.10249248622038 
1899	-1.83553633967712 
1900	-2.35797722533057 
1901	 8.25980173544931 
1902	 2.02746091630433 
1903	 1.18849899265581 
1904	 0.351726004999345 
1905	 1.53790586605352 
1906	 3.40668427812042 
1907	 6.90154836722699 
1908	-11.204866545847 
1909	-6.26145103778908 
1910	-5.90254327909328 
1911	-11.2603036021939 
1912	 2.80594043914803 
1913	 1.23747071938892 
1914	 0.419323315206261 
1915	 0.190871858537456 
1916	 8.94740244308258E-02 
1917	 1.38039412957444 
1918	 76.7422874424766 
1919	-1.38151341460866 
1920	 24.8944297834693 
1921	 0.636289057354174 
1922	 0.166035586225568 
1923	 0.215866412104087 
1924	 2.20871850342999E-02 
1925	 1.42131215599862E-02 
1926	 8.08449030023879E-03 
1927	 0.10944242386508 
1928	 2.91414006213146 
1929	 3.45407770613191E-02 
1930	-0.423586091890195 
1931	-0.735194072319429 
1932	-1.46591826816645 
1933	 1.15540762740409 
1934	 0.200848571372886 
1935	-1.71643683913443 
1936	 15.324732287018 
1937	-6.19443714247223 
1938	 3.51908489960155 
1939	 12.4002367982582 
1940	-6.2885082811609 
1941	-0.409155388737571 
1942	-0.147566646001516 
1943	-4.60630558984087E-02 
1944	 0.258052175756805 
1945	 0.209530307343514 
1946	-1.98298636941068 
1947	-2.16583125927647 
1948	-1.38649283358342 
1949	-0.672911356315489 
1950	-0.578089275167384 
1951	-0.515297080314202 
1952	-0.336567540235919 
1953	-0.326959213510085 
1954	-0.107752059197133 
1955	 5.39568717382711E-02 
1956	-0.141015884250651 
1957	-0.243989497889218 
1958	-0.267476203811258 
1959	-0.279248013736627 
1960	 4.12443654154326E-02 
1961	 0.206357508193261 
1962	 0.220171927153769 
1963	 0.235816203096454 
1964	 0.115087902644404 
1965	-9.69503158121779E-03 
1966	-3.21682769612454E-02 
1967	-8.07544037772814E-03 
1968	 1.89990839950838E-02 
1969	 3.47948548372513E-02 
1970	 3.35679188237041E-02 
1971	 2.43462282175382E-02 
1972	 5.14446577421908E-03 
1973	 4.03977021640607E-03 
1974	 4.06848854056368E-02 
1975	 4.89115636760939E-02 
1976	 4.76360296554535E-02 
1977	 4.19868019537202E-02 
1978	 4.89159805544514E-02 
1979	 4.99103912673608E-02 
1980	 5.36837332738234E-02 
1981	 4.57883025810049E-02 
1982	 3.91180664073183E-02 
1983	 1.71151197341321E-02 
1984	 6.2774261489492E-03 
1985	 5.62851174320253E-03 
1986	 7.77575057845309E-03 
1987	 0.018534757314097 
1988	 2.50439349214267E-02 
1989	 3.73074974018088E-02 
1990	 5.50071649383704E-02 
1991	 5.60843460775571E-02 
1992	 5.08020190150091E-02 
1993	 4.51614796028255E-02 
1994	 3.70009774969048E-02 
1995	 1.99388617026549E-02 
1996	 7.27138046427102E-03 
1997	 9.53495990886478E-03 
1998	 7.42245094977822E-03 
1999	-1.39562458520051E-02 
2000	-1.03815300212622E-02 
2001	-3.25452160218394E-02 
2002	-0.061234993663227 
2003	-4.43811439614428E-02 
2004	-4.71158469674397E-02 
2005	-1.25943107699485E-02 
2006	 1.88545185431584E-02 
2007	-8.31710126559879E-03 
2008	-1.77686187747481E-02 
2009	-6.95123271377934E-03 
2010	 0.004028565405238 
2011	 9.95447464787993E-03 
2012	 0.036407088490618 
2013	 0.054827410811818 
2014	 6.47303579244173E-02 
2015	 5.79133777355302E-02 
2016	 3.42518492358671E-02 
2017	 2.63607360765552E-02 
2018	 1.63290362585053E-03 
2019	-1.8097973441015E-03 
2020	 4.38060874554586E-02 
2021	 6.22509961058913E-02 
2022	 7.58018055366811E-02 
2023	 9.30397370612275E-02 
2024	 8.59112336186708E-02 
2025	 5.75010459876681E-02 
2026	 4.38943302686546E-02 
2027	 3.19214968604669E-02 
2028	 5.63579426438726E-03 
2029	-7.59150754151168E-03 
2030	-1.33687961461943E-02 
2031	-1.22360206925327E-02 
2032	 6.28385996391255E-04 
2033	 1.53260776036854E-02 
2034	 3.36640221743636E-02 
2035	 4.46935100242176E-02 
2036	 4.56669909636606E-02 
2037	 4.58581290461823E-02 
2038	 3.64367458012969E-02 
2039	 3.43503906812478E-02 
2040	 3.42862004433397E-02 
2041	 3.43073129235259E-02 
2042	 4.02462277477994E-02 
2043	 4.41415715488463E-02 
2044	 4.89260223862513E-02 
2045	 4.36937819068976E-02 
2046	 4.08597050478553E-02 
2047	 3.64829550883071E-02 
2048	 3.00133120229053E-02 
2049	 3.54586087673403E-02 
2050	 3.86316569709927E-02 
2051	 3.00826950195417E-02 
2052	 2.15665025762653E-02 
2053	 1.19073345675334E-02 
2054	 2.55740948371634E-03 
2055	 1.94959239373583E-03 
2056	 2.44138795650507E-03 
2057	 1.6960965625094E-03 
2058	 5.99606795403773E-03 
2059	 2.05552856645949E-02 
2060	 2.75888315432238E-02 
2061	 3.33324496257269E-02 
2062	 4.04363774949218E-02 
2063	 4.24887529849621E-02 
2064	 3.92228215478947E-02 
2065	 4.06131006063804E-02 
2066	 4.17493325642874E-02 
2067	 3.71477701470665E-02 
2068	 3.32281299781124E-02 
2069	 3.16280619295643E-02 
2070	 3.51759552093194E-02 
2071	 3.27538121262529E-02 
2072	 0.028837840074118 
2073	 2.73118322475337E-02 
2074	 1.89821967471657E-02 
2075	 1.62882297465696E-02 
2076	 2.23044348820243E-02 
2077	 2.49832312200701E-02 
2078	 2.53991320017105E-02 
2079	 2.66892416073074E-02 
2080	 2.96306417727742E-02 
2081	 2.94208353836735E-02 
2082	 2.79240577959762E-02 
2083	 2.77210471753323E-02 
2084	 3.26221417702351E-02 
2085	 3.75133279564851E-02 
2086	 3.85685856127484E-02 
2087	 4.04138439425536E-02 
2088	 3.91205794169344E-02 
2089	 3.74286347224976E-02 
2090	 3.84106987680318E-02 
2091	 3.90017655719428E-02 
2092	 0.038312370077417 
2093	 0.035098007234155 
2094	 0.034155042324028 
2095	 3.34447703031736E-02 
2096	 3.30467733735251E-02 
2097	 3.54830048772197E-02 
2098	 3.56381444762182E-02 
2099	 3.13762090790356E-02 
2100	 3.36513142955659E-02 
2101	 3.94305592442188E-02 
2102	 4.29712680028228E-02 
2103	 5.13985290485248E-02 
2104	 5.49200601077914E-02 
2105	 5.69775762789137E-02 
2106	 6.07015874169369E-02 
2107	 5.62101706530102E-02 
2108	 5.10424826312935E-02 
2109	 4.87121091821152E-02 
2110	 4.28276560222384E-02 
2111	 3.95905476717034E-02 
2112	 4.28805842917128E-02 
2113	 4.28548946852627E-02 
2114	 4.04689082660929E-02 
2115	 3.82927742423954E-02 
2116	 3.74238752713554E-02 
2117	 3.51571945080749E-02 
2118	 2.98158740123409E-02 
2119	 2.92062792812769E-02 
2120	 3.07925232929761E-02 
2121	 3.05410138298677E-02 
2122	 3.65539958655943E-02 
2123	 4.31759454257689E-02 
2124	 4.37557286549546E-02 
2125	 4.34517938329358E-02 
2126	 4.32301658526746E-02 
2127	 4.26419581083039E-02 
2128	 4.41772521779548E-02 
2129	 4.51314986765211E-02 
2130	 4.17755889251383E-02 
2131	 3.66039266850413E-02 
2132	 3.70682935872897E-02 
2133	 3.95447291189715E-02 
2134	 3.95672975570281E-02 
2135	 4.20795843843464E-02 
2136	 4.08263217179494E-02 
2137	 0.032490479666509 
2138	 3.19429730093065E-02 
2139	 3.48203570825344E-02 
2140	 3.66429023877871E-02 
2141	 4.34786296469555E-02 
2142	 4.65008035908427E-02 
2143	 4.66281124256453E-02 
2144	 0.047276878504927 
2145	 4.91274996786213E-02 
2146	 4.91447611907252E-02 
2147	 5.23665792281288E-02 
2148	 5.35137089342884E-02 
2149	 5.36870921115049E-02 
2150	 0.054202048459034 
2151	 5.06015178361231E-02 
2152	 4.72252898100427E-02 
2153	 4.88567992729469E-02 
2154	 4.96393072692662E-02 
2155	 5.30640369270575E-02 
2156	 6.03942495458379E-02 
2157	 5.97717584184066E-02 
2158	 5.29961951876582E-02 
2159	 4.94032325759735E-02 
2160	 0.04106691299958 
2161	 3.90522972348253E-02 
2162	 4.20802913845136E-02 
2163	 4.43900692985883E-02 
2164	 4.79705216752187E-02 
2165	 4.89335757716355E-02 
2166	 4.92784216823605E-02 
2167	 5.16936712070583E-02 
2168	 5.86613409403292E-02 
2169	 5.84070911058295E-02 
2170	 5.64599788656092E-02 
2171	 4.85125083787329E-02 
2172	 4.40086357826368E-02 
2173	 4.63361180121563E-02 
2174	 4.96941564624221E-02 
2175	 5.43338049168945E-02 
2176	 5.22749623417862E-02 
2177	 4.45222976480862E-02 
2178	 4.48977338199043E-02 
2179	 5.13832582589118E-02 
2180	 5.52079788442735E-02 
2181	 5.52241533867441E-02 
2182	 5.57098081423418E-02 
2183	 5.68117729270416E-02 
2184	 5.55190683260526E-02 
2185	 5.59744642450369E-02 
2186	 5.42311333148837E-02 
2187	 4.52899622611948E-02 
2188	 4.39279792612247E-02 
2189	 4.72432948875273E-02 
2190	 0.050068786732141 
2191	 6.02230349803887E-02 
2192	 6.40905199201447E-02 
2193	 6.26498982763052E-02 
2194	 6.32870833731444E-02 
2195	 6.36079757893943E-02 
2196	 6.07193061909641E-02 
2197	 5.69822601096278E-02 
2198	 5.25937781900189E-02 
2199	 4.45219559619101E-02 
2200	 3.61889076923873E-02 
2201	 0.031033317863702 
2202	 0.030040163805185 
2203	 3.98727477312023E-02 
2204	 5.19368755608605E-02 
2205	 5.58567799816256E-02 
2206	 5.83828270302783E-02 
2207	 5.16964505708281E-02 
2208	 4.04042343697005E-02 
2209	 4.03468852587459E-02 
2210	 4.31077701421126E-02 
2211	 0.045458275068985 
2212	 4.70060873089052E-02 
2213	 0.046058307868392 
2214	 4.65279457282606E-02 
2215	 0.048616799864716 
2216	 0.050989812303307 
2217	 5.19308896361475E-02 
2218	 5.21775194398134E-02 
2219	 5.60556479090001E-02 
2220	 6.03082807530811E-02 
2221	 6.16680972225754E-02 
2222	 0.069408682611944 
2223	 6.70934918822925E-02 
2224	 5.34668665409842E-02 
2225	 4.90995186161727E-02 
2226	 4.11550901070841E-02 
2227	 4.06211295364289E-02 
2228	 5.13296015398268E-02 
2229	 5.42431604852252E-02 
2230	 5.70029912867923E-02 
2231	 5.84131801419643E-02 
2232	 0.055770268511163 
2233	 5.40108638143743E-02 
2234	 5.33742851183907E-02 
2235	 5.10595144375253E-02 
2236	 4.84716061819822E-02 
2237	 4.97767413402243E-02 
2238	 5.12022116181549E-02 
2239	 5.85400952112081E-02 
2240	 6.18733904402027E-02 
2241	 0.056552507615284 
2242	 5.35986956814586E-02 
2243	 0.052405574830536 
2244	 5.73242128575228E-02 
2245	 0.064109751268994 
2246	 6.50743418983655E-02 
2247	 6.62150019929604E-02 
2248	 6.23990552965467E-02 
2249	 5.50263888819784E-02 
2250	 5.65713411747865E-02 
2251	 5.84051048446942E-02 
2252	 5.92896008532349E-02 
2253	 5.89609014568471E-02 
2254	 5.01502106515931E-02 
2255	 4.06851520357387E-02 
2256	 0.044769708340896 
2257	 4.93709308318871E-02 
2258	 4.98751309673423E-02 
2259	 6.37184608886611E-02 
2260	 6.71687025112904E-02 
2261	 5.85194439445651E-02 
2262	 5.30634295421686E-02 
2263	 4.65368516983167E-02 
2264	 4.36566416801004E-02 
2265	 3.71797227557422E-02 
2266	 0.038529797899611 
2267	 5.14581151061543E-02 
2268	 5.27334848863525E-02 
2269	 0.053046065371997 
2270	 5.19195108414041E-02 
2271	 0.045112983935395 
2272	 3.92099599083909E-02 
2273	 0.030094650510033 
2274	 2.51936047649576E-02 
2275	 1.53548355633693E-02 
2276	 0.017027093262805 
2277	 3.41851979128819E-02 
2278	 4.11022085886039E-02 
2279	 5.30951946341917E-02 
2280	 6.10721403149898E-02 
2281	 6.51550022346186E-02 
2282	 5.69384382362364E-02 
2283	 0.051712764054203 
2284	 4.62653615525373E-02 
2285	 4.26915597658886E-02 
2286	 4.87411897681485E-02 
2287	 5.66292313573602E-02 
2288	 6.50376210800052E-02 
2289	 7.57465831469239E-02 
2290	 7.71526316899879E-02 
2291	 8.42146590983841E-02 
2292	 9.62897394357528E-02 
2293	 8.97568721054573E-02 
2294	 7.28967227643465E-02 
2295	 4.33259490289592E-02 
2296	 3.83330119234492E-03 
2297	-0.013178067199368 
2298	-1.44603120031928E-02 
2299	-2.73753323269749E-03 
2300	 6.13595136255113E-03 
2301	 2.59154091393613E-03 
2302	 4.40078429706818E-03 
2303	-1.45760565872341E-03 
2304	 1.40954824283168E-02 
2305	 3.68593353455883E-02 
2306	 2.78235468492371E-02 
2307	 1.75244543850852E-02 
2308	 7.83691404705002E-03 
2309	-1.31283648426662E-02 
2310	-1.78445399173481E-02 
2311	-8.70208250808277E-03 
2312	 2.36977044725788E-03 
2313	 0.014507941281422 
2314	 3.30960773047503E-02 
2315	 4.02703592634734E-02 
2316	 9.55615154156767E-03 
2317	-5.61594446555069E-03 
2318	-7.52140741057862E-03 
2319	-2.40830057324509E-02 
2320	-1.62996301114273E-02 
2321	-1.96035752706745E-02 
2322	-3.42351506106737E-02 
2323	-3.11949715602535E-02 
2324	-3.16833209536228E-02 
2325	-3.07216601259491E-03 
2326	 2.32116655516439E-02 
2327	 2.45931131196715E-02 
2328	 3.85202854987299E-02 
2329	 0.057456280884796 
2330	 7.10360285004055E-02 
2331	 6.50523830691141E-02 
2332	 9.01362242724137E-02 
2333	 9.91086460571763E-02 
2334	 6.52772753996689E-02 
2335	 7.70745163940258E-02 
2336	 9.07984244813463E-02 
2337	 9.39797979798513E-02 
2338	 0.11096085923801 
2339	 0.119942053071666 
2340	 0.108004352840799 
2341	 0.094146112330323 
2342	 0.11602154907904 
2343	 0.131903892880593 
2344	 0.138735719632938 
2345	 0.164833596091324 
2346	 0.13008005949815 
2347	 0.108348928252098 
2348	 0.135787073734019 
2349	 9.80764699447583E-02 
2350	 7.96724280598916E-02 
2351	 6.99277747367371E-02 
2352	 2.72688657122315E-02 
2353	 0.094630289648164 
2354	 0.191252377445573 
2355	 0.256598481720353 
2356	 0.271295581513009 
2357	 0.172260099336931 
2358	-1.00563440133004E-02 
2359	-0.221437957360057 
2360	-0.260989410074941 
2361	-0.1986343887033 
2362	-0.060756265542285 
2363	 5.33627046829046E-02 
2364	 1.09413379555654E-02 
2365	-5.43261368218985E-02 
2366	-8.03133052917325E-02 
2367	-7.09231425592187E-02 
2368	-2.54886507665416E-03 
2369	 0.120362470859664 
2370	 0.139510058287743 
2371	 8.24210342075747E-02 
2372	 0.149581383759391 
2373	 8.51558801729465E-02 
2374	-0.155794064964344 
2375	-0.036411320410343 
2376	-0.118843466079352 
2377	-0.283420096300483 
2378	-0.157013365066274 
2379	-0.310217007412858 
2380	-0.371454743300344 
2381	-0.377563105115853 
2382	-0.382864331458214 
2383	-8.10705855562188E-02 
2384	 2.81941402930222E-04 
2385	-6.47576816868017E-03 
2386	-4.88099066472634E-02 
2387	-0.231897286288892 
2388	-0.279116219781762 
2389	-0.209165903084248 
2390	-0.137620537449511 
2391	-0.257125385993655 
2392	-0.285209252375084 
2393	-0.120062013750602 
2394	 6.93071327213803E-03 
2395	 5.77403239500833E-02 
2396	 0.130965406734036 
2397	 0.339592977528601 
2398	 0.452348339317887 
2399	 0.548756975207176 
2400	 0.635166645530349 
2401	-0.268941350202545 
2402	-0.824720344523297 
2403	-1.07444251009697 
2404	-1.04974797066231 
2405	-1.20764655594349 
2406	-1.47177879184114 
2407	-2.51901380098604 
2408	-3.28025112316432 
2409	-5.13826815976356 
2410	-6.1013241967938 
2411	-1.02903572361102 
2412	-0.614563267025478 
2413	-0.552485472276911 
2414	-0.422546331765286 
2415	-0.53797509135292 
2416	-0.582238933784109 
2417	-0.933477659631946 
2418	-2.06665015648751 
2419	-2.72122024634814 
2420	-11.33785337108 
2421	-3.83186129150787 
2422	-1.06307961056743 
2423	-3.07947633326054E-02 
2424	-2.43575919849287 
2425	-5.67606735017375 
2426	-63.2633733469346 
2427	 4.62886968074225 
2428	 24.1763639330974 
2429	-5.24630468793727 
2430	-5.63215955874986 
2431	-3.73859678011358 
2432	-2.52421586430738 
2433	 78.7093686309239 
2434	 3.66453179671444 
2435	 1.6770664686412 
2436	 1.28954907613589 
2437	 1.0464847528257 
2438	 1.32388367459148 
2439	 2.56850192766167 
2440	 2.35513368591628 
2441	 1.44549403733812 
2442	 1.12270070122933 
2443	 0.677284991617665 
2444	 0.633971778022355 
2445	 0.341699853059337 
2446	 0.210514800679275 
2447	 0.174160748151587 
2448	 0.22050688397756 
2449	 0.61470393147827 
2450	 0.901719874796757 
2451	 1.39338986775436 
2452	 1.52133192012522 
2453	 1.69798686015983 
2454	 4.71403753007348 
2455	 1.5489181630415 
2456	 0.794548977065621 
2457	 0.336720778103058 
2458	 0.135833106694252 
2459	 0.214551055510045 
2460	 0.736874973802933 
2461	 1.15620245170292 
2462	 2.08795654324619 
2463	 4.45929396018829 
2464	 4.37973202814717 
2465	 13.3656970567163 
2466	 4.12758703329877 
2467	 1.78829914851645 
2468	 0.964637119699846 
2469	 0.639143046632449 
2470	 0.318864359088782 
2471	 8.50278632743398E-02 
2472	-0.129645753191613 
2473	-5.39827361558505E-02 
2474	-0.129257882951874 
2475	-0.621265300328623 
2476	-0.8692719020409 
2477	-4.72291991435043 
2478	 4.23497400319082 
2479	 2.63845486826121 
2480	 13.5423975520922 
2481	-1.21297617853869 
2482	 0.993912972814891 
2483	 0.388933750163108 
2484	 0.528415338389412 
2485	-0.706829982978258 
2486	-0.788418808770652 
2487	-6.61448542515553E-02 
2488	 0.591388410706753 
2489	 0.455796155731565 
2490	-5.47799421748943E-02 
2491	-0.25395281229581 
2492	-0.336068648968734 
2493	-0.45317849487547 
2494	 0.226250692661298 
2495	-0.30702481962393 
2496	-1.45727026735556 
2497	-0.852810917610037 
2498	-1.72740353231883 
2499	 4.48664242078753 
2500	 0.881449763292276 
