Wavelength	rt0704dirt00001.asd
350	 0.109178497672739 
351	 0.109713136684241 
352	 0.109875990143173 
353	 0.10995589387519 
354	 0.110263367785005 
355	 0.110906101113174 
356	 0.111172100530233 
357	 0.111130932888412 
358	 0.111188773232461 
359	 0.111987279402934 
360	 0.112248065708534 
361	 0.112194936539924 
362	 0.112958990511805 
363	 0.113395423805462 
364	 0.11350742505752 
365	 0.1135703190371 
366	 0.114035381613043 
367	 0.114453470714969 
368	 0.114775688032922 
369	 0.115049818001473 
370	 0.115226997317035 
371	 0.115741354113715 
372	 0.116292357194456 
373	 0.116313303426287 
374	 0.117049813454972 
375	 0.117457340853506 
376	 0.117457512771812 
377	 0.118568733797622 
378	 0.119227973201828 
379	 0.119349619206273 
380	 0.119420396041872 
381	 0.120563378354555 
382	 0.120972108078454 
383	 0.12103221098757 
384	 0.121928068549029 
385	 0.122150923729767 
386	 0.122379601481345 
387	 0.122986993859006 
388	 0.123782784250557 
389	 0.124293185352823 
390	 0.124540241081135 
391	 0.124714763002404 
392	 0.125099989384512 
393	 0.125488553035643 
394	 0.125892025235695 
395	 0.12637010627306 
396	 0.126811553762418 
397	 0.127054853712024 
398	 0.127241381890197 
399	 0.12772710405991 
400	 0.127946668706602 
401	 0.128102182876856 
402	 0.128393694857255 
403	 0.128750470540843 
404	 0.129094920788856 
405	 0.12935663296162 
406	 0.129518693925472 
407	 0.129809641991315 
408	 0.130078222160227 
409	 0.130292544465146 
410	 0.130556071173295 
411	 0.130839344861751 
412	 0.130992956070052 
413	 0.130996660705105 
414	 0.131155934245605 
415	 0.131517042199545 
416	 0.131914349844139 
417	 0.13215250442396 
418	 0.132480608592418 
419	 0.132852781967493 
420	 0.133230162529027 
421	 0.133603784409061 
422	 0.133819545793498 
423	 0.134123124076118 
424	 0.134677130632544 
425	 0.135190702839649 
426	 0.135725644210029 
427	 0.136296575618399 
428	 0.136887371389686 
429	 0.137416438326255 
430	 0.137966135443911 
431	 0.138567852359906 
432	 0.139176781652564 
433	 0.139793846024419 
434	 0.140445714244981 
435	 0.141121998913033 
436	 0.141689040067078 
437	 0.142201147050382 
438	 0.142752667343988 
439	 0.143413071925676 
440	 0.1438625578312 
441	 0.144309955107422 
442	 0.144884154997978 
443	 0.145518928125225 
444	 0.145937574424201 
445	 0.146307608746698 
446	 0.146820103989707 
447	 0.147233355811301 
448	 0.147619277744473 
449	 0.14794616767077 
450	 0.148126875327146 
451	 0.148396586207141 
452	 0.148670857174956 
453	 0.148891882987088 
454	 0.149165302906942 
455	 0.149331308529644 
456	 0.149344424707388 
457	 0.149277486129057 
458	 0.14955760576025 
459	 0.149686476271237 
460	 0.149577626896554 
461	 0.149598424977887 
462	 0.149652771043209 
463	 0.149677370356846 
464	 0.149671730744215 
465	 0.149810815823265 
466	 0.149924041240648 
467	 0.149992470232429 
468	 0.150062697970103 
469	 0.150043355590388 
470	 0.150140646914299 
471	 0.150351167951073 
472	 0.150362165110573 
473	 0.150403120369538 
474	 0.150557345662664 
475	 0.150809790194786 
476	 0.150936419522817 
477	 0.151151853317844 
478	 0.151413812526819 
479	 0.151536398731794 
480	 0.151854247260042 
481	 0.152133474710633 
482	 0.152273347801943 
483	 0.152594014615434 
484	 0.152919557966195 
485	 0.153296741178536 
486	 0.153768786358559 
487	 0.153931733146128 
488	 0.154268195887821 
489	 0.154847083946224 
490	 0.155307946642573 
491	 0.155807518287177 
492	 0.156297728853059 
493	 0.15675813966348 
494	 0.157351770013434 
495	 0.157948629356296 
496	 0.158469602241474 
497	 0.158906861284549 
498	 0.15960165681698 
499	 0.160231823464004 
500	 0.160715942125364 
501	 0.161454305212673 
502	 0.162008973307595 
503	 0.162535384456173 
504	 0.163243809558943 
505	 0.163804916686886 
506	 0.164536441519111 
507	 0.165438519144592 
508	 0.16624577735373 
509	 0.166832366011813 
510	 0.167496285537246 
511	 0.168381362006055 
512	 0.1691143328341 
513	 0.169913076529108 
514	 0.170768441297049 
515	 0.171581000408721 
516	 0.17237305244963 
517	 0.173162092286091 
518	 0.173982693417409 
519	 0.174889305845678 
520	 0.175771224260752 
521	 0.176605077947259 
522	 0.177420126066107 
523	 0.17832054267228 
524	 0.179222033203904 
525	 0.180138811921304 
526	 0.181145770121143 
527	 0.182096498118858 
528	 0.183091705089029 
529	 0.184166715402104 
530	 0.185143777409944 
531	 0.18635127588184 
532	 0.187626683883402 
533	 0.188686502494813 
534	 0.189761923177058 
535	 0.190883924905984 
536	 0.192053181306637 
537	 0.193245909462355 
538	 0.194514492658971 
539	 0.195749938934991 
540	 0.196887399171262 
541	 0.198131067468324 
542	 0.199402658502881 
543	 0.200611073654706 
544	 0.20169185480773 
545	 0.202879263941076 
546	 0.204114969358115 
547	 0.205324943081446 
548	 0.206492784152189 
549	 0.207613857304556 
550	 0.208668289442589 
551	 0.209661740792522 
552	 0.210745911901224 
553	 0.211780459118257 
554	 0.212716514634773 
555	 0.213620993484613 
556	 0.21447680117293 
557	 0.215393887283178 
558	 0.216400678932398 
559	 0.217204736321667 
560	 0.218029620136036 
561	 0.218909639013061 
562	 0.219762194531172 
563	 0.220570746289392 
564	 0.221340440060991 
565	 0.222055200560855 
566	 0.22264673712709 
567	 0.223189615091236 
568	 0.223774876131814 
569	 0.22445106123298 
570	 0.225011103292207 
571	 0.225577265976281 
572	 0.226150490769809 
573	 0.226584149648015 
574	 0.227099044631387 
575	 0.227640895122623 
576	 0.228125443918395 
577	 0.228585594787941 
578	 0.229170028904669 
579	 0.229805410465868 
580	 0.230292973922498 
581	 0.230692274454908 
582	 0.231049474743466 
583	 0.23139352539229 
584	 0.231737323719896 
585	 0.231822746468116 
586	 0.2317441066056 
587	 0.231700932008872 
588	 0.231571153654658 
589	 0.231705286646186 
590	 0.2321167686974 
591	 0.232449155203251 
592	 0.232782084509066 
593	 0.233178568778483 
594	 0.23363854186725 
595	 0.23398440791363 
596	 0.234432252795455 
597	 0.234925404507124 
598	 0.235270957308006 
599	 0.235569313605285 
600	 0.235930674188153 
601	 0.236299312829182 
602	 0.236327949935919 
603	 0.236413476589297 
604	 0.23649681678863 
605	 0.236440790733262 
606	 0.23652386470087 
607	 0.236478854547872 
608	 0.236261864163708 
609	 0.236085680894456 
610	 0.235974004261081 
611	 0.235863947794868 
612	 0.235702521478792 
613	 0.235537997006838 
614	 0.235360214887376 
615	 0.235222330103751 
616	 0.235198585471972 
617	 0.235227431120974 
618	 0.23512788021413 
619	 0.234919359931693 
620	 0.234964574659342 
621	 0.234918214474418 
622	 0.234824670915188 
623	 0.234821408635336 
624	 0.234885816296212 
625	 0.234673720109805 
626	 0.234339825356567 
627	 0.234492464029204 
628	 0.234497143582037 
629	 0.23450658609969 
630	 0.234669760660402 
631	 0.234727619452367 
632	 0.234725518014746 
633	 0.234761672935019 
634	 0.234904670593309 
635	 0.23475550546086 
636	 0.234558746237141 
637	 0.23443172412747 
638	 0.234214896529339 
639	 0.234115849910362 
640	 0.234017432073086 
641	 0.233760409827236 
642	 0.233444176147542 
643	 0.232921076550215 
644	 0.232220519513571 
645	 0.231521157302643 
646	 0.230769402269108 
647	 0.230121254734565 
648	 0.229684911630693 
649	 0.229357387500157 
650	 0.228827291862414 
651	 0.228305200645612 
652	 0.228134277232242 
653	 0.227861937992793 
654	 0.227510723779367 
655	 0.227115125969832 
656	 0.226733646294531 
657	 0.226453330496264 
658	 0.226157462390785 
659	 0.225718154307669 
660	 0.225121990361138 
661	 0.224375947577745 
662	 0.223579294155894 
663	 0.222882281404273 
664	 0.222132080765586 
665	 0.2213726393968 
666	 0.220652759890691 
667	 0.220012504215016 
668	 0.219336271771782 
669	 0.218708612388223 
670	 0.218255861035894 
671	 0.217914833086218 
672	 0.217752117966699 
673	 0.217730883707054 
674	 0.217723371717288 
675	 0.217771033542163 
676	 0.217982854769398 
677	 0.21843387357358 
678	 0.219090852808474 
679	 0.219880900545708 
680	 0.220796052996857 
681	 0.221895926120648 
682	 0.223426178279076 
683	 0.225275035862906 
684	 0.227193167672681 
685	 0.228970896687956 
686	 0.231394334430227 
687	 0.234251899587379 
688	 0.236949971086733 
689	 0.239915749018711 
690	 0.242851223965349 
691	 0.245742209909652 
692	 0.248774203775482 
693	 0.25225408759338 
694	 0.255985942504493 
695	 0.259552335506683 
696	 0.262875909310825 
697	 0.265926993040111 
698	 0.269022159454206 
699	 0.272215413953311 
700	 0.275339299439905 
701	 0.27864557392452 
702	 0.281895922944388 
703	 0.284678753123274 
704	 0.287169288337704 
705	 0.289587013559158 
706	 0.291974276739507 
707	 0.294297330362851 
708	 0.296219171217178 
709	 0.297884169990087 
710	 0.299545199268249 
711	 0.301012923733042 
712	 0.302231989290416 
713	 0.303179904792007 
714	 0.30386513622321 
715	 0.303879646171174 
716	 0.303717894421038 
717	 0.304089395010025 
718	 0.304793211802105 
719	 0.305749208287887 
720	 0.306506187756707 
721	 0.306927091413128 
722	 0.307045910582482 
723	 0.306954656897445 
724	 0.30682921652705 
725	 0.306998807803291 
726	 0.30701621503645 
727	 0.306933240413439 
728	 0.306851664319501 
729	 0.306677713126698 
730	 0.306480367197936 
731	 0.306410107534061 
732	 0.30652104119608 
733	 0.306377509102785 
734	 0.306155291419273 
735	 0.30602670728056 
736	 0.306121482472821 
737	 0.306125848129945 
738	 0.306280202296183 
739	 0.306737569059234 
740	 0.307034790447052 
741	 0.30730757522872 
742	 0.307614293580124 
743	 0.3079616134366 
744	 0.30821751195181 
745	 0.308504213479785 
746	 0.30878810951427 
747	 0.308801730873478 
748	 0.309092386492546 
749	 0.309410407395819 
750	 0.309484934874931 
751	 0.309686541102741 
752	 0.309885041937111 
753	 0.310066622884821 
754	 0.310271596058606 
755	 0.310456645305762 
756	 0.3105468014937 
757	 0.31041044096124 
758	 0.309625059980351 
759	 0.308870020999218 
760	 0.308388013002952 
761	 0.308221368630318 
762	 0.308141908959669 
763	 0.308862638189451 
764	 0.310027442613421 
765	 0.31105568915816 
766	 0.311800813451914 
767	 0.312298601088979 
768	 0.312677563800837 
769	 0.313125410158088 
770	 0.313520917403514 
771	 0.313806892204196 
772	 0.314014715389598 
773	 0.314374517249985 
774	 0.314789209454061 
775	 0.315049117416801 
776	 0.3150316802464 
777	 0.315393533590166 
778	 0.315854232963237 
779	 0.316191732255792 
780	 0.316339784548353 
781	 0.316573365170276 
782	 0.316939888738603 
783	 0.317371286441938 
784	 0.317663673319312 
785	 0.317816130777861 
786	 0.317902066591961 
787	 0.318046878408176 
788	 0.318399627688994 
789	 0.318849495599839 
790	 0.319275827957573 
791	 0.319613329475872 
792	 0.320181452566227 
793	 0.320628808575465 
794	 0.32081844335361 
795	 0.321073321307449 
796	 0.321261514069711 
797	 0.32150535098 
798	 0.321893314708013 
799	 0.322142768530144 
800	 0.322371356812561 
801	 0.322655132307499 
802	 0.323037712509263 
803	 0.323512949342325 
804	 0.323939085234659 
805	 0.32419641507584 
806	 0.324215577475588 
807	 0.324371346497666 
808	 0.324456407300876 
809	 0.324248899350012 
810	 0.323805850284007 
811	 0.323429914635457 
812	 0.323000335151441 
813	 0.32230482007848 
814	 0.321918916660034 
815	 0.321715932178671 
816	 0.321869804572919 
817	 0.322579979925022 
818	 0.322371013150121 
819	 0.32205755518525 
820	 0.321994520418825 
821	 0.321756147720959 
822	 0.321319945494519 
823	 0.320809385960186 
824	 0.320306742475937 
825	 0.319554058298442 
826	 0.31900634910856 
827	 0.318266250065056 
828	 0.316901305443041 
829	 0.315945835876725 
830	 0.315395710520837 
831	 0.314939301160592 
832	 0.314234023138565 
833	 0.314154524818802 
834	 0.314198552622414 
835	 0.313986628664311 
836	 0.313519008440571 
837	 0.313335270794444 
838	 0.313538004297166 
839	 0.313864158894386 
840	 0.313379322220937 
841	 0.313348957612689 
842	 0.313555528619484 
843	 0.313397534693157 
844	 0.313215364372684 
845	 0.313275535738354 
846	 0.313384427710903 
847	 0.313099560709777 
848	 0.312758996786111 
849	 0.312506196448179 
850	 0.312459422756548 
851	 0.31268241569536 
852	 0.312261229189015 
853	 0.312009949288778 
854	 0.312393238109124 
855	 0.312368234019576 
856	 0.31207802206456 
857	 0.311951842095634 
858	 0.312210858233871 
859	 0.312036124762187 
860	 0.311904937695192 
861	 0.31180253632205 
862	 0.31156707607706 
863	 0.311824952900449 
864	 0.311703301384115 
865	 0.31136529659418 
866	 0.311811150298941 
867	 0.311495089551513 
868	 0.311172060717598 
869	 0.31112069957506 
870	 0.31062273225104 
871	 0.310330937750016 
872	 0.310190359496397 
873	 0.310029684003847 
874	 0.309765124427193 
875	 0.309654238077085 
876	 0.309472539835083 
877	 0.309056887047033 
878	 0.309033752402828 
879	 0.308870618762649 
880	 0.308658822398781 
881	 0.308661579487748 
882	 0.308322027174183 
883	 0.3075829162623 
884	 0.30696831011558 
885	 0.307185803330629 
886	 0.306880730167466 
887	 0.30632006700956 
888	 0.305896993630467 
889	 0.305884932616288 
890	 0.305985192288391 
891	 0.305533395593908 
892	 0.304401024228457 
893	 0.303654577122394 
894	 0.30265745134304 
895	 0.302082023577941 
896	 0.302348834767518 
897	 0.301705375677749 
898	 0.300986501994876 
899	 0.30073691640883 
900	 0.300933875673377 
901	 0.300309847390321 
902	 0.299702306275127 
903	 0.299362128248217 
904	 0.299229047873721 
905	 0.299034184202852 
906	 0.298260330210415 
907	 0.297318436189964 
908	 0.297082517082837 
909	 0.295526696171342 
910	 0.295042658785515 
911	 0.295502762899111 
912	 0.294329161015916 
913	 0.292207261158347 
914	 0.29134978140382 
915	 0.291866627900956 
916	 0.291447561732857 
917	 0.291895318032451 
918	 0.292036519209636 
919	 0.291478324298187 
920	 0.291216625561188 
921	 0.290129816872411 
922	 0.288272205950365 
923	 0.286382564544051 
924	 0.286262862035384 
925	 0.284651295440718 
926	 0.282283271869146 
927	 0.280941723662285 
928	 0.28079925274537 
929	 0.278492844874548 
930	 0.274088958126854 
931	 0.270528230828087 
932	 0.269212831205382 
933	 0.261521782389175 
934	 0.256818463970453 
935	 0.266154756462816 
936	 0.265808536412819 
937	 0.258669412987184 
938	 0.250194577344154 
939	 0.245960820902078 
940	 0.251445940757406 
941	 0.254748992222968 
942	 0.253570526342188 
943	 0.249612447239413 
944	 0.236538192464735 
945	 0.237159480954123 
946	 0.24295865802892 
947	 0.233430239967489 
948	 0.23973799967809 
949	 0.237964461325146 
950	 0.233117787290833 
951	 0.242059922693337 
952	 0.229734470066137 
953	 0.223998380052548 
954	 0.227830462078768 
955	 0.226552794422641 
956	 0.229183529927151 
957	 0.22489745684764 
958	 0.218585348662786 
959	 0.222995931963703 
960	 0.225087751456399 
961	 0.225051197902059 
962	 0.225838811038448 
963	 0.229671194787085 
964	 0.228497781194633 
965	 0.228087034998403 
966	 0.229493564938216 
967	 0.229814393944986 
968	 0.227063337542572 
969	 0.226548198609573 
970	 0.228288240360055 
971	 0.227821714664785 
972	 0.225907156257686 
973	 0.22651017360883 
974	 0.22869320370381 
975	 0.227267041760361 
976	 0.226558270639349 
977	 0.228310839438745 
978	 0.230398176458212 
979	 0.229032268144869 
980	 0.228769885418212 
981	 0.23163701251266 
982	 0.234237201150337 
983	 0.231015858699101 
984	 0.228713269620105 
985	 0.231195139029229 
986	 0.234763085947292 
987	 0.23238070279868 
988	 0.233117963238322 
989	 0.234933156646053 
990	 0.235729244151011 
991	 0.234661453977285 
992	 0.23347178645171 
993	 0.23455869039145 
994	 0.237110546278861 
995	 0.238440096910544 
996	 0.239205690150994 
997	 0.239740516594247 
998	 0.23949474774415 
999	 0.238067360193893 
1000	 0.238602252479833 
1001	 0.24384304649378 
1002	 0.244551252609099 
1003	 0.245341337946881 
1004	 0.246512835229458 
1005	 0.246865350063098 
1006	 0.246897375941351 
1007	 0.247061628560943 
1008	 0.24630548600776 
1009	 0.246258065824237 
1010	 0.247960149375372 
1011	 0.249500429273592 
1012	 0.251167227947339 
1013	 0.252054323712859 
1014	 0.25287240914907 
1015	 0.253004275820811 
1016	 0.253528615602199 
1017	 0.254159511872285 
1018	 0.254769380862741 
1019	 0.25528288134399 
1020	 0.255815014491468 
1021	 0.256235457790805 
1022	 0.256987005981845 
1023	 0.257494667366453 
1024	 0.258697456564801 
1025	 0.260590689375544 
1026	 0.261600801950549 
1027	 0.262440595138104 
1028	 0.263104048823216 
1029	 0.263895142567071 
1030	 0.264151980484569 
1031	 0.264963664809318 
1032	 0.266391471543221 
1033	 0.267230357275466 
1034	 0.267773522023565 
1035	 0.268562411794486 
1036	 0.269288137249098 
1037	 0.270064740679418 
1038	 0.270963040603571 
1039	 0.271954384135374 
1040	 0.272914342480636 
1041	 0.273418498796049 
1042	 0.273755665209372 
1043	 0.27365038830772 
1044	 0.274149583983639 
1045	 0.274688714516574 
1046	 0.275218185596108 
1047	 0.276176442537836 
1048	 0.276831373006738 
1049	 0.27701938742058 
1050	 0.277587886481501 
1051	 0.278348300188983 
1052	 0.279191314960871 
1053	 0.280845432070219 
1054	 0.281406141462137 
1055	 0.280866207875646 
1056	 0.281154596292897 
1057	 0.281500294815192 
1058	 0.281376500265597 
1059	 0.281655007303504 
1060	 0.282951646193813 
1061	 0.283202617660554 
1062	 0.282643558083139 
1063	 0.28256815478951 
1064	 0.282144438603153 
1065	 0.28248670168853 
1066	 0.283845092622234 
1067	 0.284122324997058 
1068	 0.284269998678092 
1069	 0.284397367361801 
1070	 0.283526722611235 
1071	 0.283194853753823 
1072	 0.28301757262234 
1073	 0.283639785381681 
1074	 0.283731518080457 
1075	 0.28390910490024 
1076	 0.283616896555137 
1077	 0.283002646547048 
1078	 0.282620980945215 
1079	 0.281813920952765 
1080	 0.281524624175509 
1081	 0.281787682763402 
1082	 0.281658677025161 
1083	 0.281558946573166 
1084	 0.281352798918648 
1085	 0.281203826441408 
1086	 0.280707243948621 
1087	 0.279339881239884 
1088	 0.278851035468889 
1089	 0.278969432851532 
1090	 0.278527107364359 
1091	 0.278102516096759 
1092	 0.278571031199042 
1093	 0.277779507048205 
1094	 0.275437264353216 
1095	 0.274395775184479 
1096	 0.273686726597883 
1097	 0.27275597718248 
1098	 0.27232382590024 
1099	 0.27154491483861 
1100	 0.269942093413913 
1101	 0.268968082398308 
1102	 0.268690679998425 
1103	 0.268023988768808 
1104	 0.267372413116584 
1105	 0.266818249619013 
1106	 0.266188573305536 
1107	 0.264427769232239 
1108	 0.263740472289291 
1109	 0.263908104029082 
1110	 0.263696589873568 
1111	 0.264628635485087 
1112	 0.263622540217759 
1113	 0.260703052089397 
1114	 0.258820398768036 
1115	 0.253784503894121 
1116	 0.253170723147226 
1117	 0.260356672399943 
1118	 0.261637330010469 
1119	 0.265161268507687 
1120	 0.265248534498042 
1121	 0.250750954159941 
1122	 0.238201226638316 
1123	 0.24453113254709 
1124	 0.253915897283488 
1125	 0.25878385692365 
1126	 0.259078879433277 
1127	 0.25641717843561 
1128	 0.254239133970536 
1129	 0.248092618801441 
1130	 0.248317847111249 
1131	 0.243835813493529 
1132	 0.228929821447878 
1133	 0.222405332275598 
1134	 0.222418982381076 
1135	 0.223694821127314 
1136	 0.225681070092487 
1137	 0.224300338952948 
1138	 0.225434128755712 
1139	 0.221265961377978 
1140	 0.211434844971077 
1141	 0.213300893097614 
1142	 0.220117673933548 
1143	 0.218510160451649 
1144	 0.215397971096633 
1145	 0.215356486241341 
1146	 0.209638560456561 
1147	 0.203896580043931 
1148	 0.201499374774867 
1149	 0.19404655528823 
1150	 0.190827325363573 
1151	 0.191080414514117 
1152	 0.187340770223615 
1153	 0.1813450986537 
1154	 0.181805386966711 
1155	 0.183602296998 
1156	 0.183069261189793 
1157	 0.184171727651322 
1158	 0.186338745885464 
1159	 0.185780644688502 
1160	 0.185151768160771 
1161	 0.186331368581173 
1162	 0.186232997626218 
1163	 0.184877700632144 
1164	 0.184516527193716 
1165	 0.185815269698541 
1166	 0.187493783159757 
1167	 0.187998240026903 
1168	 0.187357008586685 
1169	 0.186326123982931 
1170	 0.18623323929911 
1171	 0.185969075047708 
1172	 0.186237593868786 
1173	 0.186342748297918 
1174	 0.186529839012464 
1175	 0.185996037349096 
1176	 0.185684200033359 
1177	 0.186750228215413 
1178	 0.187104813738344 
1179	 0.18603829497993 
1180	 0.185434499175856 
1181	 0.185689583741839 
1182	 0.185250595191898 
1183	 0.184740862382433 
1184	 0.185370718484246 
1185	 0.18557950999535 
1186	 0.185034268696558 
1187	 0.184850889048934 
1188	 0.184226057472251 
1189	 0.183310626057778 
1190	 0.183537409005626 
1191	 0.184083687899489 
1192	 0.184491758840555 
1193	 0.185225842406874 
1194	 0.185324324972678 
1195	 0.184401023088016 
1196	 0.18442345696185 
1197	 0.184792987047899 
1198	 0.184540023451089 
1199	 0.184847185798599 
1200	 0.185040684491873 
1201	 0.184468533283079 
1202	 0.184167834598158 
1203	 0.18435326003376 
1204	 0.184622069611378 
1205	 0.184656119421404 
1206	 0.184603494096975 
1207	 0.185131763124059 
1208	 0.185553755395713 
1209	 0.185453328325295 
1210	 0.186014876362762 
1211	 0.186328042768047 
1212	 0.186039607478624 
1213	 0.1861471679503 
1214	 0.186270540097016 
1215	 0.186239133295454 
1216	 0.186254821357602 
1217	 0.186787098253233 
1218	 0.187481214607491 
1219	 0.18765462177628 
1220	 0.187870217331726 
1221	 0.188056817863372 
1222	 0.187529714107711 
1223	 0.187963161119365 
1224	 0.188796133670326 
1225	 0.189018428644667 
1226	 0.189409883307402 
1227	 0.189293500113864 
1228	 0.188972517913772 
1229	 0.189224746205672 
1230	 0.189615140632525 
1231	 0.189748426545892 
1232	 0.18964723604563 
1233	 0.189660089366607 
1234	 0.189976535858176 
1235	 0.190248714806412 
1236	 0.191021985065622 
1237	 0.191289546614244 
1238	 0.191242926395142 
1239	 0.191210972784372 
1240	 0.191302566012604 
1241	 0.191675009663729 
1242	 0.192238511660981 
1243	 0.192459618729054 
1244	 0.192350022357521 
1245	 0.192362085744544 
1246	 0.1926267664031 
1247	 0.192824454773644 
1248	 0.192746997247349 
1249	 0.192596012814364 
1250	 0.192428585802072 
1251	 0.192446861625723 
1252	 0.19248424215365 
1253	 0.192505481068958 
1254	 0.192886462732597 
1255	 0.192884604447237 
1256	 0.192885590690358 
1257	 0.193360446188681 
1258	 0.193433928323543 
1259	 0.192847058224832 
1260	 0.192576598005516 
1261	 0.19256578117605 
1262	 0.192418620581707 
1263	 0.192286951261847 
1264	 0.191775760704903 
1265	 0.191298769867834 
1266	 0.190626131629327 
1267	 0.190564995947482 
1268	 0.191161734022741 
1269	 0.191246477993307 
1270	 0.19131016163076 
1271	 0.191995698829367 
1272	 0.192241092924211 
1273	 0.192123316849172 
1274	 0.192608857847543 
1275	 0.192184755689703 
1276	 0.191232018928831 
1277	 0.191810032403775 
1278	 0.192431463863072 
1279	 0.192425963556594 
1280	 0.192614020763329 
1281	 0.192451042175135 
1282	 0.191609833317357 
1283	 0.191386292324727 
1284	 0.19150819044239 
1285	 0.191056937419055 
1286	 0.190716863932906 
1287	 0.190468284480068 
1288	 0.189540582700472 
1289	 0.18894623962094 
1290	 0.189011751059494 
1291	 0.188327397166882 
1292	 0.187296332082372 
1293	 0.186831508443955 
1294	 0.186240863174691 
1295	 0.185839455847935 
1296	 0.18543107844846 
1297	 0.185077393996044 
1298	 0.184597727081224 
1299	 0.18357779248113 
1300	 0.18258183252694 
1301	 0.181943127712817 
1302	 0.181756859463839 
1303	 0.180899650130048 
1304	 0.179418578249755 
1305	 0.178667887306842 
1306	 0.177764775133598 
1307	 0.176747657600412 
1308	 0.175814219924409 
1309	 0.17520482530329 
1310	 0.174117390557097 
1311	 0.172881547520832 
1312	 0.171237682090402 
1313	 0.168705410490243 
1314	 0.167652092059338 
1315	 0.166949851674142 
1316	 0.166214284846051 
1317	 0.167216349291757 
1318	 0.166803841092123 
1319	 0.164883402783097 
1320	 0.164263919263103 
1321	 0.164819319426011 
1322	 0.16349193262063 
1323	 0.162557230613764 
1324	 0.161840388872913 
1325	 0.160801901610339 
1326	 0.159914678210943 
1327	 0.156829085983288 
1328	 0.154712531693673 
1329	 0.154244673225433 
1330	 0.150801121064973 
1331	 0.149204276036671 
1332	 0.151219148648438 
1333	 0.149845798985346 
1334	 0.148606240724916 
1335	 0.146804575089135 
1336	 0.143776233992303 
1337	 0.142792036206293 
1338	 0.141998672754114 
1339	 0.142296215340831 
1340	 0.148212430551025 
1341	 0.148340676130048 
1342	 0.142401663530837 
1343	 0.14095586000795 
1344	 0.138652303141499 
1345	 0.137414163536285 
1346	 0.142824670373901 
1347	 0.145120749088874 
1348	 0.141266087121183 
1349	 0.142518144972013 
1350	 0.151618295960876 
1351	 0.163738956533547 
1352	 0.192984419080998 
1353	 0.229236393162458 
1354	 0.269517199730572 
1355	 0.330401037617916 
1356	 0.278266492606011 
1357	 0.201177190514311 
1358	 0.324081667080077 
1359	 0.351460841923249 
1360	 0.280521345156 
1361	 0.453458271680684 
1362	 0.740965378580695 
1363	 0.551083268228828 
1364	 0.105700369060295 
1365	-0.18115153636699 
1366	 0.100449408088284 
1367	 0.484538562865501 
1368	 0.354824043199715 
1369	 0.887129266102936 
1370	 1.13610832048682 
1371	 0.483525190151976 
1372	 0.268534404827452 
1373	 0.823208455881755 
1374	 0.995219514742264 
1375	-2.05340320319438 
1376	-2.37349270903407 
1377	 0.344285494122239 
1378	 0.422916965760376 
1379	 0.349927543741174 
1380	 0.340830170752057 
1381	 0.365138964696564 
1382	 0.548857864297846 
1383	 1.39358356756144 
1384	 2.11121897668763 
1385	 6.71573570006094 
1386	-34.1155570641347 
1387	 3.88064655722744 
1388	 1.95511277606084 
1389	 1.0612544559369 
1390	 1.08925505260201 
1391	 1.0852753845843 
1392	 1.03752093946555 
1393	 1.96326503384569 
1394	 4.26469153198202 
1395	 3.02049519167447 
1396	-85.596460777554 
1397	-14.1049264939383 
1398	 1.17556998713938 
1399	 0.824116069404861 
1400	 28.0199413558096 
1401	-2.88724129090327 
1402	-4.58223691676437 
1403	-3.09784390587309 
1404	 0.776832978825475 
1405	 1.05328248251153 
1406	 1.16909474919719 
1407	 0.937330885940241 
1408	 1.4326720434862 
1409	 1.10063341017946 
1410	 0.325283516967712 
1411	 0.287889525561642 
1412	 0.854109237211771 
1413	 0.779808046175205 
1414	-0.28652938945882 
1415	-0.689286042959997 
1416	 9.80491707305978E-02 
1417	 0.062407509346033 
1418	 7.86733969106579E-02 
1419	 0.351475115207598 
1420	 0.769076300263216 
1421	 0.603291986072612 
1422	 0.412631053482819 
1423	 0.350135834524518 
1424	 3.48536904906422E-02 
1425	-5.86971597873856E-02 
1426	 6.14188391935607E-02 
1427	 9.36758968076311E-02 
1428	 4.68608750998416E-02 
1429	 6.86629151563081E-02 
1430	 0.21818250203132 
1431	 0.262359776609713 
1432	 0.22758854187554 
1433	 0.239306876919171 
1434	 0.229729334223586 
1435	 0.209596234079287 
1436	 0.147311510327269 
1437	 0.240055209813754 
1438	 0.339037085365408 
1439	 0.30306190963816 
1440	 0.206087660799442 
1441	 0.171427528228885 
1442	 0.167707673251498 
1443	 0.113549644247136 
1444	 0.139250755318079 
1445	 0.211380416473058 
1446	 0.183255367448039 
1447	 0.132662832173932 
1448	 0.112549713561909 
1449	 8.03033447171815E-02 
1450	 0.037510138679561 
1451	 3.21881756837875E-02 
1452	 4.51463022895131E-02 
1453	 3.70890397044296E-02 
1454	 3.81912437152991E-02 
1455	 5.62061695805811E-02 
1456	 5.69097821314258E-02 
1457	 4.61198325466253E-02 
1458	 4.26492571180589E-02 
1459	 4.04639442704452E-02 
1460	 3.90008302937074E-02 
1461	 3.46342401857858E-02 
1462	 3.65831677980802E-02 
1463	 4.63433102127724E-02 
1464	 4.94010484247981E-02 
1465	 4.88073568108367E-02 
1466	 5.56291177656556E-02 
1467	 6.46856567332704E-02 
1468	 6.91421915247719E-02 
1469	 8.31264400352223E-02 
1470	 8.37984371099051E-02 
1471	 6.69444064820245E-02 
1472	 6.44681654020692E-02 
1473	 6.65019515256909E-02 
1474	 6.33784050938329E-02 
1475	 6.09306630837631E-02 
1476	 6.30631713203214E-02 
1477	 6.81679967785053E-02 
1478	 6.31728418644872E-02 
1479	 5.42080547516349E-02 
1480	 5.17772966359424E-02 
1481	 4.66605005932423E-02 
1482	 4.35436893815801E-02 
1483	 4.48041633691161E-02 
1484	 0.047938642572359 
1485	 5.13974842876582E-02 
1486	 5.07527551890053E-02 
1487	 5.03848321717703E-02 
1488	 5.25790165655409E-02 
1489	 5.33173544402225E-02 
1490	 5.23262770041442E-02 
1491	 5.12895539132329E-02 
1492	 5.34271503781028E-02 
1493	 0.056859500241311 
1494	 5.71936074645476E-02 
1495	 5.76052073150732E-02 
1496	 5.94273657045088E-02 
1497	 6.05047962188676E-02 
1498	 5.96347250315997E-02 
1499	 5.86665184531352E-02 
1500	 5.94755169683321E-02 
1501	 5.96604687016835E-02 
1502	 0.05899914756017 
1503	 5.99494645482017E-02 
1504	 6.10224432265904E-02 
1505	 0.061280459831413 
1506	 5.99586833607375E-02 
1507	 6.04959603834867E-02 
1508	 0.060184139767719 
1509	 5.91500608400527E-02 
1510	 5.92747789961372E-02 
1511	 6.04995738201827E-02 
1512	 6.22382493304281E-02 
1513	 0.063420953222428 
1514	 6.38471217157691E-02 
1515	 6.35327932578519E-02 
1516	 6.36964599203446E-02 
1517	 6.47902512485426E-02 
1518	 6.53571580362256E-02 
1519	 6.60824304139728E-02 
1520	 6.69734938744187E-02 
1521	 6.66462845369418E-02 
1522	 0.066864846069333 
1523	 6.75955924979174E-02 
1524	 6.77319699068119E-02 
1525	 6.83230026216398E-02 
1526	 6.85991327127603E-02 
1527	 6.94247639353439E-02 
1528	 7.08130532380958E-02 
1529	 7.10957869126119E-02 
1530	 0.071656138727466 
1531	 7.26186108071693E-02 
1532	 7.31114778530912E-02 
1533	 7.36699215238638E-02 
1534	 7.40893694083468E-02 
1535	 7.44668952735335E-02 
1536	 7.52497112243374E-02 
1537	 7.59977636547713E-02 
1538	 7.67821480499546E-02 
1539	 7.72251363633825E-02 
1540	 7.70787924372463E-02 
1541	 7.77460181330932E-02 
1542	 0.078488492659323 
1543	 7.80300643918427E-02 
1544	 7.75358189466342E-02 
1545	 7.76796200205424E-02 
1546	 7.84706361736131E-02 
1547	 8.01724001684336E-02 
1548	 8.17548608204383E-02 
1549	 8.22697118985963E-02 
1550	 8.22228329429645E-02 
1551	 8.19923805541201E-02 
1552	 8.26406035290994E-02 
1553	 0.083648595825681 
1554	 8.36806463292548E-02 
1555	 8.33826799467581E-02 
1556	 8.34614361243206E-02 
1557	 8.38335261885386E-02 
1558	 8.44826713943323E-02 
1559	 8.59021667511697E-02 
1560	 8.67976973704202E-02 
1561	 8.66944058530064E-02 
1562	 0.087377203253223 
1563	 8.80614363523171E-02 
1564	 8.74822266071659E-02 
1565	 8.71845475345174E-02 
1566	 8.77301942307291E-02 
1567	 8.81192840196595E-02 
1568	 8.83353540089696E-02 
1569	 8.87724842691716E-02 
1570	 8.89524709422007E-02 
1571	 8.91425439011359E-02 
1572	 9.03159420470117E-02 
1573	 9.11728697672947E-02 
1574	 0.090946512002086 
1575	 9.07997054502285E-02 
1576	 0.09126968006135 
1577	 9.20685451266341E-02 
1578	 9.26788685732663E-02 
1579	 9.30973927323382E-02 
1580	 9.36264821531287E-02 
1581	 9.40178287254468E-02 
1582	 0.094049378834212 
1583	 9.46478800977828E-02 
1584	 9.51514235558152E-02 
1585	 9.45788200798749E-02 
1586	 9.50085871305491E-02 
1587	 0.096133683843756 
1588	 9.64577015570502E-02 
1589	 9.72952275749133E-02 
1590	 9.75704280316201E-02 
1591	 9.64310299777063E-02 
1592	 9.63591221406118E-02 
1593	 9.76441143897077E-02 
1594	 9.85502915119702E-02 
1595	 9.87006535524831E-02 
1596	 9.83841789502106E-02 
1597	 9.79608952121208E-02 
1598	 9.84476017426467E-02 
1599	 9.96745279234905E-02 
1600	 0.100130326164356 
1601	 9.99583627190304E-02 
1602	 9.99244202213551E-02 
1603	 0.100115623710586 
1604	 0.100571027554263 
1605	 0.100722109067671 
1606	 0.100409904911821 
1607	 9.99648500896365E-02 
1608	 9.99999142187674E-02 
1609	 0.100568801962795 
1610	 0.101181926496024 
1611	 0.101828677605473 
1612	 0.102151734276548 
1613	 0.101952810632888 
1614	 0.101844112604473 
1615	 0.102355237729006 
1616	 0.102832292049748 
1617	 0.103308054717118 
1618	 0.104125629366319 
1619	 0.104635045228078 
1620	 0.104603099412577 
1621	 0.104546619104612 
1622	 0.10436544401018 
1623	 0.104107843685241 
1624	 0.10421454702171 
1625	 0.104204763330969 
1626	 0.104817321734366 
1627	 0.105345464729109 
1628	 0.105489831666094 
1629	 0.106618343509971 
1630	 0.107052875772388 
1631	 0.106516505085234 
1632	 0.106566881548366 
1633	 0.107190920287004 
1634	 0.107470173842353 
1635	 0.107294099318818 
1636	 0.107388051523514 
1637	 0.107253064105708 
1638	 0.106675244318089 
1639	 0.106665962807587 
1640	 0.107200208662508 
1641	 0.107430207226289 
1642	 0.107309503329828 
1643	 0.107013151979274 
1644	 0.107198932108467 
1645	 0.107674258339505 
1646	 0.107727338135059 
1647	 0.107890289013422 
1648	 0.107618699210832 
1649	 0.107353731513571 
1650	 0.108333988029877 
1651	 0.109324891395776 
1652	 0.109529742339021 
1653	 0.109538629635916 
1654	 0.109420609934619 
1655	 0.108897964206169 
1656	 0.109314840812375 
1657	 0.110303523947359 
1658	 0.110428639722082 
1659	 0.110616225256087 
1660	 0.110857013277451 
1661	 0.110841284847409 
1662	 0.110421052107448 
1663	 0.109760751311652 
1664	 0.109735498333027 
1665	 0.109370796773307 
1666	 0.108893008391262 
1667	 0.109107148522894 
1668	 0.108629909003728 
1669	 0.108824602614591 
1670	 0.110560805439756 
1671	 0.110495114442672 
1672	 0.109640803572387 
1673	 0.11008900555917 
1674	 0.110905369713461 
1675	 0.111667812672081 
1676	 0.112169370551922 
1677	 0.112039097297048 
1678	 0.110739210395099 
1679	 0.109318400319759 
1680	 0.109661330380143 
1681	 0.110747864537287 
1682	 0.109784259057376 
1683	 0.108810329956901 
1684	 0.109841441520446 
1685	 0.110222267460636 
1686	 0.110541706729691 
1687	 0.110967654627515 
1688	 0.110430845863873 
1689	 0.110138116536456 
1690	 0.11068431301146 
1691	 0.111282109754184 
1692	 0.110668104306555 
1693	 0.109365674038096 
1694	 0.109048498126062 
1695	 0.110063494484528 
1696	 0.110571810051321 
1697	 0.110557023749255 
1698	 0.110416447816932 
1699	 0.109484727626878 
1700	 0.109558260400506 
1701	 0.110523200463922 
1702	 0.109657276114659 
1703	 0.108758340052235 
1704	 0.109888018048341 
1705	 0.109597780836586 
1706	 0.108923679377725 
1707	 0.109979298994574 
1708	 0.109519620958671 
1709	 0.108462069926934 
1710	 0.108837870949731 
1711	 0.108688624481639 
1712	 0.107828856223386 
1713	 0.109430294919656 
1714	 0.109958009220331 
1715	 0.109448859342693 
1716	 0.109127624267828 
1717	 0.109330955183077 
1718	 0.108907487315042 
1719	 0.109363946659876 
1720	 0.108901683002304 
1721	 0.106770478222677 
1722	 0.105819992710027 
1723	 0.106129765502372 
1724	 0.106498690824244 
1725	 0.106509303682467 
1726	 0.105734127475785 
1727	 0.105048622845398 
1728	 0.104934160377998 
1729	 0.104531958149018 
1730	 0.104356547130271 
1731	 0.103907110761508 
1732	 0.102825684862511 
1733	 0.103277779302409 
1734	 0.103073347087698 
1735	 0.102401156648164 
1736	 0.10363123049583 
1737	 0.10269479369995 
1738	 0.10213562256991 
1739	 0.104000630063871 
1740	 0.102872283561571 
1741	 0.101436662305858 
1742	 0.101438903402418 
1743	 9.87177647095376E-02 
1744	 9.74705204820652E-02 
1745	 9.99958975648154E-02 
1746	 0.102577023260914 
1747	 0.10307867258282 
1748	 0.102078402939572 
1749	 0.100791628047803 
1750	 9.74636764204211E-02 
1751	 9.66975559885964E-02 
1752	 9.79065714120154E-02 
1753	 9.75444884166249E-02 
1754	 9.70882990072429E-02 
1755	 0.097251737843373 
1756	 9.73512471832856E-02 
1757	 0.095228679120712 
1758	 9.44722907782488E-02 
1759	 9.41823408849445E-02 
1760	 9.26453397875242E-02 
1761	 9.42370625514397E-02 
1762	 9.65141044444487E-02 
1763	 9.45275441341123E-02 
1764	 9.27578891485148E-02 
1765	 9.19692228480086E-02 
1766	 8.97668528106405E-02 
1767	 8.89434263478818E-02 
1768	 9.02193975874103E-02 
1769	 8.94026855068336E-02 
1770	 8.87298355564351E-02 
1771	 8.97678439458466E-02 
1772	 8.54317813080028E-02 
1773	 8.39928776234038E-02 
1774	 8.95651210056596E-02 
1775	 9.20254676891831E-02 
1776	 9.32148983419595E-02 
1777	 8.87796228845939E-02 
1778	 8.67382666379872E-02 
1779	 8.72636193548776E-02 
1780	 8.63682321269029E-02 
1781	 8.74666407704744E-02 
1782	 8.82336645019527E-02 
1783	 8.60585115753243E-02 
1784	 8.50369286304406E-02 
1785	 8.58000712852997E-02 
1786	 8.39442791179829E-02 
1787	 7.81327777344659E-02 
1788	 8.06735508553506E-02 
1789	 8.91622350038466E-02 
1790	 9.14074950313791E-02 
1791	 9.54033469245751E-02 
1792	 9.54931335625359E-02 
1793	 9.74823227144757E-02 
1794	 0.116395006320423 
1795	 0.131366406518224 
1796	 0.124146925698561 
1797	 0.122469858833614 
1798	 0.119855166759517 
1799	 0.105665591997068 
1800	 0.107171599178986 
1801	 0.114693508741952 
1802	 0.126692723578732 
1803	 0.131543368061122 
1804	 0.15000724997464 
1805	 0.152393720462217 
1806	 0.107380310485256 
1807	 0.103866717017407 
1808	 0.133123435083385 
1809	 0.201282028879689 
1810	 0.478226523549578 
1811	 0.575114258448882 
1812	 0.348852617947318 
1813	 0.345660663628542 
1814	 0.157752317852914 
1815	 0.211005751611468 
1816	 0.671336349168927 
1817	 2.95085016058344 
1818	-13.5709485923268 
1819	-10.6768381990782 
1820	 11.2761396840956 
1821	 1.42127494848124 
1822	 0.847322304331761 
1823	 0.36298183771067 
1824	 0.19262593270393 
1825	 0.359992973302645 
1826	 0.520633376661387 
1827	 0.181564860328122 
1828	 0.137475328386298 
1829	-1.81545950499373E-02 
1830	-0.972731373948173 
1831	-1.50817035601518 
1832	-0.060672132647581 
1833	 0.272678525424529 
1834	 0.295530890544928 
1835	-0.22814057308877 
1836	-0.469437206633549 
1837	-1.24604370381345 
1838	-2.41485856664081 
1839	 13.7161965079016 
1840	-6.73526555231723 
1841	-2.51211772822426 
1842	 5.06047425743645 
1843	 19.9265963238341 
1844	-1.36799928520776 
1845	-1.33081686327401 
1846	-1.01403561534969 
1847	-1.20558616115358 
1848	-2.45530890804592 
1849	 9.80655764814321 
1850	 2.68795866725865 
1851	 1.29003042405378 
1852	 0.303085632843624 
1853	 0.198103483192638 
1854	 7.11830609490401E-02 
1855	-5.05183190888181E-02 
1856	-4.81068593081542E-02 
1857	 0.907336140614113 
1858	 1.2519775426833 
1859	 1.1916358929917 
1860	 0.751954445287232 
1861	-1.72778501801618 
1862	-0.862773615939374 
1863	-0.917670357764783 
1864	-1.74004264772747 
1865	-1.6493091592989 
1866	-0.853228294391382 
1867	-0.434653406257513 
1868	 0.580729933151988 
1869	 0.982426592836852 
1870	 0.560402510785793 
1871	 0.362761253079682 
1872	 0.829438996974352 
1873	 0.351084858519454 
1874	-2.04581998243172 
1875	 1.19866606207282 
1876	 1.76614583101839 
1877	 9.83812601242941 
1878	-13.6788150429502 
1879	-1.50043380189838 
1880	-1.0030831402092 
1881	-0.53223803978086 
1882	-0.317425214452801 
1883	-0.959277896900876 
1884	-1.75183342223338 
1885	-0.606627781964724 
1886	-0.160891472654297 
1887	 0.595109465620983 
1888	-0.102842874608447 
1889	-0.34791372287873 
1890	-1.07986832989397 
1891	-1.57252122290384 
1892	-1.83036425447241 
1893	-0.770131783000214 
1894	-1.17653188936798 
1895	 3.62423956997272 
1896	 0.536528388917361 
1897	 0.143547684367443 
1898	 0.833272148686425 
1899	 1.11918625885984 
1900	 1.74242665499652 
1901	-18.6921682506274 
1902	-7.15367213978339 
1903	-6.3062707872466 
1904	-1.82573146267626 
1905	-2.69789917762661 
1906	-3.18128114490462 
1907	-5.10938785867212 
1908	 10.0701667480884 
1909	 7.57670207507777 
1910	 6.88092122702984 
1911	 9.02822473931557 
1912	-1.50630666705859 
1913	-0.463279497620346 
1914	-0.595259720638778 
1915	-0.706241871349939 
1916	-1.21277321288314 
1917	-2.29588406979343 
1918	-129.024713628766 
1919	 2.07112449649394 
1920	-27.8405227301752 
1921	-0.790840226500199 
1922	 0.184657934832449 
1923	 8.30936394776972E-02 
1924	 8.88434807207851E-02 
1925	 0.183199721018305 
1926	 0.312879236806985 
1927	 0.482537586756611 
1928	-10.1934503603699 
1929	-1.32030903648118 
1930	-0.851474553719297 
1931	-0.430009745917391 
1932	 0.926460963619279 
1933	-4.96498762454947 
1934	-1.97560784129565 
1935	-3.07218394953845 
1936	 24.1188651385519 
1937	-44.9967186682638 
1938	 1.51285826416491 
1939	 1.05583209359002 
1940	 0.119372254707842 
1941	 0.184497738029968 
1942	 0.23110057290045 
1943	-0.270110174125876 
1944	-1.1560262836019 
1945	-3.17333247228916 
1946	-5.74294239595244 
1947	-3.5111182284442 
1948	-2.19423207587811 
1949	 0.37335435379824 
1950	 0.335449766571702 
1951	 1.40247338385465E-02 
1952	 0.14246913940229 
1953	 0.623145089724836 
1954	-0.567839113662886 
1955	-0.677094445271812 
1956	-2.04165322140148E-02 
1957	-0.284430894227456 
1958	-0.27315801498301 
1959	-2.13688172385196E-02 
1960	 4.14640891207624E-02 
1961	 0.103809558694168 
1962	 0.179006210408817 
1963	 0.114828153657456 
1964	 1.30614161494809E-02 
1965	-6.44249207548454E-02 
1966	-9.75257452860494E-02 
1967	-0.11717192157766 
1968	-8.14426220243307E-02 
1969	-0.04474615321534 
1970	-3.54603960980823E-02 
1971	-1.32705526067967E-02 
1972	-1.96374661736961E-02 
1973	-5.97600821964115E-02 
1974	-5.83211470872357E-02 
1975	-1.98859326011607E-02 
1976	 0.010229105278384 
1977	 3.96514237832651E-02 
1978	 5.89254467327827E-02 
1979	 6.10490048593833E-02 
1980	 4.11409264764231E-02 
1981	 1.94696170956351E-02 
1982	 1.07729341307451E-02 
1983	 1.09679342866934E-02 
1984	 7.62933841332173E-03 
1985	 3.09483793521881E-03 
1986	-5.82437771381764E-03 
1987	-1.36400423696352E-02 
1988	-1.74180168880124E-02 
1989	-2.84445267722022E-02 
1990	-2.58574954083088E-02 
1991	-1.12058113038818E-02 
1992	 0.006257539738511 
1993	 3.61854626173039E-02 
1994	 4.70929300513431E-02 
1995	 5.44161301990438E-02 
1996	 3.61997500478577E-02 
1997	 8.69464376442801E-03 
1998	-0.015651863254213 
1999	-4.43179951822214E-02 
2000	-6.21341798239347E-02 
2001	-0.058878268242763 
2002	-5.74655965763733E-02 
2003	-5.62991437517387E-02 
2004	-5.08857575464127E-02 
2005	-5.00698173740234E-02 
2006	-5.12959159060251E-02 
2007	-4.23586611669379E-02 
2008	-1.67359351273722E-02 
2009	 5.69072381069632E-03 
2010	 5.20582680470325E-02 
2011	 4.64082499728138E-02 
2012	 2.69791318000206E-02 
2013	-1.26073123071919E-02 
2014	-7.57322001543386E-02 
2015	-9.93380138616498E-02 
2016	-9.21735364149924E-02 
2017	-0.069916105770397 
2018	-4.20701449862335E-02 
2019	-4.29161255566053E-02 
2020	-4.29715484524923E-02 
2021	-4.15311075327718E-02 
2022	-3.71535902805811E-02 
2023	-1.4916782463117E-04 
2024	 9.51955251108328E-03 
2025	 8.16463933217347E-03 
2026	 9.08036802596944E-03 
2027	 9.06026137258728E-03 
2028	-4.86735038223231E-03 
2029	-3.65644745338482E-03 
2030	 6.06172574071898E-03 
2031	 1.18437442948306E-02 
2032	 2.02698139220356E-02 
2033	 1.70377200993158E-02 
2034	 1.18801088795461E-02 
2035	 7.38088286091436E-03 
2036	 2.70767333057185E-04 
2037	-1.45688644192142E-03 
2038	 2.80459009460608E-03 
2039	 7.96398866250427E-03 
2040	 2.12055585632034E-02 
2041	 2.35826876774645E-02 
2042	 1.94243473124916E-02 
2043	 0.021686056045864 
2044	 2.34493437858176E-02 
2045	 2.29444309058278E-02 
2046	 2.82297369641848E-02 
2047	 0.0342263540265 
2048	 3.53088625756218E-02 
2049	 3.53783677525284E-02 
2050	 3.44002181109653E-02 
2051	 3.33406951427983E-02 
2052	 2.63900537135407E-02 
2053	 1.70314051447877E-02 
2054	 1.15100170822304E-02 
2055	 9.11291914143991E-03 
2056	 9.44014820529147E-03 
2057	 1.74565532068596E-02 
2058	 1.97943056904024E-02 
2059	 1.68095498087636E-02 
2060	 2.13814704476479E-02 
2061	 3.08441435582657E-02 
2062	 3.53246193668319E-02 
2063	 0.03352213587907 
2064	 3.07070555811239E-02 
2065	 2.35196888209155E-02 
2066	 2.03983932674796E-02 
2067	 2.65945643099623E-02 
2068	 4.18682368745797E-02 
2069	 5.34291443864106E-02 
2070	 5.16840137718322E-02 
2071	 5.45911478629082E-02 
2072	 5.94409103418159E-02 
2073	 5.68840064484816E-02 
2074	 4.89756623829625E-02 
2075	 4.60490201118417E-02 
2076	 3.95724846759333E-02 
2077	 3.74297875512218E-02 
2078	 4.13691010120805E-02 
2079	 4.18076217344271E-02 
2080	 4.37884798101349E-02 
2081	 3.88452594647736E-02 
2082	 3.15258211466541E-02 
2083	 2.74034650446396E-02 
2084	 2.82198830231165E-02 
2085	 3.09647508977507E-02 
2086	 3.28831173847937E-02 
2087	 2.87022254593406E-02 
2088	 1.89607774879076E-02 
2089	 1.10492420788868E-02 
2090	 6.15384172925872E-03 
2091	 1.04688479278283E-02 
2092	 1.45008820597949E-02 
2093	 2.35547603888291E-02 
2094	 2.79205075030704E-02 
2095	 3.35335190303102E-02 
2096	 3.50184835919714E-02 
2097	 3.12076671172734E-02 
2098	 3.19120233490041E-02 
2099	 3.45658130025195E-02 
2100	 3.34611013522182E-02 
2101	 0.032260696387051 
2102	 3.16593053127765E-02 
2103	 0.02554046930105 
2104	 2.52360067956866E-02 
2105	 3.02060005425667E-02 
2106	 3.56432331316042E-02 
2107	 4.15844725261041E-02 
2108	 4.05812765856962E-02 
2109	 3.83091495471567E-02 
2110	 3.48021030757575E-02 
2111	 0.029672744220722 
2112	 3.05066651972874E-02 
2113	 3.08376354473737E-02 
2114	 3.21612768757564E-02 
2115	 3.33199205991049E-02 
2116	 3.46480981344934E-02 
2117	 3.85608280922283E-02 
2118	 4.48636921399603E-02 
2119	 4.98811142250847E-02 
2120	 5.92561556143048E-02 
2121	 6.13440840594564E-02 
2122	 5.71660152206993E-02 
2123	 5.16966580378891E-02 
2124	 4.65952803749048E-02 
2125	 4.43815005802159E-02 
2126	 4.49789624876745E-02 
2127	 4.86136905702404E-02 
2128	 4.95288946974298E-02 
2129	 4.97787435472444E-02 
2130	 5.02828504985721E-02 
2131	 4.81494995384912E-02 
2132	 4.65344918079419E-02 
2133	 4.56247667117625E-02 
2134	 4.50600505998282E-02 
2135	 4.40427967066414E-02 
2136	 4.62054961824642E-02 
2137	 5.12896539098661E-02 
2138	 5.29318618977396E-02 
2139	 5.61943168375793E-02 
2140	 5.70426033108721E-02 
2141	 5.44352706357365E-02 
2142	 5.29313686807115E-02 
2143	 5.05454420221409E-02 
2144	 4.96413273584894E-02 
2145	 0.049566568534535 
2146	 4.67947533211886E-02 
2147	 4.96657069078759E-02 
2148	 5.26364230417385E-02 
2149	 4.81536204405235E-02 
2150	 4.67654089145196E-02 
2151	 4.43873142265149E-02 
2152	 3.99083227459566E-02 
2153	 4.53027553671089E-02 
2154	 4.72313055122783E-02 
2155	 4.29034249932429E-02 
2156	 4.41191667144565E-02 
2157	 4.50233623315196E-02 
2158	 4.46460081706914E-02 
2159	 4.60891602424717E-02 
2160	 4.94152264919083E-02 
2161	 0.052158559158796 
2162	 5.55322424485271E-02 
2163	 5.74069948533349E-02 
2164	 6.32427305900677E-02 
2165	 6.18477199192175E-02 
2166	 5.14971860884302E-02 
2167	 4.63624348229312E-02 
2168	 3.95440502528075E-02 
2169	 3.54781099260598E-02 
2170	 3.34375543134207E-02 
2171	 3.47952884930925E-02 
2172	 3.94765842457979E-02 
2173	 4.54942651870937E-02 
2174	 5.40754742647943E-02 
2175	 6.21087485589048E-02 
2176	 5.63137490368297E-02 
2177	 5.16043537757488E-02 
2178	 4.83430463533402E-02 
2179	 4.28925828851933E-02 
2180	 4.91989712068072E-02 
2181	 5.18405109411321E-02 
2182	 5.08904883846511E-02 
2183	 4.97163061657837E-02 
2184	 4.24674540334837E-02 
2185	 4.14301815714252E-02 
2186	 4.10902531019011E-02 
2187	 4.48352206754144E-02 
2188	 4.43987662982095E-02 
2189	 3.99109794226058E-02 
2190	 4.10706349514449E-02 
2191	 4.32162261364717E-02 
2192	 4.64392402133695E-02 
2193	 6.08218760283915E-02 
2194	 6.59429248083241E-02 
2195	 6.36210062652751E-02 
2196	 6.37410930126398E-02 
2197	 5.83130851597941E-02 
2198	 5.65460908887482E-02 
2199	 5.81760980748538E-02 
2200	 5.71899060190371E-02 
2201	 6.22479598957286E-02 
2202	 7.15983377206547E-02 
2203	 6.43479964372198E-02 
2204	 5.39878512521001E-02 
2205	 5.10058360805195E-02 
2206	 4.64083205120294E-02 
2207	 4.77654100990119E-02 
2208	 0.058480348485499 
2209	 6.16987997900248E-02 
2210	 4.98222389603141E-02 
2211	 4.07706679065488E-02 
2212	 4.27841481644588E-02 
2213	 3.90282245460246E-02 
2214	 3.95248071127109E-02 
2215	 4.93957126690884E-02 
2216	 5.07582902036206E-02 
2217	 5.04032100531468E-02 
2218	 5.03347969926103E-02 
2219	 4.71019105405423E-02 
2220	 3.63986329054759E-02 
2221	 3.37666932999516E-02 
2222	 3.32255005658375E-02 
2223	 3.46159664927189E-02 
2224	 3.79944112526563E-02 
2225	 4.07180362647464E-02 
2226	 5.08544625721356E-02 
2227	 5.09865442452733E-02 
2228	 4.30501094255971E-02 
2229	 4.10636492775291E-02 
2230	 3.08092281908099E-02 
2231	 3.12438729841898E-02 
2232	 0.047373269161794 
2233	 5.60261325189169E-02 
2234	 6.95650561635998E-02 
2235	 7.19109416956945E-02 
2236	 6.32098663630128E-02 
2237	 5.33512538871848E-02 
2238	 3.98502438011978E-02 
2239	 2.79922307584238E-02 
2240	 2.48100569969843E-02 
2241	 2.52918402717027E-02 
2242	 2.58993661513418E-02 
2243	 2.58597072448711E-02 
2244	 3.35306679333013E-02 
2245	 3.22804878845816E-02 
2246	 3.27352009180108E-02 
2247	 4.87283931479345E-02 
2248	 5.16668301532822E-02 
2249	 5.26990201339292E-02 
2250	 5.17210238420476E-02 
2251	 3.79807779461188E-02 
2252	 0.03014076947271 
2253	 2.24125612961422E-02 
2254	 2.02396074331637E-02 
2255	 2.45937295986609E-02 
2256	 3.15700149000413E-02 
2257	 4.12961558276451E-02 
2258	 3.91886497724031E-02 
2259	 4.34725730453619E-02 
2260	 4.78210549772061E-02 
2261	 4.93715626709454E-02 
2262	 5.26519446338116E-02 
2263	 6.03103199254782E-02 
2264	 6.16860275620945E-02 
2265	 6.04168580685294E-02 
2266	 6.01972861329721E-02 
2267	 0.059418945431914 
2268	 5.83512028618951E-02 
2269	 6.03143472504028E-02 
2270	 5.22313900380524E-02 
2271	 3.38155458829779E-02 
2272	 2.45177607775097E-02 
2273	 1.12633207301131E-02 
2274	 3.46913175491253E-03 
2275	 1.44740479239073E-03 
2276	 5.04961675676251E-03 
2277	 0.017654002616572 
2278	 2.39660055373889E-02 
2279	 3.72056143669255E-02 
2280	 4.14937623861432E-02 
2281	 3.83745530747435E-02 
2282	 2.42932765507442E-02 
2283	 0.02626947612543 
2284	 0.024777126712005 
2285	 1.75454425154532E-02 
2286	 2.40947622095856E-02 
2287	 2.39126721291852E-02 
2288	 2.93726222698189E-02 
2289	 4.10262350501496E-02 
2290	 4.20211024620535E-02 
2291	 2.62033713813003E-02 
2292	 0.014774601358015 
2293	 1.49760179758629E-02 
2294	 5.5212369412976E-04 
2295	 1.45158580482014E-03 
2296	 1.67357739143162E-02 
2297	 2.57450390052437E-02 
2298	 3.62145756681452E-02 
2299	 3.76913202336858E-02 
2300	 2.79017661923531E-02 
2301	 1.58081808935092E-02 
2302	 1.36773862957292E-02 
2303	-6.8553125526107E-04 
2304	-1.22626381839143E-02 
2305	-8.3696470263493E-03 
2306	-2.33324771275874E-02 
2307	-0.020191403242487 
2308	 0.012809378621058 
2309	 3.24351066888762E-02 
2310	 4.50005995700718E-02 
2311	 6.10316778228025E-02 
2312	 4.56030646900715E-02 
2313	 2.14635449828617E-02 
2314	 1.54224953132513E-02 
2315	-2.86394730240693E-03 
2316	-2.70998624299731E-03 
2317	 1.71330009397052E-02 
2318	 1.40596518139118E-02 
2319	 1.05273829964792E-03 
2320	 8.80949365994122E-03 
2321	 1.49449618838177E-02 
2322	 1.33711518198406E-02 
2323	 3.82944314096145E-02 
2324	 0.057193161273107 
2325	 1.67046945914401E-02 
2326	-2.39201083802914E-02 
2327	-1.93613742926374E-02 
2328	-3.43657265836854E-02 
2329	-2.91059670551705E-02 
2330	 0.011184749341211 
2331	-4.81761079908699E-04 
2332	-5.08786860580791E-03 
2333	 1.67924126434816E-02 
2334	 1.65880280969998E-02 
2335	 6.12077093055748E-03 
2336	-7.71604866191574E-04 
2337	 1.79871640235504E-02 
2338	 1.86034694043723E-02 
2339	-1.32767734980256E-02 
2340	-3.42528699096307E-02 
2341	-3.57042929277259E-02 
2342	-2.32340887850565E-02 
2343	-1.71282049521942E-02 
2344	-1.10399734027344E-02 
2345	-5.76679846402999E-02 
2346	-0.113129176918713 
2347	-1.73722456729784E-02 
2348	 0.140249389804918 
2349	 0.219560565407153 
2350	 0.240321475546177 
2351	 0.209772068374026 
2352	 0.168168847865218 
2353	 0.145812125408832 
2354	 0.193560235154714 
2355	 0.180918040579819 
2356	 7.11525995911628E-02 
2357	 0.034787673042909 
2358	-1.28329141722119E-02 
2359	-0.12859932722358 
2360	-0.169027294647492 
2361	-0.134984302798489 
2362	-6.56223289349057E-02 
2363	 8.11623769116762E-02 
2364	 0.175422307212936 
2365	 0.141004099353768 
2366	 5.15708782696198E-02 
2367	-0.015337847423609 
2368	-6.48940363045266E-02 
2369	-8.61312044225204E-02 
2370	-0.101985363693512 
2371	-0.168652316999149 
2372	-0.21799482465624 
2373	-0.310004885038884 
2374	-0.326474083307551 
2375	-0.182537539370059 
2376	-0.204490371832471 
2377	-0.165042772034648 
2378	-0.134827093446153 
2379	-0.412602108376899 
2380	-0.556123112822561 
2381	-0.476422888173487 
2382	-0.366094197728013 
2383	-0.212209435735484 
2384	-6.30257820777953E-02 
2385	-1.79326952589276E-02 
2386	-0.198768595736466 
2387	-0.14742183956776 
2388	 0.164843874433812 
2389	-0.167802922390458 
2390	-0.241023623513744 
2391	-0.246546932227174 
2392	-0.478596214060647 
2393	-0.32254928714248 
2394	-0.254159191166068 
2395	-0.314004656673067 
2396	-0.154397072168456 
2397	-0.355127990826488 
2398	-0.560561513532017 
2399	-0.347933306999096 
2400	-0.434049290492044 
2401	-7.27263601244183E-02 
2402	 0.185792955102394 
2403	-0.16078875000257 
2404	-0.166297415731161 
2405	 8.32834013401957E-02 
2406	 1.06918075354693E-02 
2407	-0.231045302689456 
2408	-1.1923171459536 
2409	-5.38552071562546 
2410	-8.9123509831614 
2411	-0.950969390718552 
2412	-0.89497835616281 
2413	-1.82439468482115 
2414	-2.1614704900903 
2415	-1.03694048160012 
2416	-0.433839089338448 
2417	-0.189240678430842 
2418	-8.52591684571257E-02 
2419	-1.0625332702762 
2420	-5.8073779030357 
2421	-0.809755109426954 
2422	-0.678494051312148 
2423	-1.2938828345117 
2424	-3.81448692028096 
2425	-12.1128204550832 
2426	-136.776303906955 
2427	 5.27875952770959 
2428	 30.4189465912691 
2429	-7.38805586744743 
2430	-4.56323107089723 
2431	-3.06621741607731 
2432	-3.0944760602424 
2433	 51.5145368812816 
2434	 2.02852037005407 
2435	 0.74163536889137 
2436	 0.128222446705645 
2437	 0.207220168669367 
2438	-0.482134750795462 
2439	-0.722538514009194 
2440	-0.266970483548886 
2441	-0.265680785327981 
2442	-0.127945309183083 
2443	 0.117637413013497 
2444	 0.14738087189285 
2445	 5.27236366546215E-02 
2446	 8.28352560753151E-02 
2447	-8.48410515088305E-02 
2448	-5.50250374318732E-02 
2449	 0.700187738710836 
2450	 1.20274409472198 
2451	 1.2899921498535 
2452	 0.910028145147403 
2453	 0.766288096978241 
2454	 1.11243639084291 
2455	-0.249571822971531 
2456	 0.178839235838091 
2457	 0.509968266176543 
2458	 0.479423438823678 
2459	 0.967568751546138 
2460	 1.53271181760629 
2461	 1.50745521897363 
2462	 2.78798805127944 
2463	 3.73552166557297 
2464	 4.06011993814796 
2465	 16.4266607737229 
2466	 3.5367773773292 
2467	 2.72340256958782 
2468	 2.67852153054143 
2469	 2.40639741295873 
2470	 1.52452432791428 
2471	 1.12291466874915 
2472	 0.986510917989624 
2473	 0.316747192701753 
2474	 8.39045335374679E-02 
2475	 0.125939269351852 
2476	 0.470824641029582 
2477	 3.49742540370035 
2478	-1.9218014300431 
2479	-1.16100328797506 
2480	-9.85510489222513 
2481	 5.86237981748465 
2482	 3.50405549534893 
2483	 1.48775353641683 
2484	 2.24877837642708 
2485	 2.35242468053234 
2486	 0.730175073268998 
2487	 1.10230931572455 
2488	 1.50161380719343 
2489	 1.20889095139281 
2490	 1.11035608478167 
2491	 1.12361777765131 
2492	 1.03960131192275 
2493	 1.0545728061165 
2494	 0.178844996224821 
2495	-0.779313977260047 
2496	-1.467765561792 
2497	-1.39351701225629 
2498	-0.985379818148451 
2499	-2.39142418231116 
2500	-3.37689743628987 
