Wavelength	rt0704rt300009.asd
350	 5.80397627580612E-02 
351	 5.81003646971807E-02 
352	 5.89744445383692E-02 
353	 5.93621158011463E-02 
354	 5.88108743364174E-02 
355	 5.94224422239393E-02 
356	 5.94952102041148E-02 
357	 5.94888901444386E-02 
358	 6.01587232317831E-02 
359	 6.05632031597298E-02 
360	 6.08459954951701E-02 
361	 6.11454264977013E-02 
362	 6.15650567238114E-02 
363	 6.21718765887364E-02 
364	 6.24999177127504E-02 
365	 6.25278208137815E-02 
366	 6.29848115555292E-02 
367	 6.33441050682057E-02 
368	 6.36123782835304E-02 
369	 6.38990200105377E-02 
370	 6.41269372703784E-02 
371	 6.47209220615004E-02 
372	 6.54513761475981E-02 
373	 0.065783981943684 
374	 6.62688202209909E-02 
375	 6.65593341884825E-02 
376	 0.066750311223369 
377	 6.76275516843804E-02 
378	 6.80626117066171E-02 
379	 6.79185284842288E-02 
380	 6.76180521290027E-02 
381	 6.84713245627424E-02 
382	 6.90955260239665E-02 
383	 6.92964983433813E-02 
384	 6.94907477631425E-02 
385	 6.97646390254639E-02 
386	 7.00548670442694E-02 
387	 7.03354968234686E-02 
388	 7.06349998030779E-02 
389	 7.06301723658267E-02 
390	 7.05848643697298E-02 
391	 7.07536115380117E-02 
392	 7.11202882311149E-02 
393	 7.12253006574199E-02 
394	 7.11154148500545E-02 
395	 7.10234657784693E-02 
396	 7.09199556183371E-02 
397	 7.10174312948185E-02 
398	 7.12228766077517E-02 
399	 7.11945056041201E-02 
400	 7.08462168968859E-02 
401	 7.07108373343169E-02 
402	 7.09271543519492E-02 
403	 7.05565665741321E-02 
404	 7.03596470926672E-02 
405	 7.02207695956354E-02 
406	 6.98235266725607E-02 
407	 6.96620876554013E-02 
408	 6.96045578324024E-02 
409	 6.94524458059297E-02 
410	 6.90141068594904E-02 
411	 6.87517128912152E-02 
412	 6.84426287301829E-02 
413	 6.79998511110832E-02 
414	 6.79950344625104E-02 
415	 6.79149909398444E-02 
416	 6.76406255558815E-02 
417	 6.72627224214393E-02 
418	 6.70398686654608E-02 
419	 0.066907301871077 
420	 6.68193962981654E-02 
421	 6.67742587686827E-02 
422	 6.64771723053511E-02 
423	 6.62060022949488E-02 
424	 6.61869345232459E-02 
425	 6.61670027781827E-02 
426	 6.61124151157666E-02 
427	 6.60536167099351E-02 
428	 6.60531024096592E-02 
429	 6.61089976892245E-02 
430	 0.066093819627139 
431	 6.60484398517901E-02 
432	 6.62160298736441E-02 
433	 0.066277464451115 
434	 6.63492589738367E-02 
435	 6.65548935115217E-02 
436	 6.67701630283683E-02 
437	 6.67943360754917E-02 
438	 6.67427003613448E-02 
439	 0.066872049276275 
440	 6.69808086824761E-02 
441	 6.70631400175514E-02 
442	 6.71304357378325E-02 
443	 6.71875417537999E-02 
444	 6.72504806363144E-02 
445	 6.72919862841784E-02 
446	 6.73054668294441E-02 
447	 6.74081901676764E-02 
448	 6.75564703840936E-02 
449	 6.76433171726044E-02 
450	 6.75406888516122E-02 
451	 6.74088191959594E-02 
452	 0.067373983416423 
453	 6.74151897836575E-02 
454	 6.72235109076794E-02 
455	 6.70836470517799E-02 
456	 6.69951437959574E-02 
457	 6.68693117206579E-02 
458	 6.67377648514977E-02 
459	 6.65709085167233E-02 
460	 6.63685981128729E-02 
461	 6.61635355458529E-02 
462	 6.59657698769756E-02 
463	 6.57823107951079E-02 
464	 6.56149456327506E-02 
465	 6.54680753009437E-02 
466	 6.52350375010113E-02 
467	 6.50130304216999E-02 
468	 6.49577680223526E-02 
469	 6.48313710934815E-02 
470	 6.47067841867417E-02 
471	 0.064621626453459 
472	 6.45278747108252E-02 
473	 6.44228055237173E-02 
474	 6.44133855849367E-02 
475	 6.45127778058924E-02 
476	 6.42672592138307E-02 
477	 6.43245584462716E-02 
478	 6.45963971514988E-02 
479	 6.45248824258698E-02 
480	 6.44565114586038E-02 
481	 6.43840817475608E-02 
482	 6.43465320216029E-02 
483	 6.45867030315731E-02 
484	 6.47266852423774E-02 
485	 6.47845430699893E-02 
486	 0.064904588959524 
487	 6.50185256362451E-02 
488	 6.51546576479805E-02 
489	 6.53408973799532E-02 
490	 6.55960237614858E-02 
491	 6.57890192415202E-02 
492	 6.60088688492535E-02 
493	 6.63345735844941E-02 
494	 6.67132754565875E-02 
495	 6.70295267885921E-02 
496	 6.72942039344735E-02 
497	 6.75952592233951E-02 
498	 6.80149692478987E-02 
499	 0.068459292608698 
500	 0.068883337999635 
501	 6.93543195534103E-02 
502	 6.96291009265686E-02 
503	 0.06991598126792 
504	 7.04185049795894E-02 
505	 7.07491984492034E-02 
506	 7.11240677916495E-02 
507	 7.15427481109447E-02 
508	 7.18415790057512E-02 
509	 7.22615345347141E-02 
510	 7.27550764794233E-02 
511	 7.32360580696815E-02 
512	 7.36425865442046E-02 
513	 7.40517681298508E-02 
514	 7.44905557396857E-02 
515	 7.49658361450979E-02 
516	 7.55245811931501E-02 
517	 7.60810362504508E-02 
518	 7.65949784527615E-02 
519	 7.70993679454977E-02 
520	 7.77690200784713E-02 
521	 7.84613938738561E-02 
522	 7.90740730015363E-02 
523	 0.079904236199212 
524	 8.07169097445399E-02 
525	 8.15033217323708E-02 
526	 8.24174267117338E-02 
527	 8.34436358293669E-02 
528	 8.44833019982269E-02 
529	 0.085515318954463 
530	 8.66958902272379E-02 
531	 8.80124425765017E-02 
532	 8.94341226011302E-02 
533	 9.08997688942527E-02 
534	 9.22943608746105E-02 
535	 9.38007739795492E-02 
536	 9.54619125879624E-02 
537	 9.71366642654558E-02 
538	 9.88874318146413E-02 
539	 0.100674056372765 
540	 0.102478514372065 
541	 0.104443537531318 
542	 0.106366153608873 
543	 0.108197995857588 
544	 0.110006571554268 
545	 0.11185888962902 
546	 0.113728106674758 
547	 0.115567839367953 
548	 0.117327750475173 
549	 0.119094701551314 
550	 0.120805300226619 
551	 0.122382587049177 
552	 0.123964607151469 
553	 0.125544900675393 
554	 0.127109097846186 
555	 0.128633854257139 
556	 0.130082990608231 
557	 0.131563538050047 
558	 0.13314416882493 
559	 0.134720330752517 
560	 0.136244887941823 
561	 0.137744023495131 
562	 0.139298889741544 
563	 0.140920575656126 
564	 0.142416673097457 
565	 0.143743328431977 
566	 0.145210313971796 
567	 0.146508564797264 
568	 0.147654988383106 
569	 0.148768550895699 
570	 0.149844875503663 
571	 0.150736329985602 
572	 0.15147650695056 
573	 0.152288819483534 
574	 0.152941587684648 
575	 0.153529230692218 
576	 0.154145297549474 
577	 0.154647755725001 
578	 0.155118076640239 
579	 0.155563275482015 
580	 0.15594384487695 
581	 0.156245244649118 
582	 0.156445096595222 
583	 0.156550525786987 
584	 0.156626022579047 
585	 0.156553400465834 
586	 0.156314871359101 
587	 0.155957516068447 
588	 0.155677673165467 
589	 0.155475917090923 
590	 0.155339242636542 
591	 0.155235857392834 
592	 0.155022627781676 
593	 0.154757572787641 
594	 0.154505866192373 
595	 0.154206529034569 
596	 0.153826338784963 
597	 0.153321495415684 
598	 0.152670279212143 
599	 0.152039863043998 
600	 0.15151055176105 
601	 0.151110541484534 
602	 0.150808319256709 
603	 0.15058137057016 
604	 0.150411633435604 
605	 0.150298717592271 
606	 0.150324923468638 
607	 0.150240386627742 
608	 0.150056009171303 
609	 0.150055519083742 
610	 0.149986322311327 
611	 0.149832015406454 
612	 0.149631589226736 
613	 0.149430679431739 
614	 0.149212553943384 
615	 0.149038842964021 
616	 0.148987437468169 
617	 0.148879145263457 
618	 0.148649292737025 
619	 0.148371942565435 
620	 0.148329808305248 
621	 0.148168478860719 
622	 0.147958857160833 
623	 0.147851931449936 
624	 0.147657027620072 
625	 0.147534229038628 
626	 0.147473991139621 
627	 0.147304226041479 
628	 0.147199171094599 
629	 0.14716746362141 
630	 0.147176489613146 
631	 0.147214656203825 
632	 0.147030061125188 
633	 0.146741868493766 
634	 0.146573182099208 
635	 0.146023967164193 
636	 0.145406645479195 
637	 0.144831680823417 
638	 0.143997389205454 
639	 0.143287651876682 
640	 0.142476862753701 
641	 0.141349534114735 
642	 0.140470127111153 
643	 0.13932431464199 
644	 0.137890409362521 
645	 0.136558623336319 
646	 0.134987969747658 
647	 0.133470928565627 
648	 0.132240447290163 
649	 0.130965350255575 
650	 0.129860448786247 
651	 0.129037039767865 
652	 0.128575371491161 
653	 0.128267154191478 
654	 0.128034455871232 
655	 0.12781580583174 
656	 0.127572440424904 
657	 0.127344256189793 
658	 0.12701922010886 
659	 0.126507608138465 
660	 0.125948832059047 
661	 0.124872457417701 
662	 0.123428302917291 
663	 0.12213728722819 
664	 0.120678349956065 
665	 0.11919457925992 
666	 0.117769066373703 
667	 0.116322466663164 
668	 0.114946531087358 
669	 0.113692755506183 
670	 0.112613846367443 
671	 0.111804778370734 
672	 0.111082841127969 
673	 0.110530683472862 
674	 0.110469884481456 
675	 0.110582084986248 
676	 0.110867033535911 
677	 0.111423264420513 
678	 0.112434627213017 
679	 0.113809017321272 
680	 0.115556590178648 
681	 0.117726594252663 
682	 0.120323996803753 
683	 0.123310608250498 
684	 0.126613255683037 
685	 0.130484271941761 
686	 0.135064474106804 
687	 0.139431265873008 
688	 0.142688212255874 
689	 0.146245826631045 
690	 0.149512413940627 
691	 0.1522887353178 
692	 0.154616638004413 
693	 0.157108985647023 
694	 0.159142063804662 
695	 0.160355433050338 
696	 0.161195449823101 
697	 0.161858391861031 
698	 0.16230273233961 
699	 0.162361797994056 
700	 0.162160218423822 
701	 0.161847269823695 
702	 0.161428779851144 
703	 0.160767587667681 
704	 0.15983768442444 
705	 0.158571423601194 
706	 0.157087363927076 
707	 0.15581181766714 
708	 0.154200904392194 
709	 0.152305731161909 
710	 0.150353664660414 
711	 0.148147146481844 
712	 0.14578060523366 
713	 0.143280945639861 
714	 0.140526671404827 
715	 0.137827591154505 
716	 0.134792857587578 
717	 0.131418793354152 
718	 0.12866318575393 
719	 0.12571476498156 
720	 0.123147661466512 
721	 0.12103746143748 
722	 0.118599329174569 
723	 0.115736042989212 
724	 0.112888915263501 
725	 0.110063395796454 
726	 0.107249800487686 
727	 0.104426530190401 
728	 0.101548705874242 
729	 9.83893566139291E-02 
730	 9.52628211122562E-02 
731	 9.25654833397356E-02 
732	 9.03167811887971E-02 
733	 0.08830835288104 
734	 8.66120229949103E-02 
735	 8.52453000153205E-02 
736	 0.084075473879603 
737	 8.32663774618597E-02 
738	 8.26335692043772E-02 
739	 8.20334010479115E-02 
740	 8.16173934706453E-02 
741	 8.13793144257025E-02 
742	 8.12714949301949E-02 
743	 8.12025075621194E-02 
744	 8.09678994669061E-02 
745	 8.08339370679282E-02 
746	 8.08320550117511E-02 
747	 8.06200446184499E-02 
748	 8.04696487053215E-02 
749	 8.03802109847324E-02 
750	 8.02982411496193E-02 
751	 8.02424727484539E-02 
752	 8.00717986215266E-02 
753	 7.99045783978565E-02 
754	 0.07993792818288 
755	 7.97372123953324E-02 
756	 0.079637901311187 
757	 7.96939135399993E-02 
758	 7.93792737336624E-02 
759	 7.91603668389175E-02 
760	 7.89618975713698E-02 
761	 7.85614006920195E-02 
762	 7.82439967927818E-02 
763	 7.82855687000324E-02 
764	 7.86510305400206E-02 
765	 0.079119032860402 
766	 7.93806432983251E-02 
767	 7.94527572166645E-02 
768	 7.95061385985814E-02 
769	 0.079837657984377 
770	 8.00027878309541E-02 
771	 0.080056252500776 
772	 0.080139187085647 
773	 8.03463403201754E-02 
774	 0.080494226824598 
775	 8.06274159043533E-02 
776	 8.08650674213256E-02 
777	 8.10955235535278E-02 
778	 8.13688272357471E-02 
779	 8.16940067510763E-02 
780	 8.20289216964164E-02 
781	 8.23362041806528E-02 
782	 8.26964843589481E-02 
783	 8.30899561938822E-02 
784	 8.31997481807485E-02 
785	 8.34839033979594E-02 
786	 8.38912991488021E-02 
787	 8.42171456461688E-02 
788	 8.45662645552559E-02 
789	 8.49558341681571E-02 
790	 8.54104051316688E-02 
791	 8.59547318532832E-02 
792	 8.65080532554083E-02 
793	 8.69041030007265E-02 
794	 8.71579275738964E-02 
795	 8.75598121085397E-02 
796	 8.79532647047179E-02 
797	 8.83744141960238E-02 
798	 8.88516822083171E-02 
799	 8.91274806568661E-02 
800	 8.94755759416946E-02 
801	 8.98412185190396E-02 
802	 9.00516939768144E-02 
803	 9.05749214398574E-02 
804	 9.08457023520945E-02 
805	 9.07926077010819E-02 
806	 9.09302742182147E-02 
807	 9.10483579043244E-02 
808	 9.08995030172968E-02 
809	 9.04408358834089E-02 
810	 9.02332188991061E-02 
811	 8.97374412225223E-02 
812	 8.90081102713792E-02 
813	 8.83259612249665E-02 
814	 8.74484877141075E-02 
815	 8.69674372993186E-02 
816	 8.68940285545926E-02 
817	 8.66392559430707E-02 
818	 8.58274924667734E-02 
819	 0.085076459092263 
820	 0.084504490717409 
821	 8.36074253678119E-02 
822	 8.20592986484798E-02 
823	 8.05885944210292E-02 
824	 7.96386780839724E-02 
825	 7.83021524078212E-02 
826	 7.64545082601077E-02 
827	 7.44480115296771E-02 
828	 7.28624030835335E-02 
829	 7.09698377595039E-02 
830	 6.97779435913941E-02 
831	 6.90573954908135E-02 
832	 6.78384495217281E-02 
833	 6.70741956944658E-02 
834	 0.066824792204622 
835	 6.66457334346299E-02 
836	 6.56774958802628E-02 
837	 6.54329493233225E-02 
838	 6.54748436816763E-02 
839	 6.52111805592205E-02 
840	 6.47442006225221E-02 
841	 6.44435911468797E-02 
842	 0.064304904494395 
843	 0.064158223156824 
844	 6.38298895038574E-02 
845	 6.36860254557047E-02 
846	 6.35484874709733E-02 
847	 6.29850933997536E-02 
848	 6.29386373919093E-02 
849	 6.28195274376508E-02 
850	 6.24757533052568E-02 
851	 6.24897296823635E-02 
852	 6.19159524938642E-02 
853	 6.16348226074885E-02 
854	 6.20127002474029E-02 
855	 6.15512749273649E-02 
856	 0.06125577209845 
857	 6.11741788555515E-02 
858	 6.11245415708962E-02 
859	 6.11311506494604E-02 
860	 6.08294099610162E-02 
861	 6.03902840348821E-02 
862	 6.02164709342563E-02 
863	 6.02708726453365E-02 
864	 6.02252835574813E-02 
865	 6.00483997749451E-02 
866	 5.99632702277533E-02 
867	 5.95437270409344E-02 
868	 5.93418837370846E-02 
869	 5.93391244658081E-02 
870	 5.86707266357944E-02 
871	 5.83711970104624E-02 
872	 5.82303614304476E-02 
873	 5.80087346762503E-02 
874	 0.058038877783503 
875	 5.78807233467035E-02 
876	 5.74857700394411E-02 
877	 5.70450824549907E-02 
878	 5.70891148907905E-02 
879	 5.69516743884889E-02 
880	 0.056544765753431 
881	 5.61552729294221E-02 
882	 5.63269551573731E-02 
883	 5.60921990151577E-02 
884	 5.55286966036016E-02 
885	 0.055451881656362 
886	 0.05517248686889 
887	 5.49494744141713E-02 
888	 5.48716298928897E-02 
889	 0.054730429341383 
890	 5.46225003097452E-02 
891	 5.44912114774889E-02 
892	 5.40689049266177E-02 
893	 5.27372380151479E-02 
894	 5.18525067129052E-02 
895	 5.19020669962293E-02 
896	 5.25470618452128E-02 
897	 5.18857723937667E-02 
898	 5.21915896672029E-02 
899	 5.22109269027441E-02 
900	 5.07022183370963E-02 
901	 5.08888730650627E-02 
902	 5.09752666521816E-02 
903	 5.05289166004997E-02 
904	 4.98553968150291E-02 
905	 5.01147020290855E-02 
906	 4.95477330866356E-02 
907	 4.88788086149367E-02 
908	 5.01153062636068E-02 
909	 4.87272156689508E-02 
910	 4.81317160783505E-02 
911	 4.88147391842211E-02 
912	 4.80051059932519E-02 
913	 0.045860977304175 
914	 4.50058596922542E-02 
915	 4.61181033192075E-02 
916	 4.71728058583039E-02 
917	 4.75672871741055E-02 
918	 4.73404154347925E-02 
919	 4.67596490334074E-02 
920	 4.61632346808514E-02 
921	 0.045995447340627 
922	 4.63413380961248E-02 
923	 4.67630234463705E-02 
924	 4.58870675600534E-02 
925	 4.38161996234432E-02 
926	 4.29369446797347E-02 
927	 4.48821690615573E-02 
928	 4.44950391070319E-02 
929	 4.32086606095186E-02 
930	 0.04330323645337 
931	 4.67306992203554E-02 
932	 4.44544370135787E-02 
933	 3.97342408542203E-02 
934	 3.79737896778915E-02 
935	 4.16726651307778E-02 
936	 4.44495770597056E-02 
937	 3.82434198933208E-02 
938	 3.19810043504731E-02 
939	 3.53787950450036E-02 
940	 4.37774412718596E-02 
941	 0.041168231067006 
942	 3.41334309144567E-02 
943	 3.71852785062384E-02 
944	 3.35146814272868E-02 
945	 3.36280617081711E-02 
946	 0.035658403670291 
947	 3.24497109313517E-02 
948	 3.69347453928719E-02 
949	 3.65996800054249E-02 
950	 3.46766459955421E-02 
951	 4.12099425067782E-02 
952	 4.21939375636337E-02 
953	 3.81421000127457E-02 
954	 3.40989628228321E-02 
955	 3.54885309602403E-02 
956	 3.64173398433449E-02 
957	 3.77772816406365E-02 
958	 3.86131291116532E-02 
959	 3.73674337311203E-02 
960	 3.97452904985652E-02 
961	 3.63776137675996E-02 
962	 3.17996115369897E-02 
963	 3.69918380974326E-02 
964	 0.038099137421225 
965	 3.85421832579111E-02 
966	 0.039464815887086 
967	 3.95142112056128E-02 
968	 3.81736298501266E-02 
969	 3.71553810349967E-02 
970	 3.72191920874009E-02 
971	 3.79422726111013E-02 
972	 3.77781089760852E-02 
973	 3.82324427496746E-02 
974	 3.89779520164287E-02 
975	 3.79802345619293E-02 
976	 3.73047712349069E-02 
977	 3.81643152927182E-02 
978	 3.94663297883233E-02 
979	 3.89351170222413E-02 
980	 3.85892105898265E-02 
981	 3.90428139917935E-02 
982	 3.94687333624356E-02 
983	 3.86562469489594E-02 
984	 0.040081672144883 
985	 4.04154824922494E-02 
986	 3.93277613911341E-02 
987	 3.90558498972647E-02 
988	 3.89202349509068E-02 
989	 3.97547648348551E-02 
990	 4.00992949402726E-02 
991	 3.77195603932768E-02 
992	 3.64999748029194E-02 
993	 3.89537104547127E-02 
994	 4.17807604064823E-02 
995	 3.95103893185247E-02 
996	 3.73919093439979E-02 
997	 3.84073087110988E-02 
998	 4.13166154533842E-02 
999	 4.25470208843991E-02 
1000	 0.041551120358314 
1001	 3.71186688160575E-02 
1002	 3.82292218587527E-02 
1003	 3.86339014712313E-02 
1004	 3.88617091397589E-02 
1005	 0.038938626847762 
1006	 3.87038809747888E-02 
1007	 3.89440771111682E-02 
1008	 3.86811488232537E-02 
1009	 0.038853198180439 
1010	 3.98959765899869E-02 
1011	 0.040883325461406 
1012	 4.17791454867599E-02 
1013	 4.21225655291898E-02 
1014	 4.23747221608011E-02 
1015	 4.19735642459418E-02 
1016	 4.18832846265362E-02 
1017	 0.042137432117219 
1018	 4.19720858635468E-02 
1019	 4.13919280021204E-02 
1020	 4.08766012026262E-02 
1021	 4.03229652179211E-02 
1022	 3.92682269210124E-02 
1023	 3.90243843852497E-02 
1024	 0.039188997612155 
1025	 4.00886003170201E-02 
1026	 4.20252668983119E-02 
1027	 4.23372416194393E-02 
1028	 4.23041207530879E-02 
1029	 4.20672964093529E-02 
1030	 0.040435834699547 
1031	 4.00503444328899E-02 
1032	 4.03042688633849E-02 
1033	 4.05308420666095E-02 
1034	 4.13748676522893E-02 
1035	 4.15349509906305E-02 
1036	 0.041166667052921 
1037	 4.12831875398232E-02 
1038	 4.14534148479549E-02 
1039	 4.15717892453277E-02 
1040	 4.13171554988036E-02 
1041	 4.14699748433398E-02 
1042	 4.14370842602183E-02 
1043	 0.040704973198702 
1044	 4.08588327660709E-02 
1045	 4.18364902699441E-02 
1046	 4.21203105526547E-02 
1047	 4.24058233728351E-02 
1048	 0.04250213972802 
1049	 4.21962491095154E-02 
1050	 4.21586023912204E-02 
1051	 4.20807985795193E-02 
1052	 4.21417450327161E-02 
1053	 4.24093152789601E-02 
1054	 4.25551771719529E-02 
1055	 4.26661827511222E-02 
1056	 4.28816474712009E-02 
1057	 4.31254268833849E-02 
1058	 4.35271094996525E-02 
1059	 4.33994162450476E-02 
1060	 4.31857373994262E-02 
1061	 4.27977626077325E-02 
1062	 4.16206653093596E-02 
1063	 0.041314584741858 
1064	 4.11524238951581E-02 
1065	 4.14582468646705E-02 
1066	 4.29493923137472E-02 
1067	 4.32518546706268E-02 
1068	 4.30266535486267E-02 
1069	 4.31722901477252E-02 
1070	 4.31077865572974E-02 
1071	 4.27604682811322E-02 
1072	 4.22458149739218E-02 
1073	 4.23191667685511E-02 
1074	 4.21871498233552E-02 
1075	 4.13853088544286E-02 
1076	 4.13359772191158E-02 
1077	 4.21495058014056E-02 
1078	 4.22598173029275E-02 
1079	 4.20639563886481E-02 
1080	 4.21555602041965E-02 
1081	 4.23276558609455E-02 
1082	 4.22923922119228E-02 
1083	 4.21712063817167E-02 
1084	 4.22544684022789E-02 
1085	 0.042487813438771 
1086	 4.24152139018924E-02 
1087	 4.22079242695362E-02 
1088	 4.21328254093824E-02 
1089	 4.20863890779608E-02 
1090	 4.15614812526606E-02 
1091	 4.11030606997197E-02 
1092	 4.09210984212506E-02 
1093	 4.06520574918952E-02 
1094	 3.95047467139323E-02 
1095	 3.94890765264847E-02 
1096	 4.08439141101778E-02 
1097	 4.08891826050357E-02 
1098	 4.09583304261112E-02 
1099	 0.040853194517555 
1100	 3.89172829246365E-02 
1101	 3.85506148217938E-02 
1102	 3.99165656936975E-02 
1103	 0.039975723654195 
1104	 3.99813554913935E-02 
1105	 4.03456457540998E-02 
1106	 3.86875366627553E-02 
1107	 3.75516444414809E-02 
1108	 3.78396684909646E-02 
1109	 3.74075990489554E-02 
1110	 3.69879542574503E-02 
1111	 3.71901923765104E-02 
1112	 3.63755755475765E-02 
1113	 3.36083058222998E-02 
1114	 3.29538783630718E-02 
1115	 3.33509587005896E-02 
1116	 3.31131651699156E-02 
1117	 3.59778608738332E-02 
1118	 3.54056372747261E-02 
1119	 2.89724134421357E-02 
1120	 0.026378154134112 
1121	 2.46024060445641E-02 
1122	 0.020281306331938 
1123	 2.47350153298586E-02 
1124	 2.16448662356793E-02 
1125	 1.47804276049518E-02 
1126	 2.94915247895397E-02 
1127	 3.30708070366626E-02 
1128	 2.38042535193136E-02 
1129	 2.61560392400319E-02 
1130	 0.028015423532114 
1131	 2.63160191879514E-02 
1132	 3.01636742904142E-02 
1133	 3.16370531264639E-02 
1134	 2.47321086798229E-02 
1135	 2.38580446689635E-02 
1136	 3.17741924676929E-02 
1137	 3.09020665917043E-02 
1138	 2.54842150845734E-02 
1139	 2.22150844729587E-02 
1140	 2.33036268272455E-02 
1141	 2.44359247376498E-02 
1142	 2.78084134057371E-02 
1143	 2.88105260229768E-02 
1144	 2.57098552461176E-02 
1145	 0.02304169317346 
1146	 1.95631590171843E-02 
1147	 2.02700497195503E-02 
1148	 2.50331860692003E-02 
1149	 2.80000304003165E-02 
1150	 2.94917106272912E-02 
1151	 3.25351231946724E-02 
1152	 3.26528463122076E-02 
1153	 2.82586632179374E-02 
1154	 2.92377514596655E-02 
1155	 3.13400776345878E-02 
1156	 3.45098439150156E-02 
1157	 3.56496003077251E-02 
1158	 3.36706837553286E-02 
1159	 3.22175318469912E-02 
1160	 3.29454186660892E-02 
1161	 3.36123382030978E-02 
1162	 3.47036058933847E-02 
1163	 3.58024931343158E-02 
1164	 3.46117626557486E-02 
1165	 3.34003897401497E-02 
1166	 3.39493774051548E-02 
1167	 3.39298637445584E-02 
1168	 3.33468404510451E-02 
1169	 3.37144186917101E-02 
1170	 3.40299761583553E-02 
1171	 3.44028909614906E-02 
1172	 3.51865555190624E-02 
1173	 3.52791566574101E-02 
1174	 3.50558045399414E-02 
1175	 3.51879543807474E-02 
1176	 3.48649474917366E-02 
1177	 3.44811321794581E-02 
1178	 3.47911069397753E-02 
1179	 3.51428446534036E-02 
1180	 3.48518013449125E-02 
1181	 3.48070357385707E-02 
1182	 3.50559873106711E-02 
1183	 3.48379598220215E-02 
1184	 3.47316584058534E-02 
1185	 0.035263251000901 
1186	 3.57718902684064E-02 
1187	 3.55512740188337E-02 
1188	 3.55208651058924E-02 
1189	 3.59651091082372E-02 
1190	 3.55381983725619E-02 
1191	 3.48379239162691E-02 
1192	 3.49169563739925E-02 
1193	 3.54526443181011E-02 
1194	 3.53685941052124E-02 
1195	 3.52349688634781E-02 
1196	 3.57847370152471E-02 
1197	 3.56742742124434E-02 
1198	 3.51918989962065E-02 
1199	 3.49580689121371E-02 
1200	 3.47681756013337E-02 
1201	 0.034851102724109 
1202	 0.03518285262242 
1203	 3.55036662490543E-02 
1204	 3.53374026395169E-02 
1205	 3.47850048415004E-02 
1206	 3.43905977322728E-02 
1207	 3.43671015698753E-02 
1208	 3.45852406059907E-02 
1209	 3.46820387281447E-02 
1210	 3.47615379393245E-02 
1211	 3.48051029158263E-02 
1212	 3.48965287194315E-02 
1213	 3.52587629433026E-02 
1214	 3.54332751403642E-02 
1215	 3.53904828119263E-02 
1216	 3.51891758258118E-02 
1217	 3.51218233442454E-02 
1218	 3.51494210589056E-02 
1219	 3.55424493042703E-02 
1220	 3.58390905320617E-02 
1221	 3.58099841314391E-02 
1222	 3.57304818379224E-02 
1223	 0.03569969801533 
1224	 3.55661204409517E-02 
1225	 0.035442574755974 
1226	 3.57923144149268E-02 
1227	 3.60871453637418E-02 
1228	 3.58740161884411E-02 
1229	 0.035637512528264 
1230	 3.57826019132101E-02 
1231	 3.60558239182046E-02 
1232	 3.61249960271777E-02 
1233	 3.62687405691258E-02 
1234	 3.61769839353279E-02 
1235	 3.61723725193845E-02 
1236	 3.58756106721521E-02 
1237	 3.58178637758977E-02 
1238	 0.035922039583883 
1239	 0.036213830987427 
1240	 3.66293224460953E-02 
1241	 3.64631058492319E-02 
1242	 3.63130701113357E-02 
1243	 3.66838719318133E-02 
1244	 3.65388605382784E-02 
1245	 3.61794197759612E-02 
1246	 3.63945816479983E-02 
1247	 0.036380183937296 
1248	 3.59044660611862E-02 
1249	 3.58497021616848E-02 
1250	 3.59229451448016E-02 
1251	 3.54091772051471E-02 
1252	 3.54300143511881E-02 
1253	 0.035839625047739 
1254	 3.54264735873587E-02 
1255	 3.52389093769405E-02 
1256	 3.53935249974887E-02 
1257	 3.55043815754211E-02 
1258	 3.54520024748518E-02 
1259	 3.60708952806553E-02 
1260	 3.62106231280045E-02 
1261	 3.54875958892297E-02 
1262	 3.53703538659933E-02 
1263	 3.57162881121039E-02 
1264	 3.56614343881396E-02 
1265	 3.50280080358697E-02 
1266	 0.034863881113851 
1267	 3.49118066231069E-02 
1268	 3.47228724299424E-02 
1269	 3.44921190017989E-02 
1270	 3.45251598806327E-02 
1271	 0.034614674243278 
1272	 3.45637189595339E-02 
1273	 3.49881804541475E-02 
1274	 3.55999908220851E-02 
1275	 3.57785114178351E-02 
1276	 3.58729190830533E-02 
1277	 0.03577513832839 
1278	 3.53787644802867E-02 
1279	 3.51476716202483E-02 
1280	 0.035197439424316 
1281	 3.51256050563202E-02 
1282	 0.035242492617529 
1283	 3.53518527769529E-02 
1284	 0.035321547828283 
1285	 3.53727918374018E-02 
1286	 3.58046066337345E-02 
1287	 3.59067548301822E-02 
1288	 3.56457251953476E-02 
1289	 3.55384367835437E-02 
1290	 3.53236033139953E-02 
1291	 0.03527441143378 
1292	 3.53968258558805E-02 
1293	 3.51996690049773E-02 
1294	 3.48312245176384E-02 
1295	 3.45857328956406E-02 
1296	 3.40982334679793E-02 
1297	 3.42483235429805E-02 
1298	 0.034863257630123 
1299	 3.53074279634265E-02 
1300	 3.55049068128552E-02 
1301	 3.52107952202207E-02 
1302	 3.49727497857057E-02 
1303	 3.45521002337895E-02 
1304	 3.37887733799617E-02 
1305	 3.36057885328602E-02 
1306	 3.33981997353976E-02 
1307	 3.27302932523067E-02 
1308	 3.25565435014956E-02 
1309	 0.033163018473288 
1310	 3.33263131038872E-02 
1311	 3.35946504192641E-02 
1312	 3.35633150340929E-02 
1313	 3.31541027592677E-02 
1314	 0.033058748735507 
1315	 3.27913984583899E-02 
1316	 3.26061646217945E-02 
1317	 3.28702185484414E-02 
1318	 3.29323159553799E-02 
1319	 0.032771475729147 
1320	 3.25644838878073E-02 
1321	 3.22649754593901E-02 
1322	 3.19658532358162E-02 
1323	 3.20416829943051E-02 
1324	 3.21455331708917E-02 
1325	 3.22627874869687E-02 
1326	 3.31785964530451E-02 
1327	 3.36620191150184E-02 
1328	 3.31057049686795E-02 
1329	 3.32280193016764E-02 
1330	 3.25181992497192E-02 
1331	 3.22043618413729E-02 
1332	 3.31226424881692E-02 
1333	 2.99301753827662E-02 
1334	 2.73345248032665E-02 
1335	 2.78193893655811E-02 
1336	 2.92599806437375E-02 
1337	 2.97865326124813E-02 
1338	 0.033878202517243 
1339	 3.64941891046254E-02 
1340	 3.75509726486722E-02 
1341	 3.69453694225119E-02 
1342	 3.57757323362192E-02 
1343	 0.037068465131117 
1344	 3.69926709978911E-02 
1345	 3.46360647715733E-02 
1346	 3.22718142065384E-02 
1347	 3.49791039514084E-02 
1348	 4.05653297603705E-02 
1349	 3.81643981756351E-02 
1350	 3.81995408169257E-02 
1351	 0.048093120207409 
1352	 4.10637029898626E-02 
1353	 2.18929113039509E-02 
1354	 4.68978294220782E-02 
1355	 5.32455730586776E-02 
1356	-0.115695307737356 
1357	-0.195267902598397 
1358	 3.46270355693016E-02 
1359	 0.452615164966912 
1360	 0.451412065332081 
1361	 0.24979129593659 
1362	 0.438089768333919 
1363	 0.531237762003406 
1364	 0.447275397156012 
1365	 0.824644090882977 
1366	 0.866325746421689 
1367	-0.348249213974107 
1368	-0.875761325802172 
1369	-0.539841878992709 
1370	-0.348059580932983 
1371	-0.396830332620662 
1372	-0.6045615103576 
1373	-0.624457311344773 
1374	-0.675142294880191 
1375	-24.6621736614953 
1376	-8.46048911936256 
1377	 6.25888913987338E-03 
1378	 0.308143269620695 
1379	 0.478187979291533 
1380	 0.588703288605214 
1381	 0.862768359379547 
1382	 0.98986175038436 
1383	 0.917561458417809 
1384	 0.976974877105648 
1385	 1.49399621838019 
1386	 1.84477662515107 
1387	-0.930710513204009 
1388	-0.272105254919919 
1389	 0.705470327516613 
1390	 0.36004408026131 
1391	 0.24227859714595 
1392	 3.34894853696108E-02 
1393	-0.378537065297038 
1394	-0.63185151631372 
1395	-0.107270005481106 
1396	-54.6373731681014 
1397	-6.45862163509061 
1398	 0.782436959911517 
1399	 1.76127104766154 
1400	 102.060398503073 
1401	-4.11220070876288 
1402	-2.09268627987763 
1403	-4.39523133799328 
1404	 2.9741039128216 
1405	 1.32596517906944 
1406	 0.505823743212152 
1407	 0.399756939685331 
1408	 7.02308863066077E-02 
1409	-0.109199471120377 
1410	 1.55607899090603E-02 
1411	 0.140837967276599 
1412	 0.438747841983468 
1413	 0.469202847380115 
1414	 1.36910595437747 
1415	 1.54578247864977 
1416	 4.84889697261149E-02 
1417	-0.166213442692342 
1418	-0.346664174390564 
1419	-0.183324579999096 
1420	 0.194669076077371 
1421	 0.190697537114325 
1422	 0.242621768844491 
1423	 0.218310902568261 
1424	-5.21538297312103E-02 
1425	-0.106660376137817 
1426	-4.52782410184829E-02 
1427	-9.92790594533271E-03 
1428	 5.27585488301362E-02 
1429	 0.057174444550438 
1430	 5.41466145777597E-02 
1431	 5.67852674786297E-02 
1432	 3.42571686664816E-02 
1433	 6.75523032118061E-03 
1434	-1.34346472721474E-02 
1435	-3.76202745572592E-02 
1436	-0.122963342930632 
1437	-0.140621752965187 
1438	-4.56044143297648E-02 
1439	-6.02437576408592E-02 
1440	-8.03506525553649E-02 
1441	-6.37083452442928E-02 
1442	-9.52065841070076E-02 
1443	-7.64320057507085E-02 
1444	-4.35739494829925E-02 
1445	-3.24032910760374E-02 
1446	-4.06345956021979E-02 
1447	-6.90656278271897E-02 
1448	-3.23131162511291E-02 
1449	 0.013527978115627 
1450	 2.53384813253554E-02 
1451	 4.00512095608251E-02 
1452	 3.02459840196026E-02 
1453	 1.94891556287201E-02 
1454	 1.68124401309468E-02 
1455	 0.024135403897285 
1456	 2.69877038524695E-02 
1457	 3.08044210777696E-02 
1458	 2.06118676186121E-02 
1459	 1.57008291221514E-03 
1460	 3.10473863438963E-03 
1461	 4.78901252337912E-03 
1462	-5.89651769427509E-04 
1463	 7.46148110971985E-03 
1464	 1.12321017231497E-02 
1465	-2.98937856186222E-03 
1466	-7.01423740632319E-03 
1467	 5.32048880638032E-03 
1468	 9.23229981993541E-03 
1469	 5.79217375121782E-03 
1470	 1.70056798577628E-03 
1471	 2.15755831331497E-03 
1472	 9.94986037493318E-04 
1473	-0.015690765543377 
1474	-1.28059018096657E-02 
1475	 8.35925486867482E-03 
1476	 1.11963944709719E-02 
1477	 8.59254827634275E-03 
1478	 0.014218442953691 
1479	 1.84032598694078E-02 
1480	 2.03475033343263E-02 
1481	 2.79634679919427E-02 
1482	 2.91187235649947E-02 
1483	 2.22831573931962E-02 
1484	 2.09969317487564E-02 
1485	 2.03148142803651E-02 
1486	 2.30752426793952E-02 
1487	 3.14851316570301E-02 
1488	 3.09805968410284E-02 
1489	 0.028324030370509 
1490	 2.57720563646688E-02 
1491	 1.73156972632451E-02 
1492	 0.016089485126896 
1493	 1.96168951871814E-02 
1494	 2.04197884225338E-02 
1495	 2.21330361652886E-02 
1496	 2.31605056812885E-02 
1497	 2.20212946489382E-02 
1498	 2.26370375126309E-02 
1499	 2.56956212836315E-02 
1500	 2.58176986961073E-02 
1501	 0.02364888981901 
1502	 2.40152001800841E-02 
1503	 2.54745471761655E-02 
1504	 2.52293664739921E-02 
1505	 2.49627695533038E-02 
1506	 2.55898658523865E-02 
1507	 2.54990817646738E-02 
1508	 0.024758053219433 
1509	 2.57778296503429E-02 
1510	 2.68992295096115E-02 
1511	 2.73119215930061E-02 
1512	 2.82364927721558E-02 
1513	 2.81641980245728E-02 
1514	 2.81850025846951E-02 
1515	 2.91515671977523E-02 
1516	 2.86876911002666E-02 
1517	 2.81196585107306E-02 
1518	 2.88221171521263E-02 
1519	 0.028810508240469 
1520	 0.028014222438259 
1521	 2.76757532915135E-02 
1522	 2.84042305918348E-02 
1523	 0.029185351565965 
1524	 2.83601668987209E-02 
1525	 2.79400003694116E-02 
1526	 2.86797214001129E-02 
1527	 2.87429183578153E-02 
1528	 2.88990450470569E-02 
1529	 3.02493354392208E-02 
1530	 3.05904576806449E-02 
1531	 2.92071277441648E-02 
1532	 0.028729615800739 
1533	 2.88385837480771E-02 
1534	 2.81564762880218E-02 
1535	 2.72918511707168E-02 
1536	 2.79258828688152E-02 
1537	 0.029012982543145 
1538	 2.86936162687242E-02 
1539	 2.92096716917292E-02 
1540	 3.03262605829218E-02 
1541	 3.05533487631745E-02 
1542	 3.04073820430186E-02 
1543	 3.02240712259515E-02 
1544	 3.01647744916301E-02 
1545	 2.94979687762207E-02 
1546	 2.89941189334608E-02 
1547	 0.02899834593218 
1548	 2.88157776758959E-02 
1549	 2.90034169464195E-02 
1550	 2.92658716119367E-02 
1551	 3.00892403385524E-02 
1552	 3.11242091873217E-02 
1553	 3.06235120920841E-02 
1554	 3.05033563935273E-02 
1555	 3.14124041778743E-02 
1556	 3.08132829107654E-02 
1557	 0.029997510578783 
1558	 3.05490540734003E-02 
1559	 3.08953560303266E-02 
1560	 3.11021621136407E-02 
1561	 0.031347037653974 
1562	 3.11249445843376E-02 
1563	 3.03443985067459E-02 
1564	 2.90560502348119E-02 
1565	 2.90084406137452E-02 
1566	 2.96599409706664E-02 
1567	 2.96791160478929E-02 
1568	 3.00357278854066E-02 
1569	 2.99030685765254E-02 
1570	 2.95035207737539E-02 
1571	 3.01893541006228E-02 
1572	 3.05357863809956E-02 
1573	 3.05696751211762E-02 
1574	 0.031225697359763 
1575	 3.14197876010594E-02 
1576	 3.08622258822246E-02 
1577	 3.02520493103386E-02 
1578	 2.99830361567658E-02 
1579	 2.97539764753017E-02 
1580	 2.95841434227754E-02 
1581	 3.00183206165602E-02 
1582	 3.08027268301475E-02 
1583	 3.10506013094623E-02 
1584	 3.08033892789361E-02 
1585	 3.03848308174425E-02 
1586	 2.97352947679667E-02 
1587	 2.95495188494854E-02 
1588	 2.95663302527559E-02 
1589	 2.99599492050839E-02 
1590	 0.03064376617547 
1591	 3.05820499208265E-02 
1592	 3.10496223488159E-02 
1593	 3.16565165149509E-02 
1594	 3.09045559463146E-02 
1595	 3.09220502751575E-02 
1596	 3.15236162841144E-02 
1597	 3.06203736745765E-02 
1598	 2.99486679169991E-02 
1599	 2.99229018269204E-02 
1600	 0.02969452637199 
1601	 0.030421207587887 
1602	 3.15849182341942E-02 
1603	 3.18173422439984E-02 
1604	 3.20277423110646E-02 
1605	 3.20786733581456E-02 
1606	 3.16174605572683E-02 
1607	 3.16444621177709E-02 
1608	 3.11836676876088E-02 
1609	 3.01527022882367E-02 
1610	 3.01099747448261E-02 
1611	 3.03553643861549E-02 
1612	 2.97842529969383E-02 
1613	 2.98686789953369E-02 
1614	 3.10434382260604E-02 
1615	 3.14587339194412E-02 
1616	 0.031138710312652 
1617	 3.12848176720013E-02 
1618	 3.14165753204398E-02 
1619	 3.04259974290518E-02 
1620	 2.96060962440217E-02 
1621	 2.95647369664503E-02 
1622	 0.028981256981398 
1623	 2.89740753165994E-02 
1624	 2.99083794939274E-02 
1625	 3.00171721024434E-02 
1626	 2.95189312213684E-02 
1627	 0.029450053967259 
1628	 2.95106666820394E-02 
1629	 2.97448804658423E-02 
1630	 3.01055427570685E-02 
1631	 2.99474613459864E-02 
1632	 2.95125085426487E-02 
1633	 2.99096262919388E-02 
1634	 3.05170976156889E-02 
1635	 3.02786839566951E-02 
1636	 3.07132114512562E-02 
1637	 3.07873779188265E-02 
1638	 2.95780560730332E-02 
1639	 2.92598073215796E-02 
1640	 2.98934237810643E-02 
1641	 3.01682792421921E-02 
1642	 2.99409046840301E-02 
1643	 3.01633192610928E-02 
1644	 3.04572525739089E-02 
1645	 3.07016210994243E-02 
1646	 3.11894915194026E-02 
1647	 3.09367235577718E-02 
1648	 0.030453842927609 
1649	 0.03003059636463 
1650	 2.94071012481849E-02 
1651	 2.99564864310876E-02 
1652	 3.09761869097285E-02 
1653	 3.01061430390292E-02 
1654	 3.00363183085496E-02 
1655	 2.99986046261757E-02 
1656	 2.99531857696147E-02 
1657	 3.04653823433489E-02 
1658	 3.08665599663377E-02 
1659	 3.08914917372523E-02 
1660	 0.030648990610638 
1661	 0.030671073610836 
1662	 3.07047373001343E-02 
1663	 3.04198065329957E-02 
1664	 3.04098782884504E-02 
1665	 3.04622507679522E-02 
1666	 3.04413758341165E-02 
1667	 3.02800157938856E-02 
1668	 3.04215484725514E-02 
1669	 3.09480418291104E-02 
1670	 3.14574671872019E-02 
1671	 0.031150915826612 
1672	 3.04502876560205E-02 
1673	 3.07320305183405E-02 
1674	 3.11168589511172E-02 
1675	 3.12970461741617E-02 
1676	 3.21019467006559E-02 
1677	 0.032684273700026 
1678	 3.14948933395535E-02 
1679	 3.07752752181855E-02 
1680	 3.17410627181462E-02 
1681	 3.12042706431824E-02 
1682	 0.029979622635771 
1683	 3.01262362453027E-02 
1684	 3.02972110438345E-02 
1685	 3.07822896703028E-02 
1686	 3.23553854511846E-02 
1687	 3.29858476289571E-02 
1688	 3.16555733429832E-02 
1689	 3.01077914507789E-02 
1690	 2.94875598098093E-02 
1691	 2.99028419858098E-02 
1692	 0.030677253277361 
1693	 3.14993448578571E-02 
1694	 3.16241689793063E-02 
1695	 0.030632371420434 
1696	 3.09439623033112E-02 
1697	 3.17094252084738E-02 
1698	 0.031782703312392 
1699	 3.18239686255035E-02 
1700	 3.13609408448727E-02 
1701	 3.13747030229973E-02 
1702	 3.15552135657503E-02 
1703	 3.12450816894471E-02 
1704	 3.04261159615756E-02 
1705	 2.91288222173958E-02 
1706	 2.86756337515153E-02 
1707	 2.99731031425019E-02 
1708	 3.12273464585369E-02 
1709	 3.05831895459996E-02 
1710	 0.030001098122624 
1711	 3.02028575112965E-02 
1712	 2.99220876748919E-02 
1713	 3.04670745879169E-02 
1714	 3.06337361191591E-02 
1715	 3.05234229604838E-02 
1716	 0.031112906415117 
1717	 3.02918108413256E-02 
1718	 2.97055458568639E-02 
1719	 2.86609724161081E-02 
1720	 2.83379177198892E-02 
1721	 2.99982002493565E-02 
1722	 3.04665061243688E-02 
1723	 3.02999985887194E-02 
1724	 3.03530667466176E-02 
1725	 2.90279348356996E-02 
1726	 2.89542121779563E-02 
1727	 2.96842063778217E-02 
1728	 0.029120684448183 
1729	 2.97866471557375E-02 
1730	 3.12517131226863E-02 
1731	 3.10861154470995E-02 
1732	 0.030686848253775 
1733	 3.09811447144397E-02 
1734	 3.08218452492467E-02 
1735	 3.05610778590092E-02 
1736	 3.12109502497762E-02 
1737	 3.09659436837901E-02 
1738	 2.99017849005495E-02 
1739	 3.08687157303102E-02 
1740	 3.20622395364301E-02 
1741	 3.23188393126719E-02 
1742	 3.22835404276847E-02 
1743	 3.10010358218931E-02 
1744	 3.06667612656976E-02 
1745	 3.12306041011713E-02 
1746	 3.11060215673132E-02 
1747	 3.09300495579394E-02 
1748	 3.04321912419116E-02 
1749	 2.98600386572574E-02 
1750	 2.89179324286011E-02 
1751	 2.84894531153147E-02 
1752	 2.81918360875414E-02 
1753	 2.77218094665241E-02 
1754	 2.72620648914471E-02 
1755	 2.85036451230645E-02 
1756	 3.05150746507069E-02 
1757	 3.01032687299117E-02 
1758	 0.030906861260419 
1759	 2.97664401531568E-02 
1760	 3.01116595444178E-02 
1761	 3.13635238675179E-02 
1762	 3.07759041790536E-02 
1763	 2.95116000702315E-02 
1764	 2.73696959040582E-02 
1765	 2.73665122613892E-02 
1766	 2.97920028904102E-02 
1767	 3.01534028380755E-02 
1768	 3.14964342983967E-02 
1769	 3.31740905539829E-02 
1770	 3.27567725353107E-02 
1771	 0.03444508491915 
1772	 3.50141664883732E-02 
1773	 3.25702353952003E-02 
1774	 3.03944332827973E-02 
1775	 2.83720269041979E-02 
1776	 2.66760258853293E-02 
1777	 2.60287380791977E-02 
1778	 2.54296156439348E-02 
1779	 2.41121253323131E-02 
1780	 2.44684928872415E-02 
1781	 2.76418214146185E-02 
1782	 2.82056305609678E-02 
1783	 0.027587693338793 
1784	 3.03685859900527E-02 
1785	 3.47764697908918E-02 
1786	 3.37106981604882E-02 
1787	 3.45488844260244E-02 
1788	 2.83465002981582E-02 
1789	 4.32380013741239E-03 
1790	 1.38450407816218E-02 
1791	 2.50015215005866E-02 
1792	 3.17319719767639E-02 
1793	 4.14420140176118E-02 
1794	 3.17809002140394E-02 
1795	 1.03710263986623E-02 
1796	 4.73896576657376E-03 
1797	 1.97785974882331E-02 
1798	 2.16360851521221E-02 
1799	 2.12464531944239E-02 
1800	 1.50884723895129E-02 
1801	 2.44263529579595E-02 
1802	 0.103118462741304 
1803	 0.118474782721313 
1804	 7.22654916118231E-02 
1805	 7.27527935549473E-02 
1806	-2.68541380589988E-03 
1807	-5.52318907310299E-02 
1808	 2.90921922381321E-02 
1809	 3.76172873448615E-02 
1810	-0.172285098367161 
1811	-0.177829696153875 
1812	 5.93083244067425E-02 
1813	 0.151256091238649 
1814	 0.451608378885362 
1815	 0.333082937264731 
1816	-0.61260908285684 
1817	-2.24506634766873 
1818	 8.04447520054493 
1819	 1.33472188113158 
1820	 2.10243293515722 
1821	 0.434011973698718 
1822	 0.381668053417861 
1823	 0.246282565455007 
1824	 0.24868252089032 
1825	 0.672066190790859 
1826	 1.38555217539058 
1827	 0.172681804398782 
1828	 0.246788871988586 
1829	 1.16895172068429 
1830	 0.625622631986594 
1831	-2.9090246316635 
1832	-0.971014284674431 
1833	-0.425520201931044 
1834	-0.264171506593866 
1835	-3.22000354706561E-02 
1836	 0.124212372307743 
1837	 0.863748642783681 
1838	 1.79645058978008 
1839	-10.5711150403419 
1840	 3.31943799904283 
1841	-0.198340996067836 
1842	 2.36435602820275 
1843	 8.78878322845529 
1844	 0.48758443814017 
1845	 0.263195412646308 
1846	 4.17003707000974E-02 
1847	-2.32779698524033E-02 
1848	-1.15582187174198 
1849	 4.39672486112066 
1850	 1.92961968496989E-02 
1851	-0.442466097390346 
1852	-0.353689366737839 
1853	-0.198376015523956 
1854	-0.19749584118103 
1855	 8.91734926981022E-02 
1856	 0.161362522357654 
1857	-0.345658310342003 
1858	-0.68715883837312 
1859	-1.97628800034009 
1860	 0.834396303192216 
1861	 0.871670030263762 
1862	 0.508017980236877 
1863	 0.330819065732345 
1864	 0.155449251947062 
1865	 9.60426476721788E-02 
1866	 0.001438357703593 
1867	-0.169968537914785 
1868	-0.632509206456612 
1869	-0.532134863719244 
1870	-5.45865392274638E-02 
1871	 0.198343839329998 
1872	 0.498751098582426 
1873	 0.749152130536186 
1874	-7.13629999710408 
1875	 12.2708679880782 
1876	 7.94423929301234 
1877	 14.3173501479852 
1878	-19.1498195492502 
1879	-2.3776354289756 
1880	-1.07143942144418 
1881	-0.533133352415869 
1882	-0.145066774837181 
1883	 9.92568431488175E-02 
1884	 0.129143469550495 
1885	 0.642391869848939 
1886	 1.40746621516683 
1887	 3.92727683350475 
1888	 9.53402182385058 
1889	 9.19547264735091 
1890	 6.52152604299254 
1891	 7.88956868485313 
1892	 10.5246249330305 
1893	 3.59843186476627 
1894	 1.23692086740928 
1895	 3.98201385584576 
1896	 1.56744780301522 
1897	 2.15961395027679 
1898	 2.19146259261658 
1899	 7.78305173599311E-02 
1900	-1.13131179026067 
1901	 18.0280105845799 
1902	 6.91881049442494 
1903	 6.80990944892864 
1904	 3.09764922684351 
1905	 2.97235052634737 
1906	 1.39747841844918 
1907	 0.637567812065047 
1908	 1.44963402708295 
1909	 1.32690718829011 
1910	 1.10129752753757 
1911	 5.81753640995599 
1912	-3.17445091661237 
1913	-1.57055287935581 
1914	-0.534625416410549 
1915	-0.646157376201664 
1916	-0.690492009513119 
1917	-0.893778109824959 
1918	-81.0629197346406 
1919	 1.26877891660854 
1920	 0.889415442405775 
1921	 0.175660291285374 
1922	 0.31295859380151 
1923	 4.98264481943928E-02 
1924	-0.120294679798461 
1925	-5.92872964029132E-02 
1926	-4.31429745903105E-02 
1927	-7.85269333927516E-02 
1928	-0.69101359531355 
1929	 0.12378621849408 
1930	 0.149380358792101 
1931	 0.237913393505355 
1932	 5.28072655800023 
1933	-6.03247198023229 
1934	-1.70475178566829 
1935	-2.60627603209779 
1936	 18.8093300944268 
1937	-53.9186540106236 
1938	 3.818425285368 
1939	 4.10975375136876 
1940	 0.576849612842671 
1941	 0.180183254471832 
1942	 0.208613074110984 
1943	 3.91598044767948E-02 
1944	-0.641503995480314 
1945	-1.50211344879899 
1946	-2.55700858608779 
1947	-1.89231648583387 
1948	-1.20069167185984 
1949	-9.84694923587716E-02 
1950	 0.503248480907371 
1951	 1.35092369731157 
1952	 1.96935107005315 
1953	 2.3541012549397 
1954	 2.00615846490448 
1955	 0.960241769948078 
1956	 0.550957265573707 
1957	 0.176324818653021 
1958	 4.31145283971971E-02 
1959	 0.138165051328411 
1960	 9.81707618695112E-02 
1961	 0.137273963148882 
1962	 0.179554994486009 
1963	 6.83556562288392E-02 
1964	 0.108065568116083 
1965	 0.127449022265944 
1966	 8.89431531895109E-02 
1967	 1.29417683825494E-02 
1968	 3.13102886365081E-02 
1969	-5.11245967856677E-03 
1970	-5.77946460993695E-02 
1971	-5.62198090951121E-02 
1972	-6.52317269378399E-02 
1973	-5.16857541858832E-02 
1974	-1.69691991007041E-02 
1975	 1.61204496445826E-02 
1976	 5.53194908998013E-02 
1977	 7.18080614595829E-02 
1978	 0.064776899818026 
1979	 6.95385689986265E-02 
1980	 7.34477126422461E-02 
1981	 0.06728593107066 
1982	 5.66739483008263E-02 
1983	 5.46046055997688E-02 
1984	 5.40095251626871E-02 
1985	 4.34877419192096E-02 
1986	 2.44137453068542E-02 
1987	 0.034915574299388 
1988	 4.47264551319314E-02 
1989	 3.94306323497278E-02 
1990	 0.052508117424911 
1991	 6.53308038531311E-02 
1992	 6.46092077503043E-02 
1993	 5.32016801675835E-02 
1994	 4.38734109387963E-02 
1995	 3.07622976827169E-02 
1996	 1.84161896358986E-02 
1997	 2.95315859561384E-03 
1998	-9.05299471849393E-03 
1999	-9.31605725509314E-03 
2000	 3.22369537162692E-03 
2001	-0.014491419136533 
2002	-3.96966611892446E-02 
2003	-4.36653037837158E-02 
2004	-6.56194827152133E-02 
2005	-0.035602893158268 
2006	 4.00399593601317E-02 
2007	 0.078728084278985 
2008	 6.86331444180989E-02 
2009	 7.08020769628518E-02 
2010	 4.71937004980305E-02 
2011	 4.72759172704266E-02 
2012	 5.95963709543063E-02 
2013	 8.15298677837867E-02 
2014	 7.70520138961648E-02 
2015	 5.92938020428542E-02 
2016	 0.047392524834648 
2017	 0.03135637307196 
2018	 2.72758123333514E-02 
2019	 2.25604376355475E-02 
2020	-2.9075053548669E-03 
2021	-1.38694802539578E-02 
2022	-1.53886924981427E-02 
2023	-2.23471902735486E-02 
2024	-1.65562468921794E-02 
2025	 3.18733095979358E-03 
2026	 1.13017318483107E-02 
2027	 2.00860269977654E-02 
2028	 2.55588083336158E-02 
2029	 2.30706808012738E-02 
2030	 2.24858433158079E-02 
2031	 1.80051694384218E-02 
2032	 1.93719803358736E-02 
2033	 2.20839347956049E-02 
2034	 2.22395437774445E-02 
2035	 2.33720999057197E-02 
2036	 2.16415553285316E-02 
2037	 2.18400135415585E-02 
2038	 0.028798912627184 
2039	 3.39196008716388E-02 
2040	 4.25137292206576E-02 
2041	 4.26968430271296E-02 
2042	 0.039389702110775 
2043	 3.84743758570248E-02 
2044	 0.032956407723675 
2045	 2.98614226859478E-02 
2046	 3.34950273517398E-02 
2047	 2.55294009549209E-02 
2048	 1.67479899678437E-02 
2049	 2.35769230478747E-02 
2050	 2.79203958141176E-02 
2051	 2.84244650825545E-02 
2052	 2.81335761569266E-02 
2053	 2.56887509552167E-02 
2054	 2.47697561497028E-02 
2055	 2.49904971169091E-02 
2056	 2.63702796133957E-02 
2057	 2.94385284090517E-02 
2058	 2.91256096313443E-02 
2059	 2.50911623651691E-02 
2060	 3.14948815325927E-02 
2061	 4.42882807891721E-02 
2062	 4.99828470307003E-02 
2063	 5.62631470735575E-02 
2064	 0.052768847137921 
2065	 3.45602297503262E-02 
2066	 2.25459535329726E-02 
2067	 2.41084329214326E-02 
2068	 3.01654713909427E-02 
2069	 3.58958161231141E-02 
2070	 3.73461001313032E-02 
2071	 3.62240342113957E-02 
2072	 3.20899126580946E-02 
2073	 2.89767441443508E-02 
2074	 2.58862589485191E-02 
2075	 2.83399113888619E-02 
2076	 3.36288343249863E-02 
2077	 3.31017489104296E-02 
2078	 3.52864211415616E-02 
2079	 3.15340532130053E-02 
2080	 1.82330640272507E-02 
2081	 1.40452507839607E-02 
2082	 1.22044661753583E-02 
2083	 0.011058870863384 
2084	 1.21934781490428E-02 
2085	 8.17972158775928E-03 
2086	 3.01478738202912E-03 
2087	 4.76535000867997E-03 
2088	 8.71127067237504E-03 
2089	 1.07097650587375E-02 
2090	 0.013563657414733 
2091	 0.013926787702846 
2092	 1.39522924311193E-02 
2093	 0.010894821578581 
2094	 1.26635998123589E-02 
2095	 1.57604805510245E-02 
2096	 1.94859136737439E-02 
2097	 2.59440893326475E-02 
2098	 3.11660440153822E-02 
2099	 3.60920613012341E-02 
2100	 4.28910535096792E-02 
2101	 4.83266951691063E-02 
2102	 4.97094355511687E-02 
2103	 0.050426075943663 
2104	 4.67709022164191E-02 
2105	 3.69410548050356E-02 
2106	 3.19076599035053E-02 
2107	 2.73046884165683E-02 
2108	 2.12020054876701E-02 
2109	 2.04510094596078E-02 
2110	 1.99740686644098E-02 
2111	 0.018810065787604 
2112	 1.99381949681646E-02 
2113	 2.13901406018271E-02 
2114	 2.46532950603496E-02 
2115	 2.57700279819719E-02 
2116	 2.71928544654778E-02 
2117	 2.82384311372141E-02 
2118	 2.59765907772102E-02 
2119	 2.66841820870183E-02 
2120	 3.02592688505609E-02 
2121	 3.20541245846787E-02 
2122	 2.95357065212394E-02 
2123	 2.99679549131534E-02 
2124	 2.87502213487538E-02 
2125	 2.54037366643398E-02 
2126	 2.75548598163022E-02 
2127	 2.85343709043991E-02 
2128	 2.69609229774023E-02 
2129	 2.74808328757132E-02 
2130	 2.68374823383756E-02 
2131	 2.73724499913253E-02 
2132	 2.73752127463084E-02 
2133	 2.64086884681315E-02 
2134	 0.026980912553957 
2135	 2.75548485741888E-02 
2136	 2.77572473227328E-02 
2137	 2.84457532220453E-02 
2138	 2.87919977039642E-02 
2139	 3.06805540550063E-02 
2140	 2.97258739877592E-02 
2141	 2.67328765292814E-02 
2142	 2.65684490853265E-02 
2143	 2.75261840236784E-02 
2144	 2.11664704857976E-02 
2145	 0.022925240932769 
2146	 2.65666589108781E-02 
2147	 2.79312503535316E-02 
2148	 0.030203753333797 
2149	 3.22707399536534E-02 
2150	 3.42047976428206E-02 
2151	 2.95040293021341E-02 
2152	 2.59828596481816E-02 
2153	 2.49956012435012E-02 
2154	 2.07426868334379E-02 
2155	 0.022210683400479 
2156	 2.50915951345344E-02 
2157	 2.39207672747879E-02 
2158	 1.88809189642839E-02 
2159	 1.67576209029624E-02 
2160	 1.34744722863719E-02 
2161	 1.24559214094407E-02 
2162	 0.011649466463305 
2163	 1.62493694544806E-02 
2164	 2.71856090290956E-02 
2165	 3.03638574610609E-02 
2166	 3.47410193769895E-02 
2167	 3.65729235287082E-02 
2168	 3.07669650919267E-02 
2169	 3.04837783789445E-02 
2170	 3.55977370234189E-02 
2171	 3.36748203423871E-02 
2172	 3.32959463084154E-02 
2173	 3.00559105177308E-02 
2174	 2.24363496099116E-02 
2175	 2.21059712003842E-02 
2176	 2.68761449169671E-02 
2177	 2.75256648448424E-02 
2178	 0.028133186552106 
2179	 2.87617681355779E-02 
2180	 2.43084496385368E-02 
2181	 2.32075998298994E-02 
2182	 2.69158588352398E-02 
2183	 2.93847114759084E-02 
2184	 2.96651593613759E-02 
2185	 2.78856957288014E-02 
2186	 2.73857980876171E-02 
2187	 2.35816234022144E-02 
2188	 2.49206257056093E-02 
2189	 3.33586827848421E-02 
2190	 3.49205480827637E-02 
2191	 3.43245281593228E-02 
2192	 3.61389194627703E-02 
2193	 3.36733444791788E-02 
2194	 3.44596555811315E-02 
2195	 4.03184217878433E-02 
2196	 4.10968479327912E-02 
2197	 4.08442984825294E-02 
2198	 3.96351624273269E-02 
2199	 3.35466936766714E-02 
2200	 0.036279765431861 
2201	 3.13466720360115E-02 
2202	 2.08638047538491E-02 
2203	 1.56772870761355E-02 
2204	 1.12537177014832E-02 
2205	 1.39042151482541E-02 
2206	 0.022590774841166 
2207	 2.65995043066036E-02 
2208	 2.37026793480889E-02 
2209	 2.32307955282331E-02 
2210	 2.59564044278498E-02 
2211	 2.94693293582618E-02 
2212	 3.63115852213669E-02 
2213	 4.01744891095922E-02 
2214	 3.76426005813181E-02 
2215	 2.96923103092803E-02 
2216	 2.58523405392225E-02 
2217	 0.025225438776868 
2218	 2.58796902668817E-02 
2219	 2.42533409284508E-02 
2220	 2.57405980284188E-02 
2221	 2.65859255896607E-02 
2222	 2.68450729838108E-02 
2223	 2.50430646407824E-02 
2224	 2.40550958643446E-02 
2225	 2.19350617624368E-02 
2226	 1.10700917207871E-02 
2227	 8.9573662413081E-03 
2228	 1.87415667307034E-02 
2229	 1.95214827757115E-02 
2230	 1.42566638579273E-02 
2231	 1.52219802985082E-02 
2232	 1.34784623421274E-02 
2233	 0.012659663802432 
2234	 1.38851890595945E-02 
2235	 2.73547107242264E-02 
2236	 2.87648062064417E-02 
2237	 2.89887741709035E-02 
2238	 3.39552778973106E-02 
2239	 2.84951990804769E-02 
2240	 2.24626516798207E-02 
2241	 1.94182170520104E-02 
2242	 1.48239882161798E-02 
2243	 1.72455546042574E-02 
2244	 2.94927065244705E-02 
2245	 0.03820705030714 
2246	 3.57997436481976E-02 
2247	 3.44837074471337E-02 
2248	 2.49405064148649E-02 
2249	 1.46936955399732E-02 
2250	 1.35953705922126E-02 
2251	 1.47715027317122E-02 
2252	 1.49598375548491E-02 
2253	 1.36761328750713E-02 
2254	 2.60394606306307E-02 
2255	 2.82092376598314E-02 
2256	 0.029079664820084 
2257	 4.24038318894857E-02 
2258	 3.82946460974483E-02 
2259	 3.86619731323367E-02 
2260	 3.83707328405243E-02 
2261	 0.038042853597604 
2262	 3.57836631869811E-02 
2263	 2.91304491389338E-02 
2264	 2.62544024674371E-02 
2265	 2.14768983427339E-02 
2266	 2.10467750173319E-02 
2267	 3.22989117628876E-02 
2268	 3.50663614068714E-02 
2269	 3.76792475759923E-02 
2270	 3.71069034712336E-02 
2271	 0.026044363238944 
2272	 1.81918494568376E-02 
2273	 1.05763324241751E-02 
2274	 2.3376398956187E-03 
2275	-6.5821915582823E-03 
2276	-1.16949772987821E-02 
2277	-1.65859313937113E-02 
2278	-1.50054517775217E-02 
2279	-1.11444901079168E-02 
2280	-2.08251575409671E-03 
2281	 0.018700442892417 
2282	 3.11034208226245E-02 
2283	 3.14923663480979E-02 
2284	 3.27129336714958E-02 
2285	 2.61972398655713E-02 
2286	 1.57779221011024E-02 
2287	 1.70441004303232E-02 
2288	 1.76431039990325E-02 
2289	 1.83242429394186E-02 
2290	 1.71695184368821E-02 
2291	 0.012342772782434 
2292	 1.53139587306584E-02 
2293	 1.96252533015878E-02 
2294	 1.20095438441364E-02 
2295	 7.11342690513915E-04 
2296	 3.1435775574813E-03 
2297	-7.98320130788286E-03 
2298	-7.62179887296132E-03 
2299	 1.37440459059928E-02 
2300	 0.02609688947181 
2301	 5.14686930835519E-02 
2302	 7.68605814793529E-02 
2303	 9.54128094846059E-02 
2304	 9.04642622468765E-02 
2305	 7.61467196768916E-02 
2306	 7.67902867529994E-02 
2307	 5.54768778569011E-02 
2308	 5.12493232164981E-02 
2309	 5.69760044029957E-02 
2310	 2.82734874973207E-02 
2311	 2.60026257035577E-02 
2312	 3.15347853070156E-02 
2313	 1.75547699148581E-02 
2314	 1.74710740976064E-02 
2315	 9.28290929303735E-04 
2316	-3.19866061597029E-02 
2317	-4.39657276569648E-02 
2318	-3.08425784898595E-02 
2319	 5.88349037006925E-04 
2320	 3.18049261271861E-02 
2321	 4.47172365319179E-02 
2322	 3.59257230098827E-02 
2323	 2.00940309745875E-02 
2324	 1.08941799957533E-02 
2325	 2.02301319042381E-02 
2326	 0.026505123009264 
2327	 3.74529728280644E-03 
2328	-8.34174456181918E-03 
2329	-1.26124900941554E-02 
2330	-4.06244425371594E-02 
2331	-5.28538114588195E-02 
2332	-6.16972985390445E-02 
2333	-7.88485746913263E-02 
2334	-6.81107412932017E-02 
2335	-3.20731649630928E-02 
2336	-4.84470395063625E-03 
2337	-2.12619721836719E-02 
2338	-7.39420717435208E-03 
2339	 5.25460277847748E-03 
2340	-2.36674251232776E-02 
2341	-6.28399125805877E-03 
2342	 7.6475382986262E-03 
2343	 2.26932727948052E-03 
2344	 1.77523487219299E-02 
2345	 5.83836102477827E-02 
2346	 6.09503481031713E-02 
2347	 7.17501986892205E-02 
2348	 0.135442592925637 
2349	 0.175903417227507 
2350	 0.205059105078217 
2351	 0.161044701107002 
2352	 0.128040037408443 
2353	 9.48237034608136E-02 
2354	 2.08764823462663E-02 
2355	 5.72706495211048E-02 
2356	 0.117579741837612 
2357	 6.37893285049151E-02 
2358	 0.120070410105567 
2359	 0.155135407638394 
2360	 1.28394620582727E-02 
2361	-5.67144491694144E-03 
2362	 2.63857875723688E-02 
2363	-7.77404330575152E-02 
2364	-0.107895456666291 
2365	-0.113794565324258 
2366	-0.214471709929156 
2367	-0.199788818157 
2368	-0.154994602734965 
2369	-0.119395701642779 
2370	-8.26245143474174E-02 
2371	-6.11310854301594E-02 
2372	 8.51231441718235E-02 
2373	 0.119984282520811 
2374	 7.99191409411589E-02 
2375	 0.136119550232621 
2376	 2.24050528581065E-02 
2377	-0.112642255583983 
2378	-0.117041338151418 
2379	-0.21758051705617 
2380	-0.396552029572996 
2381	-0.511617439318066 
2382	-0.650153809565483 
2383	-0.835788977333791 
2384	-0.752560561169529 
2385	-0.521239380944313 
2386	-0.497128032370661 
2387	-0.55290770193531 
2388	-0.529010303741412 
2389	-0.471049394279709 
2390	-0.273376150895752 
2391	-5.62037974857274E-02 
2392	-0.10940168699436 
2393	-0.368526941863866 
2394	-0.524189244842338 
2395	-0.426893511018419 
2396	-0.157870443571345 
2397	 8.51831984966332E-02 
2398	 0.195210024749792 
2399	-8.36907327598763E-02 
2400	-0.356744630027235 
2401	-0.221705183855337 
2402	 0.143989436710638 
2403	 0.266231150189998 
2404	 0.228080526052715 
2405	 0.19542770554912 
2406	-0.279079876276654 
2407	-1.02770141800024 
2408	-1.82172556114392 
2409	-6.33915259280188 
2410	-12.3029548109143 
2411	-2.18187134697094 
2412	-1.68285267002029 
2413	-1.07347761679371 
2414	-0.720738991081117 
2415	-0.312995717765639 
2416	-0.241445363085733 
2417	-0.282520770584065 
2418	-0.310573046800457 
2419	-0.721043347537858 
2420	-1.63852190132423 
2421	-0.108814518783223 
2422	-0.290412835917594 
2423	-0.421865406348694 
2424	-2.01248426540343 
2425	-5.28271265126552 
2426	-43.499984773758 
2427	-0.203714276580187 
2428	-7.7393494688991 
2429	 1.1698160008439 
2430	 0.16219752291517 
2431	-0.29660091912092 
2432	 0.103163268673599 
2433	-37.0452570025496 
2434	-2.011443600066 
2435	-1.715287848638 
2436	-1.10247679163317 
2437	 0.132456256010971 
2438	 0.255503535095445 
2439	-0.667423187085236 
2440	-0.309693324312651 
2441	-0.752346629211256 
2442	-0.699840534901945 
2443	 0.308795302806323 
2444	 0.258615310507144 
2445	 0.39078635479506 
2446	 0.309009456458366 
2447	 0.204900139069599 
2448	 0.278064616590083 
2449	 0.156599390502021 
2450	 0.280337207721834 
2451	 1.13613747693923 
2452	 1.11891529470442 
2453	 1.37730261528922 
2454	 4.76932193732348 
2455	 1.3212182467279 
2456	 0.725162403945189 
2457	 0.815855618025965 
2458	 0.678469136136559 
2459	 0.783484789975723 
2460	 1.1945940141356 
2461	 0.872538954684206 
2462	 3.70991268768923E-02 
2463	-1.91391243949308 
2464	-3.81324465011318 
2465	-12.4963615585725 
2466	-2.17979983932207 
2467	-1.2848551926442 
2468	-1.0868977095066 
2469	-0.84696298830127 
2470	-0.483069400512772 
2471	 0.028679912099379 
2472	 5.17652843028448E-02 
2473	-0.143673801201691 
2474	 0.119246181895786 
2475	-0.419392704737185 
2476	-0.309371949637293 
2477	 0.866047783995324 
2478	 0.864082872326509 
2479	 0.524472723750549 
2480	 0.439117725102633 
2481	 0.98932344511352 
2482	 2.02282154302981 
2483	 1.6843815793958 
2484	 3.20778838808246 
2485	 4.32483857526812 
2486	 2.10662712036627 
2487	 1.76919982903122 
2488	 1.48351856011917 
2489	 0.304216779018721 
2490	 4.79389429068892E-02 
2491	-2.59966034573723E-02 
2492	-0.319360475590119 
2493	-0.552477462299127 
2494	-1.19278566634326 
2495	-1.20762742127554 
2496	-2.06788081330966 
2497	-1.71284649716418 
2498	-1.57579598334826 
2499	 4.45313522688579 
2500	 4.20859461056553 
