Wavelength	rt0704rt200007.asd
350	 5.20469307032961E-02 
351	 5.22580087849289E-02 
352	 5.25221095293588E-02 
353	 5.30276794929711E-02 
354	 5.36022198841376E-02 
355	 0.053538080243797 
356	 5.36973465351158E-02 
357	 5.44260453077759E-02 
358	 5.55570993073468E-02 
359	 5.56107944503078E-02 
360	 5.60116137823707E-02 
361	 5.69209775565678E-02 
362	 5.75879380789087E-02 
363	 5.81196714488285E-02 
364	 5.83829001989887E-02 
365	 5.85676248579488E-02 
366	 0.059374365700806 
367	 5.99487232821123E-02 
368	 6.02562958106499E-02 
369	 6.05038072341383E-02 
370	 6.08387698603315E-02 
371	 6.17078939267286E-02 
372	 0.062636928095533 
373	 6.28029792285843E-02 
374	 6.35041316918896E-02 
375	 6.41110661170803E-02 
376	 0.064420007123489 
377	 6.50730732415627E-02 
378	 6.55903862609304E-02 
379	 6.60174828086772E-02 
380	 6.65026985208743E-02 
381	 6.71482761126892E-02 
382	 6.74950857868777E-02 
383	 6.77368141643243E-02 
384	 6.82822926086798E-02 
385	 6.85733221690568E-02 
386	 6.88753813571824E-02 
387	 6.92728307616625E-02 
388	 6.95723993721451E-02 
389	 6.95069023666408E-02 
390	 6.94729834106033E-02 
391	 6.97541322761269E-02 
392	 7.00761864925529E-02 
393	 7.01993777579767E-02 
394	 7.01541755499073E-02 
395	 7.00978974836198E-02 
396	 7.01822366422795E-02 
397	 7.00543932033156E-02 
398	 6.97944200083663E-02 
399	 6.98381949301542E-02 
400	 6.98275818955206E-02 
401	 6.97740854991582E-02 
402	 6.96922227388047E-02 
403	 6.94734194843924E-02 
404	 6.90839898697101E-02 
405	 6.87006362760771E-02 
406	 0.068510916966336 
407	 6.82828410639085E-02 
408	 0.067968712128213 
409	 6.76192685715777E-02 
410	 6.73559033386345E-02 
411	 6.69365839604618E-02 
412	 6.64422797348926E-02 
413	 6.60123568173557E-02 
414	 6.57882107270746E-02 
415	 6.55951664717686E-02 
416	 6.53160658080539E-02 
417	 6.48962218617376E-02 
418	 6.44621147791108E-02 
419	 6.41203550765064E-02 
420	 6.39238112355858E-02 
421	 6.38610022296457E-02 
422	 0.063567279686652 
423	 6.32534055193313E-02 
424	 6.31497487775656E-02 
425	 6.32015890765987E-02 
426	 6.31416564465192E-02 
427	 6.30635581064603E-02 
428	 6.31984650550628E-02 
429	 0.063362201046118 
430	 6.33419448760803E-02 
431	 6.32197368867132E-02 
432	 6.34095831899364E-02 
433	 6.36356801345686E-02 
434	 6.37961778499584E-02 
435	 6.38827460733791E-02 
436	 0.064043642769007 
437	 6.41608264307628E-02 
438	 6.41827189536036E-02 
439	 6.41206610668678E-02 
440	 6.41593553917502E-02 
441	 6.42344487272809E-02 
442	 6.42998646713694E-02 
443	 6.43863966505195E-02 
444	 6.43250458637135E-02 
445	 6.42100102813201E-02 
446	 6.41777349449059E-02 
447	 6.42243925541907E-02 
448	 6.42243235158005E-02 
449	 6.41224030854057E-02 
450	 6.39305739225863E-02 
451	 6.37375944177419E-02 
452	 6.35994193678311E-02 
453	 6.35012722592563E-02 
454	 6.32999198695903E-02 
455	 6.31468535065661E-02 
456	 6.29424764032421E-02 
457	 6.25742921217683E-02 
458	 6.23505892784853E-02 
459	 6.21509310120103E-02 
460	 6.19038608306629E-02 
461	 6.16140949421129E-02 
462	 6.13240812855677E-02 
463	 6.10798275377558E-02 
464	 6.08873962928947E-02 
465	 6.06496114995037E-02 
466	 6.04200050836356E-02 
467	 0.060235563447071 
468	 6.00975275949287E-02 
469	 5.98047029966383E-02 
470	 5.96070963566755E-02 
471	 5.95242038004045E-02 
472	 5.92155327823992E-02 
473	 5.90888130207125E-02 
474	 5.91000730322472E-02 
475	 5.90732592994458E-02 
476	 5.87973140176799E-02 
477	 5.87129311023001E-02 
478	 5.87875239428628E-02 
479	 5.86853162231748E-02 
480	 5.86717887744991E-02 
481	 5.86420177801638E-02 
482	 5.85684653005068E-02 
483	 0.058691244553041 
484	 5.86753226189962E-02 
485	 5.86269342457422E-02 
486	 5.87452022433616E-02 
487	 5.87597491375461E-02 
488	 5.88687508074472E-02 
489	 5.90866160688963E-02 
490	 0.059236397518456 
491	 0.059392497805801 
492	 5.95511452951328E-02 
493	 5.97294441960094E-02 
494	 6.00426101913137E-02 
495	 0.060400354407918 
496	 6.07035418033392E-02 
497	 6.08878666487441E-02 
498	 6.12002678942794E-02 
499	 6.15906103376935E-02 
500	 6.19765502569506E-02 
501	 0.062279950139202 
502	 0.062542259423448 
503	 6.28335230645595E-02 
504	 6.31795124860265E-02 
505	 0.063374591773833 
506	 6.37009321380299E-02 
507	 6.41480701280792E-02 
508	 6.44738650242768E-02 
509	 6.47410197898739E-02 
510	 6.50918407042737E-02 
511	 6.55385225618118E-02 
512	 6.57464024676437E-02 
513	 6.60570296401115E-02 
514	 6.64875950267426E-02 
515	 6.69244579857128E-02 
516	 6.74368842454976E-02 
517	 6.78919913931336E-02 
518	 6.83075873203819E-02 
519	 6.89012597815549E-02 
520	 0.069554629426657 
521	 0.070197940032991 
522	 7.08187906731556E-02 
523	 0.071538349928392 
524	 7.22997667431437E-02 
525	 7.31114653832006E-02 
526	 7.40310481054424E-02 
527	 7.50855428256201E-02 
528	 7.62015293829444E-02 
529	 7.73407146082474E-02 
530	 7.85634628490015E-02 
531	 7.99211948440056E-02 
532	 8.13811259794327E-02 
533	 8.28834909601125E-02 
534	 8.44712456345399E-02 
535	 8.61765542098612E-02 
536	 8.79557993062173E-02 
537	 8.96782301846462E-02 
538	 9.16201860498798E-02 
539	 9.36691144374785E-02 
540	 9.57054063619757E-02 
541	 9.79443584648632E-02 
542	 0.100095984229527 
543	 0.102134105966825 
544	 0.104209998641994 
545	 0.106337802663782 
546	 0.108446504024815 
547	 0.110497684839321 
548	 0.112556603685555 
549	 0.114513103305863 
550	 0.116373734326452 
551	 0.118188332478898 
552	 0.119949999424977 
553	 0.121693855972642 
554	 0.123440694862781 
555	 0.125180974906625 
556	 0.126840724171404 
557	 0.128543468211664 
558	 0.130359475432712 
559	 0.132074111406112 
560	 0.133953998500855 
561	 0.135946370234653 
562	 0.137829526157884 
563	 0.139760172710164 
564	 0.141635015107079 
565	 0.14340216966205 
566	 0.145189510396719 
567	 0.146756009025203 
568	 0.148181033512006 
569	 0.149606683030071 
570	 0.150815404415228 
571	 0.151887783903481 
572	 0.152840189364883 
573	 0.153598608038282 
574	 0.15437251542265 
575	 0.155205183220453 
576	 0.156043459534938 
577	 0.156686636380675 
578	 0.157366533664322 
579	 0.158060621574256 
580	 0.158597323449695 
581	 0.159005566874095 
582	 0.15939205501134 
583	 0.159733534339978 
584	 0.159731293686557 
585	 0.159761270486973 
586	 0.159785358395701 
587	 0.15964362004946 
588	 0.159428905407657 
589	 0.159364090064179 
590	 0.159481476102424 
591	 0.159587320530185 
592	 0.159515564759112 
593	 0.159414934239386 
594	 0.159405087604964 
595	 0.159313127003367 
596	 0.159089132672358 
597	 0.158748345160945 
598	 0.15835560926144 
599	 0.157997963251725 
600	 0.157658708546855 
601	 0.15734699560059 
602	 0.157137215509697 
603	 0.157073965906963 
604	 0.157018368366069 
605	 0.156858237396451 
606	 0.156960179116281 
607	 0.156972002632757 
608	 0.156827517500989 
609	 0.156785175809186 
610	 0.156747803245861 
611	 0.156647513629432 
612	 0.156450246795105 
613	 0.156200004363125 
614	 0.155957318809257 
615	 0.15578496827065 
616	 0.155717760125606 
617	 0.155571248659888 
618	 0.155348951251729 
619	 0.155138390046681 
620	 0.15513773754043 
621	 0.155038121370887 
622	 0.154832890086073 
623	 0.154626605354057 
624	 0.154525754577825 
625	 0.154383233680796 
626	 0.154250527904371 
627	 0.154356301946554 
628	 0.154232505900717 
629	 0.154123527293573 
630	 0.154202850704632 
631	 0.154094415669004 
632	 0.153971234190927 
633	 0.153798457952266 
634	 0.153447223280685 
635	 0.15284546335158 
636	 0.152256346768935 
637	 0.151675547044493 
638	 0.150657561486024 
639	 0.149838512302039 
640	 0.148973365554377 
641	 0.147752623344208 
642	 0.146697085518338 
643	 0.145393139053429 
644	 0.143825436008911 
645	 0.142314984779616 
646	 0.140592083542152 
647	 0.138878796382024 
648	 0.137432468150041 
649	 0.136222753223334 
650	 0.13507616502172 
651	 0.134178492390059 
652	 0.133817019973181 
653	 0.133590775861889 
654	 0.133418859957836 
655	 0.133281531394208 
656	 0.133209677817162 
657	 0.133110024718932 
658	 0.132878203816425 
659	 0.13243807919727 
660	 0.131843437342766 
661	 0.130739282415969 
662	 0.129271504611346 
663	 0.127893988953514 
664	 0.126383446497824 
665	 0.124867248811358 
666	 0.123362243380782 
667	 0.12164746337294 
668	 0.120129847157993 
669	 0.118862943605821 
670	 0.117790714993637 
671	 0.116929786948612 
672	 0.116245429663249 
673	 0.115773112498348 
674	 0.115613009074876 
675	 0.115661718249456 
676	 0.115976015594768 
677	 0.116653148592128 
678	 0.117822810264884 
679	 0.119334017530804 
680	 0.12121287106672 
681	 0.123577820970732 
682	 0.126562846348379 
683	 0.130035111467371 
684	 0.133809692855634 
685	 0.13807225548105 
686	 0.143268667988802 
687	 0.14853248435866 
688	 0.152722304894339 
689	 0.156753412962031 
690	 0.160683904035277 
691	 0.164319624670009 
692	 0.167337435744844 
693	 0.170557860225829 
694	 0.173384919746499 
695	 0.175344527215754 
696	 0.176699399554858 
697	 0.177884824858372 
698	 0.178818204466655 
699	 0.179224691721567 
700	 0.179531722480619 
701	 0.179797603541085 
702	 0.179841199589882 
703	 0.1793609136067 
704	 0.178725460747366 
705	 0.177929900653059 
706	 0.176968684041232 
707	 0.175902451253751 
708	 0.174563743344595 
709	 0.172971903828602 
710	 0.171216437393526 
711	 0.169258004021868 
712	 0.167155064257816 
713	 0.164889365321437 
714	 0.162302632773982 
715	 0.159798017757496 
716	 0.157117314116885 
717	 0.15424924791411 
718	 0.151522127934202 
719	 0.148926157734074 
720	 0.146717314305471 
721	 0.144560582077998 
722	 0.142386173386879 
723	 0.139728870474245 
724	 0.136931328316241 
725	 0.134503899076521 
726	 0.132030418983075 
727	 0.129443071957577 
728	 0.126720548937152 
729	 0.123611039768032 
730	 0.120621374351666 
731	 0.118045065302926 
732	 0.115757519810214 
733	 0.113855058711703 
734	 0.112197904642362 
735	 0.110750557145192 
736	 0.109574201708401 
737	 0.108702794402762 
738	 0.108023381426583 
739	 0.107443753693447 
740	 0.10697389512835 
741	 0.106707081506262 
742	 0.106578001938707 
743	 0.106437242432762 
744	 0.106219364490675 
745	 0.106077396000845 
746	 0.106002177738182 
747	 0.105738915071582 
748	 0.105662001191348 
749	 0.105620398967114 
750	 0.105448914061214 
751	 0.105407225237093 
752	 0.105263588087743 
753	 0.105067748401889 
754	 0.10499171063969 
755	 0.104816491564218 
756	 0.104718751569079 
757	 0.104689263687904 
758	 0.104314699906319 
759	 0.104067339528189 
760	 0.103824310478843 
761	 0.103381492053873 
762	 0.103385421182911 
763	 0.103373925274386 
764	 0.103511692909607 
765	 0.10395888812572 
766	 0.104222168652527 
767	 0.104287907036349 
768	 0.104313658166052 
769	 0.104589478858292 
770	 0.104712603798115 
771	 0.104792721989178 
772	 0.104966215412012 
773	 0.105160535237281 
774	 0.105337121571726 
775	 0.105490805409624 
776	 0.105645039876332 
777	 0.105855841885439 
778	 0.10609771414125 
779	 0.106329111566036 
780	 0.106510021706697 
781	 0.106764174320404 
782	 0.107121788554979 
783	 0.107540971465883 
784	 0.107870940547573 
785	 0.108160342808154 
786	 0.108413888241193 
787	 0.108652013133174 
788	 0.109037862471736 
789	 0.109378135261619 
790	 0.109716748532229 
791	 0.11027917725571 
792	 0.110865287420492 
793	 0.111224440776329 
794	 0.111439459585875 
795	 0.11212107096282 
796	 0.112439125944126 
797	 0.112643484296596 
798	 0.113111087830212 
799	 0.113484130896341 
800	 0.113741019972918 
801	 0.113985545420053 
802	 0.114360202013479 
803	 0.114652998101937 
804	 0.114872150850647 
805	 0.115027709018976 
806	 0.115102889431703 
807	 0.114986660595793 
808	 0.114730766534209 
809	 0.114406681492153 
810	 0.114037115672138 
811	 0.113576854341484 
812	 0.113013911224156 
813	 0.11233818959348 
814	 0.111400771446651 
815	 0.110649661813491 
816	 0.11042222168738 
817	 0.110620071318445 
818	 0.109790908086307 
819	 0.108885497704168 
820	 0.108225741070571 
821	 0.107193082157276 
822	 0.105907235355518 
823	 0.104565080322979 
824	 0.103263504855027 
825	 0.101612824100008 
826	 9.99649754169546E-02 
827	 9.81733607067838E-02 
828	 9.61716869205222E-02 
829	 9.45322299326615E-02 
830	 9.32096444695218E-02 
831	 9.19433380664602E-02 
832	 9.05139751232821E-02 
833	 8.97342574028594E-02 
834	 8.94939599007177E-02 
835	 8.92835740789319E-02 
836	 8.83211717276446E-02 
837	 8.76664336531999E-02 
838	 8.74889831609884E-02 
839	 8.75470483093498E-02 
840	 8.71268208042957E-02 
841	 8.66187565844131E-02 
842	 8.62812507544547E-02 
843	 8.61944432851334E-02 
844	 8.58466399638152E-02 
845	 8.55110960555703E-02 
846	 8.51712082841379E-02 
847	 8.46709780518968E-02 
848	 8.46589299266891E-02 
849	 8.44601172323692E-02 
850	 8.38975118522493E-02 
851	 8.36006145904381E-02 
852	 8.33842769076496E-02 
853	 8.31909379442723E-02 
854	 8.29865301689924E-02 
855	 8.27519470977593E-02 
856	 8.24301832732483E-02 
857	 8.22872138918413E-02 
858	 8.24202755970956E-02 
859	 8.20592875626745E-02 
860	 8.15158028936365E-02 
861	 0.081132615106499 
862	 8.11483442637029E-02 
863	 8.12168801435513E-02 
864	 8.07499345625264E-02 
865	 8.00736497897445E-02 
866	 8.02025311601665E-02 
867	 8.00437156402949E-02 
868	 7.98271657350948E-02 
869	 7.96474398100877E-02 
870	 7.92039384441211E-02 
871	 7.87688826672244E-02 
872	 7.82428601913832E-02 
873	 7.76914630497184E-02 
874	 7.77446669622311E-02 
875	 7.73373922858559E-02 
876	 7.68190991944106E-02 
877	 7.67202866499511E-02 
878	 7.64989670599577E-02 
879	 7.61324783810601E-02 
880	 7.57521601541918E-02 
881	 7.54971463387415E-02 
882	 7.50824045337319E-02 
883	 7.45548125017906E-02 
884	 7.40807784509228E-02 
885	 7.38374225390497E-02 
886	 7.34084931517767E-02 
887	 7.30781490736166E-02 
888	 7.28510380949392E-02 
889	 7.23672429758077E-02 
890	 7.21436195099307E-02 
891	 0.071848664212286 
892	 7.13233483259359E-02 
893	 0.071055518115852 
894	 0.070507457313146 
895	 7.01365533274424E-02 
896	 7.02471284432387E-02 
897	 6.95245917339006E-02 
898	 6.93122918349742E-02 
899	 6.90978419974204E-02 
900	 6.82651309337457E-02 
901	 6.82775995027707E-02 
902	 6.82537320448711E-02 
903	 6.76588848207349E-02 
904	 6.65002004396882E-02 
905	 6.66667008798842E-02 
906	 6.61047919368392E-02 
907	 6.49880419506177E-02 
908	 6.50152121078994E-02 
909	 0.064375206627059 
910	 6.38080150307753E-02 
911	 6.34598592419946E-02 
912	 6.27623456681974E-02 
913	 6.18330980092283E-02 
914	 6.16382704804533E-02 
915	 0.062036782145997 
916	 6.16922792544514E-02 
917	 0.06180929864942 
918	 6.18144196520396E-02 
919	 6.11885745528429E-02 
920	 5.98485627048024E-02 
921	 6.04484798570558E-02 
922	 6.04071633672126E-02 
923	 5.83688413263806E-02 
924	 5.78589410530223E-02 
925	 5.57731353723356E-02 
926	 5.43670124017084E-02 
927	 0.055843508789891 
928	 5.45519520782689E-02 
929	 5.24942238981062E-02 
930	 5.15420035431672E-02 
931	 0.053042432034231 
932	 5.05952301508067E-02 
933	 4.97312277934075E-02 
934	 4.76679556031987E-02 
935	 0.041924841994641 
936	 5.10267705059865E-02 
937	 4.94375846887876E-02 
938	 4.04068710179077E-02 
939	 3.52503769799707E-02 
940	 3.86955389721269E-02 
941	 4.28588169299078E-02 
942	 4.50332486953414E-02 
943	 4.41370805397388E-02 
944	 3.34145786028802E-02 
945	 3.02803762427137E-02 
946	 3.51430098598511E-02 
947	 3.73383458639341E-02 
948	 3.76963861234769E-02 
949	 3.70224518468105E-02 
950	 3.88453459579384E-02 
951	 4.50788101104205E-02 
952	 4.07749657561379E-02 
953	 3.60858837475495E-02 
954	 0.035544046475967 
955	 3.71658498645414E-02 
956	 3.38648409298059E-02 
957	 3.43707828853442E-02 
958	 3.66849820884527E-02 
959	 3.33932697917151E-02 
960	 3.65345365547708E-02 
961	 3.55863770686435E-02 
962	 3.39302426823465E-02 
963	 4.13384700154795E-02 
964	 3.92863123891194E-02 
965	 3.67095650934514E-02 
966	 0.036527818479052 
967	 3.61226999879624E-02 
968	 3.55292652251358E-02 
969	 0.037862884434069 
970	 4.06217428060826E-02 
971	 3.79969403734049E-02 
972	 3.75917199000888E-02 
973	 3.77343345441426E-02 
974	 3.67598090258269E-02 
975	 3.48344517717007E-02 
976	 3.79669873151592E-02 
977	 3.94062291651436E-02 
978	 3.75767649561901E-02 
979	 3.65195798736537E-02 
980	 3.64858152614097E-02 
981	 3.78104006656168E-02 
982	 3.90286187258404E-02 
983	 3.78987520080536E-02 
984	 3.56047883300567E-02 
985	 3.63550513123106E-02 
986	 3.75775215761191E-02 
987	 0.033614545223181 
988	 0.035788699041131 
989	 0.039261072336125 
990	 3.96023714226837E-02 
991	 3.55481632171621E-02 
992	 3.46313514051958E-02 
993	 3.63068477510478E-02 
994	 3.88658543306937E-02 
995	 4.01967459176068E-02 
996	 3.74951950912246E-02 
997	 3.78306212690968E-02 
998	 0.040842209261947 
999	 4.15992892863529E-02 
1000	 4.09726781168524E-02 
1001	 4.03490707096425E-02 
1002	 4.06570163232456E-02 
1003	 0.040599140248534 
1004	 4.03827913684067E-02 
1005	 4.02977081287303E-02 
1006	 3.96900672295372E-02 
1007	 3.95890239526923E-02 
1008	 0.040479054677817 
1009	 4.12600279865417E-02 
1010	 4.13193840599518E-02 
1011	 4.11596513369669E-02 
1012	 4.07732515201592E-02 
1013	 4.04287659602389E-02 
1014	 4.07548398529361E-02 
1015	 4.21810164755139E-02 
1016	 4.26395090624975E-02 
1017	 0.042825815266872 
1018	 4.33608823453694E-02 
1019	 4.38150513117523E-02 
1020	 4.39856681386098E-02 
1021	 0.044185655834853 
1022	 4.45556239738152E-02 
1023	 4.46780749370957E-02 
1024	 4.47215386600536E-02 
1025	 4.54810603452754E-02 
1026	 4.61388835429181E-02 
1027	 4.64125454445852E-02 
1028	 4.64067908912973E-02 
1029	 0.046562839241445 
1030	 4.63994635001874E-02 
1031	 4.66713372765982E-02 
1032	 4.72183125222186E-02 
1033	 4.75493072909825E-02 
1034	 4.80160148234699E-02 
1035	 4.83424518833579E-02 
1036	 4.87379105843063E-02 
1037	 0.048856826095258 
1038	 4.84640667440744E-02 
1039	 4.87370712280253E-02 
1040	 4.88161462296469E-02 
1041	 4.82116093458368E-02 
1042	 4.80305775777344E-02 
1043	 4.79146698427215E-02 
1044	 4.78246188462585E-02 
1045	 4.74831256791667E-02 
1046	 4.79083384793696E-02 
1047	 4.90055213129038E-02 
1048	 4.96503633078411E-02 
1049	 5.07462124671591E-02 
1050	 5.12583013065626E-02 
1051	 5.10425268481906E-02 
1052	 0.051237708232668 
1053	 5.15838869088973E-02 
1054	 5.17555566619522E-02 
1055	 5.22664596690772E-02 
1056	 5.22393521758957E-02 
1057	 5.19068887559092E-02 
1058	 5.08915268142607E-02 
1059	 0.0508469594466 
1060	 5.08613273000175E-02 
1061	 5.09637336218669E-02 
1062	 5.20237146874051E-02 
1063	 5.19968819645496E-02 
1064	 5.08293394673251E-02 
1065	 5.08224804339029E-02 
1066	 5.11107977174861E-02 
1067	 5.12887659852712E-02 
1068	 5.24339335059982E-02 
1069	 5.27438977363259E-02 
1070	 5.21517144031594E-02 
1071	 5.19489637918862E-02 
1072	 5.15555561122064E-02 
1073	 5.14947308189064E-02 
1074	 5.12330508225875E-02 
1075	 5.10775202391639E-02 
1076	 5.09213392753527E-02 
1077	 5.05926579542769E-02 
1078	 5.04115740045501E-02 
1079	 5.06416361505355E-02 
1080	 5.03503369024475E-02 
1081	 4.95076009210583E-02 
1082	 4.92613740128648E-02 
1083	 0.048743091112297 
1084	 4.88080923094009E-02 
1085	 5.05054709780703E-02 
1086	 5.06537368042866E-02 
1087	 4.97906136777605E-02 
1088	 4.94787031021699E-02 
1089	 4.87538108834856E-02 
1090	 4.74434057395084E-02 
1091	 0.047086630430844 
1092	 4.76942719289587E-02 
1093	 4.80544449296104E-02 
1094	 4.85126988498629E-02 
1095	 4.89245059491699E-02 
1096	 5.00588643754488E-02 
1097	 4.99147417659899E-02 
1098	 4.90744465235231E-02 
1099	 4.84033990481325E-02 
1100	 4.62350372018503E-02 
1101	 4.56102823054176E-02 
1102	 4.59625721046399E-02 
1103	 4.55881205195254E-02 
1104	 4.55838777013018E-02 
1105	 4.63788381483429E-02 
1106	 4.35487536886686E-02 
1107	 4.36293330072337E-02 
1108	 4.43979454149428E-02 
1109	 0.042690673602133 
1110	 4.30991020068605E-02 
1111	 4.67541832500212E-02 
1112	 4.67934879517841E-02 
1113	 4.47388687943483E-02 
1114	 4.36224305295668E-02 
1115	 3.93255764921553E-02 
1116	 3.78078394266318E-02 
1117	 4.01994715667517E-02 
1118	 4.10751401032357E-02 
1119	 4.22216656996381E-02 
1120	 4.31091169198879E-02 
1121	 4.06810275713891E-02 
1122	 4.76376792763704E-02 
1123	 5.02858504409303E-02 
1124	 4.35803030099988E-02 
1125	 3.12667949000843E-02 
1126	 2.89625379809093E-02 
1127	 2.92994373240056E-02 
1128	 3.42264704555991E-02 
1129	 4.06181241876821E-02 
1130	 5.34247655326662E-02 
1131	 4.94160234377322E-02 
1132	 3.96524679872965E-02 
1133	 3.90055528084526E-02 
1134	 3.41410269659005E-02 
1135	 3.41457143059096E-02 
1136	 0.0437911716721 
1137	 4.29908536060465E-02 
1138	 3.73123362229382E-02 
1139	 3.30230642677684E-02 
1140	 2.76964448834128E-02 
1141	 2.66510506379962E-02 
1142	 2.88851011509434E-02 
1143	 2.68867692622915E-02 
1144	 0.026708214488306 
1145	 2.87301939536876E-02 
1146	 0.029889856179686 
1147	 3.23126199799593E-02 
1148	 3.03234412293055E-02 
1149	 0.026140796496896 
1150	 2.65495374894068E-02 
1151	 2.85555056771483E-02 
1152	 2.88992048004176E-02 
1153	 3.12834344939672E-02 
1154	 3.17576761707457E-02 
1155	 3.01653666796836E-02 
1156	 2.98461649381344E-02 
1157	 3.11464132430016E-02 
1158	 3.06302584090654E-02 
1159	 3.03635565208928E-02 
1160	 3.07212547107461E-02 
1161	 0.029838953068243 
1162	 3.04384519178064E-02 
1163	 3.26696954980934E-02 
1164	 3.30500246071955E-02 
1165	 3.27172930749951E-02 
1166	 3.22051760476379E-02 
1167	 3.07983654022324E-02 
1168	 3.02803598342221E-02 
1169	 3.01213198293766E-02 
1170	 3.08492249501826E-02 
1171	 3.12056378464624E-02 
1172	 3.11414171169088E-02 
1173	 3.09967169237816E-02 
1174	 3.10489555685767E-02 
1175	 3.10100489180889E-02 
1176	 3.00832160015111E-02 
1177	 3.00214934049121E-02 
1178	 3.03793837030806E-02 
1179	 3.04458758507733E-02 
1180	 3.05150629925698E-02 
1181	 3.09883645117702E-02 
1182	 3.10641215453606E-02 
1183	 3.07102641507967E-02 
1184	 3.11515405307323E-02 
1185	 3.16995196164029E-02 
1186	 3.13914234133777E-02 
1187	 0.030655090320761 
1188	 3.03682013876498E-02 
1189	 3.05984455647804E-02 
1190	 3.05607794882254E-02 
1191	 3.05532162762368E-02 
1192	 3.07336475906031E-02 
1193	 3.08544084090141E-02 
1194	 3.04594745175397E-02 
1195	 3.05059626176206E-02 
1196	 3.11958366412886E-02 
1197	 3.13542329331053E-02 
1198	 0.030788156117576 
1199	 3.06548036606499E-02 
1200	 3.08418377276531E-02 
1201	 3.06256052334335E-02 
1202	 3.06257990037478E-02 
1203	 3.09070087904374E-02 
1204	 3.02063582784507E-02 
1205	 2.95955668339355E-02 
1206	 3.02418838278149E-02 
1207	 3.01421016217957E-02 
1208	 0.02995684017253 
1209	 3.07797355496049E-02 
1210	 3.08249943295209E-02 
1211	 3.04847422195085E-02 
1212	 3.05836158445777E-02 
1213	 3.02350772693227E-02 
1214	 2.99576208870297E-02 
1215	 2.94063482281985E-02 
1216	 2.94036802957631E-02 
1217	 2.96010146772402E-02 
1218	 2.96843818794073E-02 
1219	 2.97154832055018E-02 
1220	 3.02203978009773E-02 
1221	 3.07805479707915E-02 
1222	 3.08212055222973E-02 
1223	 3.07532247276925E-02 
1224	 3.07950491324417E-02 
1225	 3.04624676871769E-02 
1226	 0.030304159100874 
1227	 3.05861738719066E-02 
1228	 3.04079952793558E-02 
1229	 2.99038523130789E-02 
1230	 2.98652984911368E-02 
1231	 3.07430004919467E-02 
1232	 0.031050101097861 
1233	 3.05462294637801E-02 
1234	 3.10554061947953E-02 
1235	 3.14044006043408E-02 
1236	 3.11574717489091E-02 
1237	 3.11174024230849E-02 
1238	 3.17342669309476E-02 
1239	 3.19048409251497E-02 
1240	 3.12660710674604E-02 
1241	 3.08763624120749E-02 
1242	 3.10615653443274E-02 
1243	 3.12795017832484E-02 
1244	 3.09941581706516E-02 
1245	 0.031098477622034 
1246	 3.15409189072526E-02 
1247	 3.11455261806077E-02 
1248	 3.07669409846334E-02 
1249	 3.08910078379993E-02 
1250	 3.09111564839386E-02 
1251	 0.030804273795924 
1252	 3.08589815347695E-02 
1253	 3.09760291939905E-02 
1254	 0.030889028555839 
1255	 3.08620807835674E-02 
1256	 3.08844650930614E-02 
1257	 0.031030522129968 
1258	 3.11589815502936E-02 
1259	 3.12861922511512E-02 
1260	 3.12950516483374E-02 
1261	 3.13367512122322E-02 
1262	 3.12496032108821E-02 
1263	 3.09803177095233E-02 
1264	 3.08345107693511E-02 
1265	 3.04885712514851E-02 
1266	 0.030455698114519 
1267	 3.07358398803307E-02 
1268	 3.08186536425228E-02 
1269	 3.10398233272484E-02 
1270	 3.13788236987711E-02 
1271	 3.14623994048269E-02 
1272	 3.13436064927129E-02 
1273	 3.09976116514103E-02 
1274	 3.05112501220286E-02 
1275	 3.01948106090918E-02 
1276	 3.02179283341172E-02 
1277	 3.04380298441916E-02 
1278	 3.08307160301402E-02 
1279	 3.10308508623038E-02 
1280	 0.030570731920461 
1281	 3.05025812155879E-02 
1282	 3.07362981223038E-02 
1283	 3.07182004489113E-02 
1284	 3.05651932600499E-02 
1285	 3.05629534431054E-02 
1286	 3.05206469627192E-02 
1287	 3.02988908651885E-02 
1288	 3.00307442082665E-02 
1289	 3.00368369170726E-02 
1290	 3.01050330399606E-02 
1291	 2.99816565448895E-02 
1292	 0.030264095497659 
1293	 3.07342228312168E-02 
1294	 3.05388955630388E-02 
1295	 3.00704918058995E-02 
1296	 3.00386412587098E-02 
1297	 3.01706667067708E-02 
1298	 3.02542124765046E-02 
1299	 3.03607453465875E-02 
1300	 3.04184473262083E-02 
1301	 2.94450304150788E-02 
1302	 2.86588522039784E-02 
1303	 2.92386793647857E-02 
1304	 2.94953605922216E-02 
1305	 2.91965545695275E-02 
1306	 0.029109947481792 
1307	 2.91252536402692E-02 
1308	 2.90441322963486E-02 
1309	 2.87109747689271E-02 
1310	 2.84179518916183E-02 
1311	 2.82565329480622E-02 
1312	 2.77116631317988E-02 
1313	 2.67621938872281E-02 
1314	 2.65479188823067E-02 
1315	 2.65718174011024E-02 
1316	 2.64668156224103E-02 
1317	 2.67474445798496E-02 
1318	 2.66674926827163E-02 
1319	 2.62987412540342E-02 
1320	 2.61004307005095E-02 
1321	 2.59008064847901E-02 
1322	 2.57213091621649E-02 
1323	 2.49833302820859E-02 
1324	 2.46428617312796E-02 
1325	 0.025284083277064 
1326	 2.60265411014108E-02 
1327	 0.026551678412836 
1328	 2.65212399775731E-02 
1329	 2.59933155171045E-02 
1330	 2.49857252911495E-02 
1331	 2.34720267754996E-02 
1332	 2.26237158862723E-02 
1333	 2.19080258306679E-02 
1334	 2.23774973462473E-02 
1335	 2.28224598849091E-02 
1336	 2.64393390060415E-02 
1337	 2.70020247933798E-02 
1338	 2.53555685565425E-02 
1339	 2.39354346399489E-02 
1340	 2.18539602162147E-02 
1341	 2.05823295465936E-02 
1342	 1.73009953438238E-02 
1343	 1.65668204343845E-02 
1344	 1.85563364284421E-02 
1345	 2.06866461015766E-02 
1346	 2.79567926416422E-02 
1347	 3.37344838675513E-02 
1348	 4.09956049617322E-02 
1349	 4.49595237831843E-02 
1350	 3.93411303130355E-02 
1351	 3.88262603901691E-02 
1352	 4.56757410500135E-02 
1353	 4.09806375732322E-02 
1354	 3.86406965507117E-02 
1355	-6.61435620152351E-02 
1356	-7.00343843193242E-02 
1357	-0.097820598098253 
1358	-9.95715428760269E-02 
1359	 4.56836405829193E-03 
1360	-0.054791280766491 
1361	-0.028051192267205 
1362	 0.262346104883073 
1363	 0.357760949356673 
1364	 0.181516725431134 
1365	 0.012892825014827 
1366	-0.140565371071138 
1367	-7.15625548405853E-02 
1368	-0.100158705688479 
1369	-0.19159522146852 
1370	-6.74928101622749E-03 
1371	 0.541037861487918 
1372	 0.394106734883472 
1373	-0.260071578503427 
1374	-0.43381579768776 
1375	-23.3442914860909 
1376	-10.2945869376029 
1377	-0.283756563646619 
1378	 4.53655305982545E-03 
1379	 0.17202492640701 
1380	 0.203090441621035 
1381	 0.226678384122547 
1382	 0.317416932880814 
1383	 0.411058276237356 
1384	 0.146368938171085 
1385	-1.67669718695565 
1386	 13.2190322101689 
1387	-2.43249529736391 
1388	-1.91054228034073 
1389	-2.31826359028404 
1390	-1.6845017153758 
1391	-0.484691838763299 
1392	-0.254953700410943 
1393	-0.420277556422688 
1394	 6.64428139933081E-02 
1395	 0.801603612961747 
1396	-20.5435601698164 
1397	 6.73786860981706 
1398	-0.3728657008249 
1399	 0.809686877195161 
1400	 11.928165407743 
1401	 1.23170620775159 
1402	-1.3254740361912 
1403	-3.39022759158255E-02 
1404	-2.05509981804076 
1405	-1.62067867502827 
1406	-0.896960489834533 
1407	-0.586726845803305 
1408	-5.26024574173976E-02 
1409	-0.149883262386139 
1410	-0.168120711918906 
1411	-0.174552600783134 
1412	-0.536395961785794 
1413	-0.86758008677453 
1414	-3.01258686819359 
1415	-2.94780586417283 
1416	-0.581814349990113 
1417	-0.49580538976913 
1418	-0.177944428333217 
1419	 3.03435538739259E-02 
1420	-0.155446864891688 
1421	-0.231707839713482 
1422	-0.172822848001346 
1423	-7.37622146121206E-02 
1424	-2.51984389408016E-02 
1425	-2.93534756381362E-03 
1426	 0.141165220631072 
1427	 0.134108200199205 
1428	-6.3590822180555E-03 
1429	-4.47374562610756E-02 
1430	-9.30054103707375E-02 
1431	-9.12366458185578E-02 
1432	-4.00747510623758E-02 
1433	-1.15057958811805E-02 
1434	 9.68719142372762E-02 
1435	 0.105949740060829 
1436	 3.41398363156829E-02 
1437	-2.04632206452311E-02 
1438	-0.01436138240861 
1439	-3.88754706300933E-02 
1440	-4.08789820560956E-02 
1441	 7.97442613307745E-03 
1442	 1.10741271202722E-02 
1443	-2.13932926616066E-03 
1444	 1.93116894005007E-04 
1445	-5.54293132600517E-04 
1446	-2.00519747562241E-02 
1447	-4.08607471959146E-02 
1448	-3.68574950894699E-03 
1449	 3.03389207103117E-02 
1450	 2.06014235855593E-02 
1451	 2.41104319643843E-02 
1452	 3.43917589561773E-02 
1453	 2.82634098781269E-02 
1454	 2.42221281817749E-02 
1455	 0.035017610189914 
1456	 2.68457799506784E-02 
1457	-3.39167500125916E-03 
1458	-6.63285596407667E-03 
1459	 3.16262246438021E-03 
1460	-2.36924124765686E-03 
1461	-7.63212904489729E-03 
1462	-1.06828712245826E-02 
1463	-2.95599631874457E-02 
1464	-2.71186753445097E-02 
1465	 9.50828263009016E-04 
1466	 6.25917212565635E-03 
1467	 6.11147602737204E-03 
1468	 1.18311391521437E-02 
1469	 7.8540995735316E-03 
1470	 8.38392669210186E-03 
1471	 2.09353194003579E-02 
1472	 2.22752217906382E-02 
1473	 1.19366327343723E-02 
1474	 9.29583604065303E-03 
1475	 1.40492358673564E-02 
1476	 1.02410813055466E-02 
1477	-1.26972137683539E-03 
1478	-2.36708057017449E-03 
1479	-6.96495252059559E-04 
1480	-3.77392135799861E-03 
1481	-0.010763471278707 
1482	-2.80131147395654E-03 
1483	 1.55149717802928E-02 
1484	 1.62644395373789E-02 
1485	 0.016607596210483 
1486	 1.73160031328713E-02 
1487	 8.83725549603181E-03 
1488	 5.24345528607429E-03 
1489	 5.42033955866829E-03 
1490	 0.007321521219282 
1491	 1.00878704044285E-02 
1492	 9.40147110219016E-03 
1493	 9.72553172777279E-03 
1494	 1.03273159785564E-02 
1495	 7.66641551290421E-03 
1496	 7.50695427709001E-03 
1497	 0.010034436413694 
1498	 1.09663151841068E-02 
1499	 1.17950048690627E-02 
1500	 1.16934807356576E-02 
1501	 1.03149249817979E-02 
1502	 1.04922213215357E-02 
1503	 1.11925659537014E-02 
1504	 1.12459098866319E-02 
1505	 1.14859332958398E-02 
1506	 1.21018026288546E-02 
1507	 1.33628194834096E-02 
1508	 0.013207588345628 
1509	 1.22496509924943E-02 
1510	 1.31273813809558E-02 
1511	 1.35012842259213E-02 
1512	 1.28604486964105E-02 
1513	 1.31420997841078E-02 
1514	 1.41112483733949E-02 
1515	 1.44314003856982E-02 
1516	 1.42571274217676E-02 
1517	 1.38146435270307E-02 
1518	 1.35774257568926E-02 
1519	 1.40567857224585E-02 
1520	 1.40341476072096E-02 
1521	 0.013901164846859 
1522	 1.45118911136145E-02 
1523	 1.44348779744598E-02 
1524	 1.34494879432971E-02 
1525	 1.38232390546686E-02 
1526	 1.46354730572262E-02 
1527	 1.36485639636873E-02 
1528	 1.36061810349159E-02 
1529	 1.50519889370047E-02 
1530	 1.50715821164288E-02 
1531	 1.52273888342605E-02 
1532	 1.57503105102699E-02 
1533	 1.51658026629644E-02 
1534	 1.54114147433603E-02 
1535	 1.55241949040207E-02 
1536	 1.46782130645522E-02 
1537	 1.45849034284969E-02 
1538	 1.45870478778267E-02 
1539	 0.014538165228325 
1540	 1.48300867485672E-02 
1541	 1.55195384346278E-02 
1542	 1.57539521712104E-02 
1543	 1.52560325738766E-02 
1544	 1.57248481226487E-02 
1545	 1.64095171079944E-02 
1546	 1.60021844205183E-02 
1547	 1.59061022041941E-02 
1548	 1.66663260656109E-02 
1549	 1.66395967425371E-02 
1550	 1.64922725402044E-02 
1551	 1.69088267533255E-02 
1552	 0.016801783676311 
1553	 1.66429819553732E-02 
1554	 1.67435641653893E-02 
1555	 1.71355608958657E-02 
1556	 1.75598828662153E-02 
1557	 1.73491573142728E-02 
1558	 1.68778860624689E-02 
1559	 1.64852140373956E-02 
1560	 1.65212173026825E-02 
1561	 1.71267199538679E-02 
1562	 1.71801368019725E-02 
1563	 1.72463230416507E-02 
1564	 1.77659949513132E-02 
1565	 1.71196304885378E-02 
1566	 1.63328876658768E-02 
1567	 0.016058521088883 
1568	 1.55073504333335E-02 
1569	 1.65965541114808E-02 
1570	 1.84870266441113E-02 
1571	 1.82995599204115E-02 
1572	 1.82613761068594E-02 
1573	 1.91866945287424E-02 
1574	 1.86811380211704E-02 
1575	 1.81729485075927E-02 
1576	 0.019062589899119 
1577	 1.92229763639109E-02 
1578	 1.84402543614736E-02 
1579	 1.81857435598379E-02 
1580	 1.83238627334301E-02 
1581	 1.88400558553039E-02 
1582	 1.93459391751019E-02 
1583	 1.98689064359047E-02 
1584	 2.05907104816311E-02 
1585	 2.04130391570507E-02 
1586	 1.95906977471813E-02 
1587	 1.93385429001355E-02 
1588	 1.94677167330295E-02 
1589	 1.93538315660161E-02 
1590	 0.01952845167106 
1591	 1.98581157387319E-02 
1592	 2.01900169136501E-02 
1593	 2.04454287160839E-02 
1594	 2.02546674352426E-02 
1595	 2.08036384342102E-02 
1596	 2.09224187192007E-02 
1597	 0.019882917346082 
1598	 1.97537253175281E-02 
1599	 1.99104850065027E-02 
1600	 1.94034097868517E-02 
1601	 1.89148645276324E-02 
1602	 1.96597450271265E-02 
1603	 0.020812888661064 
1604	 2.03973050079659E-02 
1605	 1.99880149285009E-02 
1606	 2.01874043927558E-02 
1607	 1.95519301231715E-02 
1608	 1.92480902304228E-02 
1609	 0.020191704931684 
1610	 2.09486891934081E-02 
1611	 0.020727783426283 
1612	 2.06640622463444E-02 
1613	 2.12189304724864E-02 
1614	 2.09439512333867E-02 
1615	 2.02769689672235E-02 
1616	 2.03472224977934E-02 
1617	 2.03963317868747E-02 
1618	 2.02234019227411E-02 
1619	 2.03877401492185E-02 
1620	 2.07327424292056E-02 
1621	 2.06130318449711E-02 
1622	 2.03609510545368E-02 
1623	 2.00780056082147E-02 
1624	 1.98765111959109E-02 
1625	 2.02688771124876E-02 
1626	 2.01145764798925E-02 
1627	 1.95028711153522E-02 
1628	 2.01620897889834E-02 
1629	 2.09617893100389E-02 
1630	 2.07677295897234E-02 
1631	 2.08359541843066E-02 
1632	 2.07957177800926E-02 
1633	 1.98875330376417E-02 
1634	 1.96155472633959E-02 
1635	 2.04219023250655E-02 
1636	 2.07081585373662E-02 
1637	 2.02576545425371E-02 
1638	 2.02673710080682E-02 
1639	 2.08802289388562E-02 
1640	 2.13614827127647E-02 
1641	 2.16717950553444E-02 
1642	 2.13751978420535E-02 
1643	 2.12340747250882E-02 
1644	 2.13603759996778E-02 
1645	 0.020922750234218 
1646	 0.021138768469464 
1647	 2.07879726878044E-02 
1648	 1.97970239763775E-02 
1649	 2.00455040239394E-02 
1650	 2.07006377496881E-02 
1651	 2.06090332071522E-02 
1652	 2.01771883644845E-02 
1653	 2.07270396854703E-02 
1654	 2.10197259980709E-02 
1655	 2.13405574104308E-02 
1656	 2.14237652162601E-02 
1657	 2.11123173773686E-02 
1658	 2.09073442084836E-02 
1659	 2.08855038493776E-02 
1660	 2.12079584976113E-02 
1661	 2.18991690427364E-02 
1662	 2.16383498089628E-02 
1663	 2.04832200558044E-02 
1664	 0.020572022771978 
1665	 2.10821129362723E-02 
1666	 2.10070617552956E-02 
1667	 0.021598923528975 
1668	 2.09983210162878E-02 
1669	 2.08340574435435E-02 
1670	 2.10065106621452E-02 
1671	 2.05103432666713E-02 
1672	 0.020003313168704 
1673	 1.96815503021742E-02 
1674	 1.99321816772438E-02 
1675	 2.11529555620492E-02 
1676	 2.22402431076286E-02 
1677	 2.24981900464107E-02 
1678	 2.21767711396938E-02 
1679	 0.021355982519483 
1680	 2.09941182277002E-02 
1681	 2.10918444104854E-02 
1682	 2.07265364976987E-02 
1683	 2.07600134589251E-02 
1684	 0.021741309482481 
1685	 2.23136866151269E-02 
1686	 2.17288633393724E-02 
1687	 2.18255423245716E-02 
1688	 2.16562084424194E-02 
1689	 2.03040027449021E-02 
1690	 0.020652199389972 
1691	 2.14726997268394E-02 
1692	 2.10563831527342E-02 
1693	 2.10282775817069E-02 
1694	 2.14649687673864E-02 
1695	 2.08786958014414E-02 
1696	 1.99961474285973E-02 
1697	 2.03964743111044E-02 
1698	 2.03262989396254E-02 
1699	 2.00556151431831E-02 
1700	 0.020867785026754 
1701	 2.09338710976522E-02 
1702	 2.05037945401356E-02 
1703	 2.09924966139456E-02 
1704	 2.12028635906201E-02 
1705	 2.07935004080823E-02 
1706	 2.09829610091304E-02 
1707	 2.08735122261966E-02 
1708	 2.02828433129609E-02 
1709	 2.02608884046118E-02 
1710	 2.06005592803829E-02 
1711	 2.09288988258155E-02 
1712	 2.15873208076403E-02 
1713	 0.020637900992579 
1714	 2.04290667624678E-02 
1715	 2.07224617536866E-02 
1716	 2.03938343230734E-02 
1717	 2.09562547175713E-02 
1718	 2.19256256703124E-02 
1719	 2.08715418131319E-02 
1720	 2.04070374539412E-02 
1721	 2.09808872351233E-02 
1722	 2.05806748411176E-02 
1723	 2.00359811957916E-02 
1724	 2.01991343263118E-02 
1725	 2.07403488639638E-02 
1726	 2.08999624862694E-02 
1727	 2.02700566472746E-02 
1728	 1.99531532035127E-02 
1729	 1.88384170104878E-02 
1730	 1.84782231101641E-02 
1731	 1.95745837121073E-02 
1732	 0.018738981191666 
1733	 1.92509614570175E-02 
1734	 2.11377753497856E-02 
1735	 1.97762254429448E-02 
1736	 1.87768150559321E-02 
1737	 2.00763454754058E-02 
1738	 1.91512771121288E-02 
1739	 1.83872115536127E-02 
1740	 2.02704869225617E-02 
1741	 1.94985183189619E-02 
1742	 0.016294537891524 
1743	 1.70989367787749E-02 
1744	 1.91072011296154E-02 
1745	 1.91699007113095E-02 
1746	 1.93206135509856E-02 
1747	 1.86599697227884E-02 
1748	 1.50673144346049E-02 
1749	 1.44761014447102E-02 
1750	 0.01632280153031 
1751	 1.72999649843315E-02 
1752	 2.02689787470783E-02 
1753	 1.94620639821692E-02 
1754	 1.52269171723347E-02 
1755	 1.53495572568824E-02 
1756	 1.47596416733826E-02 
1757	 1.58837277574081E-02 
1758	 1.84831176734643E-02 
1759	 1.79176755080895E-02 
1760	 1.81487600108367E-02 
1761	 1.93588339433487E-02 
1762	 1.88355181483803E-02 
1763	 1.78951248421532E-02 
1764	 1.69983063356032E-02 
1765	 1.61135801531328E-02 
1766	 1.72123033384219E-02 
1767	 1.83543179277061E-02 
1768	 1.85414766490693E-02 
1769	 1.75160432762493E-02 
1770	 1.46027266970072E-02 
1771	 0.014741315226763 
1772	 0.014675278839006 
1773	 0.015427779882311 
1774	 2.11532700619543E-02 
1775	 1.72805245638224E-02 
1776	 1.50865466996267E-02 
1777	 9.1862706851061E-03 
1778	 8.36185542569937E-03 
1779	 1.62658796226728E-02 
1780	 1.81452963207683E-02 
1781	 1.96197045765263E-02 
1782	 2.03021912681348E-02 
1783	 1.22810845419229E-02 
1784	 1.17312021847498E-02 
1785	 2.21040686227434E-02 
1786	 2.23358303199755E-02 
1787	 1.41211059085969E-02 
1788	 1.68120132282497E-02 
1789	 2.24878361313121E-02 
1790	 2.30722427595352E-02 
1791	 0.031885650902882 
1792	 2.46790784247051E-02 
1793	-1.37795785709976E-03 
1794	 1.12489384348325E-04 
1795	 8.35581234532524E-03 
1796	-5.03263308221899E-03 
1797	 8.42803250589094E-03 
1798	 8.04003787485522E-03 
1799	-9.67884201408502E-03 
1800	 2.51126891912413E-02 
1801	 3.68986682364503E-02 
1802	 3.48383533054002E-02 
1803	 3.06347423087963E-02 
1804	-1.43435282941767E-02 
1805	-3.02195162012918E-02 
1806	-4.15896784501553E-02 
1807	-1.21221139933237E-02 
1808	 0.182713273611862 
1809	 0.305707704253599 
1810	 0.534804891492086 
1811	 0.389378420839043 
1812	-0.513172309883859 
1813	-0.848429402012792 
1814	-1.31343584012371 
1815	-1.40689320669433 
1816	-0.519091562423485 
1817	 0.655243104866762 
1818	-5.2246380466339 
1819	-0.306925650475876 
1820	-0.387506271069283 
1821	-2.26624511611871E-02 
1822	-9.64570866951163E-02 
1823	-0.152613554813678 
1824	-0.264380086372082 
1825	-1.23198694220401 
1826	-4.37929398977896 
1827	 2.7989714416538 
1828	 1.56194906184586 
1829	 0.716299189757032 
1830	-0.770899780883295 
1831	-4.34201585205503 
1832	-1.58074950647557 
1833	-0.408375589933393 
1834	-0.294162760508105 
1835	-0.590578025713644 
1836	-0.511570403167725 
1837	-0.063925016177328 
1838	 0.604063862742115 
1839	-9.21793714306244 
1840	 6.56536804485533 
1841	 1.11503605002585 
1842	 7.73966735154763E-02 
1843	-1.48137275646122 
1844	 0.170054236181346 
1845	 0.554335439217678 
1846	 1.7027972755075 
1847	 1.91821200250091 
1848	 2.34379691445076 
1849	-4.97279022821602 
1850	 0.350738726353432 
1851	 0.949978650018585 
1852	 0.717425654059206 
1853	 0.634282908552147 
1854	 0.516113899748801 
1855	 4.57464117509335E-02 
1856	-0.15810304093652 
1857	-0.378466876018381 
1858	-0.447276793095188 
1859	-0.841418367115149 
1860	-2.02299016630809 
1861	-0.470225769967564 
1862	-0.150784449180702 
1863	 0.205440059263285 
1864	 0.412020272298845 
1865	 0.488632412034287 
1866	 0.521589608807532 
1867	 0.410810694791673 
1868	 0.145177496322957 
1869	 6.36075590094971E-02 
1870	-3.57501514448565E-02 
1871	-8.96041192300735E-02 
1872	-0.277244599332566 
1873	-0.683774096975475 
1874	-5.63686604506138 
1875	 4.76854864858425 
1876	 2.23241787943453 
1877	-0.591184423619587 
1878	 0.617963886367325 
1879	-0.475053750888201 
1880	-0.451052004452444 
1881	-0.640599629028348 
1882	-0.624899361989508 
1883	-0.79803075196339 
1884	-2.32996761228246 
1885	-2.20571742632422 
1886	-3.587724486685 
1887	-5.19032119783249 
1888	-5.23971260163057 
1889	-3.62857137016505 
1890	-1.56875990919369 
1891	-1.12230947259377 
1892	-2.23415390728185 
1893	-1.12753366153699 
1894	-6.13281124545355E-03 
1895	-3.09186707252594 
1896	-1.34307428226059 
1897	-1.84293000066604 
1898	-1.56378722787775 
1899	-0.30220787421973 
1900	-6.95105142554462E-02 
1901	-4.54853890738917 
1902	-1.38248729898763 
1903	 0.394995046314709 
1904	 1.02041728334089 
1905	 2.59471029076078 
1906	 2.54627419789756 
1907	 0.118732724485193 
1908	 0.436158113726454 
1909	 0.868164152022914 
1910	 0.24701289792582 
1911	-5.24487269420471 
1912	 1.54629932721456 
1913	 0.296082332257825 
1914	-1.39478037665576 
1915	-1.75325086596834 
1916	-2.18983782536826 
1917	-2.26312263578762 
1918	-110.345623029374 
1919	 1.96354107875734 
1920	-14.8594174097342 
1921	-0.576223318020674 
1922	-0.375357896718009 
1923	-0.293970167340193 
1924	-0.213204313289281 
1925	-0.200212855065953 
1926	-0.331893883176683 
1927	-0.731775655500802 
1928	 14.1702532087073 
1929	 1.54228744651803 
1930	 0.998977973419395 
1931	 1.36935269449509 
1932	 8.2584506036789 
1933	-0.805231338166793 
1934	 0.350690192549966 
1935	 1.41764556861935 
1936	-31.2767912480415 
1937	 72.0418697858072 
1938	-3.98935046292967 
1939	-7.66683418062327 
1940	 3.77913195591428 
1941	 0.629303765876474 
1942	 0.264253447537322 
1943	 0.353986880421913 
1944	-1.72615221614961E-02 
1945	-1.00210853728367 
1946	-1.39087755859585 
1947	 0.720521082408703 
1948	 2.40068738649514 
1949	 1.88231625233409 
1950	 1.36096946955243 
1951	 1.19010587700095 
1952	 0.542668868833671 
1953	-1.00123750622142 
1954	-2.11524901824073 
1955	-1.47892361689019 
1956	-1.40949923963894 
1957	-0.698656808689918 
1958	 6.42884160933549E-03 
1959	 0.237038217163882 
1960	 0.365755328250008 
1961	 0.316707021050598 
1962	 0.185182654492296 
1963	 2.48086913836194E-02 
1964	-2.43943750238846E-02 
1965	-7.00261297603635E-02 
1966	-0.084800879285614 
1967	-7.57041735562144E-02 
1968	-7.96878190607035E-03 
1969	 5.3439383130103E-03 
1970	 1.83449665549828E-02 
1971	 5.91854378799191E-02 
1972	 7.30537275354628E-02 
1973	 0.076213646613196 
1974	 0.062073169418229 
1975	 3.40024175307666E-02 
1976	 8.03545804531829E-03 
1977	-1.90173058124964E-03 
1978	-5.3420040335521E-03 
1979	-2.54670333637166E-04 
1980	 1.66733763915315E-02 
1981	 3.51330814890859E-02 
1982	 3.10438041591194E-02 
1983	 2.87472951488888E-02 
1984	 1.04904990071679E-02 
1985	-1.79141815369528E-02 
1986	-2.41068740528981E-02 
1987	-2.57043778167477E-02 
1988	-2.67981709218581E-02 
1989	-3.55230303045474E-02 
1990	-2.75832610408418E-02 
1991	-1.44795953731307E-02 
1992	-0.018319398579574 
1993	 4.71683469708059E-03 
1994	 2.00224796431712E-02 
1995	 2.99826878640394E-02 
1996	 3.44338499410443E-02 
1997	 5.93856491736744E-02 
1998	 5.95318693301396E-02 
1999	 6.79397199543407E-02 
2000	 0.050813310111104 
2001	 2.23177541830443E-02 
2002	 9.343157250237E-05 
2003	-9.22779280368459E-03 
2004	 3.99168809539383E-02 
2005	 4.72531347209955E-02 
2006	 7.50692046663444E-02 
2007	 7.14324216828976E-02 
2008	 4.11491899048173E-03 
2009	-7.24506230422573E-03 
2010	 6.69574788820422E-03 
2011	 1.77481954447505E-02 
2012	 5.26763192353289E-02 
2013	 8.18170452391816E-02 
2014	 5.61525436994693E-02 
2015	 2.26358337178289E-02 
2016	-3.0797157884572E-03 
2017	-3.09089856183709E-02 
2018	-3.27876408129826E-02 
2019	-1.74775351402934E-02 
2020	-6.00070474911362E-03 
2021	 8.06903710647225E-03 
2022	 1.44841545200111E-02 
2023	 0.017033271110534 
2024	 1.91150846798701E-02 
2025	 1.44963082264992E-02 
2026	 1.29864526504074E-02 
2027	 1.31854139810403E-02 
2028	 1.30948451240213E-02 
2029	 1.77391480011883E-02 
2030	 1.80400903741465E-02 
2031	 2.20417554040093E-02 
2032	 2.42037102807431E-02 
2033	 1.22956286597577E-02 
2034	 8.13490522344329E-03 
2035	 9.85309345297314E-03 
2036	 1.03820978295908E-02 
2037	 1.66283111535637E-02 
2038	 1.55027448027705E-02 
2039	 1.45690904639282E-02 
2040	 7.53852727182221E-03 
2041	 4.6141346453631E-03 
2042	 6.38993826185572E-03 
2043	 4.95075863914514E-03 
2044	-2.43419594109383E-03 
2045	-2.30612188694858E-03 
2046	 9.73693546817317E-03 
2047	 1.48186603164802E-02 
2048	 1.93586079379759E-02 
2049	 2.60822307043302E-02 
2050	 2.08466594138885E-02 
2051	 1.64109023805003E-02 
2052	 2.19377076959066E-02 
2053	 2.53228653870092E-02 
2054	 2.41962428269687E-02 
2055	 1.53327685470176E-02 
2056	 9.3459430370467E-03 
2057	-2.68384905432018E-03 
2058	-6.6321169042477E-03 
2059	-2.92160523600817E-03 
2060	-1.83856998949315E-03 
2061	 5.19376626015687E-04 
2062	 4.03869419442413E-03 
2063	 5.75412605139151E-03 
2064	 2.76745757198772E-03 
2065	-1.04129909271184E-03 
2066	-3.84516185227126E-03 
2067	-5.64247643516633E-03 
2068	-7.70627436776578E-03 
2069	 3.79372717694754E-03 
2070	 0.012433067472468 
2071	 9.16246275679435E-03 
2072	 7.0214186688825E-03 
2073	 6.70853238826511E-03 
2074	 1.14855650861579E-03 
2075	-2.32719838867076E-04 
2076	 3.15264806661158E-03 
2077	 7.76308496956713E-03 
2078	 0.01142362671715 
2079	 1.44944062320821E-02 
2080	 2.43192888300104E-02 
2081	 2.48227764825207E-02 
2082	 1.59960149208025E-02 
2083	 1.04690438087107E-02 
2084	 4.92534939323062E-03 
2085	 2.22597719335189E-03 
2086	 2.57918633071894E-03 
2087	 4.45480533481075E-03 
2088	 3.21180344223595E-03 
2089	 8.36381227836169E-04 
2090	 5.45468505057978E-03 
2091	 1.08809133585742E-02 
2092	 1.24567738941166E-02 
2093	 1.50548788201909E-02 
2094	 1.33968384571741E-02 
2095	 4.12732148937013E-03 
2096	 1.18103663522727E-03 
2097	 1.07741900410637E-03 
2098	 2.977761290682E-04 
2099	 6.3947495355312E-04 
2100	 1.26968675262801E-03 
2101	 4.02800070622708E-03 
2102	 3.21635955226776E-03 
2103	 2.05914010308311E-03 
2104	 1.1647473700946E-03 
2105	 3.75683807104745E-04 
2106	-2.82953761505794E-04 
2107	-1.49719439088263E-03 
2108	 3.84071093981247E-03 
2109	 9.12306145591031E-03 
2110	 1.17611068415328E-02 
2111	 2.02643897045292E-02 
2112	 2.53723773951979E-02 
2113	 2.62152254174235E-02 
2114	 2.10110973543324E-02 
2115	 0.018836894562081 
2116	 1.35097923959119E-02 
2117	 1.18242442017134E-02 
2118	 0.014822869863893 
2119	 1.33780117672558E-02 
2120	 9.95267989725534E-03 
2121	 8.31496919494946E-03 
2122	 5.39566908145303E-03 
2123	 4.31053046418919E-03 
2124	 7.47547762664729E-03 
2125	 8.45400401855561E-03 
2126	 8.98360021193963E-03 
2127	 9.43625889963582E-03 
2128	 6.66833316253897E-03 
2129	 1.57577056665471E-03 
2130	-2.054189091541E-04 
2131	-2.74344629813209E-03 
2132	-4.33499535966581E-03 
2133	-3.1698507463499E-04 
2134	 1.31981225074593E-03 
2135	 1.14489570201758E-03 
2136	 2.26434458245012E-03 
2137	 4.89715291366256E-03 
2138	 7.72438009469944E-03 
2139	 1.29167789133636E-02 
2140	 1.40017198701042E-02 
2141	 1.28398370099866E-02 
2142	 1.12400807092916E-02 
2143	 6.76734762480662E-03 
2144	 2.17146571417073E-03 
2145	-2.74102517943724E-04 
2146	-3.03811974481058E-04 
2147	-1.78372707442889E-03 
2148	-4.14609262180313E-03 
2149	-2.37207229259568E-03 
2150	-1.48546792233926E-03 
2151	-4.10448231092217E-03 
2152	-2.13480941300173E-03 
2153	-9.28627213616246E-04 
2154	 1.41592917468616E-04 
2155	 5.54047071864005E-03 
2156	 9.00344332160673E-03 
2157	 8.81198375230454E-03 
2158	 2.25867416285272E-03 
2159	 2.63088931628931E-03 
2160	 4.70653327951872E-03 
2161	 5.27045629472173E-03 
2162	 9.98630447765685E-03 
2163	 0.011392846887788 
2164	 8.61169586993505E-03 
2165	 7.36248512066858E-03 
2166	 6.05912172773411E-03 
2167	 6.1650484001782E-03 
2168	 5.46784196081438E-03 
2169	 5.55628482962399E-03 
2170	 6.0941280914111E-03 
2171	 0.011775743570234 
2172	 1.33296114766917E-02 
2173	 0.014474662960027 
2174	 1.39089387291064E-02 
2175	 8.34014616833772E-03 
2176	 5.37514430973218E-03 
2177	 0.005458752178063 
2178	 7.5154828126699E-03 
2179	 8.67118745980574E-03 
2180	 1.55460505307972E-02 
2181	 0.02099163281935 
2182	 1.13918798205555E-02 
2183	 7.4088404260049E-03 
2184	 6.88693693036474E-03 
2185	 2.23531271193384E-03 
2186	 1.47736274900814E-03 
2187	 1.24214632715441E-02 
2188	 1.53803468686753E-02 
2189	 1.29452115969447E-02 
2190	 1.04866372614996E-02 
2191	 8.89591911260747E-03 
2192	 8.37197686101192E-03 
2193	 2.61539402613651E-03 
2194	 2.36571476473943E-03 
2195	 7.22940428976025E-03 
2196	 1.07503181929561E-02 
2197	 1.71587194891442E-02 
2198	 2.00388824174548E-02 
2199	 2.13467282274707E-02 
2200	 2.55037148687764E-02 
2201	 2.14002269279044E-02 
2202	 1.52450259255957E-02 
2203	 1.76225041640715E-02 
2204	 1.56138008584447E-02 
2205	 1.25784369843133E-02 
2206	 1.43649398751113E-02 
2207	 1.46486846930004E-02 
2208	 1.38523891326622E-02 
2209	 1.25672502833071E-02 
2210	 1.10500391067182E-02 
2211	 6.61053276427752E-03 
2212	-1.91858312991146E-04 
2213	-3.65184873672911E-03 
2214	 2.43901176757477E-03 
2215	 9.3312625801398E-03 
2216	 1.07163688041999E-02 
2217	 1.35881115395067E-02 
2218	 1.90070891639837E-02 
2219	 1.78843169815743E-02 
2220	 1.02869464230292E-02 
2221	 1.16125324339086E-02 
2222	 1.61940693427959E-02 
2223	 1.65241573719359E-02 
2224	 2.05319030771933E-02 
2225	 1.95447834542327E-02 
2226	 8.59387298999561E-03 
2227	 4.07987728675967E-03 
2228	 3.02089456374149E-03 
2229	 3.38435718493739E-03 
2230	 9.0892156446156E-03 
2231	 9.64553345164566E-03 
2232	 9.15444695982418E-03 
2233	 5.20471450475824E-03 
2234	-5.34285457658256E-03 
2235	-1.40450204652337E-02 
2236	-1.09114673370266E-02 
2237	-2.37234508164832E-03 
2238	 5.23575096932693E-03 
2239	 1.76229969985679E-02 
2240	 1.61106519096355E-02 
2241	 6.61803683327196E-03 
2242	 7.11587014807143E-03 
2243	 2.44126453107711E-03 
2244	 2.64358504046724E-03 
2245	 7.16738960170124E-03 
2246	 3.71557627816763E-03 
2247	 5.65979533137794E-03 
2248	 1.71780143634923E-02 
2249	 2.20364189526295E-02 
2250	 2.38891146439935E-02 
2251	 2.92991163352698E-02 
2252	 2.62748872462786E-02 
2253	 0.028179359191203 
2254	 2.73873777223876E-02 
2255	 0.020529398941493 
2256	 2.02929477159935E-02 
2257	 1.57172457091683E-02 
2258	 2.02278643581672E-02 
2259	 2.85306824420018E-02 
2260	 2.86954608048935E-02 
2261	 2.09420199082456E-02 
2262	 2.16677366911119E-02 
2263	 0.024488744844848 
2264	 1.91842728280474E-02 
2265	 1.06376146979161E-02 
2266	 4.96013605413639E-03 
2267	-1.14485919379498E-02 
2268	-9.42613252465303E-03 
2269	 1.29300450643232E-02 
2270	 2.09373397160415E-02 
2271	 3.02373920416736E-02 
2272	 3.67157559021556E-02 
2273	 3.12558434393847E-02 
2274	 3.42922564729577E-02 
2275	 4.58510328293936E-02 
2276	 4.92037211262036E-02 
2277	 0.053721064196495 
2278	 5.38366095935903E-02 
2279	 4.32052182325678E-02 
2280	 3.81712394986776E-02 
2281	 2.94479345393247E-02 
2282	 3.38946571604432E-02 
2283	 3.71979830689961E-02 
2284	 3.74457107146594E-02 
2285	 3.49594488044863E-02 
2286	 2.48312786493343E-02 
2287	 2.13884495855186E-02 
2288	 1.83119644414711E-02 
2289	 1.04116425840651E-02 
2290	-3.14162794162913E-03 
2291	-1.04714154397569E-02 
2292	-0.020686384272827 
2293	-2.49709105237485E-02 
2294	-5.28306667764055E-03 
2295	-1.04630768456552E-02 
2296	-1.83180078497431E-02 
2297	-7.64862614592572E-03 
2298	-1.30847442599482E-02 
2299	-1.59645939619926E-02 
2300	-5.58624961955675E-03 
2301	 4.52402790837092E-04 
2302	-8.17892615562005E-03 
2303	-1.13988614131255E-02 
2304	-1.25939533061811E-02 
2305	-3.36263422989552E-02 
2306	-5.23109515470776E-02 
2307	-4.94177501886233E-02 
2308	-5.19605666152666E-02 
2309	-5.24104527766824E-02 
2310	-3.34450065942094E-02 
2311	-3.00650831603311E-02 
2312	-3.14652306028252E-02 
2313	-2.33781226041008E-02 
2314	-0.021932658716263 
2315	-2.10330121953145E-02 
2316	-3.42183368101651E-02 
2317	-5.56981945393403E-02 
2318	-0.052966188791064 
2319	-5.30492726144302E-02 
2320	-5.70509137217442E-02 
2321	-3.42076500657935E-02 
2322	-3.27288176461478E-02 
2323	-4.99404032441196E-02 
2324	-2.71546872410627E-02 
2325	-1.81261443677488E-02 
2326	-4.09464395269466E-02 
2327	-1.69860416039463E-02 
2328	 9.5519912637406E-03 
2329	 0.019449287043216 
2330	 5.75887784031551E-02 
2331	 5.52786847651863E-02 
2332	 3.37392961901219E-02 
2333	 3.05722395335564E-02 
2334	 0.019627767167372 
2335	 1.03910997561219E-02 
2336	-1.93654436867737E-02 
2337	-7.22874083091911E-02 
2338	-0.155463978130514 
2339	-0.207459627052369 
2340	-0.213716618725394 
2341	-0.201825819658239 
2342	-0.140311908055565 
2343	-0.105945085637683 
2344	-9.75612743202991E-02 
2345	-6.19433557336582E-02 
2346	-2.92549977171689E-02 
2347	 0.016878283031967 
2348	 3.29947121635075E-02 
2349	 1.12398301568748E-02 
2350	 5.90583616158568E-04 
2351	-4.89217613815931E-02 
2352	-3.98296958163058E-02 
2353	 1.76224242657512E-02 
2354	 4.12783573202137E-02 
2355	 0.12721819910448 
2356	 0.236159394497798 
2357	 0.269089713567039 
2358	 0.243972226243997 
2359	 0.183170616805283 
2360	 0.116892102312339 
2361	 6.08449241841406E-02 
2362	 0.131717583813815 
2363	 0.205404496319119 
2364	 0.197942049136756 
2365	 0.209424962361095 
2366	 0.184983630451818 
2367	 0.139645899492531 
2368	 0.08588591466614 
2369	 1.80892854868522E-02 
2370	-0.078225987199743 
2371	-0.229382670619924 
2372	-0.366731542635519 
2373	-0.38478264555168 
2374	-0.325927152055676 
2375	-0.176151893107062 
2376	 3.74426307106314E-02 
2377	 0.206582835600651 
2378	 0.339479268361604 
2379	 0.351387089168015 
2380	 0.370503160413548 
2381	 0.378187224648888 
2382	 9.32767494260727E-03 
2383	-1.76435592024538E-02 
2384	-5.01181327552242E-02 
2385	-0.218313585508833 
2386	-7.94993060180857E-02 
2387	 0.156944542330764 
2388	 0.251083457633514 
2389	 0.460371961177984 
2390	 0.724026286306558 
2391	 0.566700165590781 
2392	 0.512784424055332 
2393	 0.52869702836392 
2394	 0.250262268728244 
2395	 9.13654500973489E-02 
2396	-0.051755574788465 
2397	-0.171732230684633 
2398	-0.247512170696719 
2399	-0.493015915512112 
2400	-0.59588083803318 
2401	-0.510423352515422 
2402	-0.500993610234914 
2403	-0.345494803986603 
2404	-0.273752035211449 
2405	-6.03046245418013E-03 
2406	 0.290235684560062 
2407	 0.89070083334091 
2408	 0.787012214430227 
2409	-1.86118707567143 
2410	-5.7729737296318 
2411	-0.959892728978303 
2412	-1.63539669644159 
2413	-1.77261139856495 
2414	-1.69352730154961 
2415	-1.94256903804035 
2416	-0.972304104345216 
2417	-0.756164783437882 
2418	-0.752586383928848 
2419	 0.156315582118622 
2420	 5.18259752023377 
2421	 1.38438953726041 
2422	 0.508566282671604 
2423	 1.00486905315117 
2424	 1.47678212577989 
2425	 0.435033716376243 
2426	 3.27295618379067 
2427	 0.260140946742596 
2428	 0.233440239198881 
2429	-0.491083539636253 
2430	-2.56746974422177 
2431	-2.47229417123913 
2432	-2.68172217454594 
2433	 26.8527395177383 
2434	-0.324860156844323 
2435	-0.398133113724362 
2436	-0.342440324787685 
2437	-0.170476893024035 
2438	 0.297022711635665 
2439	-4.47520756061197E-02 
2440	-0.510983249908438 
2441	-0.19733588862507 
2442	-0.5379539330467 
2443	-0.757682319295247 
2444	-0.637521507084468 
2445	-0.565480669269282 
2446	-0.474712270924569 
2447	-0.724155506325805 
2448	-0.740150618875941 
2449	-1.18298252884985 
2450	-1.15593559716926 
2451	 0.252031928874792 
2452	 1.01392792295875 
2453	 1.43337256952072 
2454	 3.03627772340614 
2455	 0.938986953209177 
2456	 0.700788394238839 
2457	 0.769224176241599 
2458	 0.616658998398331 
2459	 0.696206615160077 
2460	 0.821725547566423 
2461	 0.29173632355259 
2462	-2.63450378516338E-02 
2463	 0.694304771498057 
2464	 0.992019731458733 
2465	 2.5896039534231 
2466	 0.741295243941706 
2467	-0.234134594920457 
2468	-0.817268762050954 
2469	-0.549374230400527 
2470	-7.73077907045945E-02 
2471	 0.123929695446349 
2472	-1.17281219813599E-02 
2473	-4.30919218969982E-02 
2474	 3.04969019348404E-02 
2475	-0.258662760498166 
2476	 0.444392596311246 
2477	 2.91855203390235 
2478	-0.531186116904961 
2479	 0.178827747008739 
2480	-0.889446866495217 
2481	 1.25975870119078 
2482	 0.53942813058737 
2483	 0.17742739818296 
2484	-0.125029728989251 
2485	-0.467935623860082 
2486	-0.133227578938645 
2487	 1.00027158939069 
2488	 2.19263054306516 
2489	 1.58185588452464 
2490	 0.963343435820689 
2491	 0.759599542600998 
2492	 0.63857866293878 
2493	 1.19840139706366 
2494	 1.80777362179451 
2495	 2.26176627789937 
2496	 4.50568462319526 
2497	 2.70095966343152 
2498	 2.54789411985007 
2499	-4.19050446589332 
2500	-0.577815291103552 
