Wavelength	rt0704rt00003.asd
350	 4.92940732346513E-02 
351	 4.93587632537258E-02 
352	 5.03615503003446E-02 
353	 5.10095324331659E-02 
354	 5.06836058617227E-02 
355	 5.10578221569889E-02 
356	 5.13094267052893E-02 
357	 5.15888614907197E-02 
358	 5.21548531203322E-02 
359	 5.24459752137552E-02 
360	 5.30565547297833E-02 
361	 5.39661059390763E-02 
362	 5.46912912450248E-02 
363	 5.48271039338446E-02 
364	 5.49050417208758E-02 
365	 5.53153434676631E-02 
366	 5.60642508095566E-02 
367	 5.63818604787656E-02 
368	 5.66382722916798E-02 
369	 5.72361272842584E-02 
370	 5.75007761639018E-02 
371	 5.79530365379841E-02 
372	 5.85080428773864E-02 
373	 5.88136525157776E-02 
374	 5.96066805585159E-02 
375	 6.01860051122221E-02 
376	 6.03202619775722E-02 
377	 6.06201643694693E-02 
378	 6.13536436676355E-02 
379	 6.21046926845435E-02 
380	 6.24892610732701E-02 
381	 6.27997202037877E-02 
382	 6.31577265502798E-02 
383	 0.063518917550604 
384	 6.37558633402921E-02 
385	 6.38527779830135E-02 
386	 6.40185390457253E-02 
387	 6.43973231586838E-02 
388	 6.50120675353447E-02 
389	 6.52144530911981E-02 
390	 6.50230303382276E-02 
391	 6.47224575141168E-02 
392	 6.48300691691518E-02 
393	 6.50057506440765E-02 
394	 6.51017353009113E-02 
395	 6.50793288397675E-02 
396	 6.50168759163479E-02 
397	 6.50350791125862E-02 
398	 6.51045445923918E-02 
399	 6.50763702218151E-02 
400	 6.49800455258483E-02 
401	 6.48135636701412E-02 
402	 6.46243756440933E-02 
403	 6.46116503895616E-02 
404	 6.43823201725865E-02 
405	 0.063946767819593 
406	 6.34875690202638E-02 
407	 6.31505430103748E-02 
408	 6.29565455783532E-02 
409	 6.28397894577544E-02 
410	 6.26647061645223E-02 
411	 6.22806570281555E-02 
412	 6.17766702350294E-02 
413	 6.13255251202154E-02 
414	 6.12134835212959E-02 
415	 6.09634741582915E-02 
416	 6.05567093783595E-02 
417	 6.01693575276096E-02 
418	 5.98522088569835E-02 
419	 5.96581049793842E-02 
420	 5.95534492971123E-02 
421	 5.94146954628433E-02 
422	 5.90145518298261E-02 
423	 5.86483079772554E-02 
424	 0.058586510089886 
425	 5.87448733330756E-02 
426	 5.87659293091898E-02 
427	 5.86914738810256E-02 
428	 0.058735478192798 
429	 5.87186317523732E-02 
430	 5.87387324446936E-02 
431	 5.88256801789597E-02 
432	 5.89023729309952E-02 
433	 5.91077127434911E-02 
434	 5.93268380761507E-02 
435	 0.059431937119583 
436	 5.94176978548389E-02 
437	 5.93741650133121E-02 
438	 0.059414416389659 
439	 5.96105799935618E-02 
440	 5.96164155413784E-02 
441	 5.95517631869474E-02 
442	 5.95298134723197E-02 
443	 5.95743870097535E-02 
444	 5.95854320695649E-02 
445	 0.059563543503299 
446	 5.95427068107175E-02 
447	 5.95706498974332E-02 
448	 5.95382786692618E-02 
449	 5.94142499581489E-02 
450	 5.92353116865502E-02 
451	 5.90713553542821E-02 
452	 5.89348028370306E-02 
453	 5.88134206901476E-02 
454	 0.058672243675781 
455	 5.85049760883087E-02 
456	 5.82997927115309E-02 
457	 5.80676971593557E-02 
458	 5.79356091034409E-02 
459	 5.77550460579342E-02 
460	 5.74818950702028E-02 
461	 5.71938717035344E-02 
462	 5.69243750156253E-02 
463	 5.66732870225161E-02 
464	 5.64581753657681E-02 
465	 5.64029472309183E-02 
466	 0.056147382663392 
467	 0.055839396839834 
468	 5.57978359735526E-02 
469	 0.05551333490397 
470	 5.53487142099669E-02 
471	 5.53510119954887E-02 
472	 5.50457017702247E-02 
473	 5.48675293851841E-02 
474	 5.48669583371977E-02 
475	 5.49213929385365E-02 
476	 5.46600761305142E-02 
477	 5.46084715800571E-02 
478	 5.47165118033074E-02 
479	 5.45725055563288E-02 
480	 5.45527873331083E-02 
481	 5.45032944068599E-02 
482	 5.43759510405001E-02 
483	 5.44885809089551E-02 
484	 5.45377863592506E-02 
485	 5.45202371208054E-02 
486	 5.45255087817363E-02 
487	 5.44788813373262E-02 
488	 5.45637238670579E-02 
489	 0.054792013106954 
490	 5.50030642557613E-02 
491	 5.51641188924806E-02 
492	 5.53136469568019E-02 
493	 5.54962397122092E-02 
494	 5.57246033865584E-02 
495	 5.59790788346328E-02 
496	 5.62284368126239E-02 
497	 0.056444859729496 
498	 5.66645641933823E-02 
499	 5.69731059419266E-02 
500	 5.73558343752665E-02 
501	 5.76452558248585E-02 
502	 5.77457182658924E-02 
503	 5.78753657022358E-02 
504	 5.82215705502292E-02 
505	 5.84437045781801E-02 
506	 5.86701499223456E-02 
507	 5.89397158783995E-02 
508	 5.92130874103854E-02 
509	 5.95312894957229E-02 
510	 0.059824074498602 
511	 6.00524435808285E-02 
512	 6.02751308557591E-02 
513	 6.05907469227166E-02 
514	 6.09601433372554E-02 
515	 6.12888641623202E-02 
516	 6.16240930997064E-02 
517	 6.20246587216342E-02 
518	 6.24658792219137E-02 
519	 6.28230845975381E-02 
520	 6.34409001189915E-02 
521	 6.40815228750688E-02 
522	 6.45287397831171E-02 
523	 6.51022292411631E-02 
524	 6.57033965331456E-02 
525	 6.63746544239374E-02 
526	 6.72372088096348E-02 
527	 6.80858069028345E-02 
528	 6.89175297331663E-02 
529	 0.069804871467345 
530	 7.09225147239665E-02 
531	 7.20725544856136E-02 
532	 7.32468961803443E-02 
533	 7.45038837191511E-02 
534	 0.075867967276643 
535	 7.73160188607935E-02 
536	 7.88394742161243E-02 
537	 0.080444699462978 
538	 8.20821322004121E-02 
539	 8.37534287450102E-02 
540	 8.54909160749352E-02 
541	 0.087390579566002 
542	 8.92755719974544E-02 
543	 9.11149254267949E-02 
544	 9.29750190389743E-02 
545	 9.47947674979146E-02 
546	 9.66065567990243E-02 
547	 9.84348861187006E-02 
548	 0.100287602382054 
549	 0.102030320418335 
550	 0.103646254294199 
551	 0.105191072346911 
552	 0.106806019259764 
553	 0.108379312323239 
554	 0.109903279253919 
555	 0.111492121807641 
556	 0.113024383834344 
557	 0.114556758566526 
558	 0.116152110662778 
559	 0.11780311362888 
560	 0.119538735784825 
561	 0.121324730602475 
562	 0.12310425586852 
563	 0.124908139546084 
564	 0.126679535264174 
565	 0.128366228721832 
566	 0.129950029785504 
567	 0.131434418763132 
568	 0.132850686261146 
569	 0.134207656745745 
570	 0.135364953163161 
571	 0.136404861222916 
572	 0.137347614146645 
573	 0.138130015618381 
574	 0.139001326513105 
575	 0.139849184267942 
576	 0.140544376491294 
577	 0.141213703403151 
578	 0.14183228387714 
579	 0.142414592456223 
580	 0.142984329268775 
581	 0.143411198003644 
582	 0.143827313026281 
583	 0.144236605005966 
584	 0.144335177249135 
585	 0.144422946457983 
586	 0.144507794086018 
587	 0.14451390482703 
588	 0.144519585990702 
589	 0.144643596288861 
590	 0.144850571698004 
591	 0.144959649748904 
592	 0.145015961428502 
593	 0.145158472887707 
594	 0.145411054677064 
595	 0.145412461765387 
596	 0.145325058942834 
597	 0.145216189222212 
598	 0.145096868550246 
599	 0.144955623350485 
600	 0.144771872520708 
601	 0.14458556608 
602	 0.144547477282928 
603	 0.144443770778211 
604	 0.144318711713726 
605	 0.144267919764814 
606	 0.144194501389934 
607	 0.14408201427112 
608	 0.143950232327668 
609	 0.143848583200735 
610	 0.143657510407121 
611	 0.143405089863392 
612	 0.143145183162796 
613	 0.142913808064673 
614	 0.142610144529585 
615	 0.14235945883746 
616	 0.142355346309097 
617	 0.142153140919824 
618	 0.141938558073849 
619	 0.141809847292979 
620	 0.141615958798746 
621	 0.141376943180299 
622	 0.141200047364177 
623	 0.141157931331234 
624	 0.140995610270703 
625	 0.140833818464133 
626	 0.140768853317595 
627	 0.140846772798409 
628	 0.140830248713761 
629	 0.140760950102144 
630	 0.140716653709025 
631	 0.140733018227775 
632	 0.140549595961106 
633	 0.140295566570253 
634	 0.140195453820713 
635	 0.139628630610179 
636	 0.139058991113835 
637	 0.13861368482802 
638	 0.137782593800963 
639	 0.1370736952813 
640	 0.136301583273699 
641	 0.135245956857913 
642	 0.134387913483839 
643	 0.133229371912161 
644	 0.1317730814394 
645	 0.130439401406998 
646	 0.128919097646495 
647	 0.127333295959381 
648	 0.125897679539905 
649	 0.12471685472021 
650	 0.123515990756104 
651	 0.122545935863794 
652	 0.122176918737506 
653	 0.12174496278425 
654	 0.121503286612613 
655	 0.121488683781498 
656	 0.121334662357225 
657	 0.121078423558942 
658	 0.120705562722391 
659	 0.120178687812992 
660	 0.119470460913607 
661	 0.118456937183992 
662	 0.117151838728679 
663	 0.115701132102229 
664	 0.114335808315248 
665	 0.112914969731034 
666	 0.111369677136807 
667	 0.10988525708476 
668	 0.108507643693556 
669	 0.107302318906182 
670	 0.106329564544813 
671	 0.105603008116419 
672	 0.10497922787403 
673	 0.104563343444308 
674	 0.104667177606365 
675	 0.104734821671986 
676	 0.104930661218091 
677	 0.105530907791393 
678	 0.106748794730556 
679	 0.108232215054438 
680	 0.110000036253094 
681	 0.112238107673705 
682	 0.114956174173629 
683	 0.118202356419019 
684	 0.121876476202162 
685	 0.126081912686119 
686	 0.13128747773195 
687	 0.13652253936363 
688	 0.140659256944781 
689	 0.145136495387215 
690	 0.149468680872624 
691	 0.153596780071266 
692	 0.15769058748104 
693	 0.161787786771539 
694	 0.165524856184784 
695	 0.168581799911383 
696	 0.171149958434447 
697	 0.173525964395042 
698	 0.175822657504377 
699	 0.177810346669582 
700	 0.179352630142389 
701	 0.180699359820461 
702	 0.181872347533378 
703	 0.182740096320648 
704	 0.183101893899687 
705	 0.183194207378 
706	 0.183183473067353 
707	 0.18299427469915 
708	 0.182386662814194 
709	 0.181470984170028 
710	 0.180434449702629 
711	 0.179018866733369 
712	 0.177341350167915 
713	 0.175508363384022 
714	 0.173542161733547 
715	 0.171417589789955 
716	 0.168980428435237 
717	 0.166406923960839 
718	 0.16410797692697 
719	 0.161455348816573 
720	 0.159033408016039 
721	 0.156960033102652 
722	 0.154801837979093 
723	 0.152116964697606 
724	 0.149257243251999 
725	 0.146705622436245 
726	 0.14393011349289 
727	 0.141014704434028 
728	 0.138037329673003 
729	 0.134539269574921 
730	 0.13103152931049 
731	 0.12790656081244 
732	 0.125128152706993 
733	 0.122878366309034 
734	 0.120871779623347 
735	 0.119043636184238 
736	 0.117586833780796 
737	 0.116518580205149 
738	 0.115680377381503 
739	 0.114974569802821 
740	 0.114562900112096 
741	 0.114200394747478 
742	 0.113927954977019 
743	 0.113870450148876 
744	 0.113591608358512 
745	 0.113425423690556 
746	 0.113438793193586 
747	 0.113243469816174 
748	 0.113124996688093 
749	 0.113025054593439 
750	 0.112888430044424 
751	 0.112980076268916 
752	 0.112847321662836 
753	 0.112591425049891 
754	 0.11256469286491 
755	 0.112383814691559 
756	 0.112388144899914 
757	 0.112582455985754 
758	 0.112328602989342 
759	 0.11237252477011 
760	 0.112418253268888 
761	 0.111813835414329 
762	 0.111830153170634 
763	 0.111770628330901 
764	 0.111749295725903 
765	 0.111999878372301 
766	 0.112296805429026 
767	 0.112494448601288 
768	 0.112627064732096 
769	 0.112859180742465 
770	 0.113023563586771 
771	 0.113167441094339 
772	 0.113391085841135 
773	 0.113861364428461 
774	 0.114043857554418 
775	 0.114120273943909 
776	 0.114492280351065 
777	 0.114733208009094 
778	 0.115072678938363 
779	 0.115557835919443 
780	 0.116008179734839 
781	 0.11630821523123 
782	 0.116681283861305 
783	 0.117251252973962 
784	 0.117788710106024 
785	 0.118179935054537 
786	 0.118555903510892 
787	 0.119077741017391 
788	 0.119457808415652 
789	 0.120015637578262 
790	 0.120710359352754 
791	 0.121233092394771 
792	 0.12188733220664 
793	 0.122427259288716 
794	 0.122881986520776 
795	 0.123821345846838 
796	 0.124168498409586 
797	 0.124334718327158 
798	 0.124925215718817 
799	 0.125620848833529 
800	 0.125942793196591 
801	 0.12611916939025 
802	 0.126691788959934 
803	 0.127051595502356 
804	 0.12727954213189 
805	 0.12746817552369 
806	 0.127645546726586 
807	 0.127722442556504 
808	 0.12753227143055 
809	 0.127064798888803 
810	 0.126769268744449 
811	 0.126311737555957 
812	 0.125770875728398 
813	 0.125275037028576 
814	 0.123997443117122 
815	 0.123144946179417 
816	 0.122998622074842 
817	 0.122770115633283 
818	 0.121897698857911 
819	 0.121048564303228 
820	 0.120253475017598 
821	 0.118699918240593 
822	 0.116979062155 
823	 0.115226718164378 
824	 0.113460720626526 
825	 0.111500112188152 
826	 0.109389606236402 
827	 0.107035652168331 
828	 0.104522325123968 
829	 0.10197376595208 
830	 9.98896400641515E-02 
831	 9.83133461243053E-02 
832	 9.70006731708878E-02 
833	 9.57515612069963E-02 
834	 9.47758243708931E-02 
835	 9.40628407748262E-02 
836	 9.32975924157006E-02 
837	 9.26346103074892E-02 
838	 0.092188612932991 
839	 9.19175971197941E-02 
840	 9.14164945533926E-02 
841	 9.09282451833054E-02 
842	 9.06168303556861E-02 
843	 9.04492443522482E-02 
844	 8.96284965349031E-02 
845	 8.90785520879317E-02 
846	 8.89111589260912E-02 
847	 0.088646872904728 
848	 8.82925842780084E-02 
849	 8.77586505217034E-02 
850	 8.72126526816668E-02 
851	 0.087095648516533 
852	 8.68402289598838E-02 
853	 8.64913879303235E-02 
854	 8.61679878974356E-02 
855	 0.085846813750434 
856	 8.54114766374882E-02 
857	 8.50293754202722E-02 
858	 8.48460728599215E-02 
859	 8.46795207023781E-02 
860	 8.43078004834379E-02 
861	 8.38344002150616E-02 
862	 8.35218298762039E-02 
863	 8.34804180150117E-02 
864	 8.32001300752808E-02 
865	 8.27277306116604E-02 
866	 8.25836230998229E-02 
867	 8.21769336728896E-02 
868	 8.17661563361649E-02 
869	 0.08134739531244 
870	 0.080471457300242 
871	 8.02903362768836E-02 
872	 8.00357330326609E-02 
873	 0.079250581220268 
874	 7.91486990021689E-02 
875	 7.86634250949383E-02 
876	 7.79622596989347E-02 
877	 7.74748566228469E-02 
878	 7.70716044620561E-02 
879	 7.67613755850785E-02 
880	 7.64141252204096E-02 
881	 7.58876933784166E-02 
882	 7.53659093320037E-02 
883	 7.45922012092475E-02 
884	 7.38916109802661E-02 
885	 7.38741143632009E-02 
886	 7.35884157736114E-02 
887	 7.30077994917208E-02 
888	 7.24043804311328E-02 
889	 0.072214570432107 
890	 7.19979679767428E-02 
891	 7.19096340381038E-02 
892	 7.18081283061411E-02 
893	 7.07708150685684E-02 
894	 7.00935700989071E-02 
895	 6.98555734440446E-02 
896	 6.96440091129463E-02 
897	 6.88939265452033E-02 
898	 6.82632028535437E-02 
899	 6.78578817349005E-02 
900	 6.75629165333848E-02 
901	 6.74536996960915E-02 
902	 6.70666758762244E-02 
903	 6.64368139554887E-02 
904	 6.59106776201923E-02 
905	 6.64550565995033E-02 
906	 6.58638031203485E-02 
907	 6.43791800142461E-02 
908	 6.39918953135223E-02 
909	 6.30602760648946E-02 
910	 6.28133620520003E-02 
911	 6.31854893541452E-02 
912	 6.26942007364029E-02 
913	 6.02090525508082E-02 
914	 5.90003505926783E-02 
915	 5.95533333151488E-02 
916	 5.87786044401905E-02 
917	 5.90343999227523E-02 
918	 5.84809564324871E-02 
919	 5.67589249689814E-02 
920	 5.59358005147739E-02 
921	 0.056132094624934 
922	 5.61198027319772E-02 
923	 5.53782731793465E-02 
924	 5.55618048903818E-02 
925	 5.35189319477669E-02 
926	 5.09973870944947E-02 
927	 0.050548382413581 
928	 5.05536720779716E-02 
929	 5.02511857407241E-02 
930	 0.04968489583734 
931	 4.92059738443328E-02 
932	 4.56533045445363E-02 
933	 5.01555741371581E-02 
934	 5.27275727304805E-02 
935	 4.08268430430163E-02 
936	 4.35030775355041E-02 
937	 4.46688222072818E-02 
938	 4.11447928133155E-02 
939	 3.66950703371536E-02 
940	 4.31555402009685E-02 
941	 4.39796643401584E-02 
942	 3.90979527346632E-02 
943	 3.64049996895134E-02 
944	 3.50946852914304E-02 
945	 3.37823023126956E-02 
946	 3.26689237057566E-02 
947	 3.30545942155503E-02 
948	 3.66900108949227E-02 
949	 3.79330339364522E-02 
950	 3.72732332419751E-02 
951	 3.80712968282807E-02 
952	 3.46457816480201E-02 
953	 3.44869708971199E-02 
954	 3.78510513642321E-02 
955	 3.95470223581203E-02 
956	 3.72664402682151E-02 
957	 3.59326622995735E-02 
958	 3.57841414351649E-02 
959	 3.41809008775959E-02 
960	 3.42931804366365E-02 
961	 3.23429086047039E-02 
962	 3.11808572018422E-02 
963	 3.59347006256604E-02 
964	 3.60658573803296E-02 
965	 3.58173661693916E-02 
966	 3.56774521667449E-02 
967	 3.34929640504305E-02 
968	 3.34443889441226E-02 
969	 3.39720928166671E-02 
970	 3.32598694127049E-02 
971	 3.05601094896227E-02 
972	 3.20937531626442E-02 
973	 3.38357278531325E-02 
974	 3.32008330830587E-02 
975	 3.09168452690615E-02 
976	 3.15972398900271E-02 
977	 3.28297479162647E-02 
978	 3.32719672556054E-02 
979	 0.033400601571928 
980	 3.29323158505536E-02 
981	 3.42349849480771E-02 
982	 3.55614143722901E-02 
983	 3.30156144859498E-02 
984	 3.15351168183414E-02 
985	 0.032147695535089 
986	 0.033279962928114 
987	 3.23701548529353E-02 
988	 3.17181940424787E-02 
989	 3.33905080083297E-02 
990	 3.53030802393867E-02 
991	 3.35263273258827E-02 
992	 3.23975135762338E-02 
993	 3.26688119910104E-02 
994	 3.41688118099763E-02 
995	 3.56868376435038E-02 
996	 3.29507750702552E-02 
997	 3.34838912041344E-02 
998	 0.0366314929617 
999	 3.67866336924083E-02 
1000	 3.49202716714766E-02 
1001	 3.52024122438999E-02 
1002	 3.55176157945214E-02 
1003	 3.53153329504434E-02 
1004	 3.46711945195276E-02 
1005	 3.45454563596696E-02 
1006	 3.42042117544281E-02 
1007	 3.37931931994186E-02 
1008	 3.47666029418891E-02 
1009	 3.56507275661072E-02 
1010	 3.59329644416894E-02 
1011	 3.58874866580654E-02 
1012	 3.57591374429961E-02 
1013	 3.56081715336612E-02 
1014	 3.54979472020917E-02 
1015	 3.54080108253505E-02 
1016	 3.57428793731623E-02 
1017	 3.63338954223727E-02 
1018	 3.66064049922132E-02 
1019	 3.71924025482343E-02 
1020	 3.74113038592736E-02 
1021	 3.70017249748607E-02 
1022	 3.70416050621388E-02 
1023	 3.70918475955479E-02 
1024	 3.74703148507037E-02 
1025	 3.82540158519621E-02 
1026	 0.037908036612237 
1027	 3.79734820036789E-02 
1028	 3.79250318654872E-02 
1029	 3.82812570512217E-02 
1030	 3.88755510460805E-02 
1031	 3.93673472456355E-02 
1032	 4.03279842562737E-02 
1033	 4.04676348779952E-02 
1034	 3.98587526012058E-02 
1035	 3.97046612823748E-02 
1036	 0.03921046004143 
1037	 3.92026995288247E-02 
1038	 3.94859101399545E-02 
1039	 4.01489869448718E-02 
1040	 4.09916900245544E-02 
1041	 4.14479164509942E-02 
1042	 4.17509241866672E-02 
1043	 4.18405169710237E-02 
1044	 4.21945593542214E-02 
1045	 4.25454588579504E-02 
1046	 4.26991523105264E-02 
1047	 0.0428788498873 
1048	 4.31399044229852E-02 
1049	 4.32077157316796E-02 
1050	 4.32760273161922E-02 
1051	 4.38522517916705E-02 
1052	 4.38269482236833E-02 
1053	 4.27671884493455E-02 
1054	 4.26268749431024E-02 
1055	 4.29361591204379E-02 
1056	 4.29942446291825E-02 
1057	 4.31662085674577E-02 
1058	 4.39645684544565E-02 
1059	 4.40423792769673E-02 
1060	 4.33982030977277E-02 
1061	 0.043515558576896 
1062	 4.38739930476567E-02 
1063	 4.41641560377072E-02 
1064	 4.48841354692564E-02 
1065	 4.51585636676479E-02 
1066	 4.51424455204026E-02 
1067	 4.52063348629224E-02 
1068	 4.51760328466588E-02 
1069	 4.51003685405555E-02 
1070	 0.044869615352723 
1071	 0.044832764462225 
1072	 4.48828656842501E-02 
1073	 4.50018067672183E-02 
1074	 4.47072321270095E-02 
1075	 4.42392883313545E-02 
1076	 0.044085552829622 
1077	 4.35729223773126E-02 
1078	 4.35983965130084E-02 
1079	 4.45853514676074E-02 
1080	 0.044551403413144 
1081	 4.39153065069632E-02 
1082	 4.37163520808202E-02 
1083	 4.32059338106468E-02 
1084	 4.29714503686013E-02 
1085	 4.34048577691113E-02 
1086	 4.33691481554518E-02 
1087	 4.26763741164832E-02 
1088	 4.25549939816519E-02 
1089	 4.25426989592717E-02 
1090	 4.29611729180824E-02 
1091	 4.29659780769758E-02 
1092	 4.33315914257742E-02 
1093	 4.31025106078465E-02 
1094	 4.22782743731501E-02 
1095	 4.15927807170211E-02 
1096	 4.02175879440141E-02 
1097	 4.00681018216072E-02 
1098	 4.07632294601287E-02 
1099	 4.08329890531386E-02 
1100	 4.20643618358424E-02 
1101	 4.20637648198488E-02 
1102	 3.98948279677673E-02 
1103	 3.92283479772911E-02 
1104	 3.87723583421843E-02 
1105	 3.89244608101588E-02 
1106	 3.93284801338277E-02 
1107	 4.01871559387854E-02 
1108	 4.07121424017207E-02 
1109	 4.11318185477303E-02 
1110	 0.040558798985508 
1111	 3.86954168115425E-02 
1112	 3.83654586708337E-02 
1113	 3.73217020038183E-02 
1114	 3.71767431449455E-02 
1115	 4.16912979834459E-02 
1116	 4.19617767077699E-02 
1117	 3.55483286955235E-02 
1118	 3.44916533112337E-02 
1119	 3.69777807029564E-02 
1120	 3.74495463560426E-02 
1121	 4.75260185218364E-02 
1122	 4.61531873145587E-02 
1123	 3.71326808730023E-02 
1124	 2.80163452381498E-02 
1125	 2.09604842475269E-02 
1126	 2.25697185522961E-02 
1127	 2.91964348981973E-02 
1128	 3.92202187504734E-02 
1129	 4.33345442913177E-02 
1130	 4.99681177364461E-02 
1131	 4.92866619168057E-02 
1132	 3.82486350314476E-02 
1133	 3.65580061052356E-02 
1134	 4.09633339082642E-02 
1135	 3.98457341155124E-02 
1136	 3.55963984811836E-02 
1137	 3.55590014907795E-02 
1138	 0.035824409524432 
1139	 3.45371739669185E-02 
1140	 3.12686959135748E-02 
1141	 3.51493122587598E-02 
1142	 3.55458193939842E-02 
1143	 2.93935928313205E-02 
1144	 2.91544797189893E-02 
1145	 3.69298884480142E-02 
1146	 4.45069892531155E-02 
1147	 4.41741940202046E-02 
1148	 4.12110364226157E-02 
1149	 3.77735256938296E-02 
1150	 3.52812831380709E-02 
1151	 3.06436973369523E-02 
1152	 2.98728966326586E-02 
1153	 3.22434644382207E-02 
1154	 3.17963291756527E-02 
1155	 3.01780385569042E-02 
1156	 3.07805108048816E-02 
1157	 3.11970939766329E-02 
1158	 3.09514350196162E-02 
1159	 3.00741805624422E-02 
1160	 2.89972747265085E-02 
1161	 2.95524653123257E-02 
1162	 3.00271910650934E-02 
1163	 2.99675711334444E-02 
1164	 2.95292640525043E-02 
1165	 2.83164082184794E-02 
1166	 2.79903539460979E-02 
1167	 2.89706355186186E-02 
1168	 2.95360169388051E-02 
1169	 2.91266823176088E-02 
1170	 2.83319519732724E-02 
1171	 2.80889165373549E-02 
1172	 2.76531920415115E-02 
1173	 2.79026170783192E-02 
1174	 2.91781300929609E-02 
1175	 2.92381387092138E-02 
1176	 2.88334402772804E-02 
1177	 2.91236302053358E-02 
1178	 2.91683674795354E-02 
1179	 2.90692346515999E-02 
1180	 2.94146249393146E-02 
1181	 2.86660622186963E-02 
1182	 0.02759115899333 
1183	 2.78979081284721E-02 
1184	 2.80593374259894E-02 
1185	 2.79736498828597E-02 
1186	 2.83521276299849E-02 
1187	 2.80925711255471E-02 
1188	 2.77909217415203E-02 
1189	 2.79621711123713E-02 
1190	 0.027767427546968 
1191	 2.77114769244855E-02 
1192	 2.78552405184619E-02 
1193	 2.83296267749448E-02 
1194	 2.83196582765195E-02 
1195	 2.77669986885302E-02 
1196	 2.74825000583736E-02 
1197	 2.72367743849889E-02 
1198	 2.72959498094021E-02 
1199	 2.81251202706843E-02 
1200	 2.82048151485835E-02 
1201	 2.77011813362972E-02 
1202	 2.76820074757437E-02 
1203	 2.78237484294431E-02 
1204	 2.78404528489929E-02 
1205	 2.79688579434342E-02 
1206	 2.79758257117582E-02 
1207	 2.73623678033663E-02 
1208	 0.027474479527642 
1209	 2.82369995290788E-02 
1210	 2.83553585594477E-02 
1211	 2.86022943439743E-02 
1212	 2.88377130246328E-02 
1213	 2.85170342602852E-02 
1214	 0.028309818373352 
1215	 2.79970008797052E-02 
1216	 2.79560213358755E-02 
1217	 2.81703994274917E-02 
1218	 2.82694353618992E-02 
1219	 2.83484737997658E-02 
1220	 2.82801250526653E-02 
1221	 2.77271970440767E-02 
1222	 2.74124924464203E-02 
1223	 2.73284814922726E-02 
1224	 2.72750864035654E-02 
1225	 2.76979139001062E-02 
1226	 2.79170486572876E-02 
1227	 2.77776434281754E-02 
1228	 2.80410898658637E-02 
1229	 2.80283911768217E-02 
1230	 2.76491697321225E-02 
1231	 2.75090546001836E-02 
1232	 2.71144098077301E-02 
1233	 2.67109295996467E-02 
1234	 2.71084622757003E-02 
1235	 2.72825566687913E-02 
1236	 0.027780016823254 
1237	 2.77617138761542E-02 
1238	 2.75053904589557E-02 
1239	 2.71065318601227E-02 
1240	 2.69279783272159E-02 
1241	 0.027441284505964 
1242	 2.83460618763648E-02 
1243	 2.82885078165594E-02 
1244	 2.80092744595056E-02 
1245	 2.82215968872723E-02 
1246	 2.77470494717875E-02 
1247	 2.76002734291994E-02 
1248	 2.78046796527683E-02 
1249	 2.77159359195297E-02 
1250	 2.79766480509092E-02 
1251	 2.80594411452386E-02 
1252	 2.79660580966267E-02 
1253	 2.79246700666718E-02 
1254	 0.027824571042082 
1255	 2.80661378150788E-02 
1256	 2.79523815719599E-02 
1257	 2.74230123841624E-02 
1258	 2.74494813847422E-02 
1259	 2.77543787297997E-02 
1260	 2.77201186791916E-02 
1261	 2.79942382249795E-02 
1262	 2.81564961936903E-02 
1263	 2.78999052158541E-02 
1264	 2.76724752417188E-02 
1265	 2.76810467483679E-02 
1266	 2.78516153213901E-02 
1267	 0.028033753197761 
1268	 2.78120276572051E-02 
1269	 2.78892556014801E-02 
1270	 2.81843364887613E-02 
1271	 2.77687063725567E-02 
1272	 2.69890676132373E-02 
1273	 2.68899216369852E-02 
1274	 2.74552246515094E-02 
1275	 0.027601994575776 
1276	 2.74945134236418E-02 
1277	 2.82073477722281E-02 
1278	 2.88149291614704E-02 
1279	 2.83356094486729E-02 
1280	 0.027982776630702 
1281	 2.80838285331072E-02 
1282	 2.75709101071514E-02 
1283	 2.72892076642803E-02 
1284	 2.79359632942744E-02 
1285	 2.83101501667446E-02 
1286	 2.81952052154724E-02 
1287	 2.80381511581634E-02 
1288	 2.81841400986764E-02 
1289	 2.84369033084694E-02 
1290	 2.87675651864787E-02 
1291	 2.81117938862743E-02 
1292	 2.79327165085449E-02 
1293	 2.81952779022053E-02 
1294	 2.76408873351856E-02 
1295	 2.71230332313929E-02 
1296	 2.70607715689688E-02 
1297	 2.69123450254081E-02 
1298	 2.70488379463621E-02 
1299	 2.70874499030714E-02 
1300	 2.69478796173946E-02 
1301	 2.72667390903405E-02 
1302	 2.73089777215738E-02 
1303	 2.69171038197685E-02 
1304	 2.66688122463556E-02 
1305	 2.61785414631091E-02 
1306	 2.63437533070846E-02 
1307	 2.70823169145379E-02 
1308	 2.71975555744489E-02 
1309	 2.76321365759908E-02 
1310	 0.027943116756341 
1311	 2.73457975879764E-02 
1312	 2.68703338942423E-02 
1313	 2.67127955729817E-02 
1314	 2.67991662688068E-02 
1315	 2.68657793141699E-02 
1316	 2.66415604081349E-02 
1317	 2.67742700839822E-02 
1318	 0.026914438665862 
1319	 2.62233804873646E-02 
1320	 2.56943248834131E-02 
1321	 2.54695063698985E-02 
1322	 2.57160068648829E-02 
1323	 2.66700019705075E-02 
1324	 2.76481906651227E-02 
1325	 2.82751823658837E-02 
1326	 2.94612394389997E-02 
1327	 0.028491602557269 
1328	 2.74404304704968E-02 
1329	 2.81500381648132E-02 
1330	 2.79767547869221E-02 
1331	 2.74311064781635E-02 
1332	 2.72348836780968E-02 
1333	 0.028191127038583 
1334	 2.81179567686376E-02 
1335	 2.78703943562734E-02 
1336	 0.02740032451567 
1337	 0.027668222980218 
1338	 2.73911849502831E-02 
1339	 2.83422149246343E-02 
1340	 3.16026987022072E-02 
1341	 3.23458891257831E-02 
1342	 3.17118210259148E-02 
1343	 3.17128407612654E-02 
1344	 2.97308724319524E-02 
1345	 3.03100182372784E-02 
1346	 3.62990776494489E-02 
1347	 3.63648677354846E-02 
1348	 3.13376055048702E-02 
1349	 3.08911977279192E-02 
1350	 0.018908136063418 
1351	 1.14536763254176E-02 
1352	 0.036537815840302 
1353	 5.29325501579829E-02 
1354	 3.42881134114917E-02 
1355	 8.03268083344247E-02 
1356	 0.228773103250446 
1357	 0.257798207191145 
1358	 0.27573587880286 
1359	 0.29388342357353 
1360	 0.197803846298469 
1361	 0.222813411179506 
1362	 0.155730378103938 
1363	 0.040400493364176 
1364	 4.97902402813113E-03 
1365	-0.258655290149468 
1366	-0.477381732370033 
1367	-0.296174954545436 
1368	-0.235241151248546 
1369	-9.51572729482246E-02 
1370	-1.01239167482393E-02 
1371	 6.31979559460885E-02 
1372	 0.323745685027501 
1373	 0.917147258950994 
1374	 0.871750761607495 
1375	 8.49386123396751 
1376	 2.69166264681674 
1377	-0.21318721166413 
1378	-0.26983694322231 
1379	-2.76518715403732E-03 
1380	 0.153996589928867 
1381	 0.440976140870397 
1382	 0.581497725816999 
1383	 0.701469151946933 
1384	 1.16635190337643 
1385	 4.7997509631823 
1386	-19.2770502106891 
1387	 1.69007558177171 
1388	 1.40273737914902 
1389	 0.841705076669203 
1390	 0.622996410147927 
1391	 1.3606382419083 
1392	 1.36388902141349 
1393	 2.08776701871243 
1394	 5.48936921064545 
1395	 5.55249929101631 
1396	-157.782026632444 
1397	-17.929874459194 
1398	 2.43656977976208 
1399	 2.57150566691817 
1400	 109.387932726177 
1401	-5.23370248678703 
1402	 0.264990671916121 
1403	 5.20689286993522 
1404	-1.36157647051757 
1405	-1.16583018977379 
1406	-1.12654460191481 
1407	-0.986740384233664 
1408	-1.21983317099836 
1409	-0.745354906116838 
1410	-0.134954414358099 
1411	 0.116684568148779 
1412	 0.537638169979666 
1413	 0.458526057869232 
1414	 0.425324823415371 
1415	 0.147366293946354 
1416	-0.713857380779037 
1417	-0.683921076141079 
1418	-0.121563738175873 
1419	 2.90298144789362E-02 
1420	 0.170642294057113 
1421	 0.143315978005284 
1422	-4.40868356290759E-02 
1423	-7.39342578030675E-02 
1424	-0.169569846004327 
1425	-0.152952494398382 
1426	-1.44414827422562E-02 
1427	 1.65068923436167E-02 
1428	-2.29737486012091E-04 
1429	 2.91993198372768E-02 
1430	 0.111454451869071 
1431	 0.11730745380878 
1432	 8.81379456895338E-02 
1433	 7.65265824869468E-02 
1434	 2.87399328154187E-02 
1435	-1.29788772491446E-02 
1436	-6.85826271132932E-02 
1437	-6.68252979246218E-02 
1438	 3.05425109522184E-02 
1439	 5.03243794856255E-02 
1440	 7.95694078005871E-02 
1441	 8.91675047482576E-02 
1442	 3.80955292472753E-02 
1443	-2.50444298569025E-02 
1444	-7.95321392871317E-02 
1445	-0.049292343923881 
1446	 2.2820740310513E-03 
1447	 5.88166933029284E-03 
1448	 2.47486184427068E-02 
1449	 3.02587483915951E-02 
1450	 2.16700821453079E-02 
1451	 3.00333262245227E-02 
1452	 2.70302705045936E-02 
1453	 3.17529064196535E-02 
1454	 3.38301948741743E-02 
1455	 2.90877377007655E-02 
1456	 2.84389609044894E-02 
1457	 3.38207742143699E-02 
1458	 0.03393358030598 
1459	 3.11342806893838E-02 
1460	 2.89368167327089E-02 
1461	 2.53507714515849E-02 
1462	 0.024225026798298 
1463	 2.42875606336035E-02 
1464	 2.33072565863058E-02 
1465	 2.44070141440205E-02 
1466	 2.07997458153082E-02 
1467	 7.81416156233655E-03 
1468	 9.31530179256916E-03 
1469	 2.26468538559296E-02 
1470	 2.13356681516439E-02 
1471	 1.74027592791429E-02 
1472	 2.08568143607344E-02 
1473	 2.21276711394606E-02 
1474	 1.75502260466767E-02 
1475	 1.60146752118101E-02 
1476	 1.73741893568731E-02 
1477	 9.73040937997003E-03 
1478	 8.66159533498906E-03 
1479	 1.80548890594129E-02 
1480	 2.21683468834297E-02 
1481	 2.62515760992813E-02 
1482	 2.32749934753837E-02 
1483	 1.35258039927768E-02 
1484	 1.48896448419965E-02 
1485	 0.021261005651461 
1486	 1.76722453506825E-02 
1487	 1.27167412144923E-02 
1488	 1.30144060231451E-02 
1489	 1.06158486317418E-02 
1490	 8.70767551299402E-03 
1491	 1.03582518818564E-02 
1492	 1.21785393931804E-02 
1493	 1.31742969888888E-02 
1494	 1.16894985958584E-02 
1495	 1.12726875251748E-02 
1496	 1.09141630582591E-02 
1497	 7.39625058762782E-03 
1498	 5.86548859512123E-03 
1499	 5.36793632240742E-03 
1500	 6.34780727712211E-03 
1501	 8.81027985643601E-03 
1502	 9.65226760775306E-03 
1503	 0.01217593113837 
1504	 1.27091342514792E-02 
1505	 1.08499860118086E-02 
1506	 9.05286930291636E-03 
1507	 1.01081773617911E-02 
1508	 0.010411760258458 
1509	 1.01657283784417E-02 
1510	 1.11410480054462E-02 
1511	 1.24299581775713E-02 
1512	 1.24037324290763E-02 
1513	 1.17871779938562E-02 
1514	 1.21207651998044E-02 
1515	 1.21490185227507E-02 
1516	 1.14352519992594E-02 
1517	 0.011680889768628 
1518	 1.28662325920803E-02 
1519	 1.32184244734214E-02 
1520	 1.23034982784153E-02 
1521	 1.16997650656731E-02 
1522	 1.18852599032886E-02 
1523	 1.13608787019585E-02 
1524	 1.04747399330022E-02 
1525	 1.10062964976913E-02 
1526	 1.19500248165331E-02 
1527	 1.22044687034971E-02 
1528	 1.27745980267688E-02 
1529	 1.27533037205217E-02 
1530	 1.20288500538227E-02 
1531	 1.22072950900567E-02 
1532	 1.26365731017225E-02 
1533	 1.31095260788999E-02 
1534	 1.32918069395206E-02 
1535	 1.26317325380508E-02 
1536	 1.29592158371989E-02 
1537	 1.37120581104677E-02 
1538	 1.34062229886498E-02 
1539	 1.32648849470195E-02 
1540	 1.32179531654614E-02 
1541	 1.31882688991945E-02 
1542	 0.013684562192186 
1543	 1.40336949969365E-02 
1544	 1.43059531066297E-02 
1545	 1.48435395349347E-02 
1546	 1.49966709640418E-02 
1547	 1.47670396187126E-02 
1548	 1.48910232639867E-02 
1549	 1.49402873658084E-02 
1550	 0.014788879153367 
1551	 1.51828758613307E-02 
1552	 1.57331257724605E-02 
1553	 1.54381762142532E-02 
1554	 1.44971067226636E-02 
1555	 1.45890198602976E-02 
1556	 1.53445068348837E-02 
1557	 1.49275577421306E-02 
1558	 1.53050342050808E-02 
1559	 1.65741730291466E-02 
1560	 1.64986963528151E-02 
1561	 1.63407355430706E-02 
1562	 1.66855252855368E-02 
1563	 1.63387875719192E-02 
1564	 1.50973271433891E-02 
1565	 1.46704259022199E-02 
1566	 1.52356149692138E-02 
1567	 1.55529417089959E-02 
1568	 1.61149655179514E-02 
1569	 1.67583279476779E-02 
1570	 1.67405744298325E-02 
1571	 1.63650548133828E-02 
1572	 1.64166987211318E-02 
1573	 1.66192340475964E-02 
1574	 1.66600700258451E-02 
1575	 1.61793716770583E-02 
1576	 0.01521485723441 
1577	 1.50570329294266E-02 
1578	 1.51409230616357E-02 
1579	 1.57976237636773E-02 
1580	 1.61861104958803E-02 
1581	 1.50820598010681E-02 
1582	 1.52072198556945E-02 
1583	 1.61698175296243E-02 
1584	 1.64934469408677E-02 
1585	 1.68715639679909E-02 
1586	 1.70666892023559E-02 
1587	 1.73623159551479E-02 
1588	 1.77753072179916E-02 
1589	 1.82475603237749E-02 
1590	 1.85273119270586E-02 
1591	 1.77660031274129E-02 
1592	 0.017243621188826 
1593	 0.017456696648396 
1594	 1.77062949325827E-02 
1595	 0.017345912461395 
1596	 1.69319815101631E-02 
1597	 1.78309431830625E-02 
1598	 0.018231852722598 
1599	 1.78656729092653E-02 
1600	 1.77583294113097E-02 
1601	 1.74880391257527E-02 
1602	 1.75345386525957E-02 
1603	 1.77718177264621E-02 
1604	 1.77102437465264E-02 
1605	 1.72096986868686E-02 
1606	 1.70824637407568E-02 
1607	 1.77420173950781E-02 
1608	 1.82862048631028E-02 
1609	 1.83961909668371E-02 
1610	 1.84163419935233E-02 
1611	 1.85037202513262E-02 
1612	 1.86199482524573E-02 
1613	 1.93359801935497E-02 
1614	 0.01967108433106 
1615	 1.95804773524065E-02 
1616	 2.00810784311908E-02 
1617	 0.019764741110453 
1618	 1.88111443830925E-02 
1619	 1.84526018898568E-02 
1620	 1.83221723477037E-02 
1621	 1.84611465910203E-02 
1622	 1.87687441213272E-02 
1623	 1.88742320146596E-02 
1624	 1.92682689406253E-02 
1625	 1.93642129743661E-02 
1626	 1.92942848853647E-02 
1627	 0.019481071028838 
1628	 1.90421246488186E-02 
1629	 1.86046731943459E-02 
1630	 1.85128777356242E-02 
1631	 1.80188177659172E-02 
1632	 0.017841433082917 
1633	 1.84431775453884E-02 
1634	 0.018815302711743 
1635	 1.88054975879005E-02 
1636	 1.88813549884248E-02 
1637	 1.90024226784343E-02 
1638	 1.88315224324662E-02 
1639	 1.88725093782533E-02 
1640	 1.87991048089118E-02 
1641	 1.80213484265538E-02 
1642	 1.77600130056961E-02 
1643	 1.85978483055991E-02 
1644	 1.90141213500265E-02 
1645	 1.85123136636888E-02 
1646	 1.84817171419349E-02 
1647	 1.81717236165407E-02 
1648	 0.01793429976665 
1649	 0.018755159536963 
1650	 1.88333719982722E-02 
1651	 1.81313718690429E-02 
1652	 1.76481714291419E-02 
1653	 0.017520900302658 
1654	 1.80770698284665E-02 
1655	 1.91526156998456E-02 
1656	 1.94192328387645E-02 
1657	 2.00384955462048E-02 
1658	 2.00489439799792E-02 
1659	 1.93108335771393E-02 
1660	 1.93067945429023E-02 
1661	 1.92910102553155E-02 
1662	 1.91905898099338E-02 
1663	 1.94473268036353E-02 
1664	 1.90013070386923E-02 
1665	 1.77736987812075E-02 
1666	 1.78289669843669E-02 
1667	 0.018507695682394 
1668	 1.92127117814946E-02 
1669	 1.89705024167288E-02 
1670	 1.82003693886234E-02 
1671	 1.88110765978286E-02 
1672	 1.89470864129072E-02 
1673	 1.86401332795381E-02 
1674	 1.94350542587932E-02 
1675	 1.95355222822401E-02 
1676	 1.95944227086321E-02 
1677	 2.01972402281177E-02 
1678	 2.04148891292502E-02 
1679	 1.99430552003196E-02 
1680	 0.019236286947437 
1681	 1.95206121544344E-02 
1682	 0.019997046541341 
1683	 1.97255609485437E-02 
1684	 1.94510355406509E-02 
1685	 1.88847499674676E-02 
1686	 1.76348852707546E-02 
1687	 1.72663415372241E-02 
1688	 1.83521374213976E-02 
1689	 1.91899574340609E-02 
1690	 1.92126169457876E-02 
1691	 1.95147310183931E-02 
1692	 1.95463471783273E-02 
1693	 1.89757297354683E-02 
1694	 1.93642667156375E-02 
1695	 1.94286075028611E-02 
1696	 1.82183836397974E-02 
1697	 0.018289278036392 
1698	 1.94333995855843E-02 
1699	 1.95016890156366E-02 
1700	 1.87155771040036E-02 
1701	 1.83915541227016E-02 
1702	 1.81296406140567E-02 
1703	 1.83074252521248E-02 
1704	 1.98059374603019E-02 
1705	 1.96115036479981E-02 
1706	 1.79473962878512E-02 
1707	 1.78318156022409E-02 
1708	 1.83792260198989E-02 
1709	 1.87296096496943E-02 
1710	 1.86806265788062E-02 
1711	 1.82837366016871E-02 
1712	 1.71942041550176E-02 
1713	 1.70263799294393E-02 
1714	 0.017979891727797 
1715	 0.01934937130649 
1716	 1.89887172515382E-02 
1717	 2.00036286513401E-02 
1718	 0.020704552169394 
1719	 1.97312646786037E-02 
1720	 1.98276990783071E-02 
1721	 2.04048847743952E-02 
1722	 1.93040946802457E-02 
1723	 1.83529167978976E-02 
1724	 1.82342698895901E-02 
1725	 1.65191503568045E-02 
1726	 1.58921095803536E-02 
1727	 1.75173251033849E-02 
1728	 1.86435270433569E-02 
1729	 1.98471679955179E-02 
1730	 1.99304041150905E-02 
1731	 1.84863010386224E-02 
1732	 1.73946370986178E-02 
1733	 1.78065257305448E-02 
1734	 1.91771862133969E-02 
1735	 1.96428842983842E-02 
1736	 1.98235600957669E-02 
1737	 1.99918397872422E-02 
1738	 1.87256728081766E-02 
1739	 1.70740157231872E-02 
1740	 0.017937124879388 
1741	 1.80088968512326E-02 
1742	 0.01584863772574 
1743	 1.74550595278132E-02 
1744	 1.90198968099093E-02 
1745	 1.70179191599855E-02 
1746	 1.80251293090313E-02 
1747	 1.88213389862882E-02 
1748	 0.018840985188593 
1749	 1.90047987417465E-02 
1750	 1.95820724899674E-02 
1751	 1.91882501185292E-02 
1752	 0.01712173942925 
1753	 1.73466785128314E-02 
1754	 1.93144434193002E-02 
1755	 1.98501197980207E-02 
1756	 2.07892307663477E-02 
1757	 2.04535369556414E-02 
1758	 2.03256690902485E-02 
1759	 1.95060200177425E-02 
1760	 1.67642701931531E-02 
1761	 0.015863555484088 
1762	 1.59454980593991E-02 
1763	 1.58511389699934E-02 
1764	 1.65805335053395E-02 
1765	 1.55873352338562E-02 
1766	 1.31393947738124E-02 
1767	 1.43188182153257E-02 
1768	 1.60987945833022E-02 
1769	 1.44433617378778E-02 
1770	 1.46935289440468E-02 
1771	 0.015132690069842 
1772	 1.45031118418203E-02 
1773	 1.54088140533029E-02 
1774	 1.49602339067028E-02 
1775	 1.43677513189795E-02 
1776	 1.43937494871918E-02 
1777	 1.71732334492033E-02 
1778	 1.93266536620543E-02 
1779	 2.06512229120957E-02 
1780	 2.14343748538939E-02 
1781	 2.21113541428889E-02 
1782	 2.21720248791795E-02 
1783	 2.00845156530024E-02 
1784	 2.05654470325298E-02 
1785	 2.42066378704552E-02 
1786	 2.44768507463718E-02 
1787	 2.22520912433223E-02 
1788	 2.10581902428132E-02 
1789	 1.75298200501395E-02 
1790	 2.33968059391779E-02 
1791	 2.74483810001012E-02 
1792	 1.66599239390062E-02 
1793	 1.17234436805267E-02 
1794	 6.77987212643281E-03 
1795	 4.74772751048193E-05 
1796	 0.033680353556922 
1797	 6.07214794456011E-02 
1798	 5.91692183377008E-02 
1799	 8.23286749104625E-02 
1800	 4.78954798616219E-02 
1801	 2.90839947451122E-02 
1802	 1.82086133420746E-02 
1803	 6.32265144722619E-03 
1804	 4.03995778880263E-02 
1805	 3.54750821019158E-02 
1806	-4.28558650562484E-02 
1807	-3.63180702919181E-02 
1808	 7.69547882772503E-02 
1809	 0.070211338951396 
1810	 0.153746069483363 
1811	 9.73793479182145E-02 
1812	-0.543938545833317 
1813	-0.597000682006707 
1814	-0.176795876639719 
1815	-6.53550823138993E-02 
1816	 0.226639591920312 
1817	 0.929217297179047 
1818	-4.16673008419919 
1819	-3.33092648657979 
1820	 4.42369468757313 
1821	 0.265939047101417 
1822	 0.112989915753253 
1823	 2.52339790906716E-02 
1824	 3.34277274119457E-02 
1825	 0.88146349074091 
1826	 3.10562770420388 
1827	-1.35055693177315 
1828	-0.829736279167425 
1829	-1.08760667802895 
1830	-0.798788455643481 
1831	 2.75222354682585 
1832	 0.454795349379733 
1833	-0.646705710322453 
1834	-0.85631173366739 
1835	-0.47929772310157 
1836	-0.390611259826542 
1837	-0.957340707035432 
1838	-1.5589791131058 
1839	 8.17042414675168 
1840	 1.9608228925193 
1841	 2.87575681639116 
1842	-7.90196133453411 
1843	-31.0374584398864 
1844	 0.749798481064451 
1845	 0.547764916047089 
1846	 0.185333106396925 
1847	 0.285633700543256 
1848	 1.43513594106258 
1849	-8.87372782996299 
1850	-2.6404996729731 
1851	-1.53483956513803 
1852	-0.884628608031646 
1853	-0.75020830630821 
1854	-0.699076936095667 
1855	-0.815181761453211 
1856	-0.698334829186165 
1857	-0.688765309185538 
1858	-0.515842318930393 
1859	 2.27952261996816 
1860	-18.9245093700209 
1861	-2.65111933914602 
1862	-0.158179190878708 
1863	-0.240560626175772 
1864	 9.25149521052957E-02 
1865	 0.277293641546054 
1866	 0.315001494301481 
1867	 0.180805878366824 
1868	 0.286704522655795 
1869	 0.336827679925241 
1870	 4.95730373809772E-02 
1871	-0.333963886382312 
1872	 2.14496068883085E-02 
1873	-0.335858549781086 
1874	-7.27521376577473 
1875	 2.36965490334445 
1876	-0.149394340978767 
1877	-5.62792034087094 
1878	 12.868730487378 
1879	 4.76658336666476 
1880	 3.8384847759041 
1881	 2.60679617151143 
1882	 1.70710326338266 
1883	 2.12320980967134 
1884	 3.0674238155482 
1885	 0.277134683163674 
1886	-0.636854126510534 
1887	-1.20165276113503 
1888	-2.0643414869146 
1889	-1.81397614425389 
1890	 0.976751284900619 
1891	 1.13849683148133 
1892	-1.75282549511545 
1893	-2.14733708504428 
1894	-2.13094023185634 
1895	 6.4759724240774 
1896	 1.25300179537814 
1897	 0.918004131852103 
1898	 0.544336993793481 
1899	-0.463101783546841 
1900	-0.918547593951642 
1901	 9.88070211707907 
1902	 3.54353414767245 
1903	 2.65546980302652 
1904	-0.106480022276545 
1905	-0.781687964826458 
1906	-3.96095304764101E-02 
1907	 2.05727111024918 
1908	-6.33509832353941 
1909	-3.45128617025404 
1910	-1.41350904057184 
1911	 2.73474679317432 
1912	-2.47728229962957 
1913	-1.11273280040365 
1914	 1.06825208138113 
1915	 1.87204890888148 
1916	 3.26942000068584 
1917	 3.99925167683795 
1918	 185.671700242788 
1919	-3.78545627558732 
1920	 9.96949984820212 
1921	-0.877318225241183 
1922	-0.632046190145528 
1923	-0.321517054582797 
1924	 2.58776371185361E-02 
1925	 0.132875261466677 
1926	 0.2415688348605 
1927	 0.5682938255282 
1928	-9.10224763660197 
1929	-0.329072674512376 
1930	-0.252991526204316 
1931	-0.212402552067547 
1932	 2.07279678027673 
1933	-4.27564596112708 
1934	-1.24479182340077 
1935	-0.814514651071302 
1936	-2.26641967740575 
1937	 23.3858440683892 
1938	-2.59332822956096 
1939	-5.17339397336294 
1940	 1.11368491036309 
1941	 0.171087887468777 
1942	-0.204226270663303 
1943	-0.52006172513937 
1944	-0.468767763269717 
1945	-0.738583917213512 
1946	 0.256278496060118 
1947	 1.4543593217062 
1948	 1.40357864618804 
1949	 1.32523678973738 
1950	 1.11670238712573 
1951	 0.461127263824005 
1952	 0.509359335272878 
1953	 1.21487407513137 
1954	 1.04353577287409 
1955	 0.799890398856067 
1956	 1.18936996084245 
1957	 0.73125723708848 
1958	 0.447817854776647 
1959	 0.391526853961304 
1960	 0.319171358389588 
1961	 0.260923052103816 
1962	 0.186118568657122 
1963	 0.160462135015209 
1964	 0.109118199516003 
1965	 8.64571266487863E-02 
1966	 9.27123919734512E-02 
1967	 0.134160890619278 
1968	 0.135507008824238 
1969	 0.132804719047489 
1970	 0.119977506208703 
1971	 0.100860519042699 
1972	 0.11335606054907 
1973	 9.75608748088069E-02 
1974	 8.40469286674482E-02 
1975	 0.102082275479341 
1976	 5.26257845545609E-02 
1977	 2.94140404160438E-02 
1978	 5.11478971198238E-02 
1979	 4.53153153023231E-02 
1980	 2.36715465502709E-02 
1981	 1.94454381498292E-02 
1982	 2.95616595516838E-03 
1983	-0.016759169833731 
1984	-1.51895984512287E-02 
1985	-7.35092283185351E-03 
1986	 1.90859581093038E-04 
1987	 9.34734816716886E-03 
1988	 8.1876124634035E-03 
1989	 1.24130969905923E-02 
1990	 4.46320221107595E-02 
1991	 6.33098707098907E-02 
1992	 5.43039879251074E-02 
1993	 4.99754521203856E-02 
1994	 5.48516045109339E-02 
1995	 5.82004942026595E-02 
1996	 6.61869173683349E-02 
1997	 8.88736962936576E-02 
1998	 0.100174375093872 
1999	 8.01246759808212E-02 
2000	 4.41432615838379E-02 
2001	 3.31903619247826E-02 
2002	 0.022882344897528 
2003	 2.19839029412721E-02 
2004	 2.10135988298789E-02 
2005	-0.027762281738696 
2006	-3.02854521008869E-02 
2007	-6.81310858911071E-03 
2008	 1.98788030830614E-03 
2009	 1.33483981619275E-03 
2010	-6.69793582838352E-03 
2011	-1.03827566711224E-02 
2012	-2.99282348520592E-02 
2013	-2.46206879815289E-02 
2014	-9.74429217908646E-03 
2015	 3.52948801209728E-02 
2016	 6.08563974813924E-02 
2017	 5.58113506290832E-02 
2018	 5.54885340988318E-02 
2019	 5.91141231067127E-02 
2020	 5.92699555477213E-02 
2021	 5.42699068513414E-02 
2022	 4.28622775428832E-02 
2023	 2.79841319691575E-02 
2024	 1.79112227583524E-02 
2025	-1.23435205844807E-04 
2026	-2.30579148226993E-03 
2027	 3.94433915488614E-03 
2028	 1.33737965200236E-02 
2029	 1.29280596258551E-02 
2030	 1.20734992997342E-02 
2031	 1.90090466243378E-02 
2032	 0.016332922426772 
2033	 1.56853952673716E-02 
2034	 2.32570667796993E-02 
2035	 2.24442292328151E-02 
2036	 1.87453730485918E-02 
2037	 0.013643778882348 
2038	 8.93323971534456E-03 
2039	 7.56804870284619E-03 
2040	 8.08912607157287E-03 
2041	 4.90701648153033E-03 
2042	 1.08052177301078E-03 
2043	 7.99377310349086E-04 
2044	-1.95571639561518E-03 
2045	-4.88884094301905E-04 
2046	 6.66342290125296E-03 
2047	 1.70413201928678E-02 
2048	 0.019869318165718 
2049	 1.95713566764857E-02 
2050	 1.82148363381525E-02 
2051	 1.46643611942773E-02 
2052	 1.08784863621493E-02 
2053	 6.57634426989092E-03 
2054	 2.25353718132428E-03 
2055	-8.75336594803382E-03 
2056	-1.20978671237065E-02 
2057	-1.31997671755597E-02 
2058	-1.32185338748925E-02 
2059	-2.95387556816631E-03 
2060	-1.01353996968174E-03 
2061	-3.91837292456139E-03 
2062	-4.73744926423825E-03 
2063	-7.25876346947027E-03 
2064	-8.22257014228017E-03 
2065	-5.10851198992603E-03 
2066	 3.36109501897005E-03 
2067	 1.64738248416543E-02 
2068	 2.29496837597525E-02 
2069	 2.90705982934985E-02 
2070	 3.24612422110828E-02 
2071	 2.62579708329104E-02 
2072	 1.79415118124723E-02 
2073	 0.017565388868655 
2074	 2.24183747955231E-02 
2075	 1.91186067808733E-02 
2076	 2.01792143067577E-02 
2077	 1.51248151301505E-02 
2078	-3.22268870287182E-03 
2079	-7.51679021572951E-03 
2080	-6.69514388103159E-03 
2081	-7.9233437276012E-03 
2082	 3.11238731859692E-04 
2083	 1.52911827214502E-03 
2084	 3.52713789147672E-05 
2085	 4.27665943519071E-03 
2086	 4.06756778230134E-03 
2087	 4.59166237711899E-03 
2088	 8.60570798648685E-03 
2089	 1.27163928111201E-02 
2090	 1.51823591069867E-02 
2091	 1.57362060693502E-02 
2092	 1.59240770396519E-02 
2093	 1.09258130904189E-02 
2094	 1.11209822135603E-02 
2095	 1.62633506376849E-02 
2096	 0.017340032050339 
2097	 1.98987594073239E-02 
2098	 0.01898192149044 
2099	 1.30955969437383E-02 
2100	 8.2018104382125E-03 
2101	 8.2461658861398E-03 
2102	 9.29677017726331E-03 
2103	 1.30456299863295E-02 
2104	 0.015121299160672 
2105	 1.44416961665327E-02 
2106	 1.15252421109457E-02 
2107	 6.71879217709559E-03 
2108	 6.36881777575008E-03 
2109	 7.63967501535444E-03 
2110	 8.91463020555695E-03 
2111	 9.31820066054523E-03 
2112	 7.23656715959837E-03 
2113	 8.53093118984097E-03 
2114	 1.17400422353488E-02 
2115	 1.08578917986059E-02 
2116	 1.08813439368675E-02 
2117	 1.04929086212789E-02 
2118	 4.61926675773641E-03 
2119	 2.94328288674171E-03 
2120	 5.5855747071781E-03 
2121	 5.39826496439622E-03 
2122	 2.56151314805519E-03 
2123	 1.02104148926818E-03 
2124	 3.14073422998139E-03 
2125	 5.40368475437522E-03 
2126	 6.63024685111223E-03 
2127	 1.02347506410019E-02 
2128	 8.46452352240449E-03 
2129	 4.02213533013307E-03 
2130	 4.41684787426403E-03 
2131	 5.62214098296672E-03 
2132	 7.2711572549287E-03 
2133	 1.12330045734974E-02 
2134	 1.19744974093516E-02 
2135	 9.64627619389088E-03 
2136	 1.08871961538556E-02 
2137	 0.013026080600157 
2138	 1.27660262077213E-02 
2139	 1.35281285854678E-02 
2140	 1.40520337929516E-02 
2141	 1.21053022538937E-02 
2142	 1.25064305647038E-02 
2143	 1.51231333967608E-02 
2144	 1.73991276174804E-02 
2145	 1.99340851502826E-02 
2146	 0.017974513996722 
2147	 1.76340917327099E-02 
2148	 2.13175958695912E-02 
2149	 2.34080243359766E-02 
2150	 2.19167595097362E-02 
2151	 1.87965838689067E-02 
2152	 1.54559323978204E-02 
2153	 1.31801814623128E-02 
2154	 1.70686203398888E-02 
2155	 1.99444713960997E-02 
2156	 2.01867911851367E-02 
2157	 1.90748239372733E-02 
2158	 1.24525049856015E-02 
2159	 9.19270062560363E-03 
2160	 7.37256800095382E-03 
2161	 5.71783160343774E-03 
2162	 6.65648178569335E-03 
2163	 5.32303390390985E-03 
2164	-1.1660962530504E-04 
2165	-8.33218538228093E-04 
2166	-1.34972877951091E-04 
2167	 9.27743736065656E-04 
2168	 6.63351615163636E-03 
2169	 0.010080395192314 
2170	 1.47623809214116E-02 
2171	 1.28561705283715E-02 
2172	 8.04379212427226E-03 
2173	 1.01620366724644E-02 
2174	 8.21626469207555E-03 
2175	 5.16146954494205E-03 
2176	 9.28228595476762E-03 
2177	 8.92839854917422E-03 
2178	 6.60384785972984E-03 
2179	 9.18693013540802E-03 
2180	 1.22206651069481E-02 
2181	 8.46897077056855E-03 
2182	 5.64600201486788E-03 
2183	 1.27167536009306E-02 
2184	 1.31884052271159E-02 
2185	 1.11532401112066E-02 
2186	 1.05782492915029E-02 
2187	 7.20749815253995E-03 
2188	 4.75597152638974E-03 
2189	 3.78759740384635E-03 
2190	 4.87252692344841E-03 
2191	 5.9076026534593E-03 
2192	 1.05117630640633E-02 
2193	 2.19871014967234E-02 
2194	 2.49181527623093E-02 
2195	 2.68865231777088E-02 
2196	 2.52687361354287E-02 
2197	 1.47159885390389E-02 
2198	 8.92734073350486E-03 
2199	 2.02783344760985E-03 
2200	 1.78853823651068E-04 
2201	 9.64422847396397E-04 
2202	 2.33425964370188E-04 
2203	 2.67487255584015E-03 
2204	 3.2689366922367E-03 
2205	 5.04362354090958E-03 
2206	 7.77364280080144E-03 
2207	 0.01306864104513 
2208	 2.19985232153788E-02 
2209	 2.26189736697172E-02 
2210	 0.021751588627112 
2211	 1.77147338800056E-02 
2212	 7.94941007456147E-03 
2213	 1.27399234962007E-02 
2214	 1.99021795707914E-02 
2215	 1.60612819130916E-02 
2216	 1.38220531891983E-02 
2217	 1.22734490121819E-02 
2218	 1.08176043521944E-03 
2219	-9.9107308422081E-04 
2220	 7.56047386337186E-03 
2221	 1.10009945623158E-02 
2222	 1.52145623122866E-02 
2223	 1.42659480804174E-02 
2224	 9.99479776594325E-03 
2225	 5.29817235824432E-03 
2226	-8.32143662862231E-03 
2227	-1.19550161157863E-02 
2228	-1.01046693470969E-02 
2229	-5.89017981930711E-03 
2230	 7.84950156052737E-03 
2231	 1.54499753843898E-02 
2232	 2.14677776777361E-02 
2233	 0.0261802014535 
2234	 3.09682594538165E-02 
2235	 0.029045006007942 
2236	 2.08647725553104E-02 
2237	 1.59678905887238E-02 
2238	 1.59888501536571E-02 
2239	 1.30505639894825E-02 
2240	 9.96740514090733E-03 
2241	 1.31654398154748E-02 
2242	 1.39303570554584E-02 
2243	 0.011422421763073 
2244	 1.53243155002869E-02 
2245	 1.73926535648347E-02 
2246	 1.54618984755418E-02 
2247	 1.31758251611973E-02 
2248	 1.59140782569391E-02 
2249	 0.026412351457624 
2250	 2.95348675729658E-02 
2251	 2.44224907612606E-02 
2252	 1.75126579607733E-02 
2253	 1.24550245089569E-02 
2254	 0.014396215720423 
2255	 2.08735209326192E-02 
2256	 3.05298535969478E-02 
2257	 0.038920898670766 
2258	 0.038128281023982 
2259	 3.59115112907468E-02 
2260	 3.20863504872529E-02 
2261	 1.75362566836314E-02 
2262	 1.75380553146249E-02 
2263	 2.65735360397053E-02 
2264	 3.08091240468007E-02 
2265	 4.64977893407298E-02 
2266	 4.72264219212464E-02 
2267	 3.39386753849973E-02 
2268	 2.97991627759844E-02 
2269	 2.28565337649457E-02 
2270	 1.52775318436712E-02 
2271	 1.04884750788811E-02 
2272	 3.73712286773991E-03 
2273	-7.26335750124839E-03 
2274	-1.30277293002273E-02 
2275	-1.32715973634916E-02 
2276	-1.39281193962099E-02 
2277	-1.88455027512914E-02 
2278	-1.51365406322865E-02 
2279	-0.001974295945947 
2280	 2.99474232771646E-03 
2281	 4.56953937267585E-03 
2282	 1.88196132850322E-02 
2283	 2.91677070963677E-02 
2284	 3.45472197236694E-02 
2285	 3.56834573959135E-02 
2286	 3.46927638466076E-02 
2287	 3.15998966317496E-02 
2288	 2.18601421606838E-02 
2289	 2.28706233318402E-02 
2290	 3.03602674346299E-02 
2291	 2.65513113407977E-02 
2292	 2.57601339694719E-02 
2293	 2.54630264783811E-02 
2294	 6.7965819781881E-03 
2295	-9.37533734339028E-03 
2296	-1.06393089999524E-02 
2297	-1.69110357875327E-02 
2298	-6.6987700712585E-03 
2299	 3.84332632822533E-03 
2300	-1.39745365650603E-02 
2301	-2.12870062434081E-02 
2302	-2.07103176330468E-02 
2303	-6.44257882727647E-03 
2304	 2.23191241018068E-02 
2305	 4.11503788609857E-02 
2306	 4.51856342254109E-02 
2307	 2.55200846908795E-02 
2308	 1.93156749349163E-02 
2309	 2.73291356604935E-02 
2310	 3.02260394198367E-02 
2311	 2.48971323351857E-02 
2312	 1.32108975585274E-02 
2313	 6.55461491101814E-03 
2314	-1.36263244112101E-02 
2315	-1.21591243187283E-02 
2316	-6.36096855624483E-03 
2317	-0.030286277263511 
2318	-2.50718550546642E-02 
2319	-3.80316426541667E-04 
2320	 1.08191388291587E-02 
2321	 1.36810815067909E-02 
2322	 2.23382236423799E-02 
2323	 2.73488845945791E-02 
2324	 2.23977701155017E-02 
2325	 0.036999046054884 
2326	 3.31835063503795E-02 
2327	 1.68663060835017E-02 
2328	 9.67004235634059E-03 
2329	-1.26954000182885E-02 
2330	-4.6731781751755E-03 
2331	 1.97729972104764E-02 
2332	 1.70541977001406E-02 
2333	 2.42027833563937E-02 
2334	 2.95225737830157E-02 
2335	 9.84097518922941E-03 
2336	 4.4391114358641E-03 
2337	-9.66840411142827E-03 
2338	-3.03314409507659E-02 
2339	-6.23197483482059E-02 
2340	-7.51901675683539E-02 
2341	-3.77337948719112E-02 
2342	-3.31967481921498E-02 
2343	 1.84565619226864E-02 
2344	 2.61703900453049E-02 
2345	-4.23729856592506E-02 
2346	-5.02927075704085E-02 
2347	-0.125115053289108 
2348	-0.138453413954923 
2349	-3.35938297118373E-02 
2350	 6.8983639379598E-03 
2351	 3.65888259882523E-03 
2352	 2.03617271626958E-02 
2353	-6.12600125693952E-02 
2354	-0.13743312760374 
2355	-0.023289945161312 
2356	 0.04910998452735 
2357	-2.65532195061183E-02 
2358	 4.23307558580093E-03 
2359	-0.056074680130828 
2360	-0.121626381575003 
2361	-1.15770060555784E-02 
2362	-2.93249755547469E-02 
2363	-8.74357738346814E-02 
2364	-0.105644032665591 
2365	-7.84611947036372E-02 
2366	 2.81192795366351E-03 
2367	 9.02340614825949E-02 
2368	 0.177779263356887 
2369	 0.183115062881922 
2370	 0.208857891793106 
2371	 0.256633390784828 
2372	 0.18162510302802 
2373	 0.176578077792578 
2374	 0.136397415903436 
2375	-0.107107600685401 
2376	-0.197359256676084 
2377	-0.296912064417861 
2378	-0.356215406800238 
2379	-0.293306948198778 
2380	-0.287411844528578 
2381	-0.306197262567125 
2382	-0.410369225036426 
2383	-0.409348174982638 
2384	-8.95881077832641E-02 
2385	 0.22881683299836 
2386	 0.336655069774057 
2387	 0.412664733509234 
2388	 0.477846537217954 
2389	 0.325590257322346 
2390	 0.353360467585575 
2391	 0.286485481299542 
2392	 0.077438782026063 
2393	 0.044022778908089 
2394	 0.191125575946322 
2395	 0.421370405371957 
2396	 0.407601670535892 
2397	 0.378726747751858 
2398	 0.19900237140973 
2399	-2.38285415110536E-02 
2400	 4.28262378392957E-02 
2401	 2.66871758311772E-02 
2402	-4.44792415795363E-02 
2403	-6.22506285391678E-02 
2404	-6.80296123887326E-02 
2405	-0.102231440640183 
2406	-0.162688804281282 
2407	-0.207812254464826 
2408	-0.462595659202112 
2409	-0.815982179166926 
2410	 0.887509255431948 
2411	 0.52333527754416 
2412	 1.02551871957068 
2413	 1.07974387962892 
2414	 0.984698166182522 
2415	 0.806009142947495 
2416	 0.128309661935205 
2417	-0.205890012782565 
2418	-0.956000012802356 
2419	-1.42395953206068 
2420	-3.09507595175241 
2421	 0.308119639533017 
2422	 0.788698432092282 
2423	 0.943430259131185 
2424	 1.82765893648434 
2425	 2.69363778153959 
2426	 5.2725098061691 
2427	 0.973987191152883 
2428	 8.150080180258 
2429	-1.2010815997679 
2430	 0.567344062436828 
2431	 1.76130263149997 
2432	 2.55768848875478 
2433	-28.0999804760494 
2434	-0.89529415641019 
2435	-0.778793330493425 
2436	-0.159470925381865 
2437	-0.45833808676254 
2438	-1.00110367887062 
2439	-0.914380189559152 
2440	-2.04889941412861 
2441	-1.19694750589039 
2442	-0.85010385388087 
2443	-0.798384677193036 
2444	-0.497080233226512 
2445	-0.229520412980646 
2446	-4.98025588230119E-02 
2447	 0.282425437429403 
2448	 0.567520960313504 
2449	 1.31646384407677 
2450	 1.78683720989296 
2451	 1.53877934877336 
2452	 0.945059559130634 
2453	 0.532414902093081 
2454	 0.912288552915167 
2455	 0.334532851997359 
2456	 5.60349474833121E-02 
2457	 3.97785042606279E-03 
2458	 0.161690979484276 
2459	 0.172139876984872 
2460	 0.355228330515422 
2461	 0.63160750226116 
2462	 0.467628387693009 
2463	 0.698828116508704 
2464	 2.81937807010326 
2465	 13.520588902403 
2466	 3.48647430496577 
2467	 2.12881642122311 
2468	 1.21196023093393 
2469	 0.314215060012831 
2470	-9.96544538710242E-02 
2471	-0.123270550492845 
2472	-0.395200110389847 
2473	-0.418564929612601 
2474	-0.011276889940317 
2475	 0.811631187229846 
2476	 1.36093012627218 
2477	 2.96062062821778 
2478	-0.653171149124261 
2479	 0.395091132040557 
2480	 7.87752795937851 
2481	-4.48739431908073 
2482	-2.1479555443239 
2483	-0.805783202080121 
2484	-1.03947298656746 
2485	-0.790987899973604 
2486	-0.402117384977827 
2487	-0.947008813298329 
2488	-0.850621115151381 
2489	-0.44651887600145 
2490	-0.484578360108402 
2491	-0.516218599749746 
2492	-0.582180295237451 
2493	-1.04314839114036 
2494	-1.43890461375606 
2495	-1.07189812839452 
2496	-1.05600605140519 
2497	-0.514294657410444 
2498	-0.211135411147357 
2499	-0.183126442779954 
2500	 0.243715333538204 
