Wavelength	rt0704rt00008.asd
350	 5.31604840766726E-02 
351	 5.32622460691431E-02 
352	 5.39248676202035E-02 
353	 5.43527606028308E-02 
354	 5.42072410313389E-02 
355	 5.46387856040073E-02 
356	 5.49372513150364E-02 
357	 5.53072087397879E-02 
358	 5.59940094437161E-02 
359	 5.61734772416607E-02 
360	 5.67080066805062E-02 
361	 0.057557260536826 
362	 5.80444290494573E-02 
363	 5.80167498159746E-02 
364	 5.81813426481599E-02 
365	 5.88500963839427E-02 
366	 5.95931856188904E-02 
367	 6.03039602019008E-02 
368	 6.04642352865311E-02 
369	 6.00309064505555E-02 
370	 6.08878270110036E-02 
371	 6.16372448221211E-02 
372	 6.20099958705729E-02 
373	 6.24391507095258E-02 
374	 6.29840817521401E-02 
375	 6.34105208624339E-02 
376	 6.38208033161089E-02 
377	 6.47969978837131E-02 
378	 6.50252906774784E-02 
379	 6.51842572498751E-02 
380	 6.59374301970846E-02 
381	 6.63545531616709E-02 
382	 6.66489971475272E-02 
383	 6.68068173462447E-02 
384	 6.68031555180266E-02 
385	 6.71763401635438E-02 
386	 6.76508160912298E-02 
387	 6.80787596828328E-02 
388	 6.85287228345932E-02 
389	 6.85284701559319E-02 
390	 6.84106150262306E-02 
391	 6.85019183681181E-02 
392	 6.87182754996319E-02 
393	 6.89452626232266E-02 
394	 0.068940080452615 
395	 6.86075539148944E-02 
396	 0.068708770753351 
397	 0.069000365749211 
398	 0.069216548904622 
399	 6.91588078436093E-02 
400	 6.89596188428175E-02 
401	 6.87482769475229E-02 
402	 6.86120075366024E-02 
403	 0.068595746256273 
404	 6.83900364929714E-02 
405	 6.81173605440972E-02 
406	 0.067994363266893 
407	 6.77488945076344E-02 
408	 6.74297506565819E-02 
409	 6.71207964144932E-02 
410	 6.69049296860977E-02 
411	 6.64810030928261E-02 
412	 6.60719004472203E-02 
413	 6.58177497030469E-02 
414	 6.54121785530769E-02 
415	 6.51888921401213E-02 
416	 6.50387771511813E-02 
417	 6.47076723613707E-02 
418	 6.42349261114235E-02 
419	 6.39304177375975E-02 
420	 0.063822500997396 
421	 6.36236791098199E-02 
422	 0.063343078918813 
423	 0.063106285446934 
424	 6.30316459276686E-02 
425	 6.31720199577026E-02 
426	 6.31052458684777E-02 
427	 6.29530536568204E-02 
428	 6.30440906159964E-02 
429	 6.30415791242653E-02 
430	 6.30521101452851E-02 
431	 6.31216862223356E-02 
432	 6.31786361882178E-02 
433	 6.33555887073785E-02 
434	 6.34912737040058E-02 
435	 6.35132474584741E-02 
436	 6.38367198835739E-02 
437	 6.39287679336031E-02 
438	 6.38259133501799E-02 
439	 6.38515079606849E-02 
440	 6.37939257035688E-02 
441	 6.37924490980527E-02 
442	 6.39010846589331E-02 
443	 0.064003192898376 
444	 0.064026735739513 
445	 6.39608193222676E-02 
446	 6.38466291076577E-02 
447	 0.06381523965324 
448	 6.38401106650902E-02 
449	 0.063807386794191 
450	 6.35766336736577E-02 
451	 6.34758765082005E-02 
452	 6.34595508076704E-02 
453	 6.34196293591695E-02 
454	 6.32435515029389E-02 
455	 6.30056721281903E-02 
456	 6.27456598634219E-02 
457	 6.25007983171204E-02 
458	 6.23476786704301E-02 
459	 6.21509597341202E-02 
460	 6.19103532894859E-02 
461	 6.17618309587588E-02 
462	 6.14666483650543E-02 
463	 6.11485236697222E-02 
464	 6.09502849911506E-02 
465	 6.08858329001303E-02 
466	 6.06763585523995E-02 
467	 6.03952584480442E-02 
468	 6.02554445622138E-02 
469	 6.00207300009662E-02 
470	 5.98198334394499E-02 
471	 5.97058788707646E-02 
472	 0.059589102185462 
473	 5.94191844220258E-02 
474	 5.93354772217712E-02 
475	 5.93973250010607E-02 
476	 5.91881155108289E-02 
477	 5.90456227638389E-02 
478	 5.90404862887041E-02 
479	 5.90456482009763E-02 
480	 5.90081575034945E-02 
481	 5.89343999494421E-02 
482	 5.88839715562061E-02 
483	 5.90167265139993E-02 
484	 5.90233280748154E-02 
485	 5.89803174844739E-02 
486	 5.90667724523202E-02 
487	 5.91635770976394E-02 
488	 5.91667954109652E-02 
489	 5.91869188813417E-02 
490	 0.05951064057275 
491	 5.96440189611195E-02 
492	 5.97707605019511E-02 
493	 6.00660635890271E-02 
494	 6.03116499756112E-02 
495	 6.05597745576746E-02 
496	 6.08212842248015E-02 
497	 0.06108691289786 
498	 6.13281418405105E-02 
499	 0.061571979305924 
500	 6.18327141784207E-02 
501	 6.20941138145246E-02 
502	 6.24154542447352E-02 
503	 6.26694645392406E-02 
504	 6.27834700409929E-02 
505	 6.31229930379908E-02 
506	 6.33905737511305E-02 
507	 6.35906600967465E-02 
508	 6.39591284510382E-02 
509	 6.42601968006921E-02 
510	 6.45611700491082E-02 
511	 6.49088474457136E-02 
512	 6.51789542061331E-02 
513	 6.55394146052524E-02 
514	 6.59249337287329E-02 
515	 6.62149874842781E-02 
516	 6.67040944542259E-02 
517	 6.71930651295651E-02 
518	 6.75871946023496E-02 
519	 6.79780533395091E-02 
520	 6.85330025046529E-02 
521	 6.91183809709585E-02 
522	 6.96287015936548E-02 
523	 7.03045013213671E-02 
524	 7.10098179326384E-02 
525	 7.17271556160095E-02 
526	 7.25249459659732E-02 
527	 7.33764620333539E-02 
528	 7.43112507884762E-02 
529	 7.53202538346479E-02 
530	 7.63015861707841E-02 
531	 7.74245198078331E-02 
532	 7.86803665276331E-02 
533	 8.00007882477805E-02 
534	 8.14433823151113E-02 
535	 8.29247007824736E-02 
536	 8.44108609478085E-02 
537	 8.59277263431341E-02 
538	 8.76366636098556E-02 
539	 8.94456289369958E-02 
540	 0.091250387059857 
541	 9.31513910515924E-02 
542	 9.49964484870847E-02 
543	 9.68136423844999E-02 
544	 9.87383343074299E-02 
545	 0.100675176249968 
546	 0.102541419103618 
547	 0.104322830274897 
548	 0.106135409489489 
549	 0.107971167402148 
550	 0.109698941046675 
551	 0.111207537915703 
552	 0.11274834699799 
553	 0.114245744444255 
554	 0.115715047373803 
555	 0.117282039364353 
556	 0.118780507499709 
557	 0.120336473906558 
558	 0.122042610489727 
559	 0.123710853576203 
560	 0.125427521874944 
561	 0.127221575270171 
562	 0.12908609434971 
563	 0.130903795316541 
564	 0.132741293114043 
565	 0.134571152752864 
566	 0.136142026926549 
567	 0.137515966328039 
568	 0.138840289140709 
569	 0.140234450069385 
570	 0.141468167146417 
571	 0.14246115270605 
572	 0.143247545859901 
573	 0.14396707251179 
574	 0.144812150502323 
575	 0.145669912789097 
576	 0.146402043776365 
577	 0.147073626262949 
578	 0.14770692586058 
579	 0.148327372803769 
580	 0.148942778161634 
581	 0.149388221138122 
582	 0.149796241119809 
583	 0.150183769767016 
584	 0.150279298558949 
585	 0.150275669469112 
586	 0.150181701723842 
587	 0.149989833884066 
588	 0.149974410775403 
589	 0.150100391064376 
590	 0.150276616925136 
591	 0.150405281917614 
592	 0.150516956421304 
593	 0.150663510714416 
594	 0.150838293946813 
595	 0.150848628161548 
596	 0.150903979946696 
597	 0.150935759889127 
598	 0.150760652622553 
599	 0.15070147075756 
600	 0.150567900447383 
601	 0.150308959222873 
602	 0.150205876769623 
603	 0.150233238676596 
604	 0.150194522336853 
605	 0.149947138036034 
606	 0.149958510261541 
607	 0.149927342731272 
608	 0.149770007813005 
609	 0.149661157338497 
610	 0.149514596438374 
611	 0.149238871131491 
612	 0.148859619682231 
613	 0.148765351408288 
614	 0.148540118326605 
615	 0.148215076344183 
616	 0.148049082708072 
617	 0.147848022707559 
618	 0.14757967387897 
619	 0.147314152139469 
620	 0.147271381252856 
621	 0.147147771011414 
622	 0.146967045892122 
623	 0.146833932266384 
624	 0.146684160504121 
625	 0.146506765193711 
626	 0.146340444413647 
627	 0.146270532689364 
628	 0.146309601313269 
629	 0.146368518826558 
630	 0.146364736500413 
631	 0.146294133476962 
632	 0.146111901526023 
633	 0.145877683064463 
634	 0.145653822866187 
635	 0.145112155324258 
636	 0.144573075369325 
637	 0.144095255660021 
638	 0.143268948121304 
639	 0.14241925186696 
640	 0.141522295258916 
641	 0.140514627354084 
642	 0.139573037135345 
643	 0.138412551132405 
644	 0.13697098396959 
645	 0.13538610478285 
646	 0.133651259616126 
647	 0.131970702953544 
648	 0.130541638048655 
649	 0.129313036667149 
650	 0.128142696420034 
651	 0.127193079757696 
652	 0.126717180835871 
653	 0.126317315685244 
654	 0.126064969926743 
655	 0.125973225574882 
656	 0.125911076002598 
657	 0.125638545626404 
658	 0.125219027552683 
659	 0.124707943771826 
660	 0.124012143625651 
661	 0.122906738289583 
662	 0.12146217929379 
663	 0.119963037297414 
664	 0.118470697695496 
665	 0.116953546935057 
666	 0.115408472252351 
667	 0.11395848237784 
668	 0.112556635005325 
669	 0.11128319139638 
670	 0.110245629227066 
671	 0.109440574052894 
672	 0.108756197810524 
673	 0.108290973820442 
674	 0.108321442498678 
675	 0.108456417229523 
676	 0.108770821547402 
677	 0.109420781699242 
678	 0.110524302524938 
679	 0.112048349200921 
680	 0.113934620093089 
681	 0.116167663857037 
682	 0.119130953386368 
683	 0.12254121289351 
684	 0.126227446813076 
685	 0.130662573232432 
686	 0.135933003308626 
687	 0.141225905034555 
688	 0.145663106583841 
689	 0.150627580814071 
690	 0.155294055373681 
691	 0.159531200262276 
692	 0.163630340723489 
693	 0.168042654139522 
694	 0.17218574256928 
695	 0.175544939388712 
696	 0.178411090506087 
697	 0.18067991428616 
698	 0.182756349683972 
699	 0.184814186662579 
700	 0.186320869707783 
701	 0.187803506565459 
702	 0.189210640925536 
703	 0.190080536270279 
704	 0.190293693553901 
705	 0.190322799524554 
706	 0.190425675597851 
707	 0.190268402830005 
708	 0.189555138737932 
709	 0.188479772036314 
710	 0.187375285875814 
711	 0.186099719572933 
712	 0.184441346156139 
713	 0.182417540709947 
714	 0.180231305414464 
715	 0.177755211366633 
716	 0.174936445048974 
717	 0.172092502966094 
718	 0.169291854877962 
719	 0.166723661880066 
720	 0.164714590719282 
721	 0.162842045110381 
722	 0.160325972510667 
723	 0.157386457035915 
724	 0.154699245100676 
725	 0.152255781328509 
726	 0.149304544012255 
727	 0.146129105476901 
728	 0.143041300082501 
729	 0.139594036342786 
730	 0.136266245591258 
731	 0.133419662078895 
732	 0.130935864122562 
733	 0.128493271634529 
734	 0.126374017459431 
735	 0.124677383296879 
736	 0.123175583764168 
737	 0.122254401310899 
738	 0.121618104687439 
739	 0.120986382246365 
740	 0.120545756020866 
741	 0.120180996918209 
742	 0.119989597210609 
743	 0.120089151664616 
744	 0.119910459632129 
745	 0.119804076678967 
746	 0.119849940109173 
747	 0.119646410925686 
748	 0.119594579234847 
749	 0.119567012609695 
750	 0.119436937157863 
751	 0.1195554697212 
752	 0.119476149461278 
753	 0.119263287712025 
754	 0.119224079957807 
755	 0.119085886652315 
756	 0.119076491456849 
757	 0.11917808863661 
758	 0.118878265294087 
759	 0.118440405571253 
760	 0.118018716808164 
761	 0.117879579984742 
762	 0.117612636044929 
763	 0.117532480234262 
764	 0.117883026327316 
765	 0.118620902871024 
766	 0.11917149026173 
767	 0.119439462430963 
768	 0.11961089320831 
769	 0.120082792194671 
770	 0.120386001405641 
771	 0.120590492001902 
772	 0.12080885062939 
773	 0.120948125636775 
774	 0.121223657712632 
775	 0.121514900403766 
776	 0.121644991580588 
777	 0.122045533984473 
778	 0.122495983963301 
779	 0.122887662639628 
780	 0.123281557792072 
781	 0.123800193485863 
782	 0.124263512696125 
783	 0.124601641215589 
784	 0.125131823432165 
785	 0.125644055266754 
786	 0.126073661742426 
787	 0.126432746793829 
788	 0.126855662099947 
789	 0.127307651158425 
790	 0.127903898712312 
791	 0.128825209990015 
792	 0.12955450622315 
793	 0.130137608377248 
794	 0.130665785848748 
795	 0.13112234787866 
796	 0.131565208614628 
797	 0.131992011959788 
798	 0.132416784086072 
799	 0.132900466216523 
800	 0.133313032564269 
801	 0.133714049606345 
802	 0.134227863122341 
803	 0.1345432006267 
804	 0.13483320331413 
805	 0.13513181831271 
806	 0.135284028129942 
807	 0.135411168102531 
808	 0.135173293435834 
809	 0.134489745469563 
810	 0.134247858796796 
811	 0.133566487188712 
812	 0.132596392677586 
813	 0.131850194246189 
814	 0.130801315516008 
815	 0.129730683198546 
816	 0.129191120614378 
817	 0.129492482456965 
818	 0.128722668525823 
819	 0.127540844049211 
820	 0.126428466376053 
821	 0.125421781638793 
822	 0.123681233101648 
823	 0.12180192035023 
824	 0.120303720077365 
825	 0.118449749845079 
826	 0.115955312250587 
827	 0.113139293077606 
828	 0.110704500862024 
829	 0.108207622499322 
830	 0.106166221005207 
831	 0.10465283454027 
832	 0.103430949425922 
833	 0.102179141347495 
834	 0.101244194395282 
835	 0.100606527456189 
836	 9.97329688234964E-02 
837	 9.91201767935526E-02 
838	 9.89081019341303E-02 
839	 9.88637836086984E-02 
840	 9.80103788733286E-02 
841	 9.73438805346651E-02 
842	 9.70685014948122E-02 
843	 9.69696383115188E-02 
844	 9.63878292934047E-02 
845	 9.61528191408636E-02 
846	 9.60956337403103E-02 
847	 9.54317909450083E-02 
848	 9.46962476936207E-02 
849	 9.40647266551349E-02 
850	 9.37352742768771E-02 
851	 9.39044687547396E-02 
852	 0.093419198110435 
853	 9.28145828039535E-02 
854	 9.25823761920213E-02 
855	 9.23042678332189E-02 
856	 0.091645001507292 
857	 9.12659050593427E-02 
858	 0.09158272131194 
859	 9.11596566035743E-02 
860	 9.07587963877276E-02 
861	 9.04101249568412E-02 
862	 8.98870556344678E-02 
863	 8.98685406961734E-02 
864	 8.97650813320877E-02 
865	 8.93646296372293E-02 
866	 8.89040118115617E-02 
867	 8.85233156385252E-02 
868	 8.80646756119679E-02 
869	 8.75578044848025E-02 
870	 8.73165512354229E-02 
871	 8.69173381943271E-02 
872	 8.61833539574885E-02 
873	 8.53305007502441E-02 
874	 8.52987524532999E-02 
875	 8.51681438140731E-02 
876	 0.084665363403841 
877	 8.39197990487186E-02 
878	 8.36517977212237E-02 
879	 8.32812225339086E-02 
880	 8.27287626021781E-02 
881	 8.21495179635574E-02 
882	 8.14612456847242E-02 
883	 8.07725070410338E-02 
884	 8.02887245325412E-02 
885	 8.01662669179095E-02 
886	 7.96613214275186E-02 
887	 0.079001825273447 
888	 7.84190549544258E-02 
889	 7.79999098279937E-02 
890	 7.77496676608023E-02 
891	 7.73959419172886E-02 
892	 7.66888819206944E-02 
893	 7.55381434698375E-02 
894	 0.075006196207986 
895	 7.48658203065758E-02 
896	 7.44460877541069E-02 
897	 7.32766148095085E-02 
898	 7.30383805071361E-02 
899	 7.28418790209385E-02 
900	 7.16734202439207E-02 
901	 7.15907311895848E-02 
902	 0.071520084579993 
903	 7.12416428726428E-02 
904	 7.08332759399887E-02 
905	 7.00338886861635E-02 
906	 6.94699796583769E-02 
907	 6.91082688507898E-02 
908	 6.83472725865573E-02 
909	 6.64988484806234E-02 
910	 6.61747564451075E-02 
911	 6.69808601027487E-02 
912	 6.58299197419619E-02 
913	 6.40799690016566E-02 
914	 0.063349685328046 
915	 6.34350803655922E-02 
916	 6.22985987177849E-02 
917	 0.062134869760897 
918	 6.24654158841644E-02 
919	 6.22018566201225E-02 
920	 6.01401550600172E-02 
921	 5.96679105138713E-02 
922	 5.94287912868895E-02 
923	 5.82739608011393E-02 
924	 5.75430745534099E-02 
925	 5.63299261304383E-02 
926	 0.054791922219729 
927	 5.37465006004276E-02 
928	 5.52776883653992E-02 
929	 5.34529487747631E-02 
930	 4.90488264619853E-02 
931	 0.047430080935636 
932	 4.57800028992046E-02 
933	 4.27648735308225E-02 
934	 4.11456699423099E-02 
935	 4.43827722064154E-02 
936	 5.03687313880618E-02 
937	 4.24067663455077E-02 
938	 3.31411356287931E-02 
939	 3.68324317565743E-02 
940	 0.040542224021236 
941	 4.50666625422969E-02 
942	 4.46589143637086E-02 
943	 0.034069825966763 
944	 3.27311069173586E-02 
945	 3.54784856502402E-02 
946	 3.68726662522941E-02 
947	 3.44599440524962E-02 
948	 3.44508485378757E-02 
949	 3.24697794692231E-02 
950	 3.26263352233182E-02 
951	 4.00138968508466E-02 
952	 3.31398826347318E-02 
953	 0.028858584655017 
954	 3.06202291997749E-02 
955	 3.14746938782926E-02 
956	 3.38561552241048E-02 
957	 3.65987658075657E-02 
958	 3.74685679512259E-02 
959	 3.48079229028571E-02 
960	 0.03406588243219 
961	 3.05660368711583E-02 
962	 2.83140825024314E-02 
963	 3.41567530404962E-02 
964	 3.29286561059341E-02 
965	 3.27910362635829E-02 
966	 3.48877834402294E-02 
967	 3.47871311774422E-02 
968	 3.28986975489789E-02 
969	 3.39811481869427E-02 
970	 3.66508564216103E-02 
971	 0.035239367110629 
972	 3.46265613697204E-02 
973	 3.42132239053419E-02 
974	 3.30116405552046E-02 
975	 3.09580092653009E-02 
976	 3.35255078101716E-02 
977	 3.38153871056468E-02 
978	 3.21944541267511E-02 
979	 3.48210483793041E-02 
980	 3.41827095421663E-02 
981	 3.58534661755241E-02 
982	 3.76403656160747E-02 
983	 3.26450347176367E-02 
984	 3.10662993123775E-02 
985	 3.35938684455101E-02 
986	 3.62850248214318E-02 
987	 3.40741553108676E-02 
988	 0.032955912351043 
989	 3.56682854429356E-02 
990	 3.82991732511227E-02 
991	 3.46148476974601E-02 
992	 3.43203534850244E-02 
993	 3.55776218313024E-02 
994	 3.61406783702464E-02 
995	 0.035048761834821 
996	 3.61462136425892E-02 
997	 3.65635958175306E-02 
998	 3.64959037349273E-02 
999	 3.74878492070123E-02 
1000	 3.55451489333699E-02 
1001	 3.90552809192498E-02 
1002	 3.92712302618749E-02 
1003	 3.91954256774915E-02 
1004	 3.81080553497711E-02 
1005	 3.79699444427792E-02 
1006	 3.84949983594134E-02 
1007	 3.86422829526886E-02 
1008	 3.89197715714132E-02 
1009	 3.92753968362281E-02 
1010	 3.90105302597854E-02 
1011	 3.94796493572009E-02 
1012	 4.02688311350796E-02 
1013	 4.07612478418199E-02 
1014	 4.08003764572838E-02 
1015	 4.04330144736415E-02 
1016	 4.03376887997182E-02 
1017	 3.97552867133516E-02 
1018	 3.95912024480211E-02 
1019	 3.98142653140396E-02 
1020	 3.99995393963118E-02 
1021	 0.040144235378876 
1022	 4.05021889710318E-02 
1023	 4.07949952514356E-02 
1024	 4.15949328354325E-02 
1025	 4.22759485947903E-02 
1026	 0.042764448059014 
1027	 4.29246679774896E-02 
1028	 4.27835809934774E-02 
1029	 4.28802448150545E-02 
1030	 4.26104919367044E-02 
1031	 4.27533290613966E-02 
1032	 4.34106192279044E-02 
1033	 4.37537631730536E-02 
1034	 4.41589349929715E-02 
1035	 4.43467101276926E-02 
1036	 4.40615917685466E-02 
1037	 4.42784449502172E-02 
1038	 4.48148028868587E-02 
1039	 4.49359344442412E-02 
1040	 4.57832029296178E-02 
1041	 0.046357557872955 
1042	 4.64700479589726E-02 
1043	 4.60649613986388E-02 
1044	 4.62135405076218E-02 
1045	 4.63129971315506E-02 
1046	 4.63764623246826E-02 
1047	 4.67659876367501E-02 
1048	 4.68199044058208E-02 
1049	 4.60588000647473E-02 
1050	 4.63217349390233E-02 
1051	 4.74620957080927E-02 
1052	 4.79348241266023E-02 
1053	 4.85821861302482E-02 
1054	 4.91607585655691E-02 
1055	 4.94055310994886E-02 
1056	 4.94860404510437E-02 
1057	 4.95086993352056E-02 
1058	 4.97491355432025E-02 
1059	 4.96377680087788E-02 
1060	 4.88970658491707E-02 
1061	 0.048815246688084 
1062	 4.90657422921764E-02 
1063	 4.91137716584689E-02 
1064	 4.92333249459002E-02 
1065	 0.049401008793836 
1066	 4.95371644420636E-02 
1067	 4.96749527813943E-02 
1068	 5.00322156158145E-02 
1069	 5.01713074167084E-02 
1070	 4.99821002945808E-02 
1071	 5.00321446440892E-02 
1072	 5.04022598027026E-02 
1073	 0.050465333714312 
1074	 5.01102493573787E-02 
1075	 4.95964005479348E-02 
1076	 4.90906472248052E-02 
1077	 4.77214126564746E-02 
1078	 4.74801939822996E-02 
1079	 4.81118371288156E-02 
1080	 4.81547040589959E-02 
1081	 4.82935072403399E-02 
1082	 4.85514191212745E-02 
1083	 4.87709031018986E-02 
1084	 4.86299882510475E-02 
1085	 4.87023990742505E-02 
1086	 4.84737118263755E-02 
1087	 4.76204920854911E-02 
1088	 4.70096234094028E-02 
1089	 4.66656794545391E-02 
1090	 4.54745750982725E-02 
1091	 4.53140337926958E-02 
1092	 4.54683066747322E-02 
1093	 0.045430726199003 
1094	 4.63008771048582E-02 
1095	 4.62218397572913E-02 
1096	 4.49350317293724E-02 
1097	 0.044655981046156 
1098	 4.48219119841283E-02 
1099	 4.44666421755117E-02 
1100	 4.47280016592079E-02 
1101	 4.43349596933136E-02 
1102	 4.19251089102668E-02 
1103	 4.13600638364041E-02 
1104	 4.18317565583189E-02 
1105	 4.24297202644103E-02 
1106	 4.29443090125661E-02 
1107	 4.40733850804079E-02 
1108	 4.38237497784715E-02 
1109	 4.26279591817674E-02 
1110	 0.042355892462763 
1111	 4.29195166815037E-02 
1112	 4.30110388476388E-02 
1113	 4.35593244065403E-02 
1114	 0.042543463038945 
1115	 3.95103176491046E-02 
1116	 3.73641408470595E-02 
1117	 0.032613140749687 
1118	 3.01020702087139E-02 
1119	 3.14507057008731E-02 
1120	 3.20994574196905E-02 
1121	 3.58370338682084E-02 
1122	 4.07329137458209E-02 
1123	 4.06174844726347E-02 
1124	 0.040216214671401 
1125	 3.76611943358412E-02 
1126	 3.39094882529432E-02 
1127	 3.60425575960561E-02 
1128	 3.66004237287838E-02 
1129	 3.40970595893577E-02 
1130	 2.81437379612138E-02 
1131	 2.69735502854879E-02 
1132	 0.026877619301152 
1133	 0.026806917798693 
1134	 0.02674945286062 
1135	 2.90444252895877E-02 
1136	 3.46400359293449E-02 
1137	 3.51257335934968E-02 
1138	 3.49376543853891E-02 
1139	 3.44230713455186E-02 
1140	 3.33897432179507E-02 
1141	 3.11125557858448E-02 
1142	 3.22434866226528E-02 
1143	 3.81681742951656E-02 
1144	 3.74173641606149E-02 
1145	 3.12927175829041E-02 
1146	 3.09550242732708E-02 
1147	 2.71509405211522E-02 
1148	 2.56340352053208E-02 
1149	 3.52085141861938E-02 
1150	 0.035990910171536 
1151	 0.031719009637344 
1152	 3.12288509568745E-02 
1153	 3.07704184715028E-02 
1154	 2.87092944508535E-02 
1155	 0.02565601886299 
1156	 2.81878965751592E-02 
1157	 0.028245944867456 
1158	 2.75487918143032E-02 
1159	 2.98193692343287E-02 
1160	 3.03917042920561E-02 
1161	 2.91952950465975E-02 
1162	 0.02861444436667 
1163	 2.78643639398731E-02 
1164	 2.77249830951277E-02 
1165	 2.79811938897085E-02 
1166	 2.80397609046549E-02 
1167	 2.88349550139798E-02 
1168	 2.94812222962239E-02 
1169	 2.92924123736529E-02 
1170	 2.97232026522181E-02 
1171	 2.98157412254259E-02 
1172	 2.86993709142795E-02 
1173	 2.83386296011683E-02 
1174	 2.85323961246329E-02 
1175	 2.89312198088948E-02 
1176	 2.79860594746206E-02 
1177	 2.80460974955496E-02 
1178	 2.88927173945537E-02 
1179	 2.89992844619785E-02 
1180	 2.92963246992121E-02 
1181	 2.99765878947882E-02 
1182	 0.029925934816864 
1183	 2.93410644363242E-02 
1184	 2.94120828852365E-02 
1185	 2.98561886663694E-02 
1186	 2.96882478174836E-02 
1187	 2.93638323703067E-02 
1188	 2.90661963544527E-02 
1189	 2.87629939224732E-02 
1190	 2.89169181992806E-02 
1191	 2.89659935036378E-02 
1192	 2.90041596514476E-02 
1193	 2.91915048482393E-02 
1194	 2.95055964266683E-02 
1195	 2.94482406593384E-02 
1196	 2.91170014851999E-02 
1197	 2.90376194852737E-02 
1198	 2.91523610066213E-02 
1199	 2.89221209985943E-02 
1200	 2.91771651803047E-02 
1201	 3.00055942279318E-02 
1202	 3.02151766809816E-02 
1203	 0.029729711362368 
1204	 2.91520225214755E-02 
1205	 2.90102889221242E-02 
1206	 0.028969370547518 
1207	 2.90877314058969E-02 
1208	 0.029894262198658 
1209	 3.01470907728379E-02 
1210	 2.97397144755846E-02 
1211	 2.96092739009973E-02 
1212	 2.96045336923293E-02 
1213	 2.99607596992502E-02 
1214	 3.00109277350291E-02 
1215	 0.030114310193669 
1216	 3.00153583475603E-02 
1217	 2.98119838902558E-02 
1218	 2.91108503935766E-02 
1219	 2.89151221861886E-02 
1220	 0.029596564670976 
1221	 3.01013198117759E-02 
1222	 2.99816385424207E-02 
1223	 2.96078191208294E-02 
1224	 2.94665946742228E-02 
1225	 2.94469063876547E-02 
1226	 0.029529842640269 
1227	 3.01944180304703E-02 
1228	 0.030467085864498 
1229	 2.98994881487964E-02 
1230	 3.01581296343682E-02 
1231	 3.07413145498921E-02 
1232	 3.04292669355768E-02 
1233	 3.04064858345317E-02 
1234	 3.08911092636242E-02 
1235	 3.10477643500524E-02 
1236	 3.10869839618095E-02 
1237	 3.10026986887495E-02 
1238	 3.08928847943587E-02 
1239	 3.04694922344042E-02 
1240	 3.02332980017908E-02 
1241	 3.02305007881101E-02 
1242	 3.01439719139172E-02 
1243	 2.99697708926137E-02 
1244	 3.01034451329754E-02 
1245	 3.01192917291989E-02 
1246	 3.03147415907698E-02 
1247	 3.06943267442493E-02 
1248	 3.05232404544111E-02 
1249	 3.03180710861243E-02 
1250	 2.99471051608567E-02 
1251	 2.95254331882892E-02 
1252	 2.95914882653058E-02 
1253	 0.029917636343948 
1254	 3.01611286936951E-02 
1255	 3.03119456262571E-02 
1256	 3.04904453428984E-02 
1257	 3.02142725735527E-02 
1258	 3.01162344121158E-02 
1259	 3.03374805344694E-02 
1260	 3.03970464793594E-02 
1261	 3.03884373929408E-02 
1262	 3.02489363872979E-02 
1263	 2.99068262836275E-02 
1264	 2.98353933387078E-02 
1265	 3.01384126506724E-02 
1266	 2.99083134771693E-02 
1267	 2.98731959144428E-02 
1268	 3.04060766946347E-02 
1269	 3.00721496252824E-02 
1270	 2.92618986531533E-02 
1271	 2.94590302117534E-02 
1272	 2.97973366009425E-02 
1273	 0.030051389168518 
1274	 3.06872434355983E-02 
1275	 3.08558170797876E-02 
1276	 3.04807498056584E-02 
1277	 3.02960399492798E-02 
1278	 3.04430344360604E-02 
1279	 0.030367066763951 
1280	 2.99130518997296E-02 
1281	 2.99092931628477E-02 
1282	 0.030203739798086 
1283	 3.01828089831624E-02 
1284	 3.03744439555206E-02 
1285	 3.05018927875282E-02 
1286	 3.01270219315889E-02 
1287	 2.99416882945261E-02 
1288	 3.00682468049548E-02 
1289	 3.00094207707533E-02 
1290	 2.97512780103847E-02 
1291	 2.97925605754428E-02 
1292	 2.98109471219937E-02 
1293	 2.94482519738651E-02 
1294	 2.89208629386393E-02 
1295	 2.87164593926382E-02 
1296	 2.91483527810248E-02 
1297	 2.92396169521301E-02 
1298	 0.028888174370801 
1299	 2.91549039214892E-02 
1300	 2.91361317460449E-02 
1301	 2.85620031997063E-02 
1302	 2.81642716371348E-02 
1303	 0.027993480017646 
1304	 2.83702569240062E-02 
1305	 2.88610242056968E-02 
1306	 2.86093255884037E-02 
1307	 2.82057211867924E-02 
1308	 2.81968700494025E-02 
1309	 0.027448221426852 
1310	 2.71711082933043E-02 
1311	 2.82998921055644E-02 
1312	 2.83949915745186E-02 
1313	 2.70809746330804E-02 
1314	 2.67959991393537E-02 
1315	 2.75941224200905E-02 
1316	 2.74282822442964E-02 
1317	 2.65109390233175E-02 
1318	 2.64306015529018E-02 
1319	 2.65286413168919E-02 
1320	 2.61830934447265E-02 
1321	 0.026430995010367 
1322	 2.59380082835041E-02 
1323	 2.58546031454991E-02 
1324	 2.63622014823674E-02 
1325	 2.63863585718277E-02 
1326	 2.68483381588085E-02 
1327	 2.63644782798184E-02 
1328	 2.51204507255632E-02 
1329	 2.50061461990408E-02 
1330	 2.52716969131472E-02 
1331	 2.33314237978389E-02 
1332	 2.02937475936967E-02 
1333	 1.98206903534863E-02 
1334	 2.04458898545633E-02 
1335	 2.09036354755478E-02 
1336	 0.024430754693286 
1337	 0.025766488703391 
1338	 2.57780378689165E-02 
1339	 2.49431099862954E-02 
1340	 2.16480768028845E-02 
1341	 2.17962481995846E-02 
1342	 2.46304611970475E-02 
1343	 2.30346283679066E-02 
1344	 2.12063086338672E-02 
1345	 2.01791365507264E-02 
1346	 9.07409004587833E-03 
1347	 3.51718098491764E-03 
1348	 1.06751906941447E-02 
1349	 1.45554910788206E-02 
1350	 2.03157306890375E-02 
1351	 2.98185767430294E-02 
1352	 5.48065725699393E-02 
1353	 8.42349323543484E-02 
1354	 0.12543160268866 
1355	 0.136622275725278 
1356	 0.163150314346393 
1357	 0.198766800278997 
1358	 0.160277084347164 
1359	 0.189135355179604 
1360	 0.26761131931581 
1361	 0.129551329836641 
1362	 0.125067998202976 
1363	 8.35415814990633E-02 
1364	-0.136342250289509 
1365	 8.93673945710935E-02 
1366	 0.742361729757776 
1367	 1.05261545214058 
1368	 1.25541673222819 
1369	 1.20478027189812 
1370	 1.23181372407437 
1371	 1.04677658900213 
1372	 1.02851450965555 
1373	 1.04777844172335 
1374	 1.05724800166444 
1375	 15.64819719655 
1376	 2.57363019981508 
1377	-0.305822628796713 
1378	-0.305771991766979 
1379	-0.253266754076115 
1380	-0.291623145653193 
1381	-0.19974364684899 
1382	-4.62978530689726E-02 
1383	 0.160626822475681 
1384	 0.308217374405243 
1385	 3.71877845712726 
1386	-19.8959600560256 
1387	-0.346259283588044 
1388	-1.04290554562834 
1389	-2.47103224277033 
1390	-1.8522721895569 
1391	-0.198856933698977 
1392	 0.538740306631413 
1393	 1.41191862229844 
1394	 3.52238843361051 
1395	 5.24038457275694 
1396	-191.328130533049 
1397	-15.2200679020849 
1398	 1.12517395757994 
1399	 0.936527265171956 
1400	 8.79233636455836 
1401	-5.41817446571198 
1402	-8.45353779688435 
1403	-6.54636720588833 
1404	 0.989392051234436 
1405	-6.84345008939836E-02 
1406	-0.498140183207157 
1407	-0.510728209782109 
1408	-0.327325266364185 
1409	-1.55136009507514E-02 
1410	 0.13007639484927 
1411	 0.304656282979319 
1412	 0.950633603625615 
1413	 0.886179369397835 
1414	 0.396801099568485 
1415	 0.231418644842534 
1416	-0.176553496417859 
1417	-0.179468722356709 
1418	 0.473737245852297 
1419	 0.452800496253713 
1420	 5.94555266407008E-02 
1421	-1.76575096319394E-03 
1422	-0.10000842493647 
1423	-5.08920991683733E-02 
1424	 0.220439523886425 
1425	 0.191905871865409 
1426	 3.29883771675611E-02 
1427	 4.39217952902396E-02 
1428	 5.74686003342964E-02 
1429	 0.052019970229885 
1430	 0.132012424306986 
1431	 0.160117557917175 
1432	 8.95994271503718E-02 
1433	 6.89892183515784E-02 
1434	 8.16347120840351E-02 
1435	 7.82806724422778E-02 
1436	 4.11544520804808E-02 
1437	 7.70160627644799E-02 
1438	 8.52367005821785E-02 
1439	 9.44096015906425E-02 
1440	 8.86560888808741E-02 
1441	 1.65702773810129E-02 
1442	-2.88632564937863E-04 
1443	 1.46668217570591E-02 
1444	-2.07981105417299E-02 
1445	-7.59848641230817E-03 
1446	-1.16101994456755E-02 
1447	-6.99893654160463E-02 
1448	-5.53653605021567E-02 
1449	-2.49069750844512E-02 
1450	-0.012882802532083 
1451	 1.28153281912551E-02 
1452	 2.91033107183431E-02 
1453	 3.59539232806108E-02 
1454	 0.025124698520159 
1455	 3.309945206988E-04 
1456	-9.59694717607382E-05 
1457	-3.0188483360682E-03 
1458	-4.30982651879777E-03 
1459	 8.86610078949094E-03 
1460	 1.23936738694138E-02 
1461	 6.92265548782126E-03 
1462	 5.0663063438761E-03 
1463	 5.92914313583102E-03 
1464	 5.57025758520984E-03 
1465	 9.47438716451434E-04 
1466	-1.04031566617875E-03 
1467	 1.9805082661485E-03 
1468	 1.89785952735853E-03 
1469	 7.1979792777516E-04 
1470	-5.10345641740873E-04 
1471	-4.23115880799713E-03 
1472	-4.29813113027394E-03 
1473	-0.002037622338019 
1474	-3.06894746854495E-03 
1475	-9.32359127400932E-03 
1476	-4.85013933851247E-03 
1477	 9.06705517608009E-03 
1478	 1.02844456056768E-02 
1479	 1.01670394392293E-02 
1480	 1.20583081324292E-02 
1481	 8.10626421059235E-03 
1482	 5.33333033504043E-03 
1483	 6.39004524448018E-03 
1484	 6.8352479828584E-03 
1485	 4.53416035601369E-03 
1486	 3.95090508474355E-03 
1487	 4.54889180928405E-03 
1488	 5.73651337347717E-03 
1489	 7.87227953782713E-03 
1490	 7.92464615833994E-03 
1491	 7.02548463580699E-03 
1492	 7.68046755253221E-03 
1493	 9.21637629408838E-03 
1494	 8.7977347825405E-03 
1495	 8.2586050825024E-03 
1496	 8.07936497140399E-03 
1497	 5.66751468393315E-03 
1498	 5.32258383123381E-03 
1499	 6.86768319681915E-03 
1500	 7.54762996832088E-03 
1501	 9.00436410888852E-03 
1502	 9.60676456327123E-03 
1503	 9.14806901164384E-03 
1504	 9.41681505461193E-03 
1505	 1.03974611039846E-02 
1506	 9.68298990232744E-03 
1507	 9.83897912234909E-03 
1508	 1.05005865716749E-02 
1509	 9.97836414475583E-03 
1510	 9.31354931648291E-03 
1511	 8.35208395558457E-03 
1512	 8.39999061523071E-03 
1513	 9.05131658255907E-03 
1514	 9.31337738392691E-03 
1515	 1.08814448943343E-02 
1516	 1.23682347025945E-02 
1517	 1.17575135787606E-02 
1518	 1.10982265887342E-02 
1519	 1.04635352705742E-02 
1520	 8.8463518019738E-03 
1521	 8.92306088815911E-03 
1522	 1.01249146613253E-02 
1523	 1.05058864180088E-02 
1524	 1.03538858403601E-02 
1525	 1.01785927188271E-02 
1526	 1.07315352861616E-02 
1527	 1.07919176476387E-02 
1528	 1.03176630699225E-02 
1529	 1.04247541699814E-02 
1530	 1.03677909372355E-02 
1531	 1.03296382413282E-02 
1532	 0.011037740476817 
1533	 1.20827071571488E-02 
1534	 1.25497150886389E-02 
1535	 1.24298419489316E-02 
1536	 1.25556257769309E-02 
1537	 1.22812865677518E-02 
1538	 1.19030955189679E-02 
1539	 1.24999992677366E-02 
1540	 1.26423869872872E-02 
1541	 1.20866342255309E-02 
1542	 1.23351212385204E-02 
1543	 1.25084904446035E-02 
1544	 1.24800384074006E-02 
1545	 1.31400391604687E-02 
1546	 1.32074762016234E-02 
1547	 1.30142776548451E-02 
1548	 1.29341629320681E-02 
1549	 1.28266878581865E-02 
1550	 1.32225688794456E-02 
1551	 1.31562311225215E-02 
1552	 1.33100024611954E-02 
1553	 1.42008148436836E-02 
1554	 1.43129946885384E-02 
1555	 1.42220992505545E-02 
1556	 1.47702126604504E-02 
1557	 1.47982796170701E-02 
1558	 1.45542850718445E-02 
1559	 1.46880072442451E-02 
1560	 1.44748838153762E-02 
1561	 1.45932920988305E-02 
1562	 1.51705106176762E-02 
1563	 1.49478758216227E-02 
1564	 1.51069873978685E-02 
1565	 1.63094431619758E-02 
1566	 1.68490724351522E-02 
1567	 1.62970242252042E-02 
1568	 1.58688055462459E-02 
1569	 1.57010076022102E-02 
1570	 1.48535557088761E-02 
1571	 1.51757944742217E-02 
1572	 1.60234836730378E-02 
1573	 1.51840619450804E-02 
1574	 1.51768379086087E-02 
1575	 1.57559172761044E-02 
1576	 1.53571174548566E-02 
1577	 1.47515416964775E-02 
1578	 0.014460445866181 
1579	 1.45773565867435E-02 
1580	 1.50330772439487E-02 
1581	 1.62266323189889E-02 
1582	 1.67846942492482E-02 
1583	 1.63112950695191E-02 
1584	 1.61492024414251E-02 
1585	 1.58941110930557E-02 
1586	 1.56415589310838E-02 
1587	 1.61389541756331E-02 
1588	 0.017204687925601 
1589	 1.76671314750168E-02 
1590	 1.72242635966355E-02 
1591	 1.78373665355983E-02 
1592	 1.86053767031802E-02 
1593	 1.78883324934767E-02 
1594	 1.78672713125544E-02 
1595	 1.81604506699155E-02 
1596	 0.017289706852118 
1597	 1.70776095127069E-02 
1598	 1.75722592469133E-02 
1599	 1.77602056301519E-02 
1600	 1.76710124545113E-02 
1601	 1.78546882410606E-02 
1602	 1.79670563081399E-02 
1603	 1.68306670339446E-02 
1604	 1.63640270678737E-02 
1605	 1.66035361084553E-02 
1606	 1.65970754637438E-02 
1607	 1.74393170088043E-02 
1608	 1.78086097417566E-02 
1609	 0.017811211928267 
1610	 1.86642447745623E-02 
1611	 1.85802442331199E-02 
1612	 1.74914031657331E-02 
1613	 1.74152591401124E-02 
1614	 1.82334468280401E-02 
1615	 1.87293805601007E-02 
1616	 1.88476113075334E-02 
1617	 1.89674956521886E-02 
1618	 0.018637267710561 
1619	 1.82760041239199E-02 
1620	 1.86556198178284E-02 
1621	 1.87146934089322E-02 
1622	 1.81628510023436E-02 
1623	 1.83963603303841E-02 
1624	 1.88910054542997E-02 
1625	 1.90013136431215E-02 
1626	 1.90187869475584E-02 
1627	 1.86056994323447E-02 
1628	 1.80993574408014E-02 
1629	 1.80977734883674E-02 
1630	 1.84427175768527E-02 
1631	 1.86020646740505E-02 
1632	 1.92837005559862E-02 
1633	 2.04247658372265E-02 
1634	 2.06102058881156E-02 
1635	 0.020036753086644 
1636	 1.96543289033723E-02 
1637	 1.95614151848058E-02 
1638	 1.97367330062783E-02 
1639	 2.03858099717581E-02 
1640	 2.08551904529465E-02 
1641	 2.02367753029722E-02 
1642	 1.88456223198844E-02 
1643	 1.79470179418574E-02 
1644	 1.81152130333203E-02 
1645	 1.84007702504458E-02 
1646	 1.82319277326637E-02 
1647	 1.81282518090865E-02 
1648	 1.82064223986838E-02 
1649	 1.75411714319848E-02 
1650	 1.71342507473372E-02 
1651	 1.86753808143159E-02 
1652	 1.95231854533924E-02 
1653	 1.72627153212647E-02 
1654	 1.73091783268074E-02 
1655	 1.69781901176298E-02 
1656	 1.70830626863342E-02 
1657	 2.01877957653383E-02 
1658	 2.12513360318757E-02 
1659	 2.03991927858578E-02 
1660	 0.019999661130781 
1661	 1.91195994031144E-02 
1662	 1.90469642396444E-02 
1663	 1.93757454640713E-02 
1664	 1.90405183324981E-02 
1665	 1.88569430367603E-02 
1666	 1.91148487880012E-02 
1667	 1.89879513526908E-02 
1668	 1.98265336669099E-02 
1669	 2.03798740838887E-02 
1670	 1.92971219888187E-02 
1671	 1.91559644473158E-02 
1672	 2.02042424545496E-02 
1673	 2.02980816411579E-02 
1674	 2.08944817954565E-02 
1675	 0.021635309404393 
1676	 2.06659501464616E-02 
1677	 2.00215037562797E-02 
1678	 2.02719449837907E-02 
1679	 1.99324657567993E-02 
1680	 1.96961145501351E-02 
1681	 2.04045369045893E-02 
1682	 2.09288131156203E-02 
1683	 2.07433621409397E-02 
1684	 2.04812682697897E-02 
1685	 1.98946973213663E-02 
1686	 1.86779238778635E-02 
1687	 1.81898674065856E-02 
1688	 1.90688791618827E-02 
1689	 1.96255476657084E-02 
1690	 1.98113007613325E-02 
1691	 1.98500079971437E-02 
1692	 1.95077388459699E-02 
1693	 1.94912042976219E-02 
1694	 1.91117264325434E-02 
1695	 1.91535152544068E-02 
1696	 2.00682151676685E-02 
1697	 2.08309717796807E-02 
1698	 2.17109071646967E-02 
1699	 2.16687567393887E-02 
1700	 2.05584223437164E-02 
1701	 1.95882593174656E-02 
1702	 1.84948462113942E-02 
1703	 1.84426301283088E-02 
1704	 1.96382290608888E-02 
1705	 1.95295218723099E-02 
1706	 1.94846281639669E-02 
1707	 2.09486152494987E-02 
1708	 0.021701636171391 
1709	 2.09358443437856E-02 
1710	 2.06145892219394E-02 
1711	 2.09651269137244E-02 
1712	 1.93096732493322E-02 
1713	 1.94999869464229E-02 
1714	 1.99577965343577E-02 
1715	 1.92495146863799E-02 
1716	 1.88206670473652E-02 
1717	 1.90618633197904E-02 
1718	 1.81185396207949E-02 
1719	 1.78274005722718E-02 
1720	 1.86992345098464E-02 
1721	 1.83844615845674E-02 
1722	 0.017994492603739 
1723	 1.89217584838723E-02 
1724	 1.96012255059023E-02 
1725	 1.89191514304305E-02 
1726	 1.91550442747964E-02 
1727	 1.95057554828496E-02 
1728	 1.89134454283821E-02 
1729	 2.00872119263814E-02 
1730	 2.01083529647844E-02 
1731	 1.80406006074692E-02 
1732	 0.017968331908943 
1733	 1.81941624232846E-02 
1734	 1.82914092050564E-02 
1735	 1.97858116058419E-02 
1736	 0.018976631271923 
1737	 1.71224771405408E-02 
1738	 0.017674950369702 
1739	 1.76824547780406E-02 
1740	 1.75408408071717E-02 
1741	 1.94202319007579E-02 
1742	 0.019191047666419 
1743	 1.67688429089477E-02 
1744	 0.016602883098208 
1745	 1.62321285739832E-02 
1746	 1.58471631506219E-02 
1747	 1.60467648015811E-02 
1748	 1.63972043628555E-02 
1749	 1.69073659954913E-02 
1750	 1.78164651789369E-02 
1751	 1.76937063215951E-02 
1752	 1.75860931177271E-02 
1753	 1.76229344020856E-02 
1754	 1.65745291737216E-02 
1755	 1.68141357846289E-02 
1756	 1.84865630130138E-02 
1757	 1.64289990197375E-02 
1758	 1.58569549400392E-02 
1759	 1.66707712274251E-02 
1760	 1.65963580694833E-02 
1761	 1.68919106192275E-02 
1762	 1.85013315722672E-02 
1763	 1.82442298792704E-02 
1764	 1.71482825482422E-02 
1765	 1.59148853911758E-02 
1766	 1.39453586092332E-02 
1767	 1.45954491544698E-02 
1768	 1.32558864059296E-02 
1769	 1.32404121942588E-02 
1770	 0.018233467276862 
1771	 1.96514758453208E-02 
1772	 2.28328440264987E-02 
1773	 2.59367759652462E-02 
1774	 1.96214830500432E-02 
1775	 1.45884563128607E-02 
1776	 1.26303104668076E-02 
1777	 1.64977356631868E-02 
1778	 1.84847897044276E-02 
1779	 1.84161753700394E-02 
1780	 1.89668910355431E-02 
1781	 2.01170958282629E-02 
1782	 2.07410207635243E-02 
1783	 0.0221172730404 
1784	 2.41485185511953E-02 
1785	 2.57907919153581E-02 
1786	 2.37971373877995E-02 
1787	 1.98307974121852E-02 
1788	 2.02018283467193E-02 
1789	 1.88098619617946E-02 
1790	 2.10988001873421E-02 
1791	 2.37297159476961E-02 
1792	 0.01549314553012 
1793	 1.66753685494914E-02 
1794	 3.12360040154096E-02 
1795	 0.036704067394037 
1796	 3.11855542923148E-02 
1797	 2.34839834554536E-02 
1798	 5.59156739248308E-03 
1799	-9.52969614264219E-03 
1800	 3.06083304976329E-02 
1801	 5.37108248076807E-02 
1802	 0.086790217092414 
1803	 0.100718320592634 
1804	 0.04794990739437 
1805	 3.91988045372911E-02 
1806	 0.044335420383676 
1807	 4.99274566356791E-02 
1808	 0.136772248244202 
1809	 0.199697738854077 
1810	 0.195445354918538 
1811	 0.175727860412756 
1812	 5.25089522262732E-02 
1813	 6.98469484509322E-02 
1814	 5.21005829025241E-02 
1815	 0.34321707138359 
1816	 1.44968360910993 
1817	 4.30663858807412 
1818	-10.9810295697593 
1819	-3.12207774671567 
1820	 0.285980111320404 
1821	 0.579571715441761 
1822	 0.421568485867395 
1823	 0.213813786489875 
1824	 0.170132376824644 
1825	-0.31364414367524 
1826	-1.72421313521035 
1827	 0.481163038735452 
1828	 0.436944597364128 
1829	 2.51620037922455 
1830	 3.20224373014165 
1831	-2.3374606984496 
1832	-1.0666123228259 
1833	-1.1967523631014 
1834	-1.13504948285497 
1835	-0.569329356317833 
1836	-0.38213412111021 
1837	-0.341649653822241 
1838	-5.39665072193417E-02 
1839	-5.25144179944778 
1840	 2.44757393235924 
1841	 1.37715039915377 
1842	-4.10974673081164 
1843	-19.372499538939 
1844	 1.66252384035953 
1845	 1.56143174425255 
1846	 1.04283487279462 
1847	 0.952541196321609 
1848	 1.32495955719187 
1849	-2.6433239337683 
1850	 1.30164050662361 
1851	 1.59246726402687 
1852	 1.48841018730013 
1853	 1.7893539739818 
1854	 1.29193500771354 
1855	-0.415073155679183 
1856	-0.95672060571918 
1857	-1.45063968101656 
1858	-2.57313505224077 
1859	-9.85513667651161 
1860	 27.3095029855748 
1861	 8.30123286296116 
1862	 3.9429760714221 
1863	 1.72265105705328 
1864	 0.724216461763114 
1865	 0.441987211808554 
1866	 0.200727946156274 
1867	 2.91729689837576E-02 
1868	 0.279060761674895 
1869	 0.368607161093168 
1870	 0.332126904173095 
1871	 0.402551396719002 
1872	 0.830430612548832 
1873	 1.07036584992944 
1874	-0.65771070981634 
1875	 3.58516478216096 
1876	 3.243190318226 
1877	 10.5800549577382 
1878	-15.5676482035171 
1879	-2.17038105020304 
1880	-1.42266741463327 
1881	-0.743171874372935 
1882	-0.719481223654594 
1883	-1.67492759092842 
1884	-2.74941375560768 
1885	-0.961352804193479 
1886	-0.564145708541598 
1887	 0.620644836172772 
1888	 2.18573655419636 
1889	 2.39193076338762 
1890	 0.687521257668213 
1891	 0.76093051691215 
1892	 1.59888828651441 
1893	 1.1698776888218 
1894	 0.544592421776116 
1895	-0.703025383903987 
1896	 9.42299384117414E-02 
1897	 1.56226704241547 
1898	 3.45465230336534 
1899	 1.65645021838086 
1900	 2.45159058293681 
1901	-18.8261228652504 
1902	-6.57833582924831 
1903	-6.75459517778271 
1904	-3.05022130411612 
1905	-2.76745144348728 
1906	-2.26710700797396 
1907	-2.82220497988822 
1908	 0.466254646255739 
1909	-0.19623392290074 
1910	-0.213318493304616 
1911	-6.12056823775609 
1912	 3.04537345235957 
1913	 1.32450272778999 
1914	 0.10104783232677 
1915	-0.124909774940116 
1916	-0.572431969566269 
1917	-1.50722767181611 
1918	-81.2340519174712 
1919	 1.40785458251902 
1920	-2.79905439707418 
1921	 0.303491745188676 
1922	 0.142375940286593 
1923	-2.18103400311373E-02 
1924	-0.225404408261043 
1925	-0.565180664798051 
1926	-0.827175488097766 
1927	-1.31838443688585 
1928	 15.6756520479344 
1929	 1.39458166615886 
1930	 0.492048362718966 
1931	 0.660705699260534 
1932	 6.95874998714359 
1933	-1.74760400217386 
1934	-8.16718788440961E-02 
1935	 0.952569453853202 
1936	-16.5723673221066 
1937	 6.95212349577838 
1938	 1.80336270887453 
1939	 4.5014911738329 
1940	-0.656511338865802 
1941	-0.187534853909092 
1942	 0.25472321050675 
1943	 0.723916869711516 
1944	 0.79479375423637 
1945	 2.04112157108985 
1946	 3.17520642872115 
1947	 1.27294701896633 
1948	 1.02937608210502 
1949	-0.14439580325274 
1950	-0.4012779654751 
1951	-0.453468296022586 
1952	-0.37787886561329 
1953	-0.107872267491155 
1954	 0.488336413605628 
1955	 0.203111839663664 
1956	-0.245610743939424 
1957	-0.570859816521249 
1958	-0.460225729816355 
1959	-0.307171931812689 
1960	-0.208897124084225 
1961	-4.26281986078628E-02 
1962	-3.70838410607642E-02 
1963	-0.101016060477388 
1964	-2.46732098903442E-02 
1965	 1.69805304316538E-02 
1966	 2.48888084287123E-02 
1967	 1.59735015483562E-02 
1968	 6.05768372979988E-02 
1969	 5.75279484677231E-02 
1970	 0.016531779741871 
1971	 2.31970986977834E-02 
1972	 1.04664960588442E-02 
1973	-0.03074950197765 
1974	-2.51630251432825E-02 
1975	-2.21252973264153E-02 
1976	-0.027937000413177 
1977	-1.96093521091824E-02 
1978	-2.9093650681659E-03 
1979	 1.03032865960752E-02 
1980	 2.72126137966795E-02 
1981	 2.49801824263475E-02 
1982	 4.31964924871458E-03 
1983	-2.32392434369889E-02 
1984	-3.49457433319552E-02 
1985	-2.32796542676599E-02 
1986	-7.70613923527699E-03 
1987	 1.34648234573021E-02 
1988	 1.27536577379233E-02 
1989	-7.92088010062124E-03 
1990	-7.93074760129198E-03 
1991	-2.64081504718351E-03 
1992	-4.48893240497743E-03 
1993	 1.98965249166716E-03 
1994	 2.31457838035365E-05 
1995	-9.94575062046618E-03 
1996	-2.19935831629535E-02 
1997	-6.61902583751826E-03 
1998	-5.73322596175097E-03 
1999	-1.47578333838956E-02 
2000	-1.03258225595148E-02 
2001	-0.038227175730862 
2002	-4.90848366034897E-02 
2003	-3.80531953558152E-02 
2004	-5.83430423902823E-02 
2005	-5.97804355867712E-02 
2006	-6.22734260848992E-02 
2007	-5.39710489195905E-02 
2008	-0.024289918055955 
2009	-8.09290436171285E-03 
2010	-2.47375049770297E-03 
2011	 1.13746220318009E-02 
2012	 1.81859381114494E-02 
2013	 0.053532173958908 
2014	 7.78814013936332E-02 
2015	 6.23265608772176E-02 
2016	 4.82191015189557E-02 
2017	 4.05630645695674E-02 
2018	 3.49006732247717E-02 
2019	 3.97845419315564E-02 
2020	 4.09460484889651E-02 
2021	 3.02202050815687E-02 
2022	 1.81433801712463E-02 
2023	 3.43953707537185E-03 
2024	-5.50077999853111E-03 
2025	-1.31865416083289E-02 
2026	-1.58724736244027E-02 
2027	-1.79673431232532E-02 
2028	-1.41046509762168E-02 
2029	-0.011280981730188 
2030	-8.64150603886608E-03 
2031	-1.83838776264831E-03 
2032	 4.9761713622691E-05 
2033	 1.0906495353356E-03 
2034	 6.6620196297659E-03 
2035	 9.40339961769737E-03 
2036	 9.25783288646393E-03 
2037	 1.00603320797229E-02 
2038	 1.09966132574852E-02 
2039	 1.04697500641438E-02 
2040	 7.37575699706598E-03 
2041	 4.96171034952094E-03 
2042	 1.8078341930358E-03 
2043	-3.85599800464918E-03 
2044	-1.40089467379552E-02 
2045	-0.019955094667439 
2046	-2.28910959176387E-02 
2047	-1.71492486566167E-02 
2048	-0.010990160606108 
2049	-1.03604942814813E-02 
2050	-1.36255175987019E-02 
2051	-1.23826595665934E-02 
2052	-8.09823202220177E-03 
2053	-4.96470708244957E-03 
2054	-7.21688937836419E-03 
2055	-5.03860628300942E-03 
2056	 6.93705963390925E-04 
2057	 1.10298310403533E-02 
2058	 1.09804445495639E-02 
2059	 7.95731139641237E-03 
2060	 7.76251395432926E-03 
2061	 3.1827517737583E-04 
2062	-1.19334362114982E-03 
2063	 4.71938126977623E-04 
2064	 1.06650059594303E-02 
2065	 1.40532214108811E-02 
2066	 1.41641474931443E-02 
2067	 1.39366424477318E-02 
2068	 1.04833296527975E-02 
2069	 4.5429981386927E-03 
2070	-6.57098026513156E-03 
2071	-7.3427144958723E-03 
2072	-2.29511549827983E-03 
2073	-4.46031089144738E-04 
2074	 5.95975557740449E-03 
2075	 4.93738562732385E-03 
2076	-9.5629784020191E-04 
2077	-6.00281462520479E-03 
2078	-2.11926887314736E-02 
2079	-0.021863759029813 
2080	-1.51798236793567E-02 
2081	-6.04802312773379E-03 
2082	-4.80572669631946E-04 
2083	 6.16307122989765E-03 
2084	 4.0563637269934E-03 
2085	 2.19311788278937E-03 
2086	 1.48026026421684E-03 
2087	-8.00736093169777E-04 
2088	 3.24697060911158E-03 
2089	 2.63691247094087E-03 
2090	-9.00079699931309E-04 
2091	 4.04178990706825E-03 
2092	 4.9203856789662E-03 
2093	 1.23411711220067E-03 
2094	 1.28646965451638E-03 
2095	 3.01169133692416E-03 
2096	 3.00876978018632E-03 
2097	 3.67451258278669E-03 
2098	 1.89071054699961E-03 
2099	-2.09584844630977E-03 
2100	-2.56015130205485E-03 
2101	-5.16680698399954E-03 
2102	-5.75623377032963E-03 
2103	-6.25590763526742E-03 
2104	-2.63458784136179E-03 
2105	-3.44170096073951E-04 
2106	 3.60670491254882E-04 
2107	 5.87593422550585E-03 
2108	 9.48111406659258E-03 
2109	 8.80970550581994E-03 
2110	 1.03286815992665E-02 
2111	 1.35726059661634E-02 
2112	 0.0145066162841 
2113	 1.47115100707543E-02 
2114	 1.77613898719225E-02 
2115	 1.80053471087596E-02 
2116	 1.23270833226732E-02 
2117	 9.4439226125913E-03 
2118	 7.24137912587659E-03 
2119	 7.03182046806074E-03 
2120	 5.83583845745353E-03 
2121	 1.16946897305207E-02 
2122	 1.54914638227376E-02 
2123	 1.22426066549339E-02 
2124	 1.01128735833422E-02 
2125	 8.49889119291631E-03 
2126	 3.54444399542025E-03 
2127	 3.05634766998645E-03 
2128	 3.22851728773065E-03 
2129	-2.98773240403094E-03 
2130	-3.66991541230645E-03 
2131	 2.10180098458939E-06 
2132	 1.77520220295574E-03 
2133	 2.82730079575457E-03 
2134	 3.33537202297288E-03 
2135	 3.71394896851298E-03 
2136	 3.46279161213353E-03 
2137	 1.24669131225735E-03 
2138	 0.001185429710798 
2139	 3.03906367402887E-03 
2140	 1.58303616449641E-03 
2141	-2.0395331388591E-03 
2142	-2.78640585474468E-03 
2143	-5.02153909679438E-03 
2144	-4.19801365308767E-03 
2145	 1.53354482326377E-03 
2146	 5.49753758745014E-03 
2147	 4.19407271054731E-03 
2148	 5.97182918180872E-04 
2149	-5.12949286358721E-03 
2150	-7.65382167730481E-03 
2151	-5.52356193181838E-03 
2152	-2.89525704877208E-03 
2153	 3.02976409785993E-03 
2154	 2.74680900697552E-03 
2155	-3.4029487057578E-04 
2156	-8.69141402601429E-05 
2157	 6.63611725127537E-04 
2158	 3.74051588772129E-05 
2159	 2.70530771291409E-03 
2160	 8.49301466643701E-03 
2161	 0.012540964279207 
2162	 1.82904140683574E-02 
2163	 0.019253568832996 
2164	 2.00774369157759E-02 
2165	 1.89080735000273E-02 
2166	 0.010195672299241 
2167	 7.31139895310625E-03 
2168	 9.26677192333374E-03 
2169	 7.22491127281763E-03 
2170	 5.56276086663354E-03 
2171	-6.2702977976822E-04 
2172	 6.5367107363191E-04 
2173	-9.1383482844788E-04 
2174	-5.71407243080853E-03 
2175	 1.33616666263074E-03 
2176	 1.14466596359635E-03 
2177	-3.80408636342904E-03 
2178	 2.25036842415594E-03 
2179	 7.03141377086486E-03 
2180	 1.14492113689166E-02 
2181	 1.59170499855801E-02 
2182	 1.49830213253706E-02 
2183	 1.43649319850247E-02 
2184	 1.60653501628591E-02 
2185	 1.32715905662916E-02 
2186	 1.11828466433096E-02 
2187	 1.25418471808124E-02 
2188	 8.65040081972732E-03 
2189	-2.4213361760984E-03 
2190	-5.68027682250646E-03 
2191	-8.41352724539907E-03 
2192	-1.06726611118677E-02 
2193	-8.50056875926828E-03 
2194	-6.26091768416072E-03 
2195	-2.11811655297647E-03 
2196	-1.69594192305458E-03 
2197	-2.93223847184461E-03 
2198	-2.35118354088921E-03 
2199	-3.72012175438842E-03 
2200	-5.47645513398079E-03 
2201	-1.01635393038844E-04 
2202	 4.16461118345738E-03 
2203	 2.61927305962789E-03 
2204	 4.64726739440973E-03 
2205	 4.32471942416054E-03 
2206	 6.40551290476807E-03 
2207	 9.3589916018716E-03 
2208	 1.16387396142922E-02 
2209	 1.58681782959375E-02 
2210	 1.68423998088586E-02 
2211	 1.90906656898286E-02 
2212	 2.49005996027821E-02 
2213	 2.93806831640127E-02 
2214	 2.79982223044397E-02 
2215	 1.97396752200782E-02 
2216	 1.04212855491358E-02 
2217	 5.03756403130544E-03 
2218	-2.6581108361985E-03 
2219	-5.00687601271189E-03 
2220	 4.74102421462049E-04 
2221	-2.06590227079047E-03 
2222	-1.01170538364337E-02 
2223	-1.00600845770106E-02 
2224	-6.41973178613063E-03 
2225	-5.37325396147104E-03 
2226	-6.64286384348768E-04 
2227	 3.50462793241678E-03 
2228	 4.82169417005688E-03 
2229	 6.22795529263937E-03 
2230	 8.19504291404258E-03 
2231	 1.10102013261893E-02 
2232	 0.013567977002209 
2233	 1.38867163531933E-02 
2234	 1.63245891966529E-02 
2235	 1.59516011595225E-02 
2236	 1.22269811741456E-02 
2237	 1.42522000315792E-02 
2238	 1.58657855367607E-02 
2239	 2.00206240427829E-02 
2240	 1.79827776360961E-02 
2241	 7.89072748215362E-03 
2242	 1.85874135339756E-03 
2243	-2.85288576159219E-03 
2244	-2.92047667354289E-03 
2245	-3.41605007824891E-03 
2246	-8.38531537871328E-03 
2247	-9.39695401132146E-03 
2248	-0.010484321448579 
2249	-1.13224076735408E-02 
2250	-5.20315334446259E-03 
2251	-3.58400843917266E-03 
2252	-3.39960114440717E-03 
2253	 1.46351132677051E-03 
2254	 1.7797746477369E-03 
2255	 3.88625138463515E-03 
2256	 4.68298143105333E-03 
2257	 1.73750820824056E-03 
2258	-2.65911815799983E-04 
2259	-9.62725958557335E-03 
2260	-1.59885672586275E-02 
2261	-2.52126222976062E-02 
2262	-2.50747641515563E-02 
2263	-1.84962367252299E-02 
2264	-1.51450290741314E-02 
2265	-1.79215702224528E-03 
2266	 1.89367149609905E-03 
2267	-3.45040793521506E-03 
2268	-8.01393595657212E-03 
2269	-2.23626168560621E-02 
2270	-2.69061299368788E-02 
2271	-0.024269207789162 
2272	-0.023541100500692 
2273	-1.58878421438463E-02 
2274	-1.04789856757054E-02 
2275	-9.60589813041096E-03 
2276	-1.00366318658558E-02 
2277	-1.01272393929688E-02 
2278	-9.66514170532095E-03 
2279	-1.25738226899379E-02 
2280	-0.012257364423726 
2281	-7.92842387788793E-03 
2282	-5.61977123089983E-03 
2283	-1.7514524589406E-03 
2284	 1.6430689146603E-03 
2285	 1.54170660351143E-03 
2286	 2.85729232711723E-03 
2287	 8.28971092116368E-04 
2288	-7.52165073349845E-03 
2289	-1.71666607694703E-02 
2290	-0.019244289718311 
2291	-2.86543037888398E-02 
2292	-2.93271415682739E-02 
2293	-2.31727457553944E-02 
2294	-3.58266069767942E-02 
2295	-3.18887666384757E-02 
2296	-4.26940693376264E-02 
2297	-6.76510587688162E-02 
2298	-5.91522044833485E-02 
2299	-6.40827003211601E-02 
2300	-6.31412151232623E-02 
2301	-3.99794674597115E-02 
2302	-3.29639622595004E-02 
2303	-1.77969864147207E-02 
2304	-6.2961564164099E-03 
2305	 2.42195643586826E-03 
2306	 1.40368412937879E-02 
2307	 6.64688808908623E-03 
2308	 8.31686299305425E-03 
2309	 3.00289215287022E-03 
2310	-1.01928803352646E-02 
2311	-6.73461763442185E-03 
2312	-4.5492852509417E-03 
2313	 2.32383957055471E-03 
2314	 6.74323544269171E-03 
2315	 3.54548396225703E-03 
2316	-3.98869960748565E-04 
2317	 3.98279523772679E-03 
2318	 1.02261995560395E-02 
2319	 3.45148967219374E-03 
2320	 9.5266703368498E-03 
2321	 2.69364569802598E-02 
2322	 4.11670535125034E-02 
2323	 6.25905873286491E-02 
2324	 8.06970785183935E-02 
2325	 6.11568657247508E-02 
2326	 2.50996149825359E-02 
2327	 6.90150120917475E-03 
2328	-8.62655465778946E-03 
2329	-1.11718776992731E-02 
2330	-1.7236908193886E-03 
2331	 2.28025752509234E-03 
2332	-1.04860028010207E-03 
2333	-1.32464001505684E-02 
2334	-2.60025182214779E-02 
2335	-4.88952340554529E-02 
2336	-4.39643106657413E-02 
2337	-1.02777777371617E-02 
2338	-8.76429512023132E-03 
2339	-4.46021722129749E-02 
2340	-5.13292275392097E-02 
2341	-5.00965289296808E-02 
2342	-6.16551125522231E-02 
2343	-9.44525061029556E-03 
2344	-4.02399858374056E-03 
2345	-6.31081905419838E-02 
2346	-6.23672180724018E-02 
2347	-0.030739959003239 
2348	-2.69908403564433E-02 
2349	-0.088304430289592 
2350	-0.13728182879115 
2351	-0.183256524901016 
2352	-0.248725745760019 
2353	-0.214260024901641 
2354	-0.204853723960003 
2355	-0.211265300619529 
2356	-0.135417254441785 
2357	-0.10487291540631 
2358	-4.96903942534644E-02 
2359	-1.39054556973179E-02 
2360	-9.13373057831052E-02 
2361	-0.168879049860246 
2362	-0.204721331700734 
2363	-0.278865723255114 
2364	-0.252157935609299 
2365	-0.124187998813961 
2366	-0.14143604962303 
2367	-0.131907631295959 
2368	-8.12244380447903E-02 
2369	-9.41262636100614E-02 
2370	-7.21669620981609E-02 
2371	-8.36069317673953E-02 
2372	-6.23748763746887E-02 
2373	 6.85968333470161E-02 
2374	 0.207913966571197 
2375	 0.194280943766985 
2376	 0.150243341343092 
2377	 0.161507553553201 
2378	 4.89266261095419E-02 
2379	-3.39532992944666E-02 
2380	-2.68859961199052E-02 
2381	-0.228317677115253 
2382	-0.444763547298782 
2383	-0.234028716138339 
2384	-0.110819789111599 
2385	-0.199100708270622 
2386	-0.233453868092196 
2387	-0.531547847922581 
2388	-0.712459501470968 
2389	-0.407927133871204 
2390	-0.355252427685105 
2391	-0.370895997058847 
2392	-0.369752618439079 
2393	-0.653629162335976 
2394	-0.875949783377338 
2395	-0.576482158399589 
2396	-0.230270954940818 
2397	-0.173757147914653 
2398	-0.116303809641199 
2399	-0.188019746688416 
2400	-0.5717510349017 
2401	-0.523837687576263 
2402	-4.62940658394059E-02 
2403	 0.172184602999988 
2404	 0.177740489733258 
2405	 0.420584592479948 
2406	 0.27855295806591 
2407	-0.434745516786615 
2408	-0.517933294044314 
2409	-1.03573431586782 
2410	-1.86597834715927 
2411	-0.139745814290075 
2412	-0.325446308657622 
2413	-1.45944855272867 
2414	-1.72919993149292 
2415	-1.06172151779161 
2416	-0.526200604738816 
2417	-0.536316044416174 
2418	-0.725094412213267 
2419	-0.617297740481083 
2420	-5.33596447055093 
2421	-1.44043060776 
2422	-0.823382435400741 
2423	-1.74384833617663 
2424	-4.63798033903424 
2425	-9.16226992553612 
2426	-138.334364936844 
2427	 6.34435432363424 
2428	 28.5363479814333 
2429	-8.66471370086535 
2430	-6.23252666000501 
2431	-2.7070528073302 
2432	-3.56046773591313 
2433	 93.1871643137182 
2434	 2.97931031119389 
2435	 1.27717109101724 
2436	 0.966002835896026 
2437	 1.04741209235655 
2438	 0.879641901125844 
2439	 1.384950318577 
2440	 2.08895571420396 
2441	 1.2412291455711 
2442	 1.12972694161263 
2443	 0.765093655983126 
2444	 0.32666379189527 
2445	 2.27882620776078E-02 
2446	 1.96655148487994E-02 
2447	 0.145711441184398 
2448	 0.30653217495001 
2449	 0.669115818293928 
2450	 1.16083353998339 
2451	 2.46263559434167 
2452	 1.72873216491248 
2453	 1.00783365608584 
2454	 2.41621390892567 
2455	 0.300669198704116 
2456	 0.243128309510469 
2457	 0.498722933832103 
2458	 0.482052388111163 
2459	 0.637029782071091 
2460	 1.06552271577474 
2461	 1.01979085944221 
2462	 1.12492499903499 
2463	 1.78773389096365 
2464	 1.52750545771273 
2465	-0.805362017504151 
2466	-1.54240793200392 
2467	-1.03505443194664 
2468	-1.40911902654183 
2469	-0.712254791186268 
2470	 3.34691282821137E-02 
2471	-0.535151324975011 
2472	-0.655672041417985 
2473	-0.538693833998879 
2474	-0.961458720952837 
2475	-0.778504674633688 
2476	-0.35365162657931 
2477	 3.20956740309035E-02 
2478	 0.23265964996557 
2479	-0.195051818047198 
2480	-5.64606707270257 
2481	 0.642841262352599 
2482	 0.790227359394735 
2483	 0.493073576996503 
2484	-0.293216819846801 
2485	 0.103986359685975 
2486	 0.309614085051348 
2487	 0.315034327759496 
2488	 1.27387341885066 
2489	 1.33779963254413 
2490	 0.930123275518493 
2491	 0.871081334621359 
2492	 0.677192595302157 
2493	 0.993739172272641 
2494	 1.12957277560368 
2495	 1.07822982579933 
2496	 1.96898964084155 
2497	 0.513321879697772 
2498	-5.63877017281159E-02 
2499	-1.87703261406557 
2500	-3.04882027834734 
