Wavelength	rt0704rt00004.asd
350	 5.02466334292014E-02 
351	 0.050347281320191 
352	 5.06203305123685E-02 
353	 5.07650164351376E-02 
354	 5.07936532629936E-02 
355	 5.17359190415027E-02 
356	 5.19739848997836E-02 
357	 5.20242066025812E-02 
358	 5.27661654125951E-02 
359	 0.05361479258614 
360	 5.37367151650293E-02 
361	 5.36435084034472E-02 
362	 5.45909189176325E-02 
363	 5.55941482941872E-02 
364	 5.58572532615749E-02 
365	 5.56104383534485E-02 
366	 5.65498326775321E-02 
367	 0.057196478211645 
368	 5.74703822611667E-02 
369	 5.76950676004177E-02 
370	 5.82441492205347E-02 
371	 5.86237673592435E-02 
372	 5.89675810831849E-02 
373	 5.97229179233242E-02 
374	 6.06168800737764E-02 
375	 6.08258274401939E-02 
376	 6.06909545599454E-02 
377	 6.21293638357384E-02 
378	 6.27100768294251E-02 
379	 6.26372658316902E-02 
380	 6.26947730473528E-02 
381	 6.33178490550013E-02 
382	 6.39676379490326E-02 
383	 6.43201262982131E-02 
384	 6.43107972268711E-02 
385	 6.47271711857959E-02 
386	 6.50580980362767E-02 
387	 0.065209745756598 
388	 6.56468839901645E-02 
389	 6.57255887797387E-02 
390	 6.56391047246123E-02 
391	 6.56749014496837E-02 
392	 6.59345841964774E-02 
393	 6.61614066699667E-02 
394	 6.61645737132036E-02 
395	 6.59079693343282E-02 
396	 6.58520784768855E-02 
397	 0.066020809674983 
398	 6.61921100411627E-02 
399	 6.60005017955477E-02 
400	 6.56848150422431E-02 
401	 6.54271843156931E-02 
402	 6.53089306360687E-02 
403	 6.52654683814904E-02 
404	 6.50769677715441E-02 
405	 6.47533626328639E-02 
406	 6.44111141383995E-02 
407	 6.41731284685105E-02 
408	 6.39102815610193E-02 
409	 6.36229751716831E-02 
410	 0.063442522999144 
411	 6.31318141450704E-02 
412	 0.062713462665343 
413	 6.22891495714555E-02 
414	 6.20325666196526E-02 
415	 0.061758987827515 
416	 6.14224621674686E-02 
417	 6.10376470424786E-02 
418	 6.05641819334336E-02 
419	 6.03631014317772E-02 
420	 6.03876290499478E-02 
421	 6.01442562240929E-02 
422	 5.97672362748069E-02 
423	 5.95682223111353E-02 
424	 5.96739637189563E-02 
425	 0.059609475197605 
426	 5.94448299601707E-02 
427	 5.93235524069532E-02 
428	 5.93951714096213E-02 
429	 0.059526516306597 
430	 5.94942630013235E-02 
431	 5.93976742648475E-02 
432	 0.05970502685699 
433	 5.98589700502045E-02 
434	 5.98942573395188E-02 
435	 5.99592442845897E-02 
436	 6.01302725668617E-02 
437	 0.060197481964333 
438	 6.02005832448288E-02 
439	 6.02909030896863E-02 
440	 0.060266263757443 
441	 6.02623708845345E-02 
442	 6.03210198868401E-02 
443	 6.02918071467153E-02 
444	 6.03266484276941E-02 
445	 6.03634739281464E-02 
446	 0.060320368283131 
447	 6.02691191838666E-02 
448	 6.02617919476234E-02 
449	 6.02265066676248E-02 
450	 6.00258065941414E-02 
451	 5.99037494069907E-02 
452	 5.98499431877153E-02 
453	 5.97859536388686E-02 
454	 5.95721717567859E-02 
455	 5.93928157764775E-02 
456	 5.91961727555591E-02 
457	 5.89010065659201E-02 
458	 5.87561169540304E-02 
459	 5.85330853922387E-02 
460	 5.82152077284336E-02 
461	 5.80152432176049E-02 
462	 5.78175894694275E-02 
463	 5.75609670232499E-02 
464	 5.72722151914758E-02 
465	 0.057211128763762 
466	 5.70203188610379E-02 
467	 0.05674075627047 
468	 5.65810311353824E-02 
469	 5.63635018812142E-02 
470	 0.056211939229353 
471	 5.61409615078479E-02 
472	 5.59883354547346E-02 
473	 5.57713312331674E-02 
474	 5.56443374126698E-02 
475	 5.56741353225774E-02 
476	 5.54604396171697E-02 
477	 5.54671637490699E-02 
478	 0.055605148267892 
479	 5.54499953311249E-02 
480	 5.54451237589948E-02 
481	 5.54010042889087E-02 
482	 5.52428192989752E-02 
483	 5.53037148888426E-02 
484	 5.53280365432982E-02 
485	 5.53695344698878E-02 
486	 5.55259324448153E-02 
487	 5.55011295234669E-02 
488	 5.55885329147532E-02 
489	 5.57871868305735E-02 
490	 5.58047304323866E-02 
491	 5.60089642961216E-02 
492	 5.63067238960495E-02 
493	 0.056556414682602 
494	 5.67366156569208E-02 
495	 5.69641999460353E-02 
496	 5.72230799826406E-02 
497	 5.74463622988374E-02 
498	 5.77729350767046E-02 
499	 5.80874013736385E-02 
500	 5.83751135433287E-02 
501	 5.88247983457359E-02 
502	 5.89902232521701E-02 
503	 5.90959492974598E-02 
504	 5.94229441823816E-02 
505	 5.96163277349866E-02 
506	 5.98314520929833E-02 
507	 6.01470717668125E-02 
508	 6.05526058823046E-02 
509	 6.07891752409597E-02 
510	 0.061042234875731 
511	 6.14083267473207E-02 
512	 6.15830457227143E-02 
513	 0.061919517117724 
514	 6.23906621858744E-02 
515	 6.28028319485615E-02 
516	 6.31096560504964E-02 
517	 6.34550452172062E-02 
518	 6.39109351415205E-02 
519	 6.44354774136614E-02 
520	 6.49376948494812E-02 
521	 6.54444645808964E-02 
522	 6.60055959947101E-02 
523	 6.66257131491553E-02 
524	 6.72671081147334E-02 
525	 6.79780847563418E-02 
526	 6.88488503256496E-02 
527	 6.96663971136368E-02 
528	 7.05908727140489E-02 
529	 7.16677232166319E-02 
530	 7.25995699757295E-02 
531	 7.37404392723343E-02 
532	 7.50649997413911E-02 
533	 7.64135313092473E-02 
534	 7.77960053650312E-02 
535	 7.91836613965458E-02 
536	 8.06467140072276E-02 
537	 8.23570409553303E-02 
538	 8.41238130500584E-02 
539	 8.58361157162944E-02 
540	 8.75005429527844E-02 
541	 8.94352801332665E-02 
542	 9.13588434169433E-02 
543	 9.32278288842361E-02 
544	 9.51523237835191E-02 
545	 9.70624431016164E-02 
546	 9.89197436428199E-02 
547	 0.100724383561311 
548	 0.102554045834798 
549	 0.104327898662803 
550	 0.105994286229476 
551	 0.107550325554264 
552	 0.109158958631185 
553	 0.110791466618805 
554	 0.112391351510399 
555	 0.113878484764908 
556	 0.115376951798409 
557	 0.117005486722928 
558	 0.118746127003146 
559	 0.120191111555667 
560	 0.121898775838321 
561	 0.123826346971138 
562	 0.125585206510381 
563	 0.127351792500997 
564	 0.1291139197792 
565	 0.130827038811612 
566	 0.132431403526367 
567	 0.133939177062709 
568	 0.13537386592075 
569	 0.136730385798843 
570	 0.137854916254843 
571	 0.138808261772056 
572	 0.139706370894096 
573	 0.140690550385314 
574	 0.141404728200595 
575	 0.142023636918638 
576	 0.142758664321726 
577	 0.143548110104743 
578	 0.144221936372519 
579	 0.14476799746666 
580	 0.145276920411572 
581	 0.145742313492409 
582	 0.146094004584183 
583	 0.146328469397267 
584	 0.146585214903294 
585	 0.146651086078184 
586	 0.146605444047981 
587	 0.146608257097441 
588	 0.146564926503399 
589	 0.146618746695002 
590	 0.146778778681941 
591	 0.146900885513475 
592	 0.146899338348237 
593	 0.146943040569737 
594	 0.147124660131014 
595	 0.147164803149631 
596	 0.147062157159162 
597	 0.146853998284223 
598	 0.14661346637211 
599	 0.146464902692649 
600	 0.14626628111824 
601	 0.145993647877417 
602	 0.145881609097387 
603	 0.145748275621508 
604	 0.145608523523141 
605	 0.145537964494748 
606	 0.145605710865907 
607	 0.1455479518965 
608	 0.145326157145648 
609	 0.145149930782167 
610	 0.144989110276041 
611	 0.14480670135473 
612	 0.14457371975811 
613	 0.144289164443717 
614	 0.144089456849919 
615	 0.143969769160698 
616	 0.143835188761826 
617	 0.143611355771268 
618	 0.143344710908572 
619	 0.143094335769886 
620	 0.142918188998479 
621	 0.142842585464346 
622	 0.142768744248547 
623	 0.142607788914689 
624	 0.142560002058375 
625	 0.142382162893458 
626	 0.142137268008538 
627	 0.142178978379992 
628	 0.142173402957217 
629	 0.142180783130245 
630	 0.142239228915146 
631	 0.142134273714356 
632	 0.14193856238844 
633	 0.141696420003311 
634	 0.141414710885731 
635	 0.14090804447276 
636	 0.140350589708682 
637	 0.139786041667806 
638	 0.139014549749277 
639	 0.138142364630751 
640	 0.137189813543152 
641	 0.136178858836034 
642	 0.135201876161328 
643	 0.13404181933221 
644	 0.132658949259793 
645	 0.131171388224032 
646	 0.129526350793827 
647	 0.127914552571964 
648	 0.126525178321647 
649	 0.125290825028469 
650	 0.124164753134837 
651	 0.123217446237676 
652	 0.122608499598539 
653	 0.122330339895195 
654	 0.122277631031055 
655	 0.122312423823605 
656	 0.122234771976654 
657	 0.121882256134304 
658	 0.1214290726602 
659	 0.120987033603244 
660	 0.120382684723195 
661	 0.119357393623845 
662	 0.117994308291727 
663	 0.116608092135153 
664	 0.115152804870814 
665	 0.113669649694894 
666	 0.112195479079483 
667	 0.110794023913948 
668	 0.109412549178446 
669	 0.108143179996159 
670	 0.107114501460047 
671	 0.106340911721921 
672	 0.105724542829337 
673	 0.105321715965454 
674	 0.105324851640879 
675	 0.105473006247732 
676	 0.105824462402028 
677	 0.106497933821601 
678	 0.107597514111459 
679	 0.10908197492068 
680	 0.110988141094432 
681	 0.113366369291349 
682	 0.116116655438143 
683	 0.119329114690219 
684	 0.123021029385388 
685	 0.127514419983777 
686	 0.132780026104263 
687	 0.13793333527172 
688	 0.142062145552649 
689	 0.146365570977387 
690	 0.150701159064291 
691	 0.154830397748012 
692	 0.158481380245864 
693	 0.162385418047343 
694	 0.166016042352582 
695	 0.168878100216988 
696	 0.171173994171659 
697	 0.173340088639977 
698	 0.175390961666077 
699	 0.177012212251135 
700	 0.17834781402572 
701	 0.179448206500012 
702	 0.180313560626537 
703	 0.180930942992914 
704	 0.181098708280823 
705	 0.180931613870354 
706	 0.180580282283714 
707	 0.180190421647187 
708	 0.179419474481704 
709	 0.17831178593797 
710	 0.177036873186593 
711	 0.175528251556271 
712	 0.173701365647775 
713	 0.171647366392199 
714	 0.169587305345822 
715	 0.167403875954946 
716	 0.164943108960715 
717	 0.162317983075865 
718	 0.159504894364956 
719	 0.156723792839961 
720	 0.154435569222776 
721	 0.152317131575102 
722	 0.149996482988356 
723	 0.1472817348733 
724	 0.144546792852683 
725	 0.141867563777785 
726	 0.138894201768531 
727	 0.135880672502739 
728	 0.132961108679315 
729	 0.129430398029623 
730	 0.125813786823962 
731	 0.122629746194384 
732	 0.11992836505974 
733	 0.117584046541048 
734	 0.115516253505106 
735	 0.113739199986735 
736	 0.112323579483268 
737	 0.111312231426979 
738	 0.110475269476713 
739	 0.109698524291588 
740	 0.109353385405055 
741	 0.108938235501892 
742	 0.108580167394357 
743	 0.108612055151536 
744	 0.108265589916238 
745	 0.108044127516081 
746	 0.108084571665465 
747	 0.107871110421207 
748	 0.107764761233838 
749	 0.10769803937012 
750	 0.10755918639374 
751	 0.107446798125677 
752	 0.107304796962977 
753	 0.107175581024048 
754	 0.10712895692474 
755	 0.106978961372814 
756	 0.106962109874587 
757	 0.107069890558738 
758	 0.106822593074506 
759	 0.106892731451231 
760	 0.106974890944492 
761	 0.106378898117998 
762	 0.106283800375554 
763	 0.106216463630227 
764	 0.106206868017647 
765	 0.10639462069093 
766	 0.106882901752856 
767	 0.107038802075253 
768	 0.10695335223521 
769	 0.107321025716956 
770	 0.107428911039776 
771	 0.107549694791445 
772	 0.107920251362169 
773	 0.10816581272832 
774	 0.108307720157711 
775	 0.108421565547154 
776	 0.108621254261743 
777	 0.108981164903355 
778	 0.109494917675183 
779	 0.110011191294552 
780	 0.110271648982992 
781	 0.110522133992056 
782	 0.110925304865669 
783	 0.111486196901444 
784	 0.111906301857215 
785	 0.112283278609184 
786	 0.112689291584105 
787	 0.113185671131027 
788	 0.113786800998857 
789	 0.114348429075186 
790	 0.114816519768786 
791	 0.11525812820836 
792	 0.115900255459084 
793	 0.116614234054212 
794	 0.117251787704503 
795	 0.117664914865794 
796	 0.118060521294785 
797	 0.118526366423746 
798	 0.11907186173081 
799	 0.119519152975848 
800	 0.119812983953258 
801	 0.120150465707606 
802	 0.120774538316761 
803	 0.121125292536214 
804	 0.12131360087256 
805	 0.121421971609944 
806	 0.121436995648445 
807	 0.121731867434426 
808	 0.12170164021789 
809	 0.121045252832772 
810	 0.120842873309342 
811	 0.120419660423399 
812	 0.119759111000605 
813	 0.119085263573141 
814	 0.118215716760482 
815	 0.117479587409047 
816	 0.117067527163351 
817	 0.116846301209405 
818	 0.116017183576816 
819	 0.115011366414192 
820	 0.113982741184892 
821	 0.112674337447324 
822	 0.111133165505105 
823	 0.10952570848497 
824	 0.107894973091832 
825	 0.105679303009513 
826	 0.103558956543164 
827	 0.101314142455689 
828	 9.87087157396575E-02 
829	 9.63565633749836E-02 
830	 9.44664537672188E-02 
831	 9.29480952500945E-02 
832	 9.16065803611027E-02 
833	 9.05978053857787E-02 
834	 8.98312324118159E-02 
835	 0.089029780917848 
836	 8.77683210264169E-02 
837	 0.087352041318741 
838	 8.73049641367301E-02 
839	 0.086952531350273 
840	 8.60995269620676E-02 
841	 8.56106381722317E-02 
842	 8.53691205163881E-02 
843	 8.49731427726347E-02 
844	 8.46133874018129E-02 
845	 8.41634555249228E-02 
846	 0.083703159458157 
847	 8.34105113100683E-02 
848	 8.29714302447919E-02 
849	 8.25969534169882E-02 
850	 8.23374872369396E-02 
851	 8.19605697506178E-02 
852	 8.13232153575573E-02 
853	 8.10073319734259E-02 
854	 0.081168984404163 
855	 8.07845747550467E-02 
856	 8.01418372172366E-02 
857	 0.079832182630006 
858	 8.01255328686383E-02 
859	 7.99400996440289E-02 
860	 7.93155064081875E-02 
861	 7.86942114717899E-02 
862	 7.85915929238763E-02 
863	 7.86513362567046E-02 
864	 7.82472918467337E-02 
865	 7.76051612087671E-02 
866	 7.76223545857041E-02 
867	 7.74674767648824E-02 
868	 7.70349579425384E-02 
869	 0.076416583548098 
870	 7.58165199917284E-02 
871	 7.53531309958925E-02 
872	 0.074875589333282 
873	 7.44210109112599E-02 
874	 7.46345903798192E-02 
875	 7.41568544417495E-02 
876	 0.073230118729016 
877	 7.25355667884695E-02 
878	 7.22158940214134E-02 
879	 7.22622765805665E-02 
880	 7.22389624449506E-02 
881	 7.16670891286806E-02 
882	 7.10045682554552E-02 
883	 7.03238942211555E-02 
884	 6.97610163413168E-02 
885	 6.94413965845696E-02 
886	 6.89381987860365E-02 
887	 6.85025159108154E-02 
888	 6.82491216611997E-02 
889	 6.80359458626691E-02 
890	 0.067610220167241 
891	 6.72251240153052E-02 
892	 6.69642122756782E-02 
893	 6.63810069231691E-02 
894	 6.52002691524547E-02 
895	 6.47775219010998E-02 
896	 0.065869329381616 
897	 6.53693938445563E-02 
898	 6.49043796870026E-02 
899	 6.41846740201322E-02 
900	 0.062869388829534 
901	 6.26296691466499E-02 
902	 6.26585632850743E-02 
903	 6.23257970204952E-02 
904	 6.14169246158867E-02 
905	 6.12511476679971E-02 
906	 6.06659847047538E-02 
907	 5.97030176950103E-02 
908	 0.059341181692256 
909	 5.93280287848841E-02 
910	 5.90203249056957E-02 
911	 5.84631579180143E-02 
912	 5.82310674063081E-02 
913	 5.71426340359235E-02 
914	 5.60635798937539E-02 
915	 5.56349110412578E-02 
916	 5.57401534757343E-02 
917	 5.54874180515243E-02 
918	 5.50874130495721E-02 
919	 5.44316624035934E-02 
920	 5.28630421588873E-02 
921	 5.24075678388757E-02 
922	 5.20630953159357E-02 
923	 5.11814391336771E-02 
924	 0.051198859292122 
925	 4.96571527254708E-02 
926	 4.81555348007711E-02 
927	 4.85670840094073E-02 
928	 0.047790747271358 
929	 4.72842966681717E-02 
930	 4.65729324855109E-02 
931	 0.044780993945851 
932	 0.046802502574448 
933	 4.83071184308855E-02 
934	 0.044617646852119 
935	 3.69636723675826E-02 
936	 3.91921835594277E-02 
937	 3.72280127146991E-02 
938	 3.36327787460539E-02 
939	 3.46021114629383E-02 
940	 3.88340752182106E-02 
941	 4.13101812703914E-02 
942	 3.89055876388232E-02 
943	 3.17930897566596E-02 
944	 3.27252185395401E-02 
945	 3.48351752615918E-02 
946	 3.45494474768899E-02 
947	 3.22146905547247E-02 
948	 2.97544206086668E-02 
949	 3.04246703610766E-02 
950	 3.35225085285779E-02 
951	 3.54586587471649E-02 
952	 3.14649562166679E-02 
953	 3.29957755377345E-02 
954	 3.60312287472986E-02 
955	 2.92319485810219E-02 
956	 2.73884570655511E-02 
957	 2.92391491855546E-02 
958	 3.11330435014149E-02 
959	 3.03473735039408E-02 
960	 3.43115650119428E-02 
961	 3.43588340820223E-02 
962	 3.11454139675877E-02 
963	 3.15026995254956E-02 
964	 3.27506844119139E-02 
965	 3.33076062601261E-02 
966	 3.28975811467823E-02 
967	 3.19872290028825E-02 
968	 0.029409796038619 
969	 3.03996965489821E-02 
970	 3.31080929562033E-02 
971	 3.08539567336102E-02 
972	 3.07147567578604E-02 
973	 3.16429482978762E-02 
974	 3.18352836316161E-02 
975	 3.02318915911692E-02 
976	 3.02544977612794E-02 
977	 3.11512097761451E-02 
978	 0.031670743967475 
979	 3.11284375160993E-02 
980	 3.16501072114198E-02 
981	 3.32730281446399E-02 
982	 3.37699210985378E-02 
983	 3.04834958052686E-02 
984	 2.80262422120723E-02 
985	 0.028789942745549 
986	 3.13313736462051E-02 
987	 3.21198980066876E-02 
988	 3.29786238693433E-02 
989	 3.41172930944232E-02 
990	 0.034206623583048 
991	 3.18424367693043E-02 
992	 0.031801125750199 
993	 0.031521237473109 
994	 3.09131187347186E-02 
995	 3.15575682160147E-02 
996	 3.15275289141218E-02 
997	 3.17159681035716E-02 
998	 3.28190879949849E-02 
999	 3.47430143514644E-02 
1000	 3.51356615000826E-02 
1001	 3.42940897671789E-02 
1002	 3.34160896351684E-02 
1003	 3.29146861756812E-02 
1004	 3.25313294317643E-02 
1005	 3.26073446940188E-02 
1006	 3.28315583636974E-02 
1007	 3.33801414293254E-02 
1008	 0.033660136729854 
1009	 3.38356319460176E-02 
1010	 3.37599395923157E-02 
1011	 3.34013769595781E-02 
1012	 3.35518616136714E-02 
1013	 3.39180290822037E-02 
1014	 3.42671092846648E-02 
1015	 3.46974395945756E-02 
1016	 3.50150750243731E-02 
1017	 3.58513352708851E-02 
1018	 3.57194582544144E-02 
1019	 0.03432197320868 
1020	 0.034182032073456 
1021	 3.41022984123723E-02 
1022	 3.42232060953259E-02 
1023	 3.52165960754469E-02 
1024	 3.66797146896678E-02 
1025	 3.79574509540034E-02 
1026	 3.84249843806353E-02 
1027	 3.83668958293159E-02 
1028	 3.78456677723881E-02 
1029	 3.74601000720845E-02 
1030	 3.58111543970856E-02 
1031	 3.58245707257685E-02 
1032	 3.69027310491479E-02 
1033	 3.74029311389858E-02 
1034	 3.86193940204367E-02 
1035	 3.91892977447731E-02 
1036	 3.90245574108289E-02 
1037	 3.92907346577713E-02 
1038	 3.98668875744603E-02 
1039	 4.01050757086043E-02 
1040	 3.94652053962951E-02 
1041	 3.93877843556084E-02 
1042	 3.95155500243432E-02 
1043	 0.039456129416721 
1044	 3.94465530376708E-02 
1045	 3.99530230440048E-02 
1046	 0.040200593341274 
1047	 3.99288957942776E-02 
1048	 4.00842552819836E-02 
1049	 4.08758507520896E-02 
1050	 4.12125535015871E-02 
1051	 4.12986569200512E-02 
1052	 0.041423485859604 
1053	 4.13678456159041E-02 
1054	 4.14609360026605E-02 
1055	 4.17314404668146E-02 
1056	 4.17957829792273E-02 
1057	 4.18046278391955E-02 
1058	 4.17649930486274E-02 
1059	 4.18783618640714E-02 
1060	 4.17632430707539E-02 
1061	 4.21169147239968E-02 
1062	 4.30925307453289E-02 
1063	 4.34123330919094E-02 
1064	 4.37521771653663E-02 
1065	 4.37923919038831E-02 
1066	 4.32708167159933E-02 
1067	 4.29839709914802E-02 
1068	 4.23163829704664E-02 
1069	 4.22833823078858E-02 
1070	 0.043083480044656 
1071	 4.31648280360674E-02 
1072	 4.35796833176819E-02 
1073	 4.31875604447718E-02 
1074	 4.30541068444391E-02 
1075	 0.042328072472006 
1076	 4.19748138962363E-02 
1077	 4.18890672918608E-02 
1078	 4.17363749881482E-02 
1079	 0.041344074145432 
1080	 4.11926250623192E-02 
1081	 4.12806398732882E-02 
1082	 4.14460626208345E-02 
1083	 4.18505494578692E-02 
1084	 4.18638820083475E-02 
1085	 4.20268199541857E-02 
1086	 4.18775666126795E-02 
1087	 4.07346088814568E-02 
1088	 4.05012338882259E-02 
1089	 4.10135197118043E-02 
1090	 0.040898165165133 
1091	 4.09686208350043E-02 
1092	 4.17103093082888E-02 
1093	 4.14975207230366E-02 
1094	 4.03978517235317E-02 
1095	 3.99711493884613E-02 
1096	 3.92403010268891E-02 
1097	 3.89845728456694E-02 
1098	 3.96923740461098E-02 
1099	 0.03953801112096 
1100	 3.84908337147713E-02 
1101	 3.87035405760275E-02 
1102	 3.99554891298955E-02 
1103	 3.97996401270405E-02 
1104	 0.03925812150235 
1105	 3.98957512474967E-02 
1106	 3.81132571477835E-02 
1107	 3.59827371096345E-02 
1108	 3.69060952634592E-02 
1109	 0.038124519052366 
1110	 3.84337507030008E-02 
1111	 3.97999741406173E-02 
1112	 3.87691691039464E-02 
1113	 3.32437328046035E-02 
1114	 3.19758851910301E-02 
1115	 3.26937421232603E-02 
1116	 3.26323952669911E-02 
1117	 3.70829030232762E-02 
1118	 3.90864077215975E-02 
1119	 3.66880084623582E-02 
1120	 3.39847982323025E-02 
1121	 2.70464848214007E-02 
1122	 2.78626153953527E-02 
1123	 2.67882873502124E-02 
1124	 2.93075819530988E-02 
1125	 4.44258442364852E-02 
1126	 4.03630299074805E-02 
1127	 2.35882408951119E-02 
1128	 1.81650262345936E-02 
1129	 1.59657198261828E-02 
1130	 1.43638692296409E-02 
1131	 1.63848293682834E-02 
1132	 2.25058403437484E-02 
1133	 2.65872953472891E-02 
1134	 3.58016213557926E-02 
1135	 3.56738594845877E-02 
1136	 2.96920284129883E-02 
1137	 2.86711463691601E-02 
1138	 0.025533223006246 
1139	 2.11771211234211E-02 
1140	 2.53341352598536E-02 
1141	 3.16444329888464E-02 
1142	 3.18489428197386E-02 
1143	 3.10919208122112E-02 
1144	 2.81873181364956E-02 
1145	 2.88747825991492E-02 
1146	 3.59882958264552E-02 
1147	 3.64501515292975E-02 
1148	 3.18164615732681E-02 
1149	 2.94878551888025E-02 
1150	 0.028466184713771 
1151	 2.54120182050562E-02 
1152	 2.62620842559229E-02 
1153	 3.14559006190793E-02 
1154	 3.04931186413068E-02 
1155	 2.74690847838049E-02 
1156	 2.68590200275744E-02 
1157	 0.024312039654922 
1158	 2.51451004064307E-02 
1159	 2.89206800115299E-02 
1160	 2.88158019463011E-02 
1161	 2.74760801387103E-02 
1162	 2.71771872966961E-02 
1163	 0.026608919082151 
1164	 2.66650178912192E-02 
1165	 2.80880915347926E-02 
1166	 2.85684803313228E-02 
1167	 2.78182148055395E-02 
1168	 2.81452305181225E-02 
1169	 2.85812930600024E-02 
1170	 2.85347750606205E-02 
1171	 2.85752738986277E-02 
1172	 0.02882795761801 
1173	 2.86241405159328E-02 
1174	 0.02792394321469 
1175	 2.77093996550974E-02 
1176	 0.027599969338746 
1177	 2.76658582997913E-02 
1178	 2.83194061791499E-02 
1179	 2.89279603143029E-02 
1180	 2.93134136266756E-02 
1181	 2.91464883535306E-02 
1182	 0.028400795533519 
1183	 2.83820599527332E-02 
1184	 2.81291899786929E-02 
1185	 2.76219600192022E-02 
1186	 2.79640353151695E-02 
1187	 2.79241710497878E-02 
1188	 2.77805881579123E-02 
1189	 2.82161562314178E-02 
1190	 2.87959202953752E-02 
1191	 2.91244404617644E-02 
1192	 2.88653258896752E-02 
1193	 2.83621878712793E-02 
1194	 2.79719706654779E-02 
1195	 2.77558987958925E-02 
1196	 2.72812940093327E-02 
1197	 2.73863219458779E-02 
1198	 2.81266115215121E-02 
1199	 2.79678548597736E-02 
1200	 2.75321795900131E-02 
1201	 2.80596754272453E-02 
1202	 2.80368498575765E-02 
1203	 2.71395774508047E-02 
1204	 2.74855540139861E-02 
1205	 0.028139613219319 
1206	 2.75073730745862E-02 
1207	 2.75766333904286E-02 
1208	 0.028104648376102 
1209	 2.75827411161046E-02 
1210	 2.78562328617335E-02 
1211	 2.88939063164926E-02 
1212	 2.87495440765235E-02 
1213	 2.80398603816718E-02 
1214	 2.78202917889199E-02 
1215	 2.77700506864563E-02 
1216	 2.75528665606325E-02 
1217	 0.027206732824517 
1218	 2.74513463413525E-02 
1219	 2.78770329848898E-02 
1220	 2.79650740903171E-02 
1221	 2.80617026705411E-02 
1222	 2.79926622902816E-02 
1223	 2.76972740970788E-02 
1224	 2.75732147434298E-02 
1225	 2.76874246008105E-02 
1226	 2.79203303633352E-02 
1227	 2.80518042980905E-02 
1228	 2.79530459592403E-02 
1229	 2.78068426851059E-02 
1230	 2.76348998849101E-02 
1231	 2.75325881901743E-02 
1232	 2.77359875768089E-02 
1233	 2.81522408452235E-02 
1234	 2.84473344488939E-02 
1235	 2.85262382566045E-02 
1236	 2.83297650232957E-02 
1237	 2.83701540296443E-02 
1238	 2.83034957823321E-02 
1239	 2.83401288900576E-02 
1240	 2.84265804251898E-02 
1241	 2.83844128253531E-02 
1242	 2.80912525438547E-02 
1243	 2.77639544892384E-02 
1244	 2.79634500230799E-02 
1245	 2.81704218379897E-02 
1246	 2.77737298419649E-02 
1247	 2.75064816749461E-02 
1248	 2.74048887985662E-02 
1249	 2.74503659684129E-02 
1250	 2.78998529887421E-02 
1251	 2.81051959154787E-02 
1252	 2.83284618467219E-02 
1253	 2.84150838913887E-02 
1254	 2.80175879847263E-02 
1255	 2.79301842200041E-02 
1256	 2.80872808856596E-02 
1257	 2.84959797515977E-02 
1258	 2.85469138599753E-02 
1259	 2.87653057337843E-02 
1260	 2.87598836964166E-02 
1261	 2.81553205432459E-02 
1262	 2.78543471372585E-02 
1263	 2.74943368203032E-02 
1264	 2.79011137808907E-02 
1265	 2.80805911448713E-02 
1266	 2.76876137908458E-02 
1267	 2.78145080739636E-02 
1268	 2.76458688820719E-02 
1269	 2.76365231910823E-02 
1270	 2.80588039194676E-02 
1271	 2.78147948774207E-02 
1272	 2.77394943071123E-02 
1273	 2.79952349365097E-02 
1274	 2.82259571779641E-02 
1275	 2.80293954283921E-02 
1276	 2.76310460883819E-02 
1277	 2.78872226863184E-02 
1278	 2.81209074776345E-02 
1279	 2.81427643342101E-02 
1280	 0.028378271451481 
1281	 2.83106621034398E-02 
1282	 2.70608878559919E-02 
1283	 2.68581284735126E-02 
1284	 0.027758426415636 
1285	 2.77887578952656E-02 
1286	 2.71714285891037E-02 
1287	 2.72250442681054E-02 
1288	 2.76695330558767E-02 
1289	 2.74297096374577E-02 
1290	 2.68569000892951E-02 
1291	 2.71566008732239E-02 
1292	 2.79856162801927E-02 
1293	 2.80044945965905E-02 
1294	 2.80149516750223E-02 
1295	 2.84012288711223E-02 
1296	 2.80055843993562E-02 
1297	 2.72307931397167E-02 
1298	 2.71206840056905E-02 
1299	 2.80814799002924E-02 
1300	 2.85087199065697E-02 
1301	 2.77936597446499E-02 
1302	 0.027775900595167 
1303	 2.79368459775161E-02 
1304	 2.74836343263732E-02 
1305	 2.72729256127158E-02 
1306	 2.71382725052934E-02 
1307	 2.73264830996006E-02 
1308	 2.73462646034889E-02 
1309	 2.72076910840611E-02 
1310	 0.027181974773703 
1311	 2.74594343423931E-02 
1312	 0.027558126061443 
1313	 2.73080518247913E-02 
1314	 2.70616681489276E-02 
1315	 0.027173240681787 
1316	 2.69793200476127E-02 
1317	 2.61102132334005E-02 
1318	 2.60046028298235E-02 
1319	 0.026278748795111 
1320	 2.62104451432308E-02 
1321	 2.61496762257188E-02 
1322	 2.65820734065466E-02 
1323	 2.65213335806221E-02 
1324	 2.63327187988404E-02 
1325	 2.72674172017383E-02 
1326	 2.80278677890028E-02 
1327	 2.77384180544537E-02 
1328	 2.79276398111915E-02 
1329	 2.72070840950511E-02 
1330	 2.66140422255543E-02 
1331	 0.027875843096458 
1332	 0.027275130835026 
1333	 0.023310914827933 
1334	 2.11030398133711E-02 
1335	 0.021728769266666 
1336	 0.026150123940769 
1337	 2.63572902878571E-02 
1338	 2.77826379328477E-02 
1339	 2.84230000187179E-02 
1340	 2.42223345658605E-02 
1341	 2.32739569919987E-02 
1342	 2.65665044705198E-02 
1343	 2.73999153036613E-02 
1344	 0.026275989029682 
1345	 2.66307232739737E-02 
1346	 2.67298246582788E-02 
1347	 2.78525313130935E-02 
1348	 3.62092434873525E-02 
1349	 3.65223471421061E-02 
1350	 2.39979391783278E-02 
1351	 1.65364752203748E-02 
1352	-7.60555769899281E-03 
1353	-3.43354335556567E-02 
1354	-3.75092092375369E-02 
1355	-4.81786839803682E-02 
1356	 8.17000813451019E-02 
1357	 0.230167173251334 
1358	 0.180690006279718 
1359	-0.01370046832222 
1360	-0.169054968597204 
1361	-0.203043888029516 
1362	-8.98988360171887E-02 
1363	 0.310181983121846 
1364	 0.45586332401884 
1365	-6.58733604673591E-02 
1366	-0.347774551640198 
1367	-0.425180956008085 
1368	-0.485896760716835 
1369	-0.434050403579871 
1370	-0.297172214072392 
1371	 1.59546884552481E-03 
1372	 2.46939606807818E-02 
1373	-0.224168833481296 
1374	-0.132374563729493 
1375	 8.76724156462368 
1376	 2.07901191139997 
1377	-0.327607461957643 
1378	-0.378844692901913 
1379	-0.704511067583591 
1380	-0.606147367570878 
1381	 0.111297890448107 
1382	 0.385544827305627 
1383	 0.471594362781221 
1384	 0.789649173689187 
1385	 0.472054952506806 
1386	-1.76433792991835 
1387	 1.8873294085636 
1388	 1.76039520933714 
1389	 2.92617016448921 
1390	 2.47537739711628 
1391	 1.02500012221948 
1392	 0.627562073864208 
1393	 0.573123053276619 
1394	-0.948529837138743 
1395	-1.99318108756691 
1396	 28.9924136724825 
1397	-1.66317411450937 
1398	 0.347544221234882 
1399	 0.634935239304014 
1400	 68.7714641518203 
1401	-4.30124228843981 
1402	-1.85142734665043 
1403	-4.97111137272916 
1404	 2.89618422456923 
1405	 0.889380877286745 
1406	-0.335868947957713 
1407	-0.224142980575859 
1408	-0.111141436905662 
1409	-0.232452585971351 
1410	 6.25245376178096E-02 
1411	 0.172888071784601 
1412	-0.160577836950861 
1413	-0.128941014524544 
1414	 1.74724208404607 
1415	 1.89836410123203 
1416	-0.163358452783937 
1417	-0.188224808220522 
1418	-0.297639297774316 
1419	-0.25332533682939 
1420	 0.251720730455091 
1421	 0.287512546085379 
1422	 4.93771930611869E-02 
1423	 0.033004922889368 
1424	 4.78074917812992E-02 
1425	 0.021080564822989 
1426	 9.41400876012385E-03 
1427	 2.92901070820758E-02 
1428	 5.87611645915669E-02 
1429	 4.35478384470436E-02 
1430	 1.07313026840951E-02 
1431	 1.53065279869175E-02 
1432	 1.69687689534699E-02 
1433	 1.20905720892904E-03 
1434	-3.32726872229533E-02 
1435	 9.57782892546623E-03 
1436	 0.148781051216139 
1437	 0.137652833351899 
1438	 6.67643610949425E-03 
1439	 1.38718796563839E-02 
1440	 0.02737041936416 
1441	-5.59405335329389E-03 
1442	 3.12499126447062E-03 
1443	 0.049521926208853 
1444	 6.57081278130282E-02 
1445	 5.46669300241237E-02 
1446	 5.67360764853815E-02 
1447	 7.31507241918055E-02 
1448	 4.12494286423843E-02 
1449	-1.62857092242935E-02 
1450	-1.63778862464643E-02 
1451	-4.98390222860075E-03 
1452	 4.29461790082965E-03 
1453	 3.78995839685535E-02 
1454	 3.62036849565506E-02 
1455	 2.49922389085687E-02 
1456	 0.022572492624418 
1457	 1.32793041030923E-02 
1458	 8.99850629227599E-03 
1459	 1.27017557406386E-02 
1460	 1.42396208176773E-02 
1461	 7.86072485457724E-03 
1462	 7.44724088300519E-03 
1463	 1.91788182326093E-02 
1464	 2.12273121173608E-02 
1465	 0.017234012838255 
1466	 1.28973245090252E-02 
1467	 2.49935076520652E-03 
1468	-1.59104282154533E-04 
1469	 2.33031365480596E-03 
1470	-2.35893198819725E-03 
1471	-5.74879636492447E-03 
1472	-1.07478110585814E-02 
1473	-2.21543513931593E-02 
1474	-2.43239926820039E-02 
1475	-2.78591170908737E-02 
1476	-2.01016697885649E-02 
1477	 2.68428683780054E-04 
1478	 4.98065865361687E-03 
1479	 8.68546110445671E-03 
1480	 1.29220514066131E-02 
1481	 1.40477228136924E-02 
1482	 1.00387620785643E-02 
1483	 2.9831302290522E-03 
1484	 2.68751988763638E-03 
1485	 5.68445714894308E-04 
1486	-3.438547951559E-04 
1487	 4.59723238000525E-03 
1488	 5.69241492029119E-03 
1489	 2.49594108200479E-03 
1490	 2.28427526816822E-03 
1491	 4.26399287118074E-03 
1492	 4.92513145715345E-03 
1493	 4.76420852579005E-03 
1494	 5.33075514955841E-03 
1495	 5.63273825522346E-03 
1496	 6.51456705643329E-03 
1497	 7.89916688969743E-03 
1498	 9.55614599777049E-03 
1499	 1.30846438209336E-02 
1500	 1.35509947156964E-02 
1501	 1.26085198881136E-02 
1502	 1.21434745747683E-02 
1503	 9.31214330269916E-03 
1504	 8.28028199048804E-03 
1505	 8.58326045412236E-03 
1506	 0.009004135001798 
1507	 1.01341134740216E-02 
1508	 1.13698367461885E-02 
1509	 1.06598793323874E-02 
1510	 0.010714085935279 
1511	 1.03906173066202E-02 
1512	 8.43848624207314E-03 
1513	 8.60185768049831E-03 
1514	 9.22498063830408E-03 
1515	 8.26449493887093E-03 
1516	 8.58521227673277E-03 
1517	 9.61704469069778E-03 
1518	 9.63080460354781E-03 
1519	 9.87532774198554E-03 
1520	 1.04152236506888E-02 
1521	 1.06024634137666E-02 
1522	 1.01306171957757E-02 
1523	 9.32679259340521E-03 
1524	 9.99843514479788E-03 
1525	 1.12925120214368E-02 
1526	 1.15580551563553E-02 
1527	 1.09141079794568E-02 
1528	 1.02420099640167E-02 
1529	 1.06031221980948E-02 
1530	 1.08693503493559E-02 
1531	 1.11965065159757E-02 
1532	 1.18338919999745E-02 
1533	 1.21095871766624E-02 
1534	 1.24146988514255E-02 
1535	 1.24129375353898E-02 
1536	 0.012568241410818 
1537	 1.22666247099404E-02 
1538	 1.18763026142173E-02 
1539	 1.29801482311191E-02 
1540	 1.40253666145749E-02 
1541	 1.42367117051442E-02 
1542	 1.45028213920959E-02 
1543	 1.46608681842235E-02 
1544	 1.42445665835952E-02 
1545	 1.36337533953645E-02 
1546	 1.33994201580843E-02 
1547	 1.35133139312789E-02 
1548	 1.41849051690795E-02 
1549	 1.51459519796759E-02 
1550	 1.53973397014099E-02 
1551	 1.52292608882176E-02 
1552	 1.49822745973318E-02 
1553	 0.014813274885063 
1554	 1.47706430165248E-02 
1555	 1.48939027245652E-02 
1556	 0.015663105548898 
1557	 1.59855771298074E-02 
1558	 0.015729584421736 
1559	 0.015286762845788 
1560	 1.41984815293649E-02 
1561	 1.38793793649911E-02 
1562	 1.45246776374464E-02 
1563	 1.49149349499114E-02 
1564	 1.50949484740276E-02 
1565	 1.52350053769375E-02 
1566	 1.52575353628782E-02 
1567	 0.014682071790163 
1568	 1.49696887500235E-02 
1569	 1.59348304246486E-02 
1570	 1.53879817349849E-02 
1571	 1.53587425733221E-02 
1572	 1.62675657785137E-02 
1573	 1.62892232816954E-02 
1574	 1.64104111709105E-02 
1575	 1.71175537108107E-02 
1576	 1.70388281790523E-02 
1577	 1.65166663850775E-02 
1578	 1.66357922248905E-02 
1579	 1.67525762476319E-02 
1580	 1.64856825387447E-02 
1581	 1.67140678931306E-02 
1582	 1.70236767217094E-02 
1583	 1.60968154223512E-02 
1584	 1.54983234319175E-02 
1585	 1.60089836975334E-02 
1586	 0.016315285142352 
1587	 1.62981121194663E-02 
1588	 0.016707932898904 
1589	 1.74319357462754E-02 
1590	 1.70854015494217E-02 
1591	 1.66111878723823E-02 
1592	 1.69944347012766E-02 
1593	 1.73720360394473E-02 
1594	 1.77335388806815E-02 
1595	 0.018421864517546 
1596	 1.89634818226645E-02 
1597	 1.79078382281874E-02 
1598	 0.01701096520471 
1599	 1.74883828123516E-02 
1600	 1.75236610879643E-02 
1601	 1.78797541607399E-02 
1602	 1.79146335710161E-02 
1603	 1.74419995761473E-02 
1604	 1.78488878135271E-02 
1605	 1.79658819719775E-02 
1606	 1.83257804908249E-02 
1607	 1.82991518326581E-02 
1608	 1.73283361038117E-02 
1609	 1.72341811233407E-02 
1610	 1.72903698728299E-02 
1611	 1.74177327878354E-02 
1612	 1.77447866032504E-02 
1613	 1.77475189508694E-02 
1614	 1.78164546342924E-02 
1615	 1.80522329923269E-02 
1616	 1.84678871819413E-02 
1617	 1.86952891269059E-02 
1618	 1.82801918827162E-02 
1619	 1.80716459755527E-02 
1620	 0.018300517540644 
1621	 1.77898631912106E-02 
1622	 1.73638454375264E-02 
1623	 1.76284961357463E-02 
1624	 1.76327648935342E-02 
1625	 1.76636738776811E-02 
1626	 1.78888276007948E-02 
1627	 0.017317245351457 
1628	 1.67016935861247E-02 
1629	 1.71709068728004E-02 
1630	 1.79172679670143E-02 
1631	 1.84704473442509E-02 
1632	 1.85256893199941E-02 
1633	 1.84658771860535E-02 
1634	 1.84570497934878E-02 
1635	 1.79624564045144E-02 
1636	 1.78029957108274E-02 
1637	 1.79642929140147E-02 
1638	 1.82839653275789E-02 
1639	 1.87809357229897E-02 
1640	 0.019278171612207 
1641	 1.97137366302757E-02 
1642	 1.94623693278452E-02 
1643	 1.92295858781556E-02 
1644	 0.019191675518273 
1645	 1.92347698820972E-02 
1646	 1.90436998043183E-02 
1647	 1.87221428164314E-02 
1648	 0.019081733010727 
1649	 1.89687253491204E-02 
1650	 0.01864534168155 
1651	 1.89515803714564E-02 
1652	 1.91802489399991E-02 
1653	 1.89716913890692E-02 
1654	 1.92048427171231E-02 
1655	 1.98965338325434E-02 
1656	 1.99258672264456E-02 
1657	 0.01935522992167 
1658	 1.91668078821552E-02 
1659	 1.95039532258723E-02 
1660	 0.019079489639375 
1661	 1.80760790539269E-02 
1662	 1.79298095768352E-02 
1663	 1.76194411689354E-02 
1664	 1.72089594559797E-02 
1665	 1.73757310533464E-02 
1666	 1.81575951253781E-02 
1667	 1.89439960207842E-02 
1668	 1.84002101314276E-02 
1669	 1.87660187552208E-02 
1670	 1.85937741615116E-02 
1671	 1.83789158285039E-02 
1672	 0.019519726509768 
1673	 1.99574645950628E-02 
1674	 1.87790279396791E-02 
1675	 1.77001735415912E-02 
1676	 1.75744008489672E-02 
1677	 1.84163356438823E-02 
1678	 1.94625959034017E-02 
1679	 2.00124762179149E-02 
1680	 1.94942413390696E-02 
1681	 1.90326516921605E-02 
1682	 1.89778141692108E-02 
1683	 1.84778714095164E-02 
1684	 0.018579295419178 
1685	 1.89107128521122E-02 
1686	 1.91088111880588E-02 
1687	 1.93198232557832E-02 
1688	 1.93351008753706E-02 
1689	 1.90585871907055E-02 
1690	 1.82299918157964E-02 
1691	 0.018423328504981 
1692	 1.99931450235719E-02 
1693	 2.02475487454485E-02 
1694	 0.019347505487868 
1695	 1.88422405992449E-02 
1696	 0.017702403902806 
1697	 1.76993405480966E-02 
1698	 1.92758271776784E-02 
1699	 2.01750275975016E-02 
1700	 2.08611616618034E-02 
1701	 2.03746705337314E-02 
1702	 1.91614936017905E-02 
1703	 1.91974346340621E-02 
1704	 1.90900514908059E-02 
1705	 1.82902557104904E-02 
1706	 1.78404949915231E-02 
1707	 1.81411071259635E-02 
1708	 1.85048159944224E-02 
1709	 1.89344775289893E-02 
1710	 0.020005974853831 
1711	 2.00628884345192E-02 
1712	 1.94006684200366E-02 
1713	 2.03917994709226E-02 
1714	 1.98391610267824E-02 
1715	 1.84539310369312E-02 
1716	 1.82318829681773E-02 
1717	 1.74285634283921E-02 
1718	 1.74741255756996E-02 
1719	 1.69584659155205E-02 
1720	 0.016211399167561 
1721	 1.59230926281362E-02 
1722	 1.63277515905914E-02 
1723	 1.78816896103672E-02 
1724	 1.75084094940208E-02 
1725	 1.60952966739828E-02 
1726	 1.65826948817556E-02 
1727	 1.66569063004158E-02 
1728	 1.71681131209059E-02 
1729	 1.97771909004297E-02 
1730	 2.07314538004621E-02 
1731	 1.98176554963948E-02 
1732	 1.90256278652523E-02 
1733	 1.71753008961811E-02 
1734	 1.60052855036885E-02 
1735	 1.61788106337638E-02 
1736	 1.57040926432411E-02 
1737	 1.70822844121281E-02 
1738	 1.93785902713337E-02 
1739	 1.86921685320366E-02 
1740	 1.77784091211242E-02 
1741	 1.82917311111471E-02 
1742	 1.76596902145933E-02 
1743	 1.65996737846268E-02 
1744	 1.72978447697678E-02 
1745	 1.77270748605746E-02 
1746	 1.71120851725019E-02 
1747	 1.78193433248002E-02 
1748	 2.08646862031077E-02 
1749	 2.06660899038765E-02 
1750	 1.93696533146128E-02 
1751	 1.89641363553516E-02 
1752	 1.61946158625692E-02 
1753	 0.014920499299192 
1754	 1.35662940151938E-02 
1755	 1.40003986150819E-02 
1756	 1.83135153405028E-02 
1757	 1.88208108874366E-02 
1758	 1.81247576734493E-02 
1759	 1.65681613963877E-02 
1760	 1.19018866085631E-02 
1761	 1.12756618258052E-02 
1762	 1.44065953396604E-02 
1763	 1.46379265301331E-02 
1764	 1.46265309831599E-02 
1765	 1.56092017687494E-02 
1766	 1.43466774485934E-02 
1767	 1.32948295100442E-02 
1768	 0.013613821544119 
1769	 1.44642737788199E-02 
1770	 1.51121855182007E-02 
1771	 1.38954698700515E-02 
1772	 1.32407920084057E-02 
1773	 1.32640835203634E-02 
1774	 1.23098389583055E-02 
1775	 1.60643064396082E-02 
1776	 1.60168803890652E-02 
1777	 1.06245928417149E-02 
1778	 8.91714639919725E-03 
1779	 5.90487447882042E-03 
1780	 4.85643646783066E-03 
1781	 7.62267854404151E-03 
1782	 9.08664952495552E-03 
1783	 1.38552073621292E-02 
1784	 1.45068489345028E-02 
1785	 1.27060303095206E-02 
1786	 1.38403102159128E-02 
1787	 1.17576806772685E-02 
1788	 9.06594552670587E-03 
1789	 8.82483219473631E-03 
1790	 4.61980007591926E-03 
1791	 1.89283549176111E-03 
1792	 3.76645464922709E-03 
1793	 4.31618941707869E-03 
1794	-1.07836962854723E-03 
1795	-2.43819363700391E-03 
1796	-5.65324050941182E-03 
1797	-6.2083814036813E-03 
1798	 3.18507803992704E-04 
1799	-6.57395949517189E-03 
1800	-4.42560206393362E-02 
1801	-6.40966496338059E-02 
1802	-8.70394340679075E-02 
1803	-9.41866944973891E-02 
1804	-1.48185704172884E-02 
1805	-6.37755061994905E-03 
1806	-7.48346519264194E-02 
1807	-9.90098873193119E-02 
1808	-0.235097081591102 
1809	-0.250311915811717 
1810	 0.205148827833682 
1811	 0.410449635452 
1812	 0.458046728333547 
1813	 0.233101032759716 
1814	-0.626801495960588 
1815	-0.885116383251172 
1816	-1.35143477949417 
1817	-0.394786934391208 
1818	-9.06369552045851 
1819	-6.71057301834414 
1820	 6.53014222901394 
1821	 0.523874227712918 
1822	 0.200387897818925 
1823	 0.143868928256882 
1824	 2.27552190198301E-02 
1825	-0.242606682138667 
1826	-1.93455074831862 
1827	 2.85370300884799 
1828	 2.01976138709404 
1829	 3.17986136967483 
1830	 2.81280484405438 
1831	-4.85171640071155 
1832	-0.882442083124302 
1833	 0.540598168434182 
1834	 0.726859448770999 
1835	 0.700766217753772 
1836	 0.695155509523138 
1837	 0.408348871656127 
1838	 6.35590527994335E-02 
1839	-0.725951646042734 
1840	-1.58340190925119 
1841	-2.90542173060551 
1842	 6.72054728819123 
1843	 27.1890952702604 
1844	-1.39452300239659 
1845	-1.18128965580678 
1846	-0.600596100377634 
1847	-0.594445418243588 
1848	-1.43719288449947 
1849	 6.30479733572839 
1850	 0.7944754115387 
1851	-0.377294662712711 
1852	-0.432539446156924 
1853	-0.332572677348773 
1854	-0.180696962145645 
1855	 0.621764098906597 
1856	 0.795120354107842 
1857	 0.439683116548625 
1858	 0.40714163638036 
1859	 0.573790322199337 
1860	 0.951639445141244 
1861	-0.990596229954606 
1862	-0.604844342438529 
1863	-0.348694985044864 
1864	-0.27444671853329 
1865	-0.093276224823829 
1866	 0.463398990252177 
1867	 0.595292689841535 
1868	 0.721847284916577 
1869	 0.719509615263641 
1870	 0.282681057131963 
1871	 3.54114940176012E-02 
1872	 8.74850534860494E-02 
1873	 1.10022679729516 
1874	 8.58206606967511 
1875	-6.84143866733653 
1876	-3.94322166301594 
1877	-6.26238953846956 
1878	 8.0726067458225 
1879	 0.712879772772363 
1880	 0.739232292387295 
1881	 1.13199172520842 
1882	 1.24169676054457 
1883	 1.96372145034087 
1884	 4.02004090320666 
1885	 1.85007392291406 
1886	 1.93288946056349 
1887	 3.59848639388177 
1888	 5.42876088860157 
1889	 3.75462436495255 
1890	 1.13909140264901 
1891	 0.732546411259706 
1892	-0.42292122931859 
1893	-0.638913107217778 
1894	 0.252675624665071 
1895	-10.7280809808585 
1896	-2.21832244779887 
1897	-2.81318362573214 
1898	-5.01887223776016 
1899	-1.10395916556304 
1900	-1.17061512368081 
1901	 13.3822145167153 
1902	 5.0381184963182 
1903	 5.37609762886018 
1904	 2.98506089337608 
1905	 3.93200568696699 
1906	 4.05847067396929 
1907	 6.53744986947569 
1908	-8.07111388682396 
1909	-2.43036717415118 
1910	-0.378785678988488 
1911	-1.93621581363468 
1912	 1.03349752342401 
1913	 1.03416076777241 
1914	 2.87541866667397 
1915	 2.47918982897247 
1916	 1.00433051314337 
1917	 0.268193414343124 
1918	 3.15968311620242 
1919	 0.988199664665776 
1920	-6.33967804753123 
1921	 1.01033953205962 
1922	 0.605191165924528 
1923	 0.316265511052179 
1924	 0.305951892960269 
1925	 0.286940647748121 
1926	 0.215219942822756 
1927	-0.276051658905775 
1928	 8.38545504131216 
1929	 0.697972311285911 
1930	 0.547961044417979 
1931	 0.861478162857759 
1932	 3.60509681400402 
1933	-0.713527930814363 
1934	-0.382115628723033 
1935	-0.334155242905087 
1936	 2.15268804755607 
1937	-5.04978832784679 
1938	-3.16875863254079 
1939	-10.7787385969557 
1940	 5.22254381033425 
1941	 1.192725813289 
1942	 1.11247186525322 
1943	 1.06244885421562 
1944	 1.00217455836889 
1945	 2.89628431030507 
1946	 5.62911040082797 
1947	 2.53518553251691 
1948	 1.23240893233749 
1949	-0.158533701332356 
1950	-0.896586007995744 
1951	-1.44551290175247 
1952	-1.68568995009162 
1953	-1.02224944240411 
1954	-0.347754426036676 
1955	-0.424008324640155 
1956	-0.550434334656408 
1957	-0.412569190524518 
1958	-0.469339402241675 
1959	-0.290541002681739 
1960	-9.10160415859899E-02 
1961	-0.137571918734428 
1962	-0.067167778371367 
1963	-4.26966265608328E-02 
1964	-5.02811130041377E-02 
1965	 4.03750263997513E-02 
1966	 7.71286474607897E-02 
1967	 0.109485918480844 
1968	 0.104431239900141 
1969	 9.78946226534453E-02 
1970	 0.106911946536488 
1971	 7.40553695849635E-02 
1972	 3.57529269319173E-02 
1973	 3.14200533489252E-02 
1974	-7.9264647894026E-03 
1975	-0.023530793697164 
1976	-7.96628628756182E-03 
1977	-2.50355855464221E-03 
1978	 1.90029793446269E-03 
1979	 7.13090821190524E-03 
1980	 2.05729702236428E-02 
1981	 1.74615164954343E-02 
1982	 6.39250731791347E-03 
1983	 1.65391824769934E-02 
1984	 1.70971377409227E-02 
1985	 0.012205480902601 
1986	 1.86450253601959E-02 
1987	 1.15642193703342E-02 
1988	-8.24496993113712E-04 
1989	 3.83680326703526E-03 
1990	 0.011757438391228 
1991	 1.08269671715751E-02 
1992	 0.015648989697606 
1993	 2.38396025306025E-02 
1994	 2.89609532494556E-02 
1995	 3.51966454255768E-02 
1996	 3.78886413333695E-02 
1997	 2.94922820287967E-02 
1998	 3.40124821117129E-02 
1999	 1.97077125859642E-02 
2000	 1.10577136872432E-02 
2001	 0.038756608569312 
2002	 2.35104228870103E-02 
2003	 1.26021915097362E-02 
2004	 2.82495300541364E-02 
2005	 2.39812332097814E-02 
2006	 1.73269695995042E-02 
2007	 1.44340035787742E-02 
2008	 3.52751376008147E-02 
2009	 4.67326200242197E-02 
2010	 5.16428265472151E-02 
2011	 5.73093608922274E-02 
2012	 0.068645195893561 
2013	 7.77846160708785E-02 
2014	 7.23534855937454E-02 
2015	 7.92322689631152E-02 
2016	 8.00692427685167E-02 
2017	 4.56150229762407E-02 
2018	 2.81721955091283E-02 
2019	 2.22726616035043E-02 
2020	 1.88683453260456E-02 
2021	 1.67128496352558E-02 
2022	-9.97186440481809E-04 
2023	 4.85312329563253E-03 
2024	 7.4084764420904E-03 
2025	 7.46976588124654E-03 
2026	 1.13019509966115E-02 
2027	 2.68673768324031E-02 
2028	 0.023109589073289 
2029	 1.06116168193802E-02 
2030	 1.29481247989409E-02 
2031	 8.85115855929587E-03 
2032	 4.44140281089935E-03 
2033	 9.94513983506618E-03 
2034	 1.07114105731118E-02 
2035	 5.65454047707206E-03 
2036	 3.10337451930277E-03 
2037	 9.12210693994761E-04 
2038	-4.5079783815746E-03 
2039	-5.25276340493114E-03 
2040	 1.58600692780098E-03 
2041	-2.54588761231555E-04 
2042	-6.57789589720086E-03 
2043	-6.21205413024877E-03 
2044	-6.8779177273309E-03 
2045	-5.71240283448809E-03 
2046	 1.1724037970656E-03 
2047	 2.0037865477723E-03 
2048	 3.15837428086371E-03 
2049	 9.20906004331124E-03 
2050	 1.63153417307619E-02 
2051	 2.28739747914757E-02 
2052	 2.94522515240906E-02 
2053	 2.72691958553951E-02 
2054	 2.23686671601651E-02 
2055	 2.87286496110212E-02 
2056	 2.99896288422829E-02 
2057	 2.94553777643383E-02 
2058	 2.67817448264197E-02 
2059	 2.37179038713934E-02 
2060	 0.019202531885207 
2061	 1.09148903337325E-02 
2062	 6.05945641420664E-03 
2063	 5.94024660095825E-03 
2064	 4.59849558978842E-03 
2065	 4.84241807287183E-03 
2066	 9.81582270212625E-03 
2067	 5.3274431362402E-03 
2068	 1.07039637236103E-03 
2069	 3.79373572651225E-03 
2070	 1.30965834386324E-03 
2071	 7.42341831369611E-03 
2072	 5.58671046187102E-03 
2073	 2.57385621488267E-03 
2074	-5.36500873506079E-03 
2075	-5.13834911617649E-03 
2076	-3.15605760558577E-03 
2077	-6.24674245994464E-04 
2078	 4.45197123028249E-03 
2079	 5.23703799852233E-03 
2080	 3.88406052632913E-03 
2081	 6.00100656756551E-03 
2082	 2.78772735288599E-03 
2083	 1.34579359840575E-03 
2084	-1.52011313834844E-03 
2085	-9.43184367702618E-03 
2086	-7.99486285238805E-03 
2087	-4.07660063443505E-03 
2088	-1.55528415494515E-03 
2089	 5.61064265092294E-03 
2090	 6.9207721867579E-03 
2091	 5.53862222528195E-03 
2092	 5.47699610370081E-03 
2093	 5.85963375775154E-03 
2094	 4.40288180863531E-03 
2095	 2.0726778336341E-03 
2096	 4.00803037091323E-04 
2097	-3.98281834623775E-03 
2098	-5.89396010539076E-03 
2099	-6.3151780751571E-03 
2100	-6.07041691606997E-03 
2101	-5.29590866553511E-03 
2102	 3.39750868629523E-03 
2103	 1.13480973790209E-02 
2104	 1.67571927731362E-02 
2105	 1.73804196849682E-02 
2106	 1.37956199955299E-02 
2107	 1.00679925589836E-02 
2108	 7.19783145081262E-03 
2109	 9.34368299061757E-03 
2110	 1.48792102332671E-02 
2111	 2.51879372813023E-02 
2112	 3.23846670130004E-02 
2113	 3.28841411622811E-02 
2114	 2.75716407591292E-02 
2115	 2.55668659946049E-02 
2116	 1.64293625738532E-02 
2117	 1.46540139108829E-02 
2118	 2.10353542551503E-02 
2119	 2.28639123938233E-02 
2120	 2.54540230145556E-02 
2121	 2.33922053784506E-02 
2122	 2.23792337039612E-02 
2123	 1.84094068089073E-02 
2124	 1.56579853656985E-02 
2125	 1.71505442756572E-02 
2126	 1.63551208264277E-02 
2127	 1.80952188188823E-02 
2128	 1.89585575524301E-02 
2129	 1.83414623318501E-02 
2130	 2.04210190340506E-02 
2131	 1.98914891343928E-02 
2132	 1.76930474882503E-02 
2133	 1.66593405638418E-02 
2134	 1.58913833107402E-02 
2135	 0.015030176151012 
2136	 1.42527827040287E-02 
2137	 1.32319621266111E-02 
2138	 1.29370934575635E-02 
2139	 1.27842924034377E-02 
2140	 1.25582731648513E-02 
2141	 1.43762934571091E-02 
2142	 1.56958774852197E-02 
2143	 1.66592263671979E-02 
2144	 1.57965571677376E-02 
2145	 1.70591110165351E-02 
2146	 1.62675052290264E-02 
2147	 0.016321847511997 
2148	 1.65009433792764E-02 
2149	 1.77560949448885E-02 
2150	 1.61771031070832E-02 
2151	 1.16558610004984E-02 
2152	 1.35881691786198E-02 
2153	 1.37126849707411E-02 
2154	 1.44448484718088E-02 
2155	 2.04516810077661E-02 
2156	 1.89178639546265E-02 
2157	 0.020006686949734 
2158	 0.02363381992214 
2159	 2.34455240438579E-02 
2160	 2.00011505917771E-02 
2161	 1.92530062156106E-02 
2162	 1.46153108752328E-02 
2163	 1.63702269496925E-02 
2164	 2.59614638564229E-02 
2165	 2.85925059225959E-02 
2166	 3.32939453203184E-02 
2167	 3.31070749504711E-02 
2168	 2.41441313094344E-02 
2169	 2.14613762427702E-02 
2170	 2.20505235363928E-02 
2171	 1.62373080255889E-02 
2172	 0.016847732411321 
2173	 1.58436974731358E-02 
2174	 1.27843727522204E-02 
2175	 1.28483630342691E-02 
2176	 1.06588762820621E-02 
2177	 8.44318814259525E-03 
2178	 8.55299442077423E-03 
2179	 9.87119214513352E-03 
2180	 1.68118077590055E-02 
2181	 2.04501921091551E-02 
2182	 1.89748765933927E-02 
2183	 1.91749031087512E-02 
2184	 1.38269532281557E-02 
2185	 9.24152406167256E-03 
2186	 8.33632923640469E-03 
2187	 0.012816559385496 
2188	 1.31433485204479E-02 
2189	 1.22042430626051E-02 
2190	 0.012600780783841 
2191	 1.53888013718891E-02 
2192	 1.21400096247883E-02 
2193	 3.36022825938341E-03 
2194	 0.002997874983103 
2195	 2.11354899114391E-03 
2196	 4.70983215283084E-04 
2197	 7.52805061879322E-03 
2198	 1.05339245534378E-02 
2199	 8.11278274836395E-03 
2200	 6.11932209116586E-03 
2201	 0.013986343923762 
2202	 1.50460549766549E-02 
2203	 9.47753453674093E-03 
2204	 1.15181262851459E-02 
2205	 1.27558865021919E-02 
2206	 1.26014076959715E-02 
2207	 1.46817282783223E-02 
2208	 1.58145726853584E-02 
2209	 1.10870239690101E-02 
2210	 5.81800548887659E-03 
2211	 1.08511816704411E-02 
2212	 1.68488083539358E-02 
2213	 2.01849044899289E-02 
2214	 3.00580526333087E-02 
2215	 3.43724434422338E-02 
2216	 3.07211377752732E-02 
2217	 2.72117412773481E-02 
2218	 2.05290661567078E-02 
2219	 1.37136660637966E-02 
2220	-2.63360516935802E-05 
2221	-3.2941652772777E-03 
2222	-3.82878421101511E-03 
2223	 1.18060330153037E-03 
2224	 2.16464945709646E-02 
2225	 0.02920623033697 
2226	 3.52463291276447E-02 
2227	 3.53823350446479E-02 
2228	 2.21219779060911E-02 
2229	 1.59392069300145E-02 
2230	 0.012579226368199 
2231	 9.12090168545434E-03 
2232	 4.57091726457962E-03 
2233	 2.18723181801958E-03 
2234	 6.76070902807637E-04 
2235	-5.51089472544551E-05 
2236	 3.38957985501608E-03 
2237	 1.17840400970281E-02 
2238	 1.11925785690212E-02 
2239	 9.33143876181929E-03 
2240	 4.95255633073568E-03 
2241	 4.50246907553513E-03 
2242	 9.68632826816064E-03 
2243	 3.80790688631388E-03 
2244	-1.51064193904422E-03 
2245	-3.67796585376703E-03 
2246	 1.96139620143167E-03 
2247	 1.27114839224447E-02 
2248	 1.45023721071889E-02 
2249	 1.68303113988118E-02 
2250	 1.24209383071657E-02 
2251	 8.22490031010996E-03 
2252	 1.13228270287279E-02 
2253	 7.41547679011284E-03 
2254	 3.80613362914752E-03 
2255	 1.57047711901542E-03 
2256	-9.85824223583197E-04 
2257	-3.24536237135123E-03 
2258	 2.31757454108053E-03 
2259	 9.98635763354997E-03 
2260	 1.09136036357882E-02 
2261	 1.36310804228853E-02 
2262	 9.83029253501278E-03 
2263	-8.03532412589002E-03 
2264	-1.12975374031142E-02 
2265	-1.11287509019756E-02 
2266	-8.64485838709623E-03 
2267	 3.73766251100722E-03 
2268	 6.09534831449925E-03 
2269	 3.86690906000977E-03 
2270	 5.7543546385809E-03 
2271	 8.60952957595504E-03 
2272	 1.06916470228858E-02 
2273	 1.66687769051104E-02 
2274	 1.66168633845664E-02 
2275	 4.35853483061446E-03 
2276	 3.46397030260525E-03 
2277	 7.75240519935272E-03 
2278	 9.76674585674903E-03 
2279	 2.23330554453351E-02 
2280	 2.56885229204116E-02 
2281	 2.56549821164152E-02 
2282	 1.25224367628323E-02 
2283	 4.19047583902574E-03 
2284	 2.11203601509719E-03 
2285	-5.91731720969585E-04 
2286	 8.38005304009202E-03 
2287	 1.34498170815254E-02 
2288	 8.71179196515169E-03 
2289	 2.74413162531664E-03 
2290	-2.05591153391349E-04 
2291	 3.47137313505271E-03 
2292	 7.28266183917734E-03 
2293	 5.95696307917719E-03 
2294	 3.59265917179073E-03 
2295	-3.52977729835527E-03 
2296	-1.00694268412295E-02 
2297	 7.68826971042362E-05 
2298	 1.29256887171283E-02 
2299	 1.55322859732915E-02 
2300	 2.02002266967723E-02 
2301	 2.76292823855429E-02 
2302	 2.98468817087343E-02 
2303	 4.37016776179093E-02 
2304	 5.66193852172022E-02 
2305	 5.57012695628795E-02 
2306	 0.050252349964986 
2307	 2.88491077982041E-02 
2308	 8.82951835354041E-03 
2309	-1.40817323020244E-03 
2310	-0.011846210696095 
2311	-1.10659085280262E-02 
2312	-1.27182415279796E-02 
2313	-0.033783125591832 
2314	-3.28467923613914E-02 
2315	-1.89898291759285E-02 
2316	-1.08032804136918E-03 
2317	 2.08103343254532E-02 
2318	 3.19460492674522E-02 
2319	 0.04696952600724 
2320	 2.74090610434643E-02 
2321	 3.54501379660817E-02 
2322	 5.39812630790908E-02 
2323	 3.51194230956118E-02 
2324	 4.48961401260441E-02 
2325	 5.09256832924412E-02 
2326	 5.25946416699239E-02 
2327	 5.43966683889371E-02 
2328	 4.37390861251955E-02 
2329	 1.29489705734852E-02 
2330	-2.61654625247828E-02 
2331	-5.74685577590461E-02 
2332	-7.66802193762123E-02 
2333	-7.70204342333401E-02 
2334	-9.00639102495017E-02 
2335	-6.96560204418198E-02 
2336	-6.13808934304682E-02 
2337	-8.49503897092563E-02 
2338	-4.43141236144427E-02 
2339	-8.39894992565525E-03 
2340	-5.2963323358034E-03 
2341	 0.025748356350785 
2342	 4.31699410514081E-02 
2343	 3.01062437730337E-02 
2344	 3.49907969595665E-03 
2345	-4.61773456804578E-02 
2346	-0.133685927696536 
2347	-0.19006838226854 
2348	-0.165449026695055 
2349	-0.183745447544676 
2350	-0.175246302064362 
2351	-0.100331589029962 
2352	-0.130068067950685 
2353	-0.12831247105185 
2354	-5.72218616956708E-02 
2355	-8.11381339954679E-02 
2356	-0.086743558829937 
2357	 1.39287575340162E-02 
2358	 4.57478872565603E-02 
2359	 7.45579144386757E-02 
2360	 6.43614706751017E-02 
2361	 1.00797332783604E-02 
2362	 5.77641874657873E-02 
2363	 6.49238925849861E-02 
2364	 7.57846481458556E-02 
2365	 0.113444076444774 
2366	 0.145332489219966 
2367	 0.200466812939398 
2368	 0.231992214112057 
2369	 0.215321139970855 
2370	 0.155513178608804 
2371	 9.80856124432329E-02 
2372	 1.7314798398299E-03 
2373	-0.139582377445235 
2374	-0.331949131356764 
2375	-0.468815327770644 
2376	-0.578435161636193 
2377	-0.643339971780277 
2378	-0.451732548465449 
2379	-0.269628968019763 
2380	-0.11312796675002 
2381	 0.194844305988004 
2382	 0.307077990683098 
2383	 0.273825058653814 
2384	 0.452072212241296 
2385	 0.397907835923429 
2386	 0.212703807589727 
2387	 0.136284885735001 
2388	 2.55342764071061E-02 
2389	-0.227257585938338 
2390	-0.247157229429376 
2391	-0.184495298944328 
2392	-0.191870791838288 
2393	-0.189433837127023 
2394	-0.101826808705615 
2395	 8.60474067514842E-02 
2396	 6.49115515091053E-02 
2397	 1.40403522073315E-02 
2398	 0.104322128372271 
2399	 4.64985111544525E-02 
2400	 6.56682478712242E-02 
2401	 0.425755786563554 
2402	 0.423482173947852 
2403	 0.518866597609088 
2404	 0.51759472205118 
2405	 0.214075280954485 
2406	 0.587235686339047 
2407	 2.01222869772883 
2408	 2.17249406478054 
2409	 6.34540447899711 
2410	 9.11318524613002 
2411	 0.386877409334408 
2412	 0.729142464188679 
2413	 0.895946225919211 
2414	 0.200876731193051 
2415	 0.461808744266998 
2416	 3.00002585580519E-02 
2417	-0.555164317121746 
2418	-0.705814784343584 
2419	-0.498236428277877 
2420	 0.542460229874958 
2421	 0.177164459389637 
2422	-0.246381112480388 
2423	-0.365616953009257 
2424	-1.40277631177215 
2425	-0.475198772872243 
2426	 34.2340150120919 
2427	-1.48938063519117 
2428	-6.20156139802859 
2429	 1.31889317737802 
2430	 1.07053441208429 
2431	 0.413430175762861 
2432	-0.54516637641281 
2433	 7.59676349037755 
2434	 0.264950113051305 
2435	 0.531598216295251 
2436	 0.291539884902559 
2437	 0.365138737391596 
2438	 0.406841420026147 
2439	-0.110953949224209 
2440	-0.547112839546178 
2441	-0.405404573647271 
2442	-0.246448245670971 
2443	-2.82583961124952E-02 
2444	-9.15680656452331E-02 
2445	-0.29221911117759 
2446	-0.420156506665101 
2447	-0.421390801553823 
2448	-0.481061221759853 
2449	-0.34663803778463 
2450	-0.210395055527742 
2451	-0.578357216931095 
2452	-0.749236704911897 
2453	-0.827803446549801 
2454	-0.572291333998151 
2455	 9.50224477800456E-02 
2456	 4.30236351403982E-02 
2457	 0.09027517212457 
2458	-0.217035142728898 
2459	-0.271301473538051 
2460	-0.134027480655921 
2461	-0.171552878952632 
2462	-0.201003448574701 
2463	-2.06706875093526 
2464	-4.83381450549248 
2465	-18.4587628740088 
2466	-2.94960580353521 
2467	-0.240165664249838 
2468	 0.236248622821702 
2469	-0.128006155575752 
2470	-0.233375670209035 
2471	-0.652476675214183 
2472	-0.880322491719269 
2473	-0.660110230466723 
2474	-0.9524630472219 
2475	-0.7839489742893 
2476	-0.524766839412739 
2477	-1.26424499531337 
2478	 0.782435273957382 
2479	 1.57150730747348 
2480	 8.17801056168491 
2481	-1.72445458677621 
2482	-1.00856136439361 
2483	 0.237261451009741 
2484	 0.834876362810129 
2485	 1.39592639821479 
2486	 1.65703503433789 
2487	 1.7183186444865 
2488	 1.48704038849305 
2489	 0.682115479877842 
2490	 0.32336480281532 
2491	 0.490775528865937 
2492	 0.643276100624003 
2493	 1.38838378384592 
2494	 1.57200741669594 
2495	 1.01867608746482 
2496	 0.421723921893895 
2497	-8.78359237869459E-02 
2498	-1.00699491073842 
2499	 3.25693051275327 
2500	 0.207563975719708 
