Wavelength	rt0704rt00009.asd
350	 5.37548464362938E-02 
351	 5.35501966601823E-02 
352	 5.40695397494699E-02 
353	 5.45477996754185E-02 
354	 5.46064568912523E-02 
355	 5.57554314330856E-02 
356	 0.055970860477666 
357	 5.57366751930301E-02 
358	 5.60868323796095E-02 
359	 5.67217741719109E-02 
360	 5.72586890834384E-02 
361	 5.77588344102928E-02 
362	 5.85319400817343E-02 
363	 5.90767986212962E-02 
364	 5.93486392394843E-02 
365	 5.95505533975841E-02 
366	 6.01585996777425E-02 
367	 6.05704529520611E-02 
368	 6.08592580576078E-02 
369	 6.12265111006913E-02 
370	 6.16091051476109E-02 
371	 6.23940109217278E-02 
372	 6.30600601894117E-02 
373	 6.28448609526952E-02 
374	 6.38124168776094E-02 
375	 6.47948836124298E-02 
376	 6.52526692324391E-02 
377	 6.59790622707925E-02 
378	 6.62776758275113E-02 
379	 0.066443457008607 
380	 0.066846215298937 
381	 6.73631893317346E-02 
382	 6.75825892979748E-02 
383	 6.79251024517653E-02 
384	 0.06890614267327 
385	 6.86608718424624E-02 
386	 6.87227237135373E-02 
387	 6.93880556757468E-02 
388	 6.93288470858814E-02 
389	 6.98178751226739E-02 
390	 7.03471156932222E-02 
391	 0.07044913154861 
392	 7.06112875927669E-02 
393	 7.05990181769611E-02 
394	 7.05355126772937E-02 
395	 7.05765190460325E-02 
396	 7.02894951592531E-02 
397	 7.03348703797637E-02 
398	 7.06488177258671E-02 
399	 7.05421036450415E-02 
400	 7.02304270061214E-02 
401	 7.00099560153227E-02 
402	 6.99858802446028E-02 
403	 6.98488435986332E-02 
404	 6.96573458066988E-02 
405	 6.93942992455257E-02 
406	 6.90455954338146E-02 
407	 6.87043122489692E-02 
408	 6.85255448178909E-02 
409	 6.84201613866327E-02 
410	 6.80812269445495E-02 
411	 6.76767991921231E-02 
412	 6.72340871446903E-02 
413	 6.68063604834487E-02 
414	 6.65829520533857E-02 
415	 6.63414166287421E-02 
416	 6.60361672113646E-02 
417	 6.56886715831001E-02 
418	 6.52026351711402E-02 
419	 6.49487685930285E-02 
420	 6.49254104532079E-02 
421	 6.47115341434713E-02 
422	 6.43902334980028E-02 
423	 0.064111940771327 
424	 6.40003845990075E-02 
425	 6.40727249444546E-02 
426	 6.40635282811375E-02 
427	 6.39681177908715E-02 
428	 6.39217854562572E-02 
429	 6.40032687223552E-02 
430	 6.40207745627352E-02 
431	 6.39672227073659E-02 
432	 6.40768065510981E-02 
433	 0.064292577456253 
434	 6.45023091192405E-02 
435	 6.46248585020837E-02 
436	 0.064705753090657 
437	 6.47759006183678E-02 
438	 6.48400070304389E-02 
439	 0.064882209763997 
440	 6.48530785776637E-02 
441	 6.48448633017484E-02 
442	 6.49062668772515E-02 
443	 6.50058677181984E-02 
444	 6.49724685208878E-02 
445	 6.49064630013167E-02 
446	 6.49355974940867E-02 
447	 0.064969495379491 
448	 6.50177589054233E-02 
449	 6.49718204506927E-02 
450	 6.46785834431701E-02 
451	 6.45512505387203E-02 
452	 6.44824202447988E-02 
453	 6.43587297834535E-02 
454	 6.42263516757641E-02 
455	 0.064039256859202 
456	 0.063781861140252 
457	 0.063483976865231 
458	 6.33314359203237E-02 
459	 6.31505967135275E-02 
460	 6.28843926478651E-02 
461	 6.26141184330029E-02 
462	 6.23664280032975E-02 
463	 6.20887126591533E-02 
464	 6.17708030826999E-02 
465	 6.15712109557303E-02 
466	 6.13634853062314E-02 
467	 6.11586517521537E-02 
468	 0.061012945951611 
469	 0.060785244129715 
470	 6.06290001738522E-02 
471	 0.060546502862842 
472	 6.03058122332806E-02 
473	 6.01175005005099E-02 
474	 6.00831796682924E-02 
475	 6.01644028384304E-02 
476	 5.99330348506399E-02 
477	 5.98704832866381E-02 
478	 5.99143320968965E-02 
479	 5.96769979064733E-02 
480	 5.96650207325736E-02 
481	 5.97395540319469E-02 
482	 5.97702687162465E-02 
483	 5.98311816141966E-02 
484	 5.97726595754622E-02 
485	 5.97315951849143E-02 
486	 5.98785235925063E-02 
487	 5.99403323954426E-02 
488	 6.00479141533556E-02 
489	 6.02219842414616E-02 
490	 6.03615076786594E-02 
491	 0.060493634959554 
492	 0.060666639779102 
493	 6.09020399079674E-02 
494	 6.11266479042001E-02 
495	 0.06150650844799 
496	 6.18723887522762E-02 
497	 6.19621628123625E-02 
498	 6.22839469921539E-02 
499	 6.26799712179559E-02 
500	 6.30081151303171E-02 
501	 6.32614578145044E-02 
502	 6.35209054864129E-02 
503	 0.06379016238282 
504	 6.40574481821519E-02 
505	 6.43448072639648E-02 
506	 6.46762042982913E-02 
507	 6.50389958173967E-02 
508	 6.53869121691658E-02 
509	 6.56103723393791E-02 
510	 6.59211201462972E-02 
511	 6.63787078274737E-02 
512	 6.65506775349222E-02 
513	 6.68800556383218E-02 
514	 0.067355965888788 
515	 6.77830818174743E-02 
516	 6.82009253991999E-02 
517	 6.86820470684947E-02 
518	 6.91914158097609E-02 
519	 6.95628027312356E-02 
520	 7.01340056742704E-02 
521	 7.07565026205048E-02 
522	 7.12873741801115E-02 
523	 7.20056489753969E-02 
524	 7.27112524106811E-02 
525	 7.34237161158741E-02 
526	 7.43076400666793E-02 
527	 7.52182648983124E-02 
528	 7.62129311246986E-02 
529	 7.73163552011032E-02 
530	 7.84335746456255E-02 
531	 7.97223883285434E-02 
532	 8.10809363580777E-02 
533	 8.23678325429495E-02 
534	 8.38637959354705E-02 
535	 8.54266264479351E-02 
536	 8.70130012723231E-02 
537	 8.87157386070951E-02 
538	 9.05872422823282E-02 
539	 9.25106271518796E-02 
540	 9.43968233900141E-02 
541	 9.64062101751541E-02 
542	 9.84110471415057E-02 
543	 0.100345191144549 
544	 0.102218788260324 
545	 0.104314474988738 
546	 0.106340627228983 
547	 0.108161218996727 
548	 0.110086782320411 
549	 0.112018119074086 
550	 0.113841029225779 
551	 0.115480069759361 
552	 0.117119199584506 
553	 0.118725873275181 
554	 0.120308540547488 
555	 0.121924236144208 
556	 0.123498064861623 
557	 0.125076627704192 
558	 0.126728308429638 
559	 0.128561453383844 
560	 0.130400594245829 
561	 0.132222418373414 
562	 0.134108028154823 
563	 0.136002219776932 
564	 0.137805255767646 
565	 0.139485728237206 
566	 0.141163316573054 
567	 0.142707930943397 
568	 0.144168419125104 
569	 0.145610294272322 
570	 0.146842037986205 
571	 0.147909498078609 
572	 0.148859812209672 
573	 0.149717552982526 
574	 0.150530831461642 
575	 0.151338946011891 
576	 0.152141885405962 
577	 0.152860109582805 
578	 0.153481391574302 
579	 0.154043296218585 
580	 0.154602760032974 
581	 0.155054826982544 
582	 0.155453452251778 
583	 0.155799441997226 
584	 0.155954622100027 
585	 0.156031564938156 
586	 0.155945120886493 
587	 0.155616361126878 
588	 0.155462696751499 
589	 0.155469901791681 
590	 0.155550859526947 
591	 0.155591637222351 
592	 0.155707680277282 
593	 0.155841530941201 
594	 0.15589554384977 
595	 0.155743378507521 
596	 0.155732196978495 
597	 0.155739562643637 
598	 0.155438873472093 
599	 0.155288489648442 
600	 0.155101595596876 
601	 0.154803060387169 
602	 0.154628695199226 
603	 0.15459820939226 
604	 0.154588489271573 
605	 0.154486535533679 
606	 0.154541783489504 
607	 0.154452217715393 
608	 0.154232347967031 
609	 0.154232388580003 
610	 0.154086965504556 
611	 0.153896246119857 
612	 0.153763607312953 
613	 0.153511908510919 
614	 0.153174274366239 
615	 0.15291253678092 
616	 0.152898832339734 
617	 0.152661674397888 
618	 0.152387347698633 
619	 0.152216544110744 
620	 0.152107974546524 
621	 0.151934530765396 
622	 0.151773688824926 
623	 0.151721575204772 
624	 0.151617875985729 
625	 0.151361231625251 
626	 0.151065784360883 
627	 0.151036093683773 
628	 0.151035892532962 
629	 0.151057488331322 
630	 0.151088519113155 
631	 0.151001342457869 
632	 0.150788141145621 
633	 0.15048638863718 
634	 0.150148120234657 
635	 0.149741675237927 
636	 0.149213703487958 
637	 0.148519766907188 
638	 0.147614899203258 
639	 0.146651059400807 
640	 0.14565345843553 
641	 0.144608823055956 
642	 0.143504616416544 
643	 0.142189292646687 
644	 0.140620622842062 
645	 0.138869631679902 
646	 0.137122279079352 
647	 0.135352254702452 
648	 0.133688689468594 
649	 0.132592618820817 
650	 0.131365671120074 
651	 0.130320569468973 
652	 0.130037014986519 
653	 0.129703061824735 
654	 0.129495128467555 
655	 0.12948480957937 
656	 0.129481939014187 
657	 0.1294359690749 
658	 0.129231095225717 
659	 0.128767815263881 
660	 0.128032992788356 
661	 0.126945426755694 
662	 0.12556499392257 
663	 0.124069897083826 
664	 0.122538568832707 
665	 0.120986215192665 
666	 0.119395382502225 
667	 0.117749549037025 
668	 0.116240895550998 
669	 0.114921749727379 
670	 0.113806283336036 
671	 0.112955721404266 
672	 0.112262698306223 
673	 0.111781926664902 
674	 0.111711422885701 
675	 0.111724165074239 
676	 0.112064756246516 
677	 0.112924037922619 
678	 0.11408912838591 
679	 0.115580637917799 
680	 0.11749818173654 
681	 0.119967211618858 
682	 0.122971238562715 
683	 0.126417846438019 
684	 0.130234783927507 
685	 0.134817239768498 
686	 0.140386175989815 
687	 0.145906895510317 
688	 0.150255413455748 
689	 0.154909943017985 
690	 0.159412479280594 
691	 0.163620272288563 
692	 0.167551284515661 
693	 0.171325219894271 
694	 0.174836860481112 
695	 0.177797310244431 
696	 0.180041932966145 
697	 0.181910274688449 
698	 0.183496229182856 
699	 0.184675357227823 
700	 0.185725644376328 
701	 0.186591435569989 
702	 0.187201087597503 
703	 0.187507956412336 
704	 0.187308000194428 
705	 0.186906935578094 
706	 0.186458186914165 
707	 0.185595216699084 
708	 0.184503599825756 
709	 0.183224223428227 
710	 0.181747606663691 
711	 0.180013705943035 
712	 0.177962225348493 
713	 0.175656313167384 
714	 0.173224354572638 
715	 0.170636082132176 
716	 0.16766708773728 
717	 0.164482070492422 
718	 0.161529298667748 
719	 0.158568607025989 
720	 0.156277655956418 
721	 0.154550091911932 
722	 0.152161110690785 
723	 0.149056574996356 
724	 0.145937944277376 
725	 0.143321932128387 
726	 0.140523020174361 
727	 0.137496426199543 
728	 0.134307910137521 
729	 0.130740869738883 
730	 0.127384752823503 
731	 0.124573770440654 
732	 0.122104425614965 
733	 0.119691679920037 
734	 0.117568997418901 
735	 0.115877192001531 
736	 0.11454837646979 
737	 0.113529695952658 
738	 0.112674057830409 
739	 0.11194964194744 
740	 0.111650489195085 
741	 0.11152120240756 
742	 0.111406262712822 
743	 0.111217303838405 
744	 0.110916101653382 
745	 0.110813357794579 
746	 0.110873163642889 
747	 0.110560331010615 
748	 0.110577415212397 
749	 0.110630977856487 
750	 0.110424781005041 
751	 0.110541331518882 
752	 0.110450771427506 
753	 0.110199513541844 
754	 0.110115806802307 
755	 0.109952859777064 
756	 0.109933687393116 
757	 0.110047116118008 
758	 0.109831904483364 
759	 0.109630702431501 
760	 0.109220145473868 
761	 0.108607027640348 
762	 0.108599188738181 
763	 0.108493026277542 
764	 0.108655989165022 
765	 0.109418001580094 
766	 0.109989709356983 
767	 0.110228626140704 
768	 0.110295529377448 
769	 0.110574693840489 
770	 0.110803086648256 
771	 0.11101666244655 
772	 0.111271935527425 
773	 0.111537190701819 
774	 0.111717472197101 
775	 0.111911763827947 
776	 0.112264110197129 
777	 0.112598491315533 
778	 0.113003466790557 
779	 0.113411281783104 
780	 0.113613911911641 
781	 0.114065578911616 
782	 0.114573579079204 
783	 0.114950841446512 
784	 0.115296791580298 
785	 0.115750913274312 
786	 0.116179325696183 
787	 0.116428215286397 
788	 0.116853546114145 
789	 0.117383609406955 
790	 0.118014758699875 
791	 0.11879796842696 
792	 0.119542769048417 
793	 0.120064761563181 
794	 0.120395540270624 
795	 0.120863330068774 
796	 0.121312840388269 
797	 0.121758480503266 
798	 0.122236967121729 
799	 0.122614239890725 
800	 0.123078196423637 
801	 0.123590449531259 
802	 0.1239952303582 
803	 0.124328864862227 
804	 0.124598638300047 
805	 0.124769564910093 
806	 0.124766516116651 
807	 0.124771642367659 
808	 0.124630092417098 
809	 0.124227462469555 
810	 0.123738918446092 
811	 0.123165385160586 
812	 0.122474569627034 
813	 0.121640254866528 
814	 0.120766635115148 
815	 0.120013806471767 
816	 0.119533741214864 
817	 0.119283187697808 
818	 0.118356695635399 
819	 0.117374940439185 
820	 0.116538918326449 
821	 0.115465631881797 
822	 0.11374025478415 
823	 0.111886954809694 
824	 0.110354138549018 
825	 0.108622383783821 
826	 0.10633807367697 
827	 0.103749920159006 
828	 0.101505899345462 
829	 9.93723470851657E-02 
830	 9.76894504805918E-02 
831	 9.61624411424953E-02 
832	 9.42693551749008E-02 
833	 9.32510681162122E-02 
834	 0.092648258104604 
835	 9.19517347871797E-02 
836	 9.09095227318058E-02 
837	 9.06026692238906E-02 
838	 9.06039723608234E-02 
839	 9.03007417953424E-02 
840	 8.94282424879994E-02 
841	 8.89225255105854E-02 
842	 8.87510265953058E-02 
843	 8.84904481411522E-02 
844	 8.77845618553696E-02 
845	 8.75128004614982E-02 
846	 8.75335221057988E-02 
847	 8.70557075079936E-02 
848	 8.64455257253005E-02 
849	 8.59957501871777E-02 
850	 8.57724903639717E-02 
851	 0.085545669018894 
852	 8.51976091810132E-02 
853	 8.48739132441377E-02 
854	 8.46381742030255E-02 
855	 0.084248855009344 
856	 8.36753748861589E-02 
857	 8.33099204486667E-02 
858	 8.34030982087319E-02 
859	 8.33614871671904E-02 
860	 8.29874992689071E-02 
861	 8.23664517223325E-02 
862	 8.18280035593951E-02 
863	 8.21225372912783E-02 
864	 8.20965042815819E-02 
865	 8.14901138091095E-02 
866	 8.09907856909373E-02 
867	 8.05440351672454E-02 
868	 8.04663872249914E-02 
869	 8.04612216269164E-02 
870	 7.94845085680398E-02 
871	 7.88463979235559E-02 
872	 7.83872716026541E-02 
873	 0.077931866171728 
874	 7.80402303040496E-02 
875	 7.76652506380062E-02 
876	 7.70038124930235E-02 
877	 7.65353605429641E-02 
878	 7.61379050726661E-02 
879	 7.59716092387925E-02 
880	 7.57194097394671E-02 
881	 7.50052840634627E-02 
882	 7.44742930078248E-02 
883	 7.37120903947136E-02 
884	 7.29713585211615E-02 
885	 7.29153815176165E-02 
886	 7.29531603305382E-02 
887	 7.23133317224383E-02 
888	 7.12905206923812E-02 
889	 7.12860471420808E-02 
890	 7.13472288461662E-02 
891	 7.12584121036403E-02 
892	 7.08424898730072E-02 
893	 6.97773054003688E-02 
894	 6.82691967151705E-02 
895	 0.067734429249575 
896	 6.87534499039785E-02 
897	 6.78418270647683E-02 
898	 6.71110791498231E-02 
899	 6.67101789140816E-02 
900	 6.61327523384098E-02 
901	 0.065293997402322 
902	 6.54975141459526E-02 
903	 6.56673261027205E-02 
904	 6.44966050439732E-02 
905	 6.41610605169802E-02 
906	 6.31398217988004E-02 
907	 6.16732409992006E-02 
908	 0.061326824158593 
909	 6.14881060204367E-02 
910	 6.14286022798655E-02 
911	 0.06116739446252 
912	 6.11998325289872E-02 
913	 5.92113189542002E-02 
914	 5.78414607706233E-02 
915	 5.77832923621872E-02 
916	 5.69401763244575E-02 
917	 5.73145069444411E-02 
918	 5.80739051330379E-02 
919	 5.78008731942152E-02 
920	 5.50514310567489E-02 
921	 5.50897515052938E-02 
922	 5.54778120884334E-02 
923	 5.44286801350877E-02 
924	 5.48797725964532E-02 
925	 5.29545675965296E-02 
926	 5.10361091797322E-02 
927	 0.051708653956515 
928	 4.91451197440519E-02 
929	 4.65127363343641E-02 
930	 4.69706320446349E-02 
931	 5.16882618026961E-02 
932	 4.44665422799843E-02 
933	 4.34374143903344E-02 
934	 4.65826847539335E-02 
935	 4.20641576828653E-02 
936	 4.36630284106575E-02 
937	 4.32207684418902E-02 
938	 3.86234031489776E-02 
939	 3.24052318783978E-02 
940	 0.035917149896799 
941	 3.79443340310552E-02 
942	 3.77375319421572E-02 
943	 3.79142261021179E-02 
944	 2.67401282849501E-02 
945	 0.027355100592337 
946	 3.25184324880485E-02 
947	 2.32244138212074E-02 
948	 3.04522691506793E-02 
949	 3.66303031926123E-02 
950	 0.03739480941091 
951	 3.80757130634501E-02 
952	 3.82605855200878E-02 
953	 3.35443228023231E-02 
954	 3.08337289836715E-02 
955	 3.92231167963054E-02 
956	 3.39868589858428E-02 
957	 2.90501867008226E-02 
958	 2.88535628728815E-02 
959	 2.95066435686188E-02 
960	 3.27588342609135E-02 
961	 3.37868438552455E-02 
962	 3.20845902088039E-02 
963	 3.06788231752385E-02 
964	 3.19028153922204E-02 
965	 3.29004702089226E-02 
966	 3.36532568093924E-02 
967	 3.55305598887373E-02 
968	 3.24858220930504E-02 
969	 0.033316977727148 
970	 3.62774931713002E-02 
971	 3.21241874796898E-02 
972	 3.40701085895537E-02 
973	 3.63993532090093E-02 
974	 0.036279244369746 
975	 3.56093565635512E-02 
976	 3.22692304565999E-02 
977	 3.22551392306143E-02 
978	 3.48073311915071E-02 
979	 3.38820836063306E-02 
980	 0.03309846749772 
981	 3.53039137649524E-02 
982	 0.036930368609626 
983	 3.20760372187704E-02 
984	 3.35790729134567E-02 
985	 3.45701588176005E-02 
986	 3.31420173924388E-02 
987	 3.26803625560066E-02 
988	 3.42596515017092E-02 
989	 3.54716255658888E-02 
990	 3.53934208737187E-02 
991	 3.45690765647926E-02 
992	 3.29332772685005E-02 
993	 3.27988680882762E-02 
994	 3.34791116522941E-02 
995	 3.28032144063798E-02 
996	 3.36664768501062E-02 
997	 3.56099569619121E-02 
998	 3.70292210579461E-02 
999	 3.65526529956857E-02 
1000	 3.69286745033521E-02 
1001	 3.74109627332182E-02 
1002	 3.79157113040693E-02 
1003	 3.81357850906992E-02 
1004	 3.89494671710512E-02 
1005	 0.038818848464194 
1006	 3.75909853395034E-02 
1007	 3.67464662765763E-02 
1008	 0.036882779142163 
1009	 3.69659726337046E-02 
1010	 0.037761558999536 
1011	 3.88031253501769E-02 
1012	 3.85388951440153E-02 
1013	 3.79485624086166E-02 
1014	 3.80858362228573E-02 
1015	 3.84044765812228E-02 
1016	 3.87225862159109E-02 
1017	 3.97937291439036E-02 
1018	 4.01231182449627E-02 
1019	 4.00828088879739E-02 
1020	 0.039881684908888 
1021	 3.91725981442399E-02 
1022	 3.89112820444615E-02 
1023	 0.038510999484079 
1024	 3.78602257698342E-02 
1025	 3.83373356336829E-02 
1026	 0.038646478433059 
1027	 3.88971974892059E-02 
1028	 0.039348508583274 
1029	 0.039932593591086 
1030	 4.06118388591284E-02 
1031	 4.09219648199247E-02 
1032	 4.12939065369468E-02 
1033	 0.041511949960673 
1034	 4.10862002835124E-02 
1035	 4.10959643741227E-02 
1036	 4.16297720718814E-02 
1037	 4.18396218360294E-02 
1038	 4.16174686554709E-02 
1039	 4.19809682733975E-02 
1040	 4.25280056649438E-02 
1041	 4.28013130345383E-02 
1042	 0.043230063015557 
1043	 4.40223147863898E-02 
1044	 4.43745181662419E-02 
1045	 4.45162318571092E-02 
1046	 4.46429530308415E-02 
1047	 4.47709662345059E-02 
1048	 4.46562334420929E-02 
1049	 4.40501127336481E-02 
1050	 4.39500719769671E-02 
1051	 0.043940253872137 
1052	 4.39591185602275E-02 
1053	 4.43901560088415E-02 
1054	 4.46198855523866E-02 
1055	 4.46848612825771E-02 
1056	 4.47659794711068E-02 
1057	 4.48383859098544E-02 
1058	 4.49465475721457E-02 
1059	 4.49675418911276E-02 
1060	 0.044771474304329 
1061	 4.49842803409342E-02 
1062	 4.55839148778698E-02 
1063	 4.56398430419605E-02 
1064	 0.045577105336499 
1065	 0.045649048427658 
1066	 4.52042745516702E-02 
1067	 4.52736512740538E-02 
1068	 4.62526630593929E-02 
1069	 4.64281162243331E-02 
1070	 4.61080371847192E-02 
1071	 4.60680834016048E-02 
1072	 4.55059127197818E-02 
1073	 4.54362511457286E-02 
1074	 4.55789799281638E-02 
1075	 0.046462007476669 
1076	 4.63983274149154E-02 
1077	 4.59382901085974E-02 
1078	 4.58039221562008E-02 
1079	 4.55597725942424E-02 
1080	 4.50594615074277E-02 
1081	 4.43815046459637E-02 
1082	 4.42607252980825E-02 
1083	 4.39274937877306E-02 
1084	 4.38552444231944E-02 
1085	 4.49833290863695E-02 
1086	 4.51960370062158E-02 
1087	 0.044528345044333 
1088	 4.43410043028038E-02 
1089	 4.43004649409334E-02 
1090	 0.043847157096939 
1091	 4.36625768197912E-02 
1092	 4.40952059476092E-02 
1093	 4.36990835272099E-02 
1094	 4.23334811177917E-02 
1095	 4.21493063193313E-02 
1096	 4.26324057133867E-02 
1097	 4.19916772052403E-02 
1098	 4.12283982641425E-02 
1099	 4.09398058825364E-02 
1100	 3.98552284797483E-02 
1101	 3.91688358918467E-02 
1102	 3.94763869844751E-02 
1103	 3.94468758310674E-02 
1104	 3.89844060551265E-02 
1105	 3.85207898527264E-02 
1106	 3.82608972357966E-02 
1107	 3.92213164650569E-02 
1108	 3.95355552903327E-02 
1109	 3.83125921729858E-02 
1110	 3.79336036656048E-02 
1111	 3.73035312058434E-02 
1112	 3.77613838343832E-02 
1113	 3.96547566671193E-02 
1114	 4.03301466684224E-02 
1115	 4.14922222497914E-02 
1116	 4.13159375128308E-02 
1117	 3.83637734563421E-02 
1118	 0.037286703979133 
1119	 3.64509307295449E-02 
1120	 3.50721437030658E-02 
1121	 3.59460664498134E-02 
1122	 3.02660725077903E-02 
1123	 3.37555456274621E-02 
1124	 4.55346941211982E-02 
1125	 5.05435070284238E-02 
1126	 5.29214094264099E-02 
1127	 3.70863525945162E-02 
1128	 1.96168866103567E-02 
1129	 1.82070500446186E-02 
1130	 2.78938064053467E-02 
1131	 2.98494473238664E-02 
1132	 3.44279952297766E-02 
1133	 3.48042020365975E-02 
1134	 3.00248161092767E-02 
1135	 3.01706460637086E-02 
1136	 3.61313865636599E-02 
1137	 3.81689433413457E-02 
1138	 4.23636465096617E-02 
1139	 3.42358391409783E-02 
1140	 3.34816374887211E-02 
1141	 3.43854838539581E-02 
1142	 2.82029230838276E-02 
1143	 3.05208201390063E-02 
1144	 3.01273606813333E-02 
1145	 2.51162348028622E-02 
1146	 3.30968266428684E-02 
1147	 3.58573511197098E-02 
1148	 3.17694975226696E-02 
1149	 3.26981316289356E-02 
1150	 3.25237022452285E-02 
1151	 2.91905057213569E-02 
1152	 2.84956288157419E-02 
1153	 3.06081967789249E-02 
1154	 3.08541921926811E-02 
1155	 2.99573520846509E-02 
1156	 2.95802515384209E-02 
1157	 2.99726696308853E-02 
1158	 2.86974888655988E-02 
1159	 2.72285210086517E-02 
1160	 2.80614815914149E-02 
1161	 2.90613790989443E-02 
1162	 2.96211991461518E-02 
1163	 2.95729582377755E-02 
1164	 2.88143189780943E-02 
1165	 2.80899381913667E-02 
1166	 2.78487984089974E-02 
1167	 2.80265826898773E-02 
1168	 2.79603443081521E-02 
1169	 2.82558671321968E-02 
1170	 2.88551378960393E-02 
1171	 2.90744601077644E-02 
1172	 2.92897013837184E-02 
1173	 2.94103206372509E-02 
1174	 2.94209847135369E-02 
1175	 2.91667580634464E-02 
1176	 2.86832814992901E-02 
1177	 2.85950405261944E-02 
1178	 2.82701875194531E-02 
1179	 2.79301805338569E-02 
1180	 2.83651891207416E-02 
1181	 2.87507759368015E-02 
1182	 2.85343125453413E-02 
1183	 2.81078795122497E-02 
1184	 2.76461189132735E-02 
1185	 2.79471338015902E-02 
1186	 0.02859582558099 
1187	 0.028324355006111 
1188	 2.83167210564679E-02 
1189	 2.87476070847024E-02 
1190	 2.83977219333005E-02 
1191	 2.84249301148218E-02 
1192	 2.86180951967088E-02 
1193	 2.90742975052364E-02 
1194	 2.82001092208356E-02 
1195	 0.027874818748199 
1196	 0.028392382147895 
1197	 0.028019276208237 
1198	 2.78355226492433E-02 
1199	 2.83856951227085E-02 
1200	 2.83923553215249E-02 
1201	 0.028274996978651 
1202	 2.84745024791431E-02 
1203	 2.85537510093354E-02 
1204	 2.86523545389445E-02 
1205	 2.88039003968449E-02 
1206	 2.86255632516076E-02 
1207	 2.81790203690898E-02 
1208	 2.78007809207598E-02 
1209	 2.78190428086334E-02 
1210	 0.028247090703283 
1211	 2.82714332534847E-02 
1212	 0.028323076918452 
1213	 0.02836076334166 
1214	 2.83365156705002E-02 
1215	 2.80733990438234E-02 
1216	 0.028505280794001 
1217	 2.87079196233817E-02 
1218	 2.86203613141663E-02 
1219	 2.89717269898536E-02 
1220	 2.88349832089363E-02 
1221	 2.83657862866203E-02 
1222	 2.85014638275274E-02 
1223	 2.87257037763684E-02 
1224	 2.88146977982323E-02 
1225	 2.88839883768829E-02 
1226	 2.88745158037814E-02 
1227	 2.87613605179514E-02 
1228	 2.85755043897136E-02 
1229	 2.88342352025307E-02 
1230	 2.91361717661184E-02 
1231	 2.86278443516673E-02 
1232	 2.81815107431586E-02 
1233	 2.88622714073798E-02 
1234	 2.94369870832548E-02 
1235	 2.93887549809894E-02 
1236	 2.94852418862538E-02 
1237	 2.94830396321817E-02 
1238	 0.0288555294156 
1239	 2.78217233597757E-02 
1240	 2.79971888610965E-02 
1241	 2.88011541048879E-02 
1242	 2.89437958693681E-02 
1243	 2.88240161531371E-02 
1244	 2.90843424940932E-02 
1245	 0.029025959317645 
1246	 2.84909130616311E-02 
1247	 2.87941704829183E-02 
1248	 2.88072969756516E-02 
1249	 0.028226356778496 
1250	 2.88907139854038E-02 
1251	 2.94205525264632E-02 
1252	 2.92103623810102E-02 
1253	 0.02919958203567 
1254	 0.029036745736502 
1255	 2.85818275572484E-02 
1256	 2.84815980299927E-02 
1257	 2.94100235039043E-02 
1258	 2.96144735101368E-02 
1259	 2.91075245865188E-02 
1260	 2.90065556468554E-02 
1261	 2.89776810190769E-02 
1262	 2.88633048667535E-02 
1263	 2.86562244784289E-02 
1264	 0.028900632564995 
1265	 2.91586020647957E-02 
1266	 2.91999162951116E-02 
1267	 2.89327482424901E-02 
1268	 2.88874986471206E-02 
1269	 2.87631670156553E-02 
1270	 2.82462941787523E-02 
1271	 2.84570889226412E-02 
1272	 2.93805493831657E-02 
1273	 2.95065875673358E-02 
1274	 2.89541246018618E-02 
1275	 2.84692172019709E-02 
1276	 2.83784923151101E-02 
1277	 2.87593045736771E-02 
1278	 2.91357697214605E-02 
1279	 2.92088476693652E-02 
1280	 2.91547030109065E-02 
1281	 2.92541383177042E-02 
1282	 2.93767759223261E-02 
1283	 2.94105650109301E-02 
1284	 2.93200894058454E-02 
1285	 2.94715457226571E-02 
1286	 2.98522763919674E-02 
1287	 2.99958710597833E-02 
1288	 0.030671331796622 
1289	 3.05267158481165E-02 
1290	 2.94844213445057E-02 
1291	 2.83745780274654E-02 
1292	 2.86197040497012E-02 
1293	 2.88633071631221E-02 
1294	 2.86249460140687E-02 
1295	 2.90305650940867E-02 
1296	 2.89614811819996E-02 
1297	 0.028224457304727 
1298	 2.81409741761779E-02 
1299	 2.80085016580733E-02 
1300	 2.76572888504266E-02 
1301	 2.76450959441729E-02 
1302	 2.77918265017554E-02 
1303	 2.79329963898523E-02 
1304	 2.82217887384164E-02 
1305	 2.82081723374117E-02 
1306	 2.80845879353084E-02 
1307	 2.84081992278306E-02 
1308	 2.85311840794251E-02 
1309	 2.79230771665774E-02 
1310	 2.74015024993785E-02 
1311	 2.72327783514826E-02 
1312	 2.71568809725729E-02 
1313	 2.67865618897625E-02 
1314	 2.62988328691796E-02 
1315	 2.63166184440159E-02 
1316	 2.56674329737391E-02 
1317	 2.35911655003279E-02 
1318	 2.31958742535512E-02 
1319	 2.35654987262824E-02 
1320	 2.38882653315166E-02 
1321	 2.55725483510436E-02 
1322	 2.65167138975635E-02 
1323	 2.50467722429148E-02 
1324	 0.024761766608733 
1325	 2.48132139748408E-02 
1326	 2.33517821330379E-02 
1327	 2.50672270380622E-02 
1328	 2.71336703997573E-02 
1329	 2.46154964762054E-02 
1330	 2.26248087755035E-02 
1331	 0.021346521332572 
1332	 1.99132496875566E-02 
1333	 2.15068856110853E-02 
1334	 2.37720439439229E-02 
1335	 2.55674311252038E-02 
1336	 2.79555162396935E-02 
1337	 2.81729620947349E-02 
1338	 2.70161966259107E-02 
1339	 2.62961656048392E-02 
1340	 2.37882058102985E-02 
1341	 2.14004071938223E-02 
1342	 1.72971293101333E-02 
1343	 1.61304521704104E-02 
1344	 1.73351263009917E-02 
1345	 1.66404250456304E-02 
1346	 1.79749467172871E-02 
1347	 0.021738532803945 
1348	 0.027225613977282 
1349	 2.91045699568047E-02 
1350	 3.43110312491979E-02 
1351	 4.17599680649358E-02 
1352	 2.67472845899282E-02 
1353	 2.54371656077865E-02 
1354	 7.80751414173553E-02 
1355	 0.121554419945648 
1356	 3.32396873807475E-02 
1357	-5.73939480805636E-02 
1358	-6.99163677395499E-02 
1359	-9.06280007260191E-02 
1360	-0.155614593937569 
1361	-0.168958761320018 
1362	-0.183552821118286 
1363	-0.280360782727672 
1364	-0.257073257283594 
1365	-5.45350753905614E-02 
1366	-0.187837520818437 
1367	-0.672019260975291 
1368	-0.630382518771259 
1369	 0.225943884761351 
1370	 0.292977288495661 
1371	 0.016516554285494 
1372	 0.199409996620035 
1373	 0.614849983539859 
1374	 0.592005385269337 
1375	 9.23643867673263 
1376	 3.4440921334122 
1377	-0.116232443497738 
1378	-0.174122973424446 
1379	 0.128128743323619 
1380	 0.162645464737662 
1381	 4.46210040126309E-02 
1382	 8.61274216971279E-02 
1383	 0.382865298115191 
1384	 0.701156835794076 
1385	 3.09467719713213 
1386	-20.4731898241161 
1387	 3.96172802616018 
1388	 2.38823022128905 
1389	 1.63883670625737 
1390	 1.01434312578126 
1391	 7.18427345024567E-02 
1392	-0.339722842924386 
1393	-0.465808807248733 
1394	 0.473089553261105 
1395	 2.07395516388341 
1396	-96.4419213536637 
1397	-17.3403726563377 
1398	 1.87224271877343 
1399	 1.89933917134046 
1400	 131.353242705182 
1401	-6.12783115053702 
1402	-2.62020117751723 
1403	-11.1380352534251 
1404	 6.18210784331155 
1405	 2.5704712479079 
1406	 0.771830279445372 
1407	 0.877870864532847 
1408	 1.3711436419086 
1409	 0.388221823316364 
1410	-5.62279286884882E-02 
1411	 2.28948108040005E-02 
1412	-0.268781407636975 
1413	-0.517318884754241 
1414	 0.77965631152828 
1415	 1.39681739997111 
1416	-0.683368530005696 
1417	-0.649870651389939 
1418	 0.050261014956746 
1419	 0.101922880654501 
1420	-0.12462540420712 
1421	-2.78478625039505E-02 
1422	 0.104234844862648 
1423	 6.52553788289994E-02 
1424	 8.44295562316439E-02 
1425	 0.105368055993645 
1426	 1.36250243260078E-02 
1427	-2.52328689191605E-02 
1428	-3.51422304021472E-02 
1429	-3.91005228387214E-03 
1430	 0.096434294516057 
1431	 9.72400526007945E-02 
1432	 4.38547196076745E-02 
1433	 6.97099089572091E-02 
1434	 0.106967734905642 
1435	 7.54315593976283E-02 
1436	 6.80579710298661E-02 
1437	 0.101104701863527 
1438	 0.072002904298021 
1439	 2.46263350141973E-02 
1440	 7.45062619945334E-02 
1441	 0.145016376890699 
1442	 0.161842224986249 
1443	 0.114554847677257 
1444	 5.20434537095036E-02 
1445	 1.64822867943533E-02 
1446	 1.65015623574627E-02 
1447	 7.70357528983187E-03 
1448	 1.01805559514439E-02 
1449	 4.89107263793449E-02 
1450	 4.91386437422118E-02 
1451	 3.13690442864571E-02 
1452	 2.36195964202631E-02 
1453	 8.50849769210038E-03 
1454	-1.34882329530602E-03 
1455	-2.00587438481946E-02 
1456	-1.79818811883325E-02 
1457	-3.73991504507288E-03 
1458	 6.49304400073765E-04 
1459	 1.08815412101901E-02 
1460	 9.49150815536361E-03 
1461	-2.88063085897563E-03 
1462	-5.43923209966826E-03 
1463	-9.61363126231807E-03 
1464	-8.49460666599733E-03 
1465	 5.51727908928472E-04 
1466	 4.61998386695428E-03 
1467	 8.79681816567878E-03 
1468	 1.41499487875354E-02 
1469	 1.82677626901928E-02 
1470	 2.53405833470682E-02 
1471	 4.00371766230755E-02 
1472	 3.81721768346574E-02 
1473	 3.49771205224978E-02 
1474	 2.17975219450816E-02 
1475	-1.80110443088049E-02 
1476	-0.022874811605319 
1477	-9.01945647230982E-03 
1478	-1.00083353705653E-02 
1479	-6.99898290223041E-03 
1480	-1.27837205489364E-03 
1481	-1.5340047196742E-03 
1482	-2.89609482581029E-03 
1483	 5.63838542953467E-05 
1484	 4.31220335185144E-03 
1485	 6.88042129629249E-03 
1486	 5.48770356514546E-03 
1487	 4.5559306852242E-03 
1488	 6.18700694516833E-03 
1489	 4.98753584578047E-03 
1490	 4.50305510275639E-03 
1491	 8.76158680335355E-03 
1492	 8.5877365404095E-03 
1493	 3.23250911722418E-03 
1494	 2.96947182982333E-03 
1495	 4.38479883950912E-03 
1496	 5.50072811347918E-03 
1497	 9.90548083510422E-03 
1498	 0.010201005022892 
1499	 6.62028547378591E-03 
1500	 6.38796592951565E-03 
1501	 6.86966997404063E-03 
1502	 6.73494603407796E-03 
1503	 7.57412569186227E-03 
1504	 8.56158488373269E-03 
1505	 9.3405815998167E-03 
1506	 9.16875139142202E-03 
1507	 8.8545856484679E-03 
1508	 9.44116337562368E-03 
1509	 9.15632894936596E-03 
1510	 7.73772477013879E-03 
1511	 8.66752974272025E-03 
1512	 1.05246325897923E-02 
1513	 1.08090924979973E-02 
1514	 1.11857123861828E-02 
1515	 9.87080820028794E-03 
1516	 8.66694290743176E-03 
1517	 9.57669932358927E-03 
1518	 9.08120520235668E-03 
1519	 8.9737515801859E-03 
1520	 1.03328725040087E-02 
1521	 1.08672512475751E-02 
1522	 1.08632002380581E-02 
1523	 1.09903471918756E-02 
1524	 1.09681494251806E-02 
1525	 1.07562311153926E-02 
1526	 1.07498281660937E-02 
1527	 1.10694454988435E-02 
1528	 1.15326754735809E-02 
1529	 1.08313383225023E-02 
1530	 0.010430560531751 
1531	 1.17216405978976E-02 
1532	 1.21619977995633E-02 
1533	 0.01213359768708 
1534	 1.27096253480593E-02 
1535	 1.22886281552765E-02 
1536	 1.16627392149567E-02 
1537	 1.17590644926479E-02 
1538	 1.18860770244491E-02 
1539	 1.21668126305382E-02 
1540	 1.19895321493192E-02 
1541	 1.17586804515447E-02 
1542	 0.012105853797586 
1543	 1.24854783846014E-02 
1544	 1.24145389225996E-02 
1545	 1.17828289525901E-02 
1546	 1.17963544182254E-02 
1547	 0.0121919235393 
1548	 1.23185926255029E-02 
1549	 1.27473169458398E-02 
1550	 1.29931825412269E-02 
1551	 1.32236771494895E-02 
1552	 1.34649580937204E-02 
1553	 1.33768213467155E-02 
1554	 1.32484541742276E-02 
1555	 1.28172281108329E-02 
1556	 1.32921058337583E-02 
1557	 1.48241666606281E-02 
1558	 1.52279299073757E-02 
1559	 1.47678608248071E-02 
1560	 1.44513746077115E-02 
1561	 1.42465684809153E-02 
1562	 1.44365433097188E-02 
1563	 0.014003807540167 
1564	 1.35590774457727E-02 
1565	 1.40566739683782E-02 
1566	 0.014073020293193 
1567	 0.014685588874284 
1568	 1.58076928453799E-02 
1569	 1.52689597659987E-02 
1570	 1.47775553988451E-02 
1571	 1.51644145844014E-02 
1572	 1.50924862829115E-02 
1573	 1.57331353688457E-02 
1574	 1.59254986926221E-02 
1575	 1.45275758702667E-02 
1576	 1.39793285861314E-02 
1577	 1.37476456314636E-02 
1578	 1.34740026697663E-02 
1579	 1.43125270469604E-02 
1580	 1.53439335052961E-02 
1581	 1.55621206556582E-02 
1582	 1.53636463801106E-02 
1583	 1.60181311918478E-02 
1584	 1.64157111005982E-02 
1585	 1.60798036174903E-02 
1586	 1.64902649170197E-02 
1587	 1.71081242886864E-02 
1588	 0.016858734234033 
1589	 1.59118937936303E-02 
1590	 1.57233522763622E-02 
1591	 1.59714205972039E-02 
1592	 1.59324762584631E-02 
1593	 0.016340838038297 
1594	 1.63408642652861E-02 
1595	 1.55686916252042E-02 
1596	 1.54390698391074E-02 
1597	 1.59585693272739E-02 
1598	 1.60785478673117E-02 
1599	 1.56710720569093E-02 
1600	 1.55960219827751E-02 
1601	 1.62140640908969E-02 
1602	 1.63268440912632E-02 
1603	 1.67138933993319E-02 
1604	 1.78516154609374E-02 
1605	 0.017918870441733 
1606	 1.77729394760431E-02 
1607	 1.80376683531498E-02 
1608	 1.78236945479599E-02 
1609	 1.79017651264352E-02 
1610	 1.84926535493596E-02 
1611	 1.86273168434794E-02 
1612	 1.83590070338234E-02 
1613	 1.85821220335926E-02 
1614	 1.85647870917981E-02 
1615	 1.81807999099537E-02 
1616	 1.86760748128842E-02 
1617	 1.86902494406626E-02 
1618	 1.81960608455477E-02 
1619	 1.87729191380914E-02 
1620	 1.85413736306299E-02 
1621	 1.72645922476428E-02 
1622	 0.017191158710226 
1623	 0.017328448856377 
1624	 1.69787350000632E-02 
1625	 1.71253140994654E-02 
1626	 1.72593048598458E-02 
1627	 1.73174906650091E-02 
1628	 1.78198153641073E-02 
1629	 1.81108538025569E-02 
1630	 1.76556535690869E-02 
1631	 1.73768843745599E-02 
1632	 1.78181458997974E-02 
1633	 1.79981243045057E-02 
1634	 1.79023378292619E-02 
1635	 1.81451633998217E-02 
1636	 1.81395282210777E-02 
1637	 1.73672098951198E-02 
1638	 1.72198183263993E-02 
1639	 1.78754026724276E-02 
1640	 1.71627929230444E-02 
1641	 0.016380545244904 
1642	 0.017323603714937 
1643	 1.84616910273835E-02 
1644	 0.018638738247955 
1645	 1.88564618326829E-02 
1646	 1.90851160476569E-02 
1647	 1.80763610910724E-02 
1648	 1.76545685260234E-02 
1649	 1.84684430142041E-02 
1650	 0.018719977979326 
1651	 1.86511634503904E-02 
1652	 1.82987325380208E-02 
1653	 1.79376482018398E-02 
1654	 1.83678911678089E-02 
1655	 1.94046542507699E-02 
1656	 1.91458129747201E-02 
1657	 1.85712849660032E-02 
1658	 1.84126325666502E-02 
1659	 1.75873936839452E-02 
1660	 1.76514155482826E-02 
1661	 0.018555963224733 
1662	 1.87616337021064E-02 
1663	 1.88620602608214E-02 
1664	 1.90418570581427E-02 
1665	 1.91225911477972E-02 
1666	 1.93509527380396E-02 
1667	 1.98670282463199E-02 
1668	 1.95101674679492E-02 
1669	 1.92641054357079E-02 
1670	 1.95411589478308E-02 
1671	 1.88430690674126E-02 
1672	 1.85160484851113E-02 
1673	 1.89997517022841E-02 
1674	 1.89148759630043E-02 
1675	 1.94704247695443E-02 
1676	 1.94814911471627E-02 
1677	 1.87183104239657E-02 
1678	 1.94095414301507E-02 
1679	 1.96390583794045E-02 
1680	 1.87698559754949E-02 
1681	 1.86860351572526E-02 
1682	 1.84699935437073E-02 
1683	 1.73111399014088E-02 
1684	 0.017794992113549 
1685	 1.88779577295875E-02 
1686	 1.76150587122962E-02 
1687	 1.72389245247956E-02 
1688	 1.87649851249952E-02 
1689	 1.93230113709071E-02 
1690	 1.92269126298074E-02 
1691	 1.91875347409973E-02 
1692	 1.83399552704476E-02 
1693	 1.79969081428283E-02 
1694	 1.94126562008139E-02 
1695	 2.04311329154479E-02 
1696	 1.99351391183731E-02 
1697	 1.89682560113742E-02 
1698	 1.78590327498339E-02 
1699	 1.79798711576942E-02 
1700	 1.89563021869534E-02 
1701	 1.82307910696974E-02 
1702	 1.79232248246025E-02 
1703	 1.86194150171985E-02 
1704	 1.83528319899142E-02 
1705	 1.91454775482042E-02 
1706	 2.03557820230495E-02 
1707	 2.02450210512471E-02 
1708	 2.01811847870478E-02 
1709	 1.97097167804358E-02 
1710	 1.97129273060548E-02 
1711	 1.96537856033253E-02 
1712	 1.82010418159034E-02 
1713	 1.81866706835317E-02 
1714	 0.018103924460427 
1715	 1.88375009094724E-02 
1716	 1.84743450465943E-02 
1717	 1.75943180444496E-02 
1718	 1.81422657053353E-02 
1719	 1.77588245870908E-02 
1720	 1.70828084276209E-02 
1721	 1.80039105240153E-02 
1722	 1.90948596256554E-02 
1723	 1.79700684747743E-02 
1724	 1.72828629243307E-02 
1725	 1.87788122237553E-02 
1726	 0.018953738168811 
1727	 1.83106147121705E-02 
1728	 1.90027920143745E-02 
1729	 1.91087051712034E-02 
1730	 1.78010688597521E-02 
1731	 1.78437592799298E-02 
1732	 1.90691133210034E-02 
1733	 1.95400355839977E-02 
1734	 2.01367136615827E-02 
1735	 2.04291059108775E-02 
1736	 2.04992672091939E-02 
1737	 1.91366832430402E-02 
1738	 1.64381464398028E-02 
1739	 1.72560616771404E-02 
1740	 1.76613980514602E-02 
1741	 1.62706860246282E-02 
1742	 1.80154335496794E-02 
1743	 1.80130601950248E-02 
1744	 1.69140444122789E-02 
1745	 1.86162840817108E-02 
1746	 1.79098378290586E-02 
1747	 1.72894067788261E-02 
1748	 1.62841429348731E-02 
1749	 1.57027714006549E-02 
1750	 1.53220242605285E-02 
1751	 1.48694882809869E-02 
1752	 1.45080344662117E-02 
1753	 1.55040450153682E-02 
1754	 1.70420995907145E-02 
1755	 1.72450515625565E-02 
1756	 1.88048021155145E-02 
1757	 1.81236681195296E-02 
1758	 1.72892581457221E-02 
1759	 1.87702083206818E-02 
1760	 1.76407436965588E-02 
1761	 1.56503250358718E-02 
1762	 1.58713121129479E-02 
1763	 1.50400209881656E-02 
1764	 1.37756713560462E-02 
1765	 1.46893989425541E-02 
1766	 1.59202668348296E-02 
1767	 1.62458057672455E-02 
1768	 1.58124117861513E-02 
1769	 1.38084122806557E-02 
1770	 1.16243844626387E-02 
1771	 1.44662029087912E-02 
1772	 0.018033388684357 
1773	 1.80068817124712E-02 
1774	 1.87579736743442E-02 
1775	 1.84418554672469E-02 
1776	 1.76291294091651E-02 
1777	 2.00801918191695E-02 
1778	 2.07717919349173E-02 
1779	 1.51529071813873E-02 
1780	 1.54206919330601E-02 
1781	 2.36991850449971E-02 
1782	 2.18336967845067E-02 
1783	 1.59328940415957E-02 
1784	 1.36840256472377E-02 
1785	 2.31012207464776E-03 
1786	 1.42429218522354E-03 
1787	 1.42859364480542E-02 
1788	 1.51165026915065E-02 
1789	 1.52764574738926E-02 
1790	 5.17629665691195E-03 
1791	-6.40470027685833E-03 
1792	 5.2830005234916E-03 
1793	 8.83259980432895E-03 
1794	 1.08581932059874E-02 
1795	 1.27625629602765E-02 
1796	-3.76984837094303E-03 
1797	 1.79497358069288E-03 
1798	 1.78541876957504E-02 
1799	 2.84973871695189E-02 
1800	 3.09238863951252E-02 
1801	 2.99269047520008E-02 
1802	 3.48605481011866E-02 
1803	 5.10905607518391E-02 
1804	 8.09548902181676E-02 
1805	 7.05812994926473E-02 
1806	 2.55188583448395E-02 
1807	-1.12333056886888E-02 
1808	-0.221033570221192 
1809	-0.362006834131855 
1810	-0.244340860820518 
1811	-0.150240508517935 
1812	 0.206335558934063 
1813	 0.289178807797873 
1814	 0.29860948633775 
1815	 0.207905123393819 
1816	-0.531005374064799 
1817	 5.06472842578982E-02 
1818	 4.06102024657454 
1819	 2.96911636415782 
1820	-2.86134872771935 
1821	-0.560929158455137 
1822	-0.353734358211855 
1823	 7.23746679771671E-02 
1824	 0.189061862075852 
1825	 0.394751179170992 
1826	 0.163091215932471 
1827	 2.00095020128528 
1828	 1.36831980199838 
1829	 1.15988802780287 
1830	 0.725516085927911 
1831	 11.3379252436936 
1832	 4.07574229459376 
1833	 2.55924625980758 
1834	 1.9552798838627 
1835	 0.605966152732558 
1836	 0.231094143233132 
1837	-0.670022372663059 
1838	-1.97428863494638 
1839	 8.45028819660445 
1840	 1.08380928186334 
1841	 1.04540562128624 
1842	 1.30128178796713E-02 
1843	 4.29417676315125 
1844	-1.52128538659603 
1845	-1.25604636915753 
1846	-0.402218393684348 
1847	-0.104242714761505 
1848	 1.22192561681542 
1849	-5.34187889940673 
1850	-0.90781306204351 
1851	-0.63954456967784 
1852	-0.7204635468713 
1853	-0.805628726631726 
1854	-0.931527183560791 
1855	-1.47338573723435 
1856	-1.58628524066164 
1857	-1.26687032157404 
1858	-1.28735881884995 
1859	-2.07590026174735 
1860	-0.877897630246581 
1861	 2.42071215286188 
1862	 1.46002216779481 
1863	 0.34989795665658 
1864	 3.06083757105751E-02 
1865	-0.115543750413369 
1866	-0.800100148929147 
1867	-0.888541798795686 
1868	-0.288678160484146 
1869	 4.11879274847622E-02 
1870	 0.36121206964791 
1871	 0.681651189562726 
1872	 0.980318813866693 
1873	-0.219803979846659 
1874	-9.79178698775529 
1875	 5.49750848167593 
1876	 3.17178829894132 
1877	 3.05385588312029 
1878	-0.66621998682181 
1879	 1.07562748355361 
1880	 0.850228365360389 
1881	 0.648472347947204 
1882	 0.28960151281583 
1883	-0.289255345317375 
1884	-1.31762390977919 
1885	-1.4973612933976 
1886	-1.66224710112661 
1887	-0.562042138464961 
1888	-0.171718635644055 
1889	 0.686913375324214 
1890	 1.72276493662945 
1891	 2.38219857843001 
1892	 1.46116955105768 
1893	 0.51402355058273 
1894	 0.938971850425614 
1895	-7.01279338032283 
1896	-1.61695038922658 
1897	-1.81135251749049 
1898	-0.980519043632284 
1899	 0.450993265966133 
1900	 0.996560805826903 
1901	-6.21889652543137 
1902	-1.66075415410276 
1903	 0.462848825965504 
1904	 0.456851170895938 
1905	 1.02804686787456 
1906	-0.516852315454175 
1907	-3.65859590418594 
1908	 7.03361830724027 
1909	 5.66704737577361 
1910	 3.93656374606525 
1911	 7.42892925064221 
1912	-4.01861168599509 
1913	-2.33117252909779 
1914	-1.84863404899654 
1915	-1.52341569883768 
1916	-1.08640733102062 
1917	-0.865484431309889 
1918	 21.5647561029283 
1919	-1.77843712454362 
1920	 26.8302501987875 
1921	 1.92934640530091 
1922	 0.695496311049032 
1923	 0.157197438903046 
1924	-7.21137894607414E-03 
1925	-0.105261703644377 
1926	-0.250597281850495 
1927	-0.85614205488077 
1928	 10.8550338681467 
1929	 0.268311430209559 
1930	-0.216430427243804 
1931	-1.10046209129841 
1932	-12.9472132676096 
1933	 14.1907416712873 
1934	 3.36058126199501 
1935	 3.4034073992719 
1936	-5.56713964313446 
1937	-21.6820541053696 
1938	 4.1545726023193 
1939	 12.265367156248 
1940	-3.8623913239525 
1941	-0.433300797242148 
1942	-0.210603626581918 
1943	-0.237975793596889 
1944	 0.331541602658062 
1945	 1.30753171239261 
1946	 1.23807655157633 
1947	 0.748440785661509 
1948	 0.383235009109359 
1949	 5.10971865567695E-02 
1950	 0.215930556997809 
1951	-2.36280160646225E-02 
1952	-0.152184650238123 
1953	-0.436798806922579 
1954	-0.860921754618273 
1955	-0.68107251317451 
1956	 1.27584478745233E-02 
1957	 0.17028659096839 
1958	-2.97917336334039E-02 
1959	-8.92130010918802E-02 
1960	-0.14383371882613 
1961	-0.16535104484971 
1962	-0.163224161440133 
1963	-0.122322797933674 
1964	-3.74684383159571E-02 
1965	-2.39352615388362E-02 
1966	-0.034634058105158 
1967	-0.046319769930076 
1968	-1.93561752726017E-02 
1969	-2.63629946927242E-02 
1970	-4.56406460785398E-02 
1971	-1.59384229988977E-02 
1972	-2.03675374413598E-02 
1973	-4.02114272272914E-02 
1974	-1.00953833645336E-02 
1975	 2.72791480736338E-02 
1976	 5.19939242958094E-02 
1977	 5.83197972883638E-02 
1978	 4.14362112620659E-02 
1979	 2.37808577179058E-02 
1980	-1.57680504523137E-02 
1981	-2.81760990052541E-02 
1982	-2.35399406710618E-02 
1983	-1.68748508784884E-02 
1984	 2.53310073566719E-03 
1985	 9.60390007040707E-03 
1986	-3.96224447514906E-03 
1987	-2.17292713640642E-02 
1988	-2.61984850212603E-02 
1989	-3.36587359678237E-02 
1990	-3.29542503511747E-02 
1991	-1.35633818022412E-02 
1992	-8.71131523180467E-03 
1993	-1.29663779583072E-03 
1994	 6.18048905524512E-03 
1995	 1.75894894651385E-02 
1996	 2.48506589369254E-02 
1997	 2.14125010900492E-02 
1998	 2.98681253582105E-02 
1999	 6.41987007505448E-02 
2000	 6.00951382801618E-02 
2001	 5.68515869904894E-02 
2002	 5.40520708071143E-02 
2003	-4.55502571650299E-03 
2004	-4.06749463808261E-02 
2005	 3.09815440581658E-03 
2006	 3.76863433310833E-02 
2007	 6.22668041143632E-02 
2008	 9.25632663925968E-02 
2009	 8.47684103983979E-02 
2010	 2.07498188814778E-02 
2011	-5.75639458665465E-03 
2012	-3.87403698386699E-02 
2013	-4.90384385980007E-02 
2014	-2.39698804840595E-02 
2015	-1.25537616716254E-02 
2016	-1.20692160514562E-02 
2017	-2.14728731319599E-02 
2018	-2.57027218890801E-02 
2019	 2.91437354084669E-03 
2020	 3.25221188437374E-02 
2021	 4.70027574812598E-02 
2022	 3.34563343102913E-02 
2023	 0.01370088940433 
2024	 8.95634702096442E-03 
2025	 5.05086096996358E-03 
2026	 3.4783692403155E-03 
2027	 8.89836066937042E-03 
2028	 1.84948403304429E-02 
2029	 1.66212571260078E-02 
2030	 1.02340142538867E-02 
2031	 1.67926089377144E-02 
2032	 1.98030306466108E-02 
2033	 1.95133389730467E-02 
2034	 2.22862509593374E-02 
2035	 1.12037872788139E-02 
2036	-1.59356450092704E-04 
2037	-8.80505096766919E-03 
2038	-1.38500575419832E-02 
2039	-0.010661015442775 
2040	 7.11502527402496E-03 
2041	 0.010826934859642 
2042	 1.66800359191393E-02 
2043	 1.80007993774342E-02 
2044	 9.69629980795034E-03 
2045	 7.68195979086509E-03 
2046	 7.24732601594356E-03 
2047	 5.68290364895909E-03 
2048	 0.015094503588436 
2049	 1.69131207447854E-02 
2050	 1.46600243613318E-02 
2051	 1.13483639695025E-02 
2052	-1.2713716939229E-03 
2053	-1.44108254571835E-02 
2054	-1.66394453080309E-02 
2055	-7.07184127749353E-03 
2056	-2.9357269069971E-03 
2057	 5.07152178778473E-03 
2058	 1.00641544259173E-02 
2059	 1.03285924682927E-02 
2060	 1.02642756569714E-02 
2061	 6.53681370244565E-03 
2062	 1.49698900650709E-02 
2063	 2.19011802519626E-02 
2064	 2.27474891340511E-02 
2065	 1.86278252440667E-02 
2066	 1.84816987359106E-02 
2067	 1.57170316250501E-02 
2068	 1.25024433752936E-02 
2069	 1.50861237947736E-02 
2070	 1.81084338167285E-02 
2071	 2.05287751711282E-02 
2072	 2.73121463752245E-02 
2073	 2.93248291806043E-02 
2074	 3.27733665847748E-02 
2075	 3.00131325242957E-02 
2076	 1.87105122307811E-02 
2077	 1.53071604514126E-02 
2078	 1.60372432290789E-02 
2079	 1.30291575020578E-02 
2080	 1.07022774201038E-02 
2081	 7.22967657401001E-03 
2082	 3.35083179215538E-03 
2083	 1.49794000280913E-03 
2084	 4.80964894665774E-03 
2085	 7.32078111930164E-03 
2086	 9.9666850666496E-03 
2087	 1.15799865315828E-02 
2088	 8.48480466660527E-03 
2089	 9.11974034690746E-03 
2090	 8.78981479627233E-03 
2091	 1.03923000731482E-02 
2092	 0.011090935478246 
2093	 1.34933295549504E-02 
2094	 1.36935656146084E-02 
2095	 1.04397526178168E-02 
2096	 1.04295948986714E-02 
2097	 1.26264978025778E-02 
2098	 1.23299641055769E-02 
2099	 1.23771512451042E-02 
2100	 1.31345238888306E-02 
2101	 1.07992210331054E-02 
2102	 1.02235615225405E-02 
2103	 8.19813166070727E-03 
2104	 4.07598772492007E-03 
2105	 3.00133359068519E-03 
2106	 4.8201908434985E-03 
2107	 4.26770859769867E-03 
2108	 4.7967790501949E-03 
2109	 6.56924808101532E-03 
2110	 5.42300948692779E-03 
2111	 5.27659650311075E-03 
2112	 3.94123340455887E-03 
2113	 2.11957120117159E-03 
2114	-5.6945643851432E-03 
2115	-5.6544347470641E-03 
2116	 6.42487620781324E-04 
2117	 2.37427806375887E-03 
2118	 6.16359874760439E-03 
2119	 5.45908497227387E-03 
2120	-1.62020675687003E-03 
2121	-3.61808101730215E-03 
2122	-6.67072859914764E-04 
2123	 3.31164478026215E-04 
2124	 7.11297105644853E-04 
2125	 3.48105860898171E-03 
2126	 4.66599212721323E-03 
2127	 3.6894783243974E-03 
2128	 7.17543200223639E-03 
2129	 1.11017050125824E-02 
2130	 8.24705703996885E-03 
2131	 5.98407097493145E-03 
2132	 9.34796779687134E-03 
2133	 9.81037557501025E-03 
2134	 8.9164532637201E-03 
2135	 9.09933787479821E-03 
2136	 9.94171780678774E-03 
2137	 6.04332592103587E-03 
2138	 6.88756737803687E-03 
2139	 1.45674418592279E-02 
2140	 1.69985651641052E-02 
2141	 1.89229035676334E-02 
2142	 1.99363119083136E-02 
2143	 2.01282344552432E-02 
2144	 1.55798431146244E-02 
2145	 1.36307525902503E-02 
2146	 9.83525837693857E-03 
2147	 6.3875275701995E-03 
2148	 3.69657030479757E-03 
2149	 3.81330626111711E-03 
2150	 2.57107102151037E-03 
2151	 0.001916223863529 
2152	 7.91064612619006E-03 
2153	 6.70367046390704E-03 
2154	 2.90080538049208E-03 
2155	-3.80211030451701E-04 
2156	-6.32878279883974E-03 
2157	-6.53772689380432E-03 
2158	-8.66251508297057E-04 
2159	 1.99349735643537E-03 
2160	 6.87169363739262E-03 
2161	 1.01449023583162E-02 
2162	 1.13164589576367E-02 
2163	 1.11666661520064E-02 
2164	 9.88389517546256E-03 
2165	 9.82093321151271E-03 
2166	 0.010063139998981 
2167	 1.12758858562766E-02 
2168	 1.55889630229185E-02 
2169	 1.61716109556732E-02 
2170	 1.48547964078232E-02 
2171	 0.010497650615665 
2172	 7.24601823763898E-03 
2173	 6.22281560461059E-03 
2174	 7.05197246798882E-03 
2175	 6.56619201589494E-03 
2176	 7.70567515745709E-03 
2177	 9.04930271502001E-03 
2178	 1.09867492261616E-02 
2179	 0.014792399732622 
2180	 1.72417376457811E-02 
2181	 1.31161470227106E-02 
2182	 8.56733682461711E-03 
2183	 9.97617878793155E-03 
2184	 9.02986596877406E-03 
2185	 8.83061501960494E-03 
2186	 8.31279002803977E-03 
2187	 6.47283345801569E-03 
2188	 4.89325999317801E-03 
2189	 2.46953263128973E-03 
2190	 3.86902666233497E-03 
2191	 9.42558810906364E-03 
2192	 0.010347372700795 
2193	 0.011753573561421 
2194	 1.20177724897451E-02 
2195	 6.56668984157913E-03 
2196	 6.14009454096684E-03 
2197	 9.48343006706612E-03 
2198	 1.09300614602876E-02 
2199	 1.52632834071766E-02 
2200	 0.013595250667379 
2201	 1.32175266138693E-02 
2202	 0.013786405336811 
2203	 6.39387880944923E-03 
2204	 8.9071943331996E-03 
2205	 1.88650705050486E-02 
2206	 2.31754758440465E-02 
2207	 2.13405708962458E-02 
2208	 2.06263475582452E-02 
2209	 1.15863707249128E-02 
2210	-3.39348081852524E-03 
2211	-4.64028915058858E-03 
2212	-5.85363727366553E-03 
2213	-3.75311897042692E-03 
2214	 1.01406002411533E-04 
2215	 2.5569837838803E-03 
2216	 1.05045460950125E-02 
2217	 1.27431586699086E-02 
2218	 1.01694268305363E-02 
2219	 1.12833813842531E-02 
2220	 1.27956838869964E-02 
2221	 1.38792662000527E-02 
2222	 1.59777449306005E-02 
2223	 1.79725576472052E-02 
2224	 1.81185042180511E-02 
2225	 1.85872423802279E-02 
2226	 2.20492551001575E-02 
2227	 2.12430532596498E-02 
2228	 1.84644885915095E-02 
2229	 1.65740786417582E-02 
2230	 1.14956576114642E-02 
2231	 7.76752229003025E-03 
2232	 1.70912711551893E-03 
2233	 1.16277935657001E-03 
2234	 4.79286497101974E-03 
2235	 5.86814350741153E-03 
2236	 1.26321669471787E-02 
2237	 2.54540212208334E-02 
2238	 0.023406381449265 
2239	 1.88073976860808E-02 
2240	 1.39873624386839E-02 
2241	 3.83004906814531E-03 
2242	-4.25061650589578E-03 
2243	 1.63088124429693E-03 
2244	 1.44297257051892E-02 
2245	 2.15504226615296E-02 
2246	 0.028202494014582 
2247	 0.02970335821819 
2248	 2.72113632397172E-02 
2249	 2.38617878731213E-02 
2250	 2.34856114224063E-02 
2251	 2.05752047322529E-02 
2252	 1.23429719089222E-02 
2253	 1.37500465907205E-02 
2254	 1.60505734411481E-02 
2255	 2.48253718161214E-02 
2256	 3.60438672346348E-02 
2257	 3.83179882814721E-02 
2258	 4.54279955593064E-02 
2259	 4.96062159322232E-02 
2260	 4.78835436465789E-02 
2261	 4.34708939009978E-02 
2262	 3.74867241238534E-02 
2263	 2.28894809840504E-02 
2264	 1.32737180553488E-02 
2265	 5.8785934135454E-03 
2266	-3.4275431249175E-04 
2267	-1.02026669192469E-02 
2268	-1.30289365382677E-02 
2269	-8.53584867851348E-03 
2270	-9.94703952812959E-03 
2271	-8.70690297865122E-03 
2272	-3.98695349713365E-03 
2273	-1.81806567112991E-03 
2274	 3.25523732551009E-03 
2275	 1.32984028467934E-02 
2276	 1.58433803053818E-02 
2277	 1.69356342485287E-02 
2278	 2.03216882762403E-02 
2279	 2.37398017729346E-02 
2280	 2.27032994274679E-02 
2281	 2.12039928452994E-02 
2282	 1.15543173686706E-02 
2283	 8.33094518834042E-03 
2284	 1.34947783260752E-02 
2285	 2.41925083841527E-02 
2286	 3.07788592846551E-02 
2287	 0.027289197305337 
2288	 2.65153700771644E-02 
2289	 1.86028667552281E-02 
2290	 1.91848588563191E-02 
2291	 1.71917450394767E-02 
2292	-3.20955472078345E-03 
2293	-1.02642767648476E-02 
2294	-2.07259587175809E-02 
2295	-2.29533675641811E-02 
2296	-2.46398069540536E-03 
2297	-2.77608925399593E-03 
2298	-8.15995700918801E-03 
2299	-5.03219196539757E-03 
2300	-6.52715976427539E-03 
2301	 1.26509173840155E-02 
2302	 2.75333393417965E-02 
2303	 1.44619625982536E-02 
2304	 7.62038531735563E-03 
2305	 1.59142880335977E-02 
2306	 2.25153068029579E-02 
2307	 0.020477025681794 
2308	 0.020267754118068 
2309	-1.21303794254699E-03 
2310	-1.78729853476744E-02 
2311	-3.34237849872406E-03 
2312	 7.96666750734398E-03 
2313	 1.86690297538636E-02 
2314	 3.29069623261333E-02 
2315	 3.10024061213489E-02 
2316	 1.22982264597197E-02 
2317	 5.86734471738025E-03 
2318	 8.43272173204162E-03 
2319	 2.72773265793472E-02 
2320	 6.33837315097027E-02 
2321	 7.76597455851409E-02 
2322	 8.49073040920358E-02 
2323	 9.13519548166262E-02 
2324	 6.45527811535565E-02 
2325	 5.67993907651596E-02 
2326	 7.06784536450774E-02 
2327	 6.01474919492643E-02 
2328	 6.33153996259886E-02 
2329	 6.35654582642958E-02 
2330	 4.83040901051453E-02 
2331	 1.57022732832446E-02 
2332	-3.28566630636998E-02 
2333	-4.48952887527518E-02 
2334	-3.17372249216604E-02 
2335	-1.41521808474215E-02 
2336	 8.86865774403362E-03 
2337	 9.82191651642233E-03 
2338	-8.10433199660818E-03 
2339	 1.22369040702368E-02 
2340	 3.16578343166444E-02 
2341	 2.43630339704652E-02 
2342	 2.90609262072683E-02 
2343	-5.60020710323128E-03 
2344	-3.31858440966173E-02 
2345	-1.75685407494376E-02 
2346	 2.49834159951799E-02 
2347	 5.02415954068873E-03 
2348	-6.20756957502445E-02 
2349	-7.65231091216519E-02 
2350	-0.128957611772926 
2351	-0.133639206316223 
2352	-9.21441986549295E-02 
2353	-6.34453730948885E-02 
2354	-6.08960301371595E-02 
2355	-7.31453166785696E-02 
2356	-4.70878001612572E-02 
2357	-1.33941423649758E-02 
2358	 3.90247304968149E-02 
2359	 6.99185879788131E-02 
2360	 4.96185448807245E-02 
2361	 3.14167788172124E-02 
2362	-2.98460891320612E-02 
2363	-9.88898462356921E-02 
2364	-5.77384854339621E-02 
2365	 1.04343976812956E-02 
2366	 1.99835609752494E-02 
2367	-3.98232944739666E-02 
2368	-8.23768252184356E-02 
2369	-8.89751798532076E-02 
2370	-0.103934482352628 
2371	-6.78619604389397E-02 
2372	 7.89934832969374E-02 
2373	 0.214557527841094 
2374	 0.215802781562657 
2375	 0.193724116146707 
2376	 0.138094047068822 
2377	 1.80982547357404E-02 
2378	-4.51820687939054E-02 
2379	-1.36347487796348E-03 
2380	 0.128784737655556 
2381	 0.232302294387892 
2382	 0.42538646005329 
2383	 0.423146360113004 
2384	 0.266414856687868 
2385	 0.247998270370528 
2386	 0.218079890598685 
2387	 9.86997816312861E-02 
2388	-0.040164183676357 
2389	-0.174879979009239 
2390	-0.311969338294256 
2391	-0.147045347220041 
2392	 0.014744233448736 
2393	-0.068372768721933 
2394	-0.197019424213876 
2395	-0.313930294229438 
2396	-0.209176307100932 
2397	-0.181947138599819 
2398	-0.136835957408871 
2399	 0.213221325322361 
2400	 0.510799732838853 
2401	 0.546288450406726 
2402	 0.666589018646083 
2403	 0.402110031737415 
2404	 1.42178121718636E-02 
2405	 8.78421013977053E-02 
2406	 4.66727769377269E-02 
2407	-0.398889081435254 
2408	 9.68474955065815E-02 
2409	-0.969990087074165 
2410	-4.89329519027042 
2411	-0.385846794808694 
2412	-0.397475286176275 
2413	-0.485408741728426 
2414	 8.11569575909172E-02 
2415	 5.52727610288427E-02 
2416	 2.89314108935205E-02 
2417	 0.860959274950907 
2418	 1.07088490369516 
2419	 0.507062202284521 
2420	 3.44452955359987 
2421	-1.13208635434007 
2422	-0.546443321470209 
2423	 0.254826292821545 
2424	 1.67861339298497 
2425	 3.51350957440421 
2426	-1.27167923142778 
2427	 1.21762536693502 
2428	 7.64010853743064 
2429	-0.328261807948302 
2430	 2.67272476568066 
2431	 1.15518253956402 
2432	 0.6056135248625 
2433	 2.98237920148149 
2434	 0.274103532617515 
2435	-8.73533817545976E-02 
2436	 0.170115503492484 
2437	 0.373442607069759 
2438	 1.10150208739593 
2439	 1.74452273511076 
2440	-0.093511868326355 
2441	-0.272267109486323 
2442	-6.56365748971653E-02 
2443	-0.301667406018245 
2444	-0.112015947770828 
2445	 0.100775096091066 
2446	-5.34381632821748E-02 
2447	 5.08865182749076E-02 
2448	 0.149017530594069 
2449	 0.418358029348695 
2450	 0.829556893224194 
2451	 1.57598398123155 
2452	 1.47347630747071 
2453	 1.47246593750909 
2454	 5.05379047598485 
2455	 0.943474487894924 
2456	 0.079474913873213 
2457	-0.182963321891052 
2458	-0.301642097085617 
2459	-0.472169342454152 
2460	-0.145772231945109 
2461	 0.256908166705157 
2462	 0.33704054771915 
2463	 2.65134752799092 
2464	 4.13824073183444 
2465	 9.34134967470327 
2466	 1.72181079913089 
2467	 6.93429213354826E-02 
2468	-0.207483718961292 
2469	 0.536132909087537 
2470	 0.367071566004577 
2471	 0.108684154121636 
2472	-1.82207372746024E-02 
2473	-6.41797434508472E-02 
2474	 0.41010976879864 
2475	 1.40664974329719 
2476	 1.00848565792073 
2477	 0.670298199864429 
2478	 0.59014877513222 
2479	 0.400207357019355 
2480	-0.257586190927752 
2481	-0.844536571829237 
2482	-0.620431682216124 
2483	-0.405252088414881 
2484	-0.996514645452914 
2485	-0.580793148611192 
2486	 0.140994730419554 
2487	 0.466335269496341 
2488	 0.628199174103801 
2489	 0.463537452158294 
2490	 0.231074913777828 
2491	 0.204726689205133 
2492	 0.321684386543207 
2493	 0.647359222802115 
2494	 0.333266878772607 
2495	-0.38106823591663 
2496	-0.527757347851826 
2497	 0.17861214051468 
2498	 1.23302932804584 
2499	-5.23042641379668 
2500	-3.7698046953654 
