Wavelength	rt0704dirt00004.asd
350	 0.114352850546448 
351	 0.114133611968637 
352	 0.114739541274174 
353	 0.11485759459565 
354	 0.114106049362822 
355	 0.115016743676031 
356	 0.115061703203284 
357	 0.11485488391661 
358	 0.115546517019055 
359	 0.116148866139843 
360	 0.116621670914884 
361	 0.116963891631784 
362	 0.117217742861872 
363	 0.117741179523866 
364	 0.117794559069019 
365	 0.117540016171297 
366	 0.1187017291991 
367	 0.119083492716497 
368	 0.11895748186058 
369	 0.119089155756645 
370	 0.119448076176834 
371	 0.120057265209645 
372	 0.12060732368371 
373	 0.120725813120126 
374	 0.121276227766666 
375	 0.121644525883728 
376	 0.121850588661097 
377	 0.122951185690118 
378	 0.123246116972536 
379	 0.123351861549131 
380	 0.124006090068583 
381	 0.124508317176299 
382	 0.124846676347078 
383	 0.125324111217559 
384	 0.126226336447364 
385	 0.126578032889221 
386	 0.126750554700543 
387	 0.127198618450183 
388	 0.128267327544739 
389	 0.128626773949835 
390	 0.128779922372672 
391	 0.129212026880241 
392	 0.129390093399265 
393	 0.129720678154964 
394	 0.130106807378096 
395	 0.130341259732654 
396	 0.130698355967646 
397	 0.130995038418046 
398	 0.131257647418891 
399	 0.131687826056927 
400	 0.131818890071805 
401	 0.131986749300009 
402	 0.132402874909842 
403	 0.132747653431826 
404	 0.133034078679909 
405	 0.133112671208276 
406	 0.13292719726634 
407	 0.133192987826656 
408	 0.133592652023967 
409	 0.133889072156647 
410	 0.134014727286881 
411	 0.134338385419707 
412	 0.134519103511061 
413	 0.134429480596256 
414	 0.134767242680613 
415	 0.135078469825172 
416	 0.135276135194934 
417	 0.135431103626019 
418	 0.13558821220208 
419	 0.13589526758645 
420	 0.136360103689033 
421	 0.136833707072079 
422	 0.136958096170055 
423	 0.13715639278275 
424	 0.137740690967825 
425	 0.138269891295309 
426	 0.138659015457952 
427	 0.139014880078344 
428	 0.139532727746666 
429	 0.14021850763491 
430	 0.140840991522021 
431	 0.141385479262798 
432	 0.142114986933222 
433	 0.142604692856816 
434	 0.143074808119645 
435	 0.143741616316085 
436	 0.144401255561213 
437	 0.144863782168058 
438	 0.14525701165708 
439	 0.145841835162261 
440	 0.146361743713629 
441	 0.14680425292635 
442	 0.147222218415581 
443	 0.147725354773686 
444	 0.148150424814929 
445	 0.148573527045278 
446	 0.149054506056023 
447	 0.149311219077992 
448	 0.149681178208746 
449	 0.150101186159046 
450	 0.150242106852567 
451	 0.150472601364513 
452	 0.150678779617838 
453	 0.15079583705617 
454	 0.151008924514124 
455	 0.151143406319103 
456	 0.151218560792907 
457	 0.151302236167655 
458	 0.151309389793588 
459	 0.151366667648352 
460	 0.151457292744762 
461	 0.151418503918459 
462	 0.15136764929276 
463	 0.151346317458798 
464	 0.151370375261297 
465	 0.151441325090824 
466	 0.151426968280516 
467	 0.151426487473211 
468	 0.151592687143142 
469	 0.151525299153517 
470	 0.151532968627997 
471	 0.151695255768048 
472	 0.151701304388295 
473	 0.151747038200029 
474	 0.151905674272927 
475	 0.15213317329475 
476	 0.152052248499059 
477	 0.152284870788651 
478	 0.152694303258222 
479	 0.152694755650206 
480	 0.152996225729417 
481	 0.153307956530816 
482	 0.153445882470951 
483	 0.153712570364263 
484	 0.153926979242047 
485	 0.154191404467659 
486	 0.154634169750788 
487	 0.154966377955226 
488	 0.155346415701196 
489	 0.155792719327981 
490	 0.156176236159793 
491	 0.156620515788088 
492	 0.157131094597741 
493	 0.157663007679478 
494	 0.158090589898362 
495	 0.158670142444629 
496	 0.159299171838849 
497	 0.159737142930279 
498	 0.160282974058794 
499	 0.160758546957958 
500	 0.161167331421067 
501	 0.161871288463014 
502	 0.162344525759587 
503	 0.162761102606205 
504	 0.163393283414605 
505	 0.164018417515526 
506	 0.164658500435069 
507	 0.165362341437908 
508	 0.166177789693568 
509	 0.166867988956829 
510	 0.167560788651757 
511	 0.168337967597716 
512	 0.169028355356565 
513	 0.169795008516927 
514	 0.170554290809389 
515	 0.171169964309851 
516	 0.17198414752401 
517	 0.172807177240305 
518	 0.173556596833781 
519	 0.174345082228966 
520	 0.175159647818995 
521	 0.175995827964185 
522	 0.176839366788219 
523	 0.177611561668453 
524	 0.178456695121099 
525	 0.179395728355928 
526	 0.180356402661046 
527	 0.181261084227145 
528	 0.182224696793369 
529	 0.183296266815586 
530	 0.184347816209918 
531	 0.185447146711282 
532	 0.186580371900047 
533	 0.187706622104416 
534	 0.188828396388898 
535	 0.189978458359936 
536	 0.191167328409371 
537	 0.192372502015906 
538	 0.193564163547436 
539	 0.194699841161375 
540	 0.195798608241483 
541	 0.197080274171546 
542	 0.198362626292576 
543	 0.199572765537193 
544	 0.20072816359851 
545	 0.201928878359147 
546	 0.203185582571214 
547	 0.204458163515038 
548	 0.205642443784698 
549	 0.20683206997242 
550	 0.207950263407495 
551	 0.208923009080351 
552	 0.210020800908481 
553	 0.211093240464186 
554	 0.212072453425999 
555	 0.213005504184419 
556	 0.213905081303353 
557	 0.214813295381413 
558	 0.215755461384186 
559	 0.216732747009594 
560	 0.217624684568302 
561	 0.21852256417078 
562	 0.219607449015081 
563	 0.22043272425866 
564	 0.221187372848134 
565	 0.221986514937364 
566	 0.222637367946801 
567	 0.223174301217496 
568	 0.223748596486528 
569	 0.22448473860271 
570	 0.225084269651522 
571	 0.225596769401798 
572	 0.226080197353234 
573	 0.226573088667654 
574	 0.227037583503645 
575	 0.227536839578113 
576	 0.228101636344531 
577	 0.22860011140932 
578	 0.229111138051472 
579	 0.229631333527529 
580	 0.230108756430737 
581	 0.230544905694924 
582	 0.23092895924298 
583	 0.231237956175048 
584	 0.231429972425778 
585	 0.23144863002502 
586	 0.231221419071106 
587	 0.230753814629513 
588	 0.230505828314901 
589	 0.23058622670828 
590	 0.230947940588852 
591	 0.23141989779356 
592	 0.231810656898641 
593	 0.232253106497424 
594	 0.232843794780097 
595	 0.233379514131549 
596	 0.2339229397928 
597	 0.234478799043072 
598	 0.235014138167363 
599	 0.235494807166964 
600	 0.235857147287504 
601	 0.236107864671249 
602	 0.23638011808422 
603	 0.236498852356441 
604	 0.236473304437432 
605	 0.236380105080115 
606	 0.236307932638864 
607	 0.236195673485764 
608	 0.236058041422208 
609	 0.235987663071446 
610	 0.235772098456315 
611	 0.235494844419329 
612	 0.235279663244286 
613	 0.235186846745334 
614	 0.235019070056465 
615	 0.234822940737765 
616	 0.23476397285444 
617	 0.234675489738467 
618	 0.23461597327888 
619	 0.234597224701062 
620	 0.234519641892201 
621	 0.234425168531977 
622	 0.234299718295871 
623	 0.234148518471173 
624	 0.234167470710461 
625	 0.233963887378399 
626	 0.233584296058663 
627	 0.233503167193325 
628	 0.233424088268515 
629	 0.233550412711045 
630	 0.233907946598346 
631	 0.233832044058204 
632	 0.233789521312796 
633	 0.233879813410937 
634	 0.233995504765057 
635	 0.233846974811429 
636	 0.233837363039678 
637	 0.233972315076 
638	 0.233591579541519 
639	 0.233567210942012 
640	 0.233642774114877 
641	 0.233392364161562 
642	 0.233156033428915 
643	 0.232787441510885 
644	 0.232141212621905 
645	 0.231111459075226 
646	 0.2302103212899 
647	 0.229554490132853 
648	 0.22914010880415 
649	 0.228905506955249 
650	 0.228316384882791 
651	 0.227674467979715 
652	 0.227500071472842 
653	 0.227153602891816 
654	 0.226760030695212 
655	 0.226389661004136 
656	 0.226011933145951 
657	 0.225642746963961 
658	 0.225272687082928 
659	 0.224857872906893 
660	 0.224317501425018 
661	 0.223586934158291 
662	 0.222792690818478 
663	 0.222154067583513 
664	 0.221306234913404 
665	 0.220529182437722 
666	 0.21995391219114 
667	 0.219328488827149 
668	 0.218751156724133 
669	 0.21819174107237 
670	 0.217643734328579 
671	 0.217369401667982 
672	 0.217234734288968 
673	 0.217193925600899 
674	 0.217297733865345 
675	 0.217396938630164 
676	 0.217649285772883 
677	 0.218160012910505 
678	 0.218754643050006 
679	 0.219474321585378 
680	 0.220449219356084 
681	 0.221792877577696 
682	 0.223174645874973 
683	 0.224824979354814 
684	 0.226640840059603 
685	 0.228169994395505 
686	 0.230397593226862 
687	 0.233175779436626 
688	 0.235891702936169 
689	 0.238907344272719 
690	 0.241951530589653 
691	 0.244843040175721 
692	 0.247543132634296 
693	 0.251084660586471 
694	 0.25514122160308 
695	 0.259049015964164 
696	 0.262643544968897 
697	 0.265763701032748 
698	 0.268747132700104 
699	 0.271775537816332 
700	 0.275029522996453 
701	 0.278470509963967 
702	 0.28176901855372 
703	 0.28461725067287 
704	 0.287196021042524 
705	 0.289598509293582 
706	 0.291847902010185 
707	 0.294169114729355 
708	 0.296018901036715 
709	 0.297640868935164 
710	 0.299407941109187 
711	 0.300757601721408 
712	 0.301718300930757 
713	 0.302336855087568 
714	 0.302635847153699 
715	 0.302162293002562 
716	 0.301375346998721 
717	 0.301068583392341 
718	 0.301209077755975 
719	 0.302197113709175 
720	 0.303342051146836 
721	 0.304048847430642 
722	 0.303632190942876 
723	 0.303005980684307 
724	 0.302763548907718 
725	 0.302628091334765 
726	 0.30262578994205 
727	 0.302536913087658 
728	 0.302185637248652 
729	 0.30154908402709 
730	 0.301469602861445 
731	 0.301810668409405 
732	 0.301990701388975 
733	 0.301797416237632 
734	 0.301440595810094 
735	 0.301166982984849 
736	 0.301261716642165 
737	 0.301405219510309 
738	 0.301551390695042 
739	 0.301784945758435 
740	 0.30242460699374 
741	 0.302800232802319 
742	 0.302986728359045 
743	 0.303392465604391 
744	 0.303644610908166 
745	 0.303914808143196 
746	 0.304183518203465 
747	 0.30411642981109 
748	 0.304344228504384 
749	 0.304597029763287 
750	 0.304608077245551 
751	 0.30494233021277 
752	 0.305102334274306 
753	 0.30514211319721 
754	 0.30536022384056 
755	 0.305343413117367 
756	 0.305308724782827 
757	 0.305189219092403 
758	 0.304164298387262 
759	 0.302751566403478 
760	 0.301247559887757 
761	 0.300700483741122 
762	 0.300658244516983 
763	 0.301560385873223 
764	 0.303008830148461 
765	 0.304442069556467 
766	 0.305604705353186 
767	 0.306461845412236 
768	 0.307050444345948 
769	 0.307418377883811 
770	 0.307828781472942 
771	 0.308197723789013 
772	 0.308422459457598 
773	 0.308532824804887 
774	 0.308785333247977 
775	 0.309091232258534 
776	 0.309264290631469 
777	 0.309557565515377 
778	 0.309873528241465 
779	 0.310171469321255 
780	 0.310491773873571 
781	 0.310806212334239 
782	 0.311037658973347 
783	 0.311169346458518 
784	 0.311346934708553 
785	 0.31140380499942 
786	 0.311374602523792 
787	 0.311389336508957 
788	 0.311607002595092 
789	 0.311928588750461 
790	 0.312395446824213 
791	 0.313119928105398 
792	 0.313577815272914 
793	 0.313896962103973 
794	 0.314170322513811 
795	 0.314245748413456 
796	 0.314467629599519 
797	 0.314775109612658 
798	 0.315017335160905 
799	 0.315127048258321 
800	 0.315289670207504 
801	 0.315596498127443 
802	 0.316052769422057 
803	 0.316590778697942 
804	 0.316932111065906 
805	 0.317072640997319 
806	 0.31728896498634 
807	 0.317310960652651 
808	 0.316989288013336 
809	 0.316383907860585 
810	 0.316063308880919 
811	 0.315439166890163 
812	 0.314525001526163 
813	 0.313654248132121 
814	 0.313157800855562 
815	 0.312647101888135 
816	 0.312488868296283 
817	 0.313367978507351 
818	 0.313571182401168 
819	 0.313321760138722 
820	 0.312939734357114 
821	 0.312571721548513 
822	 0.311897416581452 
823	 0.311335493069703 
824	 0.311084456657939 
825	 0.310476806666273 
826	 0.309291260302902 
827	 0.307921441639287 
828	 0.307028304751134 
829	 0.306218455218196 
830	 0.305403752536072 
831	 0.304658448624451 
832	 0.304185344752303 
833	 0.303997063603018 
834	 0.304015814392568 
835	 0.30403253051986 
836	 0.303721037199262 
837	 0.303731402136109 
838	 0.303709627080708 
839	 0.303428440336979 
840	 0.303537126394524 
841	 0.303620950404173 
842	 0.303648972274915 
843	 0.303672040861313 
844	 0.303450287684237 
845	 0.303344531462137 
846	 0.303407746719016 
847	 0.303438266837678 
848	 0.303167615030344 
849	 0.302726790862987 
850	 0.302343472571116 
851	 0.302262094259665 
852	 0.302259263500063 
853	 0.302199320912094 
854	 0.30202943663947 
855	 0.301821707941178 
856	 0.301655143208472 
857	 0.301689219611617 
858	 0.301934904838464 
859	 0.30188943375395 
860	 0.301462890601857 
861	 0.301050157106818 
862	 0.301176963163373 
863	 0.30160411829395 
864	 0.301535899299863 
865	 0.300965503229031 
866	 0.300655383568958 
867	 0.300806360137198 
868	 0.300912708861483 
869	 0.300628677263603 
870	 0.299979631227167 
871	 0.299509802345317 
872	 0.299326446119713 
873	 0.299300423357924 
874	 0.299057122365581 
875	 0.298636074562964 
876	 0.298230941601345 
877	 0.298012074427387 
878	 0.297873594926375 
879	 0.297504780538459 
880	 0.297104609050178 
881	 0.296974262490424 
882	 0.296498096836201 
883	 0.295838683778723 
884	 0.295299346084026 
885	 0.295154336969461 
886	 0.294798327297179 
887	 0.29452084313767 
888	 0.294316720847128 
889	 0.293761128852691 
890	 0.293046789998199 
891	 0.292404402595776 
892	 0.291730147374691 
893	 0.290245555302805 
894	 0.288730214084294 
895	 0.287966586051556 
896	 0.28808439568234 
897	 0.287123146513421 
898	 0.286061211652609 
899	 0.2852279297673 
900	 0.284761404258719 
901	 0.285068900980216 
902	 0.285290698329107 
903	 0.285174782667198 
904	 0.284741432800286 
905	 0.283950020767402 
906	 0.283219321743196 
907	 0.282475183264627 
908	 0.28130197850183 
909	 0.279590632770539 
910	 0.278870155783218 
911	 0.279206989399632 
912	 0.279139222004855 
913	 0.277631122348969 
914	 0.276173542379001 
915	 0.275494642573194 
916	 0.275003734219821 
917	 0.275774015967089 
918	 0.276290042051289 
919	 0.275787606118032 
920	 0.274847718436761 
921	 0.273951883739572 
922	 0.272266233888559 
923	 0.269850177330592 
924	 0.269332959774389 
925	 0.267450897193768 
926	 0.265066038573586 
927	 0.263908561388587 
928	 0.263387781276993 
929	 0.259131559975147 
930	 0.254350475399416 
931	 0.255818253634299 
932	 0.248170931171458 
933	 0.242430439937549 
934	 0.239513850668292 
935	 0.235223081428063 
936	 0.238311919282589 
937	 0.239876578149377 
938	 0.237537288179869 
939	 0.233044556428619 
940	 0.234042220373687 
941	 0.231949478510779 
942	 0.22688289178863 
943	 0.223113411489001 
944	 0.218336428370006 
945	 0.221280770606567 
946	 0.223535246606759 
947	 0.213279088022351 
948	 0.218039359719993 
949	 0.216363689824059 
950	 0.211040086643528 
951	 0.216315186640845 
952	 0.210677407710958 
953	 0.203655124860572 
954	 0.203214437533797 
955	 0.210912467123217 
956	 0.210243328206816 
957	 0.206893141535449 
958	 0.205261613627056 
959	 0.206409140274938 
960	 0.205818756869183 
961	 0.205940189226049 
962	 0.207253694795254 
963	 0.208454769587907 
964	 0.209339797569092 
965	 0.209683694774803 
966	 0.21004110239088 
967	 0.211135847131542 
968	 0.211173140066934 
969	 0.211454589934749 
970	 0.212075181483825 
971	 0.211939478270396 
972	 0.210357652476005 
973	 0.209512365088818 
974	 0.210448147734186 
975	 0.212313736280085 
976	 0.211955407476733 
977	 0.211449974280983 
978	 0.21225848810901 
979	 0.213975312738448 
980	 0.211428336116697 
981	 0.212045612806133 
982	 0.215814730581748 
983	 0.216521600121064 
984	 0.21366059976896 
985	 0.213217185933975 
986	 0.216479955277866 
987	 0.219873130536554 
988	 0.216653793649228 
989	 0.218333714374548 
990	 0.222458695322132 
991	 0.217961514049633 
992	 0.216710704096803 
993	 0.217923720898783 
994	 0.219996051180185 
995	 0.221509287981192 
996	 0.221589479721901 
997	 0.222495745500099 
998	 0.223730806481079 
999	 0.22347987754374 
1000	 0.223660443444619 
1001	 0.221870214648536 
1002	 0.222764600652646 
1003	 0.223483111877597 
1004	 0.224182187058586 
1005	 0.224646408945021 
1006	 0.224901984547848 
1007	 0.225143201893003 
1008	 0.225581849065403 
1009	 0.225844761738543 
1010	 0.226475431144141 
1011	 0.227569943264847 
1012	 0.228565897409469 
1013	 0.230155960397142 
1014	 0.231067477644104 
1015	 0.231884044538449 
1016	 0.232353114835485 
1017	 0.23185207717942 
1018	 0.232300267120646 
1019	 0.233327810041294 
1020	 0.234108982734269 
1021	 0.235007169838909 
1022	 0.236089713118212 
1023	 0.237604120766977 
1024	 0.238175583192563 
1025	 0.239170886469136 
1026	 0.240405561947212 
1027	 0.240800716024036 
1028	 0.240308919117083 
1029	 0.240625510840545 
1030	 0.240761392520246 
1031	 0.241211513333484 
1032	 0.241736801870815 
1033	 0.242910147911316 
1034	 0.244974257579129 
1035	 0.246186716572776 
1036	 0.247962350856157 
1037	 0.248856825716995 
1038	 0.248370728955853 
1039	 0.248357733008064 
1040	 0.248991036779719 
1041	 0.24979006584603 
1042	 0.250432723315527 
1043	 0.25166555552384 
1044	 0.252076494431937 
1045	 0.251584465481155 
1046	 0.252043153057555 
1047	 0.252684450950087 
1048	 0.253474182221992 
1049	 0.254981885020526 
1050	 0.255889920683242 
1051	 0.256518857223627 
1052	 0.257197342792381 
1053	 0.257917623803442 
1054	 0.258325452437202 
1055	 0.258266538412722 
1056	 0.258630560029986 
1057	 0.259059308444651 
1058	 0.259545655767814 
1059	 0.259531079378677 
1060	 0.259521231156964 
1061	 0.259574346953398 
1062	 0.258830505700086 
1063	 0.259021289779494 
1064	 0.260132544016059 
1065	 0.260701150665707 
1066	 0.261546105675154 
1067	 0.261844379150544 
1068	 0.261773348648634 
1069	 0.261636775449413 
1070	 0.260784357666374 
1071	 0.260535753452143 
1072	 0.260749344869616 
1073	 0.2607112318075 
1074	 0.260526542113906 
1075	 0.260433791296075 
1076	 0.260329433489662 
1077	 0.260086222766183 
1078	 0.25963055535142 
1079	 0.25901521894709 
1080	 0.258847455820728 
1081	 0.258488181475197 
1082	 0.258319462746549 
1083	 0.259237271720598 
1084	 0.259089525316337 
1085	 0.258075857416769 
1086	 0.257344375323857 
1087	 0.256184186568408 
1088	 0.25523739492563 
1089	 0.254294657531326 
1090	 0.253739111905505 
1091	 0.25306132610178 
1092	 0.252354405302923 
1093	 0.251718083993766 
1094	 0.251290090464812 
1095	 0.250547851374784 
1096	 0.249749633443272 
1097	 0.248860767540181 
1098	 0.247612722703059 
1099	 0.246590509958917 
1100	 0.245679586283335 
1101	 0.244562172307582 
1102	 0.242839487343524 
1103	 0.241852186036307 
1104	 0.241351527212577 
1105	 0.241075561303798 
1106	 0.239542952781576 
1107	 0.239328095462392 
1108	 0.237086968371057 
1109	 0.233577259083984 
1110	 0.232796172077833 
1111	 0.234715576902157 
1112	 0.23394417180984 
1113	 0.234310764417291 
1114	 0.233121443568798 
1115	 0.225837411781677 
1116	 0.223195369208488 
1117	 0.226581580164445 
1118	 0.225854727173533 
1119	 0.224630351740891 
1120	 0.224163996778733 
1121	 0.221653513905163 
1122	 0.21545596580801 
1123	 0.211640225789965 
1124	 0.214812568164505 
1125	 0.222582760040224 
1126	 0.223450757958918 
1127	 0.219893211684458 
1128	 0.219051892181649 
1129	 0.211328781403137 
1130	 0.188379888519626 
1131	 0.185420802391925 
1132	 0.195141082943625 
1133	 0.193723826240264 
1134	 0.193533533752671 
1135	 0.190045789706895 
1136	 0.176063776292757 
1137	 0.173310362313236 
1138	 0.174914266906376 
1139	 0.177784617352099 
1140	 0.184279773354145 
1141	 0.186198234807722 
1142	 0.178407603106462 
1143	 0.17710829107114 
1144	 0.176997505641441 
1145	 0.173886532652274 
1146	 0.174604051609199 
1147	 0.174927951357404 
1148	 0.17083928848728 
1149	 0.165313496851016 
1150	 0.162561478888868 
1151	 0.160752983505323 
1152	 0.159704508606503 
1153	 0.15983821187626 
1154	 0.159450898955616 
1155	 0.158981928994053 
1156	 0.158446741321613 
1157	 0.159888972533987 
1158	 0.163347454420663 
1159	 0.164596843133353 
1160	 0.164232412095706 
1161	 0.164325732857539 
1162	 0.16482643482676 
1163	 0.165480339949351 
1164	 0.165631146037578 
1165	 0.165950386439534 
1166	 0.165885204190994 
1167	 0.165231086916854 
1168	 0.165952309443675 
1169	 0.16695396773388 
1170	 0.166753819099626 
1171	 0.16672028601235 
1172	 0.166965610105586 
1173	 0.167132703791484 
1174	 0.167004537943571 
1175	 0.167024957916385 
1176	 0.166947363070797 
1177	 0.166845507564486 
1178	 0.1668850570808 
1179	 0.166558641237321 
1180	 0.166083593859255 
1181	 0.165960093621284 
1182	 0.165392622884673 
1183	 0.164596289976676 
1184	 0.164849494148315 
1185	 0.165046790455297 
1186	 0.165140210052181 
1187	 0.1662206686327 
1188	 0.16666580452084 
1189	 0.166373553484219 
1190	 0.166672754770354 
1191	 0.166610667104283 
1192	 0.166624265903949 
1193	 0.166643608090199 
1194	 0.167258931631823 
1195	 0.167016438452522 
1196	 0.166925169786688 
1197	 0.166868668127168 
1198	 0.166073254751441 
1199	 0.165981000037495 
1200	 0.166029574513726 
1201	 0.165749128929673 
1202	 0.166088099051966 
1203	 0.166594304696779 
1204	 0.166729038851574 
1205	 0.166472443943698 
1206	 0.166294724119162 
1207	 0.166717389907192 
1208	 0.166676099770629 
1209	 0.166284718527705 
1210	 0.166638438888316 
1211	 0.167091630340065 
1212	 0.166947387247782 
1213	 0.167184212937072 
1214	 0.167701475561744 
1215	 0.168499776942976 
1216	 0.168223371337712 
1217	 0.168361437639008 
1218	 0.169563432066314 
1219	 0.170074090476581 
1220	 0.169767666261492 
1221	 0.170092141538656 
1222	 0.171032766383762 
1223	 0.170978776484528 
1224	 0.170824257379975 
1225	 0.171329497139773 
1226	 0.171290611407785 
1227	 0.171496485831701 
1228	 0.172342228088145 
1229	 0.172669147352536 
1230	 0.172510983302774 
1231	 0.17273449792235 
1232	 0.173482353257832 
1233	 0.173925660232495 
1234	 0.174054609274748 
1235	 0.174254574830698 
1236	 0.173676928274152 
1237	 0.173634798649318 
1238	 0.173934682142978 
1239	 0.174705456921233 
1240	 0.174890792823824 
1241	 0.175160925010173 
1242	 0.175432450649791 
1243	 0.175021467246733 
1244	 0.174711979454771 
1245	 0.174715928460835 
1246	 0.174866358729984 
1247	 0.175356419543899 
1248	 0.175797676815827 
1249	 0.175545432056515 
1250	 0.175064731861616 
1251	 0.175004016620809 
1252	 0.17495770390319 
1253	 0.175082591198019 
1254	 0.175016896671463 
1255	 0.174532274385143 
1256	 0.174540812569748 
1257	 0.174797641295625 
1258	 0.174727382783774 
1259	 0.174870552431226 
1260	 0.17501363274028 
1261	 0.174861661088739 
1262	 0.174676553869617 
1263	 0.174875784304753 
1264	 0.174350196868256 
1265	 0.173383490318122 
1266	 0.172992811296561 
1267	 0.173081286345785 
1268	 0.173544901957081 
1269	 0.173785821604107 
1270	 0.173613438543987 
1271	 0.173664207770462 
1272	 0.17354420941115 
1273	 0.173137423549218 
1274	 0.17312089911494 
1275	 0.173218617266667 
1276	 0.173514507460378 
1277	 0.174131187594588 
1278	 0.174107670337006 
1279	 0.173731349416243 
1280	 0.173645777328736 
1281	 0.173444525902285 
1282	 0.173403972534976 
1283	 0.173374909920311 
1284	 0.173295308301687 
1285	 0.172941670428315 
1286	 0.172748781176052 
1287	 0.172282917065234 
1288	 0.170924937376092 
1289	 0.170451402834542 
1290	 0.170340009066119 
1291	 0.17042949038956 
1292	 0.170224113670748 
1293	 0.169647135750445 
1294	 0.168910841636359 
1295	 0.168234129759254 
1296	 0.167573993627507 
1297	 0.167189744231177 
1298	 0.16649738383786 
1299	 0.165399704479123 
1300	 0.164484692123132 
1301	 0.163753599789471 
1302	 0.163356323616697 
1303	 0.16247867654096 
1304	 0.161375932887114 
1305	 0.160923100086005 
1306	 0.160017363662511 
1307	 0.158367078313924 
1308	 0.157497431572065 
1309	 0.157270025110211 
1310	 0.156222952407285 
1311	 0.155016992489385 
1312	 0.154017313610899 
1313	 0.152862760080152 
1314	 0.151281924815799 
1315	 0.149303049385704 
1316	 0.148034656444212 
1317	 0.146994183029112 
1318	 0.145620254843948 
1319	 0.144350527976418 
1320	 0.143593654899886 
1321	 0.142889056484387 
1322	 0.141552288594227 
1323	 0.140803115290431 
1324	 0.141384519957578 
1325	 0.13993776014476 
1326	 0.137617129699034 
1327	 0.136872296945344 
1328	 0.135706996020387 
1329	 0.135174973460111 
1330	 0.135049333125182 
1331	 0.133728637288444 
1332	 0.131855692239777 
1333	 0.128205935998271 
1334	 0.125732157476996 
1335	 0.124804911839979 
1336	 0.126046468175512 
1337	 0.123993441628666 
1338	 0.121067743109716 
1339	 0.121181497192016 
1340	 0.120899012892317 
1341	 0.118398609183885 
1342	 0.118529853248528 
1343	 0.11894919396624 
1344	 0.114577774522916 
1345	 0.109949200827968 
1346	 0.108177645591232 
1347	 0.109616646771946 
1348	 0.107877704424546 
1349	 0.104726091961358 
1350	 0.119637796353361 
1351	 0.129661584782762 
1352	 0.111793423339366 
1353	 0.106202540367755 
1354	 0.155742825292437 
1355	 0.177332220227086 
1356	 0.064094911987461 
1357	 2.65316037890322E-02 
1358	 9.02912602302663E-02 
1359	-0.247330906123786 
1360	-0.581381480347679 
1361	-0.793999089480393 
1362	-0.770579731645831 
1363	-0.179824031011321 
1364	 4.65389685610523E-02 
1365	-3.70649658479417E-03 
1366	-0.18259379565326 
1367	-0.689798905023267 
1368	-0.690724736404327 
1369	 0.560002796002556 
1370	 0.528883453835917 
1371	-0.197091547642667 
1372	-0.203001531617738 
1373	 0.074205690586918 
1374	-0.241025850202411 
1375	-13.1765409373313 
1376	-5.62614387320019 
1377	-0.925071550419793 
1378	-0.767142417751578 
1379	-6.97478404951546E-02 
1380	-1.61064758393924E-02 
1381	-0.494669843369494 
1382	-0.559878786603789 
1383	-7.21771333113718E-02 
1384	-0.152902464918156 
1385	-1.94499200891203 
1386	 2.58580402325451 
1387	-0.100680939496281 
1388	-0.349595524470585 
1389	 0.716321662530138 
1390	 1.27852723620713 
1391	 0.680075330804527 
1392	 0.297789352827808 
1393	 0.10122295902649 
1394	 0.167816445647922 
1395	 2.05933549388127 
1396	-82.4714014432962 
1397	-12.2029790680224 
1398	 2.22306573496736 
1399	 1.68673143670536 
1400	 8.04742965664223 
1401	 4.08660918351878 
1402	 6.16298159069938 
1403	 10.6539086441891 
1404	-5.46771413059476 
1405	-2.71804664264475 
1406	-0.505682982409769 
1407	-0.395027950881478 
1408	-1.31379565839514 
1409	-0.844386789461792 
1410	-0.323989242957249 
1411	-0.372075408811558 
1412	-0.401211102432369 
1413	-0.358904400675214 
1414	-1.36104248160595 
1415	-2.04590814931266 
1416	-0.641895747741686 
1417	-0.495156163920548 
1418	-0.438465464721471 
1419	-0.512928486141089 
1420	-0.771991167817682 
1421	-0.574308839294626 
1422	-0.291780176158829 
1423	-0.242150046116684 
1424	-0.12696808722388 
1425	-1.67383599140326E-02 
1426	 1.81256352724334E-02 
1427	-1.95994529649891E-02 
1428	-5.73764235364497E-02 
1429	-5.00035155894525E-02 
1430	-0.117707926731954 
1431	-0.146093734036317 
1432	-7.30832107802645E-02 
1433	-2.88330087551055E-02 
1434	 1.39092110204332E-02 
1435	 7.50131906844107E-03 
1436	-2.64786826051953E-02 
1437	-3.61066556303114E-02 
1438	-2.38980747247301E-02 
1439	-5.26350058718513E-02 
1440	-5.97541240653607E-02 
1441	-3.56293877541885E-02 
1442	-2.56745521528429E-02 
1443	-2.45864131623611E-02 
1444	 1.01871221833928E-02 
1445	 6.63123732821107E-02 
1446	 5.80078277887428E-02 
1447	 4.18830560831627E-02 
1448	 5.87108413499997E-02 
1449	 3.88013662246354E-02 
1450	 1.37995108282416E-02 
1451	 2.34051258934756E-02 
1452	 3.76849058219548E-02 
1453	 3.34136851940453E-02 
1454	 2.87343759549682E-02 
1455	 2.37736026231846E-02 
1456	 3.08732676779792E-02 
1457	 3.56259374967093E-02 
1458	 3.75927733871001E-02 
1459	 5.00856971026428E-02 
1460	 5.69797693943602E-02 
1461	 5.99770769163218E-02 
1462	 0.051301890556529 
1463	 3.37147828249785E-02 
1464	 3.07818266759053E-02 
1465	 1.99795489011268E-02 
1466	 1.27095012219451E-02 
1467	 2.52398677885405E-02 
1468	 0.034989309286539 
1469	 3.58349984050804E-02 
1470	 3.32382550189999E-02 
1471	 4.42815392913997E-02 
1472	 4.56810354579163E-02 
1473	 0.023371812704436 
1474	 2.04837291706176E-02 
1475	 3.28954171617712E-02 
1476	 0.034906882832815 
1477	 3.43723880863324E-02 
1478	 3.55766586975704E-02 
1479	 3.99749417182785E-02 
1480	 3.64200450854172E-02 
1481	 0.024137685735305 
1482	 2.39883556498649E-02 
1483	 2.68191806558892E-02 
1484	 2.72633606211541E-02 
1485	 3.29437075696565E-02 
1486	 3.45776560530955E-02 
1487	 3.03391717476005E-02 
1488	 3.15095419236176E-02 
1489	 3.52357999157887E-02 
1490	 3.72988843846727E-02 
1491	 4.02072551340012E-02 
1492	 4.17571057916976E-02 
1493	 4.23681116514269E-02 
1494	 4.29956692696263E-02 
1495	 4.38791875536495E-02 
1496	 4.40595572680112E-02 
1497	 4.23696276232992E-02 
1498	 4.30340240764478E-02 
1499	 4.57726957771886E-02 
1500	 4.62437749326019E-02 
1501	 4.59799312093302E-02 
1502	 4.70001062480459E-02 
1503	 4.80994152935052E-02 
1504	 0.048060063274312 
1505	 0.048036570655766 
1506	 4.82946549577959E-02 
1507	 5.05903466452981E-02 
1508	 5.19852145177971E-02 
1509	 5.23686745841056E-02 
1510	 5.51747398872326E-02 
1511	 5.53364916490813E-02 
1512	 5.34294823562647E-02 
1513	 5.40943882518888E-02 
1514	 5.52197816915357E-02 
1515	 5.59307971321619E-02 
1516	 5.63932995505679E-02 
1517	 5.70817719016746E-02 
1518	 0.057530422164355 
1519	 5.74199218459434E-02 
1520	 5.87209260131464E-02 
1521	 5.95669450429164E-02 
1522	 5.95964480311119E-02 
1523	 6.03471092892401E-02 
1524	 6.06240913917674E-02 
1525	 0.060650836346924 
1526	 6.14619160285425E-02 
1527	 6.23801506048831E-02 
1528	 6.25781454156895E-02 
1529	 6.30430728020939E-02 
1530	 6.37154254615287E-02 
1531	 6.40776330619042E-02 
1532	 6.48251451682442E-02 
1533	 6.57437259933362E-02 
1534	 6.66466985491643E-02 
1535	 6.68004902167049E-02 
1536	 6.63490716497629E-02 
1537	 0.066660933550107 
1538	 6.72466332779953E-02 
1539	 6.75902928643026E-02 
1540	 6.82426554841064E-02 
1541	 6.94072721037752E-02 
1542	 6.99895614818719E-02 
1543	 7.00024605636703E-02 
1544	 7.08381677678599E-02 
1545	 7.13299127717818E-02 
1546	 7.10516364615885E-02 
1547	 7.13122772502955E-02 
1548	 7.18336690462941E-02 
1549	 7.22476489486884E-02 
1550	 7.26122892876381E-02 
1551	 7.34319229096863E-02 
1552	 0.074532400408471 
1553	 7.49421152225065E-02 
1554	 7.50907938210536E-02 
1555	 7.54370827508093E-02 
1556	 7.55318542343477E-02 
1557	 7.60930003108518E-02 
1558	 0.077205937903247 
1559	 7.68854357132202E-02 
1560	 0.07607756796997 
1561	 7.67215410422927E-02 
1562	 7.68370897756972E-02 
1563	 7.66123692620994E-02 
1564	 7.79734000504493E-02 
1565	 7.90435868648089E-02 
1566	 0.07870109686232 
1567	 7.82976866513682E-02 
1568	 7.86759621100133E-02 
1569	 7.91735392947592E-02 
1570	 7.92051011196663E-02 
1571	 7.98585629321535E-02 
1572	 8.09182200545818E-02 
1573	 8.14212321640417E-02 
1574	 8.14443562827333E-02 
1575	 8.10810084471863E-02 
1576	 8.17011059507276E-02 
1577	 8.24957947792025E-02 
1578	 0.082433124284043 
1579	 8.33478026872393E-02 
1580	 8.40260728792683E-02 
1581	 8.39697904536357E-02 
1582	 8.47647011064012E-02 
1583	 8.57728397716771E-02 
1584	 8.62241874521604E-02 
1585	 0.085454068366606 
1586	 8.51188115541319E-02 
1587	 8.65254720073122E-02 
1588	 8.70384374825019E-02 
1589	 8.66814602077423E-02 
1590	 8.70874620153545E-02 
1591	 8.68346658072118E-02 
1592	 0.086457901153216 
1593	 8.75244831260261E-02 
1594	 0.0878295362349 
1595	 8.70684005352122E-02 
1596	 8.71535310833416E-02 
1597	 8.78542287186019E-02 
1598	 8.84692582541182E-02 
1599	 8.82042434867266E-02 
1600	 8.77839859615877E-02 
1601	 8.83654020676594E-02 
1602	 8.92623258620941E-02 
1603	 8.99525166084475E-02 
1604	 9.02583520083276E-02 
1605	 9.05623801265972E-02 
1606	 9.05090672140411E-02 
1607	 8.99236177843036E-02 
1608	 9.02465393116286E-02 
1609	 9.10884313470445E-02 
1610	 9.10502547656422E-02 
1611	 9.12722112118919E-02 
1612	 9.22156795835671E-02 
1613	 9.22453030758647E-02 
1614	 0.092091245707691 
1615	 9.28285983013113E-02 
1616	 9.34136080337254E-02 
1617	 0.093264847706145 
1618	 9.32792732571422E-02 
1619	 9.41897096586066E-02 
1620	 9.54800462927967E-02 
1621	 9.58927735043767E-02 
1622	 9.50862040408655E-02 
1623	 9.43449132927295E-02 
1624	 9.43026037113166E-02 
1625	 9.48336537876062E-02 
1626	 9.56720589886003E-02 
1627	 9.56631099175835E-02 
1628	 9.48847540928698E-02 
1629	 9.50843829805716E-02 
1630	 9.57626865748221E-02 
1631	 9.59320217532193E-02 
1632	 9.60267838251866E-02 
1633	 9.53557038327712E-02 
1634	 9.51094188406134E-02 
1635	 9.66773846812302E-02 
1636	 9.76494811849898E-02 
1637	 0.097435176123813 
1638	 9.73601256151947E-02 
1639	 9.67425648285942E-02 
1640	 9.66466268262232E-02 
1641	 9.77858549711577E-02 
1642	 9.82527471749682E-02 
1643	 9.82629350859676E-02 
1644	 9.83536256601609E-02 
1645	 0.098385898083892 
1646	 9.80653483218143E-02 
1647	 9.71778213742151E-02 
1648	 0.096879770722214 
1649	 9.67765448753298E-02 
1650	 9.67806783881854E-02 
1651	 9.77501942513024E-02 
1652	 9.83058879622195E-02 
1653	 9.77690151987818E-02 
1654	 9.79524165332074E-02 
1655	 9.84522436022289E-02 
1656	 9.84891049794831E-02 
1657	 0.098639600753309 
1658	 9.87921051189394E-02 
1659	 0.098394404209355 
1660	 9.83255960006892E-02 
1661	 9.86219801358557E-02 
1662	 0.09852276002742 
1663	 9.85963950538986E-02 
1664	 9.86557999946264E-02 
1665	 9.82336175698161E-02 
1666	 9.81605144717697E-02 
1667	 9.83162110291333E-02 
1668	 9.79932289188497E-02 
1669	 9.80266093308006E-02 
1670	 9.87708984960288E-02 
1671	 9.94207353028681E-02 
1672	 9.93120680563199E-02 
1673	 9.90539315942486E-02 
1674	 9.86236282786229E-02 
1675	 9.78951261337649E-02 
1676	 9.89993631350027E-02 
1677	 0.100272382624657 
1678	 9.97383227104123E-02 
1679	 9.94682856274636E-02 
1680	 9.92633657160122E-02 
1681	 9.91983534636679E-02 
1682	 0.100024686057157 
1683	 0.100238800746761 
1684	 9.99247791264944E-02 
1685	 9.99288649188508E-02 
1686	 0.099173755851404 
1687	 9.85575295154095E-02 
1688	 9.89232328616877E-02 
1689	 0.099141551422333 
1690	 9.90738287022609E-02 
1691	 9.88141211650534E-02 
1692	 0.099005799445672 
1693	 9.91157332390761E-02 
1694	 0.098693416490826 
1695	 9.95534034383642E-02 
1696	 9.99089523951177E-02 
1697	 9.76050072276746E-02 
1698	 9.69013584220706E-02 
1699	 9.76676136734328E-02 
1700	 9.65677961286593E-02 
1701	 9.68795776657185E-02 
1702	 9.79816931382263E-02 
1703	 9.74121220568966E-02 
1704	 9.79809380901995E-02 
1705	 9.86218038745168E-02 
1706	 9.76602696739037E-02 
1707	 9.74401509730646E-02 
1708	 9.72987611855358E-02 
1709	 9.60659847008397E-02 
1710	 9.58279819590643E-02 
1711	 9.65528315328655E-02 
1712	 9.60755084651003E-02 
1713	 0.096771375690905 
1714	 9.70979629403502E-02 
1715	 9.66367520100255E-02 
1716	 9.70098767112133E-02 
1717	 9.60972355547302E-02 
1718	 9.52017014749424E-02 
1719	 9.48819803721195E-02 
1720	 9.49264681589499E-02 
1721	 9.60067540575077E-02 
1722	 9.58871217827616E-02 
1723	 9.47239695417676E-02 
1724	 9.37016109659086E-02 
1725	 9.15555411511585E-02 
1726	 9.11148050735486E-02 
1727	 9.31723976422293E-02 
1728	 9.39280311492347E-02 
1729	 9.42381891878084E-02 
1730	 9.39675007715092E-02 
1731	 9.09137937389759E-02 
1732	 8.92010931126086E-02 
1733	 9.01885486613085E-02 
1734	 9.06413621501305E-02 
1735	 9.11236228655599E-02 
1736	 9.12404968639674E-02 
1737	 8.97793808545278E-02 
1738	 8.77075303745173E-02 
1739	 8.68898701105941E-02 
1740	 8.78820597494576E-02 
1741	 8.82923208159206E-02 
1742	 8.67607877459753E-02 
1743	 8.54190111589439E-02 
1744	 0.08452912614273 
1745	 8.36933420171588E-02 
1746	 0.087914692650461 
1747	 8.85879356761821E-02 
1748	 8.60491267874738E-02 
1749	 0.085593226572351 
1750	 8.48693598813847E-02 
1751	 8.45151500749057E-02 
1752	 8.61903434262202E-02 
1753	 8.52261466076892E-02 
1754	 8.17164036249255E-02 
1755	 8.07172966430374E-02 
1756	 8.01799871515373E-02 
1757	 8.05482005990024E-02 
1758	 8.05756068028599E-02 
1759	 7.79247608598247E-02 
1760	 7.74298715422641E-02 
1761	 0.078771775115804 
1762	 7.81149089911493E-02 
1763	 7.95984953448311E-02 
1764	 8.00178803627783E-02 
1765	 7.77382884885509E-02 
1766	 7.90278877563092E-02 
1767	 8.05142282617118E-02 
1768	 7.95787849087375E-02 
1769	 7.89380604680654E-02 
1770	 7.71780530563481E-02 
1771	 0.074931362505362 
1772	 7.48384797232554E-02 
1773	 7.39997569461689E-02 
1774	 7.30762363532668E-02 
1775	 6.88505772018365E-02 
1776	 0.066315974179862 
1777	 6.58342502167733E-02 
1778	 6.52539726976184E-02 
1779	 6.77174012241395E-02 
1780	 6.88599573492848E-02 
1781	 6.86730084459506E-02 
1782	 6.60829564091669E-02 
1783	 5.78452380569641E-02 
1784	 0.05650699252779 
1785	 5.99833871152833E-02 
1786	 6.05585166396509E-02 
1787	 6.73365762040525E-02 
1788	 6.97068318566388E-02 
1789	 6.37233898399528E-02 
1790	 0.062927089616796 
1791	 5.29482688588708E-02 
1792	 0.041093409696477 
1793	 4.12262387708663E-02 
1794	 4.66025958665148E-02 
1795	 6.36073193357453E-02 
1796	 7.36486652224056E-02 
1797	 7.41983991935115E-02 
1798	 8.00270719966606E-02 
1799	 6.24061950579358E-02 
1800	 2.47963141384466E-02 
1801	 1.77651882836149E-02 
1802	 5.16089362602307E-02 
1803	 6.32094756011142E-02 
1804	 0.117115030878551 
1805	 0.139469451825869 
1806	 7.37396223979159E-02 
1807	 2.17326264628243E-02 
1808	-5.73588173657851E-02 
1809	-0.210349865969242 
1810	-0.512819042383369 
1811	-0.694694134862105 
1812	-0.502335042545161 
1813	-0.506815474280239 
1814	-0.382450981271999 
1815	-0.238222692076037 
1816	-5.01840969215971E-02 
1817	 2.42358739959359 
1818	-10.2859548497383 
1819	-2.7883354725107 
1820	-2.29245605064347 
1821	-0.810026124464191 
1822	-0.66995706480725 
1823	 4.16527112509754E-02 
1824	 0.314214679741613 
1825	 1.40908516821313 
1826	 3.18778228277389 
1827	 0.947047308343648 
1828	 1.14194387240639 
1829	 4.47401148157583 
1830	 7.60138570279141 
1831	-0.165554488090304 
1832	 0.317164098269802 
1833	 0.314296788810103 
1834	 8.42053481674387E-02 
1835	-0.323008697866476 
1836	-0.410654271267411 
1837	-0.934149297730234 
1838	-2.02019222598559 
1839	 11.0722391009157 
1840	-2.7572874326049 
1841	-0.590463403172093 
1842	 4.11534858286796 
1843	 16.0255745737738 
1844	-0.261896148692544 
1845	-6.76654837234342E-02 
1846	-7.4377261365448E-03 
1847	 0.076110960977493 
1848	 0.288982387653358 
1849	 0.242302555254889 
1850	-0.102051240079328 
1851	-5.15922031113101E-02 
1852	-8.87764984592397E-02 
1853	 0.100970902386329 
1854	 0.316947535360261 
1855	 0.7248060654426 
1856	 0.905703485878891 
1857	 0.952682994783502 
1858	 1.41884503111626 
1859	 4.09165691285424 
1860	-19.4071204857334 
1861	-7.38435943913487 
1862	-2.92971384479575 
1863	-1.19625210854912 
1864	-0.332371354537208 
1865	-3.42530957690127E-02 
1866	 0.280419833218797 
1867	 0.381356031217018 
1868	 0.138698660727393 
1869	 6.58787822501526E-02 
1870	 7.32728227507524E-03 
1871	 2.17295159949178E-02 
1872	-0.132178782995431 
1873	-0.831309411417664 
1874	-5.53869137371386 
1875	 1.4698587547226 
1876	 0.63005564694083 
1877	 0.235974502117108 
1878	 1.74321338850982 
1879	 1.06659486719876 
1880	 0.468222337991888 
1881	-0.188615054774179 
1882	-0.239900461716651 
1883	-0.770124546746579 
1884	-1.7327895229424 
1885	-0.199853506245956 
1886	 1.06021774204982 
1887	 3.24513759910699 
1888	 4.28659535463965 
1889	 3.2579713843516 
1890	 0.776991770600091 
1891	 0.330137595191121 
1892	 0.307588185279512 
1893	-0.568732042858589 
1894	-0.926070717261448 
1895	 1.68261112684135 
1896	 0.201465430315814 
1897	-1.00858887314752 
1898	-3.46016665606207 
1899	-1.02161934955044 
1900	-1.00983769754053 
1901	 1.34375486522041 
1902	 0.358824798997162 
1903	 1.0080261903271 
1904	 0.857960129960543 
1905	 2.33150135034715 
1906	 1.68627425727988 
1907	-1.30118235399693 
1908	 2.03411935642084 
1909	 1.35805714967097 
1910	 2.86372049598671 
1911	 4.14801772800289 
1912	-0.517590847145289 
1913	-0.866027665736058 
1914	-2.09615276674609 
1915	-2.10612248590529 
1916	-2.10576854920286 
1917	-2.8462191973033 
1918	-147.820413331195 
1919	 4.12949689867578 
1920	-38.4732034159355 
1921	-1.52607384254196 
1922	-0.445280033927207 
1923	 0.115975264699102 
1924	 6.69968655796312E-02 
1925	-0.144027368761879 
1926	-0.254583392041661 
1927	-0.547052039363473 
1928	 14.7958113104288 
1929	 1.14338464629292 
1930	 0.631851553178904 
1931	 1.0675190237009 
1932	 4.01221344637172 
1933	-0.950821179365062 
1934	-9.77859744440222E-02 
1935	-0.126820726852058 
1936	 12.4910361353074 
1937	-55.4451150230715 
1938	 5.75076719520493 
1939	 10.9872825009366 
1940	-1.25387111098648 
1941	 0.255500615383934 
1942	-4.94759146550101E-02 
1943	-0.419335905937328 
1944	-0.908598329639399 
1945	-2.52696105336892 
1946	-3.80667445414633 
1947	-1.33567234350043 
1948	-0.579978576416991 
1949	-0.480062959739499 
1950	-0.200282097157256 
1951	 5.06718518011717E-02 
1952	 9.98179189577331E-02 
1953	-1.35245204999303E-02 
1954	 0.111768481818828 
1955	-0.405471196400197 
1956	-0.41649814339042 
1957	-1.85076314720139E-02 
1958	 0.161894405993638 
1959	 0.268028441793049 
1960	 0.241183971105727 
1961	 1.76695906758439E-02 
1962	-0.123379000696123 
1963	-8.70833941566118E-02 
1964	-3.95280565694323E-02 
1965	 2.30076056301937E-02 
1966	 5.39463187092992E-02 
1967	 8.09600883608119E-02 
1968	 6.65784563497136E-02 
1969	 5.17124046177554E-02 
1970	 5.34023116193273E-02 
1971	 3.01290731793151E-02 
1972	 1.68623376130623E-02 
1973	 1.45541552189416E-02 
1974	-3.14986169372314E-03 
1975	 1.29343164502371E-03 
1976	 3.03218896857778E-03 
1977	 1.13963558528959E-02 
1978	 2.35648228512064E-02 
1979	 0.025180506894299 
1980	 2.12642343384549E-02 
1981	 0.02449487413128 
1982	 2.80886273140487E-02 
1983	 1.43807168267454E-02 
1984	 1.87304736355825E-02 
1985	 2.46576312805207E-02 
1986	 2.48473093124103E-03 
1987	 1.54321450307431E-02 
1988	 4.05700829098793E-02 
1989	 2.72283213310439E-02 
1990	 1.59038581098116E-02 
1991	 2.12296720883908E-02 
1992	 7.95252189721882E-04 
1993	-1.26165733751543E-02 
1994	-1.70368886241236E-02 
1995	-1.88251763868139E-03 
1996	-1.27610801633546E-02 
1997	-9.49363739207568E-03 
1998	-1.55471356665402E-02 
1999	-3.12097768347738E-02 
2000	-3.84717857837066E-02 
2001	-6.27007548601985E-02 
2002	-5.14662998333675E-02 
2003	-2.26301430739038E-02 
2004	-4.42753295574405E-02 
2005	-7.93761452885887E-02 
2006	-7.72603319100819E-02 
2007	-5.32829403315846E-02 
2008	 8.86403242485411E-03 
2009	 2.74069940778816E-02 
2010	 3.13957624905801E-02 
2011	 3.00859474186297E-02 
2012	 9.46092258489219E-03 
2013	-1.70213859195221E-02 
2014	-1.15899779302737E-02 
2015	 4.52955323709245E-03 
2016	-1.39300268143128E-02 
2017	-3.18168194756511E-02 
2018	-4.35619997237212E-02 
2019	-0.042511655210519 
2020	-3.56055501132682E-02 
2021	-2.42456295588237E-02 
2022	-1.80677879992298E-02 
2023	-1.04637095463692E-02 
2024	 4.1006908567085E-04 
2025	 1.99999393954063E-02 
2026	 2.55088809291326E-02 
2027	 2.82833419198975E-02 
2028	 2.76228078230222E-02 
2029	 2.82536207673988E-02 
2030	 2.53420994008351E-02 
2031	 1.97003710241097E-02 
2032	 1.67934644344575E-02 
2033	 1.11077554302453E-02 
2034	 4.78398096205355E-03 
2035	 1.14009774255707E-02 
2036	 2.12735242549322E-02 
2037	 2.70089426212403E-02 
2038	 3.60024818955126E-02 
2039	 3.77487853121041E-02 
2040	 3.29908291415925E-02 
2041	 2.96683618622232E-02 
2042	 2.05900201402619E-02 
2043	 1.58785699642637E-02 
2044	 1.37273354736145E-02 
2045	 8.05815673534249E-03 
2046	 4.52358682533237E-03 
2047	 9.56786993427058E-03 
2048	 1.12808617264327E-02 
2049	 8.66334947748601E-03 
2050	 1.42992398066484E-02 
2051	 1.96518032724422E-02 
2052	 1.51382231026493E-02 
2053	 1.61168056921874E-02 
2054	 2.04240745512318E-02 
2055	 1.29229723930996E-02 
2056	 7.14664632426166E-03 
2057	 1.74657442508151E-03 
2058	 3.7377189442357E-03 
2059	 7.28581082688763E-03 
2060	 8.52790543140379E-03 
2061	 1.51064765813379E-02 
2062	 1.84931630032487E-02 
2063	 2.02325201974896E-02 
2064	 2.36678970003295E-02 
2065	 2.91648726717203E-02 
2066	 3.11921803824532E-02 
2067	 3.67634376749301E-02 
2068	 3.33593045683321E-02 
2069	 3.06889787707598E-02 
2070	 3.71843803625303E-02 
2071	 3.11639106981805E-02 
2072	 2.90294275910933E-02 
2073	 3.00210957993557E-02 
2074	 3.18593109683514E-02 
2075	 3.50903151185313E-02 
2076	 4.63138718607736E-02 
2077	 4.54968790085361E-02 
2078	 3.88251705243882E-02 
2079	 3.58684433659896E-02 
2080	 2.89114017352842E-02 
2081	 2.21086498589568E-02 
2082	 2.58757081181982E-02 
2083	 0.030926138317496 
2084	 2.90856384098892E-02 
2085	 2.93152289881598E-02 
2086	 3.10943720043108E-02 
2087	 2.76023234452686E-02 
2088	 2.92229557879929E-02 
2089	 0.035438190200745 
2090	 3.52474971039363E-02 
2091	 3.68991512947173E-02 
2092	 3.72396668542704E-02 
2093	 3.50966048501098E-02 
2094	 3.40240514967593E-02 
2095	 3.55328934473617E-02 
2096	 3.24066544748592E-02 
2097	 2.49144452241106E-02 
2098	 2.37111919715927E-02 
2099	 2.28884252425997E-02 
2100	 2.15503432685948E-02 
2101	 2.45250544223716E-02 
2102	 2.72808922928067E-02 
2103	 2.86045344087579E-02 
2104	 2.87768999785449E-02 
2105	 3.24360473795836E-02 
2106	 3.79402772042933E-02 
2107	 0.038522499566089 
2108	 0.037228156119724 
2109	 3.30087210316157E-02 
2110	 2.74714700700372E-02 
2111	 2.90951095297717E-02 
2112	 3.12886677654709E-02 
2113	 3.42189498773276E-02 
2114	 4.45166110707476E-02 
2115	 4.72383785356441E-02 
2116	 4.44108385494066E-02 
2117	 4.46711147097368E-02 
2118	 4.42655757567478E-02 
2119	 4.20086787949502E-02 
2120	 3.75100891564016E-02 
2121	 0.037682841580047 
2122	 4.19901380788046E-02 
2123	 4.41562894998661E-02 
2124	 5.16761257148575E-02 
2125	 5.45831366691156E-02 
2126	 4.63133906903727E-02 
2127	 3.99007869315285E-02 
2128	 3.46398915855778E-02 
2129	 0.033382876442289 
2130	 3.78252993509797E-02 
2131	 4.30464949344835E-02 
2132	 0.049735137543098 
2133	 5.09848254291967E-02 
2134	 5.05781708201558E-02 
2135	 4.68964120150184E-02 
2136	 0.04595331771546 
2137	 4.36235513952957E-02 
2138	 4.31347818120145E-02 
2139	 4.28413057254985E-02 
2140	 4.46762824020936E-02 
2141	 4.94598826169782E-02 
2142	 5.01929710496379E-02 
2143	 0.051297995495464 
2144	 5.26748490853609E-02 
2145	 4.98723343358059E-02 
2146	 4.80447977883651E-02 
2147	 4.94225083573702E-02 
2148	 5.10476266786936E-02 
2149	 5.04013315939894E-02 
2150	 5.09837435508244E-02 
2151	 5.04817098716808E-02 
2152	 0.048953063390692 
2153	 4.82330322355853E-02 
2154	 4.52622324526478E-02 
2155	 0.042629163733799 
2156	 4.25394211454071E-02 
2157	 4.32497540666013E-02 
2158	 4.65876207962358E-02 
2159	 4.73536515628465E-02 
2160	 4.87170626767865E-02 
2161	 4.79739229739051E-02 
2162	 4.45057389383048E-02 
2163	 4.11913460715931E-02 
2164	 3.59486036906646E-02 
2165	 3.36704264849493E-02 
2166	 3.15808726326018E-02 
2167	 3.19083295465005E-02 
2168	 3.50490975612875E-02 
2169	 3.92247598669366E-02 
2170	 4.65785437617349E-02 
2171	 4.94832717223489E-02 
2172	 5.68605479340933E-02 
2173	 6.06977161340225E-02 
2174	 5.67602161960426E-02 
2175	 5.64381584204131E-02 
2176	 5.72515587113034E-02 
2177	 5.48578556088671E-02 
2178	 5.38849789407585E-02 
2179	 5.65232008501171E-02 
2180	 5.70093835011291E-02 
2181	 5.30482019394944E-02 
2182	 5.20427896226467E-02 
2183	 5.25219601533291E-02 
2184	 5.43618742449685E-02 
2185	 5.75213057500577E-02 
2186	 5.72759153475493E-02 
2187	 5.72399513081844E-02 
2188	 5.66159190992913E-02 
2189	 5.00192183460114E-02 
2190	 5.00755377715102E-02 
2191	 5.55216852254864E-02 
2192	 5.64261606871991E-02 
2193	 5.88235925824823E-02 
2194	 5.72156938202975E-02 
2195	 4.91889714648027E-02 
2196	 4.67577636788602E-02 
2197	 0.046135054888282 
2198	 4.66744263276305E-02 
2199	 5.13188422766815E-02 
2200	 5.39465567537177E-02 
2201	 5.27184098392754E-02 
2202	 0.046560785725663 
2203	 4.10538501074572E-02 
2204	 3.82794281446806E-02 
2205	 4.07148204213622E-02 
2206	 4.12645167753458E-02 
2207	 3.97447339661652E-02 
2208	 4.62684751661552E-02 
2209	 4.93929351495542E-02 
2210	 4.68685975880561E-02 
2211	 4.63887065743136E-02 
2212	 4.14248991217626E-02 
2213	 4.38419194265246E-02 
2214	 5.52626687011816E-02 
2215	 6.14411589744377E-02 
2216	 5.98089167723221E-02 
2217	 5.84684848080212E-02 
2218	 4.91079299080514E-02 
2219	 4.39138819015732E-02 
2220	 4.02793734468149E-02 
2221	 3.93377895651576E-02 
2222	 3.81127342058094E-02 
2223	 3.81086663638002E-02 
2224	 4.24465938715233E-02 
2225	 4.45149561261225E-02 
2226	 4.67827306343945E-02 
2227	 4.49691080388594E-02 
2228	 3.78517959163104E-02 
2229	 3.77350769450214E-02 
2230	 3.80143961748278E-02 
2231	 0.039690735331612 
2232	 4.67863790358808E-02 
2233	 0.053238559451236 
2234	 6.15793268248074E-02 
2235	 6.55651737919571E-02 
2236	 6.80034801138679E-02 
2237	 7.32965650637424E-02 
2238	 6.55799175096851E-02 
2239	 5.82939489446634E-02 
2240	 5.12686576597905E-02 
2241	 4.40272982046731E-02 
2242	 4.13313947722784E-02 
2243	 0.038556836472748 
2244	 4.83581114715687E-02 
2245	 5.62838251882968E-02 
2246	 0.059684235259471 
2247	 6.46246504330042E-02 
2248	 0.059324472938925 
2249	 5.07171365948688E-02 
2250	 4.64872541154003E-02 
2251	 4.93291718613739E-02 
2252	 5.04428407188607E-02 
2253	 4.90131525810474E-02 
2254	 4.99627876543844E-02 
2255	 4.81608231356171E-02 
2256	 4.60992640157546E-02 
2257	 3.94587736424143E-02 
2258	 3.12548355803692E-02 
2259	 2.71232743593184E-02 
2260	 2.03638808736859E-02 
2261	 0.010864384775281 
2262	 9.46444132810951E-03 
2263	 8.7938767864013E-03 
2264	 1.09912590213654E-02 
2265	 2.26803319441557E-02 
2266	 3.22562782795578E-02 
2267	 4.44679091759031E-02 
2268	 5.04953494232567E-02 
2269	 5.26688550589337E-02 
2270	 5.46069697755557E-02 
2271	 5.35783394608415E-02 
2272	 5.16572857685478E-02 
2273	 5.33602703931737E-02 
2274	 0.05121816284195 
2275	 0.040796820424072 
2276	 3.24525177879599E-02 
2277	 1.83000147961405E-02 
2278	 1.65390320503062E-02 
2279	 2.21787047079077E-02 
2280	 3.25730017870478E-02 
2281	 6.41323942673908E-02 
2282	 6.35468431317657E-02 
2283	 6.62392077495664E-02 
2284	 7.22285097001617E-02 
2285	 6.16418655346741E-02 
2286	 6.48792305798525E-02 
2287	 0.065178070492645 
2288	 5.49062128019623E-02 
2289	 4.13240967109292E-02 
2290	 3.70560693965666E-02 
2291	 4.01158733106892E-02 
2292	 3.83697459560214E-02 
2293	 3.92717157291595E-02 
2294	 3.82321627892407E-02 
2295	 0.039554035695021 
2296	 3.25216737262509E-02 
2297	 2.21043106683796E-02 
2298	 2.30951994698926E-02 
2299	 2.31768270102309E-02 
2300	 1.84197104584904E-02 
2301	 0.012887717656492 
2302	 8.56937905615033E-03 
2303	 3.56760885927402E-04 
2304	 1.55705328662504E-03 
2305	 1.58927019974682E-02 
2306	 0.029402880412849 
2307	 1.60306450895866E-02 
2308	 3.00769106443965E-03 
2309	 7.55019723317117E-03 
2310	 1.22809863905576E-02 
2311	 4.00507393299719E-02 
2312	 5.66266416566834E-02 
2313	 4.73293677743325E-02 
2314	 3.96220579025238E-02 
2315	 3.01957184572853E-02 
2316	 3.78031722659052E-02 
2317	 3.51568513493043E-02 
2318	 6.01072593250022E-03 
2319	-1.63522490381412E-02 
2320	-4.36465026346821E-02 
2321	-5.49676581069696E-02 
2322	-3.87934806317422E-02 
2323	-0.021661819927365 
2324	-1.13167274666897E-02 
2325	-6.87817470739717E-03 
2326	 8.07702977619839E-03 
2327	 1.73720805273052E-02 
2328	 2.06438460532516E-02 
2329	 0.057388598217896 
2330	 6.95901758411952E-02 
2331	 4.07537978745741E-02 
2332	 3.73236465772092E-02 
2333	 6.14153756414751E-03 
2334	-4.99256172762722E-03 
2335	 2.74765581322598E-02 
2336	 0.062513308955723 
2337	 9.65834203899228E-02 
2338	 7.59947851003265E-02 
2339	 6.11592714387502E-02 
2340	 5.16297248336851E-02 
2341	 6.29017602836625E-03 
2342	 3.95113738213699E-03 
2343	-3.50471019913684E-03 
2344	-3.95905160939526E-02 
2345	-4.42355995803098E-02 
2346	-4.37104207259006E-02 
2347	-0.034930605383299 
2348	-1.40133026961169E-02 
2349	-3.71377597455355E-02 
2350	-3.36769313604913E-02 
2351	-5.90338067066938E-03 
2352	-6.88741640056554E-03 
2353	 4.26655249101674E-02 
2354	 0.079225981490787 
2355	 0.11023313863079 
2356	 0.194789796553166 
2357	 0.229185773432727 
2358	 0.267954742356225 
2359	 0.373568520034988 
2360	 0.361035242431243 
2361	 0.304648971161324 
2362	 0.291231455561771 
2363	 0.219442045022726 
2364	 0.202850484847032 
2365	 0.149442354717563 
2366	 1.90663566807456E-02 
2367	-3.81711729552779E-02 
2368	-0.108868958580697 
2369	-0.148535401487295 
2370	-0.070630996735675 
2371	-8.03255122704664E-02 
2372	-0.16564610439655 
2373	-0.229468360121592 
2374	-0.330965568515117 
2375	-0.343063165110495 
2376	-0.270560669032755 
2377	-0.321717524251744 
2378	-0.358492945600397 
2379	-0.331122122359032 
2380	-0.385558701882218 
2381	-0.186861880479008 
2382	 0.140441447419161 
2383	 0.221899419857825 
2384	 0.224276893146987 
2385	 4.58272553199698E-02 
2386	-0.224918141656139 
2387	-0.464274305993109 
2388	-0.340019030879119 
2389	-0.111443782312924 
2390	-0.124761076461966 
2391	-6.67244834474988E-02 
2392	-8.87922349324886E-02 
2393	-0.223850453141906 
2394	-0.188353647462597 
2395	-7.25635850207782E-02 
2396	-0.115192158505196 
2397	-0.284842978916746 
2398	-0.150195784513642 
2399	 0.150181745739333 
2400	 0.299375791794232 
2401	 0.318211413512593 
2402	 0.313370428550706 
2403	 0.333518226983357 
2404	 0.168104615267568 
2405	 9.13712678976055E-02 
2406	 0.178292599680044 
2407	-6.60127959288568E-02 
2408	-1.04436896819653 
2409	-2.20846115143886 
2410	-5.59844724176357 
2411	-1.97647224965949 
2412	-1.67947098423203 
2413	-1.21842086303121 
2414	-1.56800213169005 
2415	-0.673934359161929 
2416	-0.257797488423311 
2417	-0.109656163084555 
2418	 1.11679611075621 
2419	 1.6278397729026 
2420	 8.78809811296366 
2421	 2.52828100044975 
2422	 0.417134795753051 
2423	-2.08391207904464E-03 
2424	-1.01965047093791 
2425	-6.30554017171543 
2426	-81.3987737553895 
2427	 3.88353976879322 
2428	 19.4863916204135 
2429	-3.31090262322682 
2430	-0.429424393958921 
2431	 1.64532481445129 
2432	 1.97276499957312 
2433	-8.71202068496693 
2434	 0.519972056219349 
2435	 0.64403440929084 
2436	 0.566851263808915 
2437	 1.27699376188365 
2438	 1.55947026179308 
2439	 2.06516057168415 
2440	 2.21904267925622 
2441	 0.339336569672984 
2442	-0.262727816994903 
2443	-0.152563735971255 
2444	-0.100930821141354 
2445	-0.193895153416365 
2446	-0.292776537945954 
2447	-0.128274731874901 
2448	-4.36139030554254E-02 
2449	 0.317763563821099 
2450	 0.884441855630531 
2451	 1.19752648781934 
2452	 1.13002309066786 
2453	 1.14312362629648 
2454	 2.68271724335378 
2455	 0.501627072230194 
2456	 0.42004106536738 
2457	 0.581930075962218 
2458	 0.367008919875209 
2459	 0.263341921902647 
2460	 0.175389640276098 
2461	-5.53606228790607E-03 
2462	-0.286413126200985 
2463	 3.98287910783527E-02 
2464	 1.86175429148522 
2465	 5.58400868414598 
2466	-0.299447622070553 
2467	-1.05286611571723 
2468	-1.42860294569638 
2469	-0.946850751728384 
2470	 5.05720216054907E-02 
2471	 0.373752444374574 
2472	 0.179699942483513 
2473	 4.36399343975211E-02 
2474	 0.144690895326098 
2475	 0.980278345318384 
2476	 2.14995794420481 
2477	 6.96266919688721 
2478	-2.75047549583618 
2479	-0.749402817176336 
2480	-6.35710449375715 
2481	 3.51727358099466 
2482	 1.70554042043643 
2483	 1.08457097380889 
2484	 1.56882852544033 
2485	 0.430325952052445 
2486	-0.319205578989615 
2487	-0.153008213676509 
2488	-0.425307226238302 
2489	-0.142293699674695 
2490	 0.249289855404144 
2491	 0.399311339756749 
2492	 0.465600848212172 
2493	 0.928177850664271 
2494	 1.48818500761743 
2495	 1.51281359235947 
2496	 3.3127448379767 
2497	 2.31936314549727 
2498	 1.4297773360212 
2499	-1.91160912597384 
2500	-1.84412959895844 
