Wavelength	rt0704rt300004.asd
350	 4.98837833349812E-02 
351	 4.96279240552789E-02 
352	 5.01133375100812E-02 
353	 5.04488399457093E-02 
354	 5.02217519307582E-02 
355	 5.09872062117459E-02 
356	 5.14358114355225E-02 
357	 5.15243425601943E-02 
358	 5.16458237959725E-02 
359	 5.21727219479849E-02 
360	 5.28542357799301E-02 
361	 5.34667331979509E-02 
362	 5.38599902040217E-02 
363	 5.41878903243852E-02 
364	 5.42923458406591E-02 
365	 0.054350614683227 
366	 5.50961152456879E-02 
367	 5.57700178403794E-02 
368	 5.61035028619554E-02 
369	 5.61309760315933E-02 
370	 5.63892137934002E-02 
371	 5.68291293557113E-02 
372	 5.73219081315146E-02 
373	 5.77252009216036E-02 
374	 5.82954714776033E-02 
375	 5.86283770740076E-02 
376	 5.87641882292279E-02 
377	 5.94149010968922E-02 
378	 5.99151203222717E-02 
379	 6.00635715194955E-02 
380	 6.00566056671236E-02 
381	 6.09629241030001E-02 
382	 6.14881352834951E-02 
383	 6.14531361893528E-02 
384	 6.13680561246041E-02 
385	 6.21813725815509E-02 
386	 0.062523100509973 
387	 6.22671515621939E-02 
388	 6.28169789850678E-02 
389	 0.063023009616923 
390	 6.29364098024105E-02 
391	 6.28685035477258E-02 
392	 6.31742150384769E-02 
393	 0.063328145521087 
394	 6.32720267812852E-02 
395	 6.31498023630943E-02 
396	 6.30297744319055E-02 
397	 6.31453631437776E-02 
398	 6.33763563213035E-02 
399	 6.33298087176704E-02 
400	 6.32147609613112E-02 
401	 6.30967713274297E-02 
402	 6.29681174952747E-02 
403	 6.26766786044424E-02 
404	 6.27242233738211E-02 
405	 6.26603422013262E-02 
406	 6.19713052496014E-02 
407	 6.19717271319874E-02 
408	 6.18930318611932E-02 
409	 6.15426552388197E-02 
410	 6.13971420791258E-02 
411	 6.10437756935091E-02 
412	 6.06380471066781E-02 
413	 6.03650062803922E-02 
414	 6.02654326585509E-02 
415	 6.00150698053804E-02 
416	 5.96948421373057E-02 
417	 5.95145252832819E-02 
418	 5.93263435532769E-02 
419	 0.059117245020239 
420	 5.89349303243785E-02 
421	 5.88734950993446E-02 
422	 0.058711265779247 
423	 5.85032759613908E-02 
424	 5.83823774248941E-02 
425	 5.85594786178432E-02 
426	 5.85129768547018E-02 
427	 5.83412561151332E-02 
428	 5.83998584464119E-02 
429	 5.84648811575601E-02 
430	 5.84270756334497E-02 
431	 5.83728345751339E-02 
432	 5.85948786733129E-02 
433	 5.87639480132839E-02 
434	 5.88408493432156E-02 
435	 5.88989146956108E-02 
436	 5.91557794460211E-02 
437	 5.92290347065781E-02 
438	 5.92029649078575E-02 
439	 5.93760643238335E-02 
440	 5.94494083759025E-02 
441	 5.95219755872793E-02 
442	 5.96592467021353E-02 
443	 5.98163593202101E-02 
444	 5.99655854044291E-02 
445	 6.00369826863517E-02 
446	 5.99949271583754E-02 
447	 5.99338716059895E-02 
448	 6.00673577369392E-02 
449	 6.02507963355259E-02 
450	 6.01147666289774E-02 
451	 0.060011042076644 
452	 5.99686584590735E-02 
453	 5.99562271722917E-02 
454	 5.99277580388706E-02 
455	 5.98512618449474E-02 
456	 5.96392381473215E-02 
457	 5.92894637702672E-02 
458	 5.93155439532026E-02 
459	 5.92231516273129E-02 
460	 5.89119763064096E-02 
461	 5.87242122796692E-02 
462	 5.85940035476131E-02 
463	 5.83870037578661E-02 
464	 5.80867635263724E-02 
465	 5.80673107612861E-02 
466	 5.79256103964074E-02 
467	 5.76945655266027E-02 
468	 0.057588360531958 
469	 5.74022400419077E-02 
470	 5.73231052705986E-02 
471	 5.73473237863518E-02 
472	 5.71765767594133E-02 
473	 5.70508612682641E-02 
474	 5.70273561200062E-02 
475	 5.70684843409852E-02 
476	 5.69653187958304E-02 
477	 5.70459944494707E-02 
478	 5.72029587657491E-02 
479	 5.70779188246608E-02 
480	 5.71176237222222E-02 
481	 5.71912825006403E-02 
482	 5.72072990516301E-02 
483	 5.73208325667744E-02 
484	 0.057323424196284 
485	 5.73812052524596E-02 
486	 5.76793108555313E-02 
487	 5.77289727837081E-02 
488	 5.77781911899209E-02 
489	 5.79856438650001E-02 
490	 5.83675724661331E-02 
491	 5.86002391361795E-02 
492	 5.88660581786399E-02 
493	 5.92810811473979E-02 
494	 5.94729986039986E-02 
495	 5.98598875009277E-02 
496	 0.060352618577164 
497	 6.06557342029735E-02 
498	 6.11120064574955E-02 
499	 6.15313661046505E-02 
500	 6.19068214086872E-02 
501	 6.26059923020403E-02 
502	 6.29332661257487E-02 
503	 6.31716205976974E-02 
504	 6.37099643360505E-02 
505	 0.06411218331387 
506	 6.45203532811121E-02 
507	 0.064982782837999 
508	 6.54612861938372E-02 
509	 6.59474656008076E-02 
510	 6.63996598044089E-02 
511	 6.68187210748785E-02 
512	 6.73075156655796E-02 
513	 6.78835744956865E-02 
514	 0.068454541389499 
515	 6.89120685874821E-02 
516	 6.94734626444305E-02 
517	 7.00770958694176E-02 
518	 7.06850474296398E-02 
519	 7.13222027680225E-02 
520	 7.21048525134604E-02 
521	 7.28911633129621E-02 
522	 7.35740433897265E-02 
523	 7.43471621012169E-02 
524	 7.51985080973113E-02 
525	 7.61373809535309E-02 
526	 7.71773128307357E-02 
527	 7.81680528511118E-02 
528	 0.079281078759396 
529	 8.05651963873006E-02 
530	 8.17353178441522E-02 
531	 8.30724725738048E-02 
532	 0.0845430005085 
533	 8.60128792601704E-02 
534	 8.75388555471716E-02 
535	 0.089107813390755 
536	 9.07450248195246E-02 
537	 0.092514646703509 
538	 9.43510096253627E-02 
539	 9.61882030447709E-02 
540	 9.80026137576672E-02 
541	 0.09990826267494 
542	 0.101811151432072 
543	 0.103680767033717 
544	 0.105538694896878 
545	 0.107412855414925 
546	 0.10927960694422 
547	 0.111112622338769 
548	 0.112908463754377 
549	 0.114611675689728 
550	 0.116249113604528 
551	 0.11787276598395 
552	 0.119450374633902 
553	 0.121036528181584 
554	 0.122624420880844 
555	 0.12412532307054 
556	 0.125592346511572 
557	 0.127100797154836 
558	 0.128656188664607 
559	 0.130070735222235 
560	 0.131560454177087 
561	 0.133123259763458 
562	 0.134634274286923 
563	 0.13614894180291 
564	 0.137564958398586 
565	 0.138865265544912 
566	 0.140248439491553 
567	 0.141463430337241 
568	 0.142541919893867 
569	 0.143599547804428 
570	 0.144595593080961 
571	 0.145512704248885 
572	 0.146320164987816 
573	 0.146971060493984 
574	 0.147589073709639 
575	 0.148177461395837 
576	 0.148713143781738 
577	 0.149202968525834 
578	 0.149644895577115 
579	 0.15006736934564 
580	 0.150494642128546 
581	 0.150722068158338 
582	 0.150873754636814 
583	 0.151021723661962 
584	 0.15107000808715 
585	 0.15098900191225 
586	 0.150787066287303 
587	 0.150497185159339 
588	 0.150191790319915 
589	 0.149886917109279 
590	 0.149669703388323 
591	 0.149651528108473 
592	 0.149369815894778 
593	 0.149067421499559 
594	 0.148926500230105 
595	 0.148467022688758 
596	 0.147995883369881 
597	 0.147490240157693 
598	 0.146785219743432 
599	 0.146179038270502 
600	 0.145599799725427 
601	 0.145060417409661 
602	 0.144799335319853 
603	 0.144618050749752 
604	 0.144465948627911 
605	 0.1443573875892 
606	 0.144389338565719 
607	 0.144387993383747 
608	 0.144288052270183 
609	 0.144154988770491 
610	 0.144106572902223 
611	 0.144002497230442 
612	 0.143755932593562 
613	 0.143604377512177 
614	 0.143446418175463 
615	 0.143314059052562 
616	 0.143283535987582 
617	 0.143151478331679 
618	 0.142927042175976 
619	 0.142695215305887 
620	 0.142629605051101 
621	 0.142516429418778 
622	 0.142381422696384 
623	 0.142288106231966 
624	 0.142087825936809 
625	 0.141829584762852 
626	 0.141638715691793 
627	 0.141689256367335 
628	 0.141689554153232 
629	 0.141645705218117 
630	 0.141591305642421 
631	 0.141462194732767 
632	 0.141316068183356 
633	 0.14113268550167 
634	 0.140849043085556 
635	 0.140416582950051 
636	 0.139836085350351 
637	 0.139140574220242 
638	 0.138382834782495 
639	 0.137686779756653 
640	 0.136912742396095 
641	 0.135917807107467 
642	 0.134855674006613 
643	 0.133743567081625 
644	 0.132525599964555 
645	 0.131107129163847 
646	 0.129687841585852 
647	 0.128240836211381 
648	 0.126833136709414 
649	 0.125710244164771 
650	 0.124718286147482 
651	 0.123937038243507 
652	 0.123521750983135 
653	 0.123204767369778 
654	 0.123016988007521 
655	 0.122916801372665 
656	 0.12273130394165 
657	 0.12236053958802 
658	 0.122010362033966 
659	 0.121730384545249 
660	 0.120987112523461 
661	 0.11997245128874 
662	 0.118758776138446 
663	 0.117385441992028 
664	 0.116011428848532 
665	 0.114660990345055 
666	 0.113285785709718 
667	 0.11178147487661 
668	 0.110322084387345 
669	 0.109057110517085 
670	 0.108088258667611 
671	 0.107318252858104 
672	 0.106569714606047 
673	 0.105992915711177 
674	 0.106009195898609 
675	 0.106016900182093 
676	 0.106188620333811 
677	 0.106780723313783 
678	 0.10790217840809 
679	 0.109192825856099 
680	 0.110797027839286 
681	 0.113028639041881 
682	 0.115577853397674 
683	 0.118561191488013 
684	 0.12189067330779 
685	 0.125510031558689 
686	 0.129889559459462 
687	 0.134157945522275 
688	 0.137330952805679 
689	 0.140643621276318 
690	 0.143662597315507 
691	 0.146242991279604 
692	 0.148393799049113 
693	 0.150407545557366 
694	 0.152117801789922 
695	 0.153311617287097 
696	 0.153927641160665 
697	 0.154296848995049 
698	 0.154435959737341 
699	 0.154269155254991 
700	 0.154027232944702 
701	 0.153591298326717 
702	 0.152973640012723 
703	 0.152248976890141 
704	 0.151202451910546 
705	 0.149960717628097 
706	 0.148662222658578 
707	 0.147237130469527 
708	 0.145651631548208 
709	 0.143824220819061 
710	 0.141744586919598 
711	 0.13978595474559 
712	 0.137557933933349 
713	 0.135036448402901 
714	 0.132562807270801 
715	 0.130084506413491 
716	 0.12718293055762 
717	 0.123901137230132 
718	 0.12136543955194 
719	 0.118529250970667 
720	 0.116090851799716 
721	 0.114292159662574 
722	 0.111930116679026 
723	 0.109127936741538 
724	 0.106494503474486 
725	 0.104061981466879 
726	 0.101338169965115 
727	 9.85560964161694E-02 
728	 9.59243298405971E-02 
729	 9.29903947539451E-02 
730	 9.00057424138155E-02 
731	 8.74134111117729E-02 
732	 8.53194753491782E-02 
733	 8.34522704187297E-02 
734	 8.18507889292145E-02 
735	 8.05064195078007E-02 
736	 7.92761709864857E-02 
737	 7.86353145703567E-02 
738	 7.80815137562925E-02 
739	 7.72854146028993E-02 
740	 7.70621392915247E-02 
741	 7.68234688924179E-02 
742	 7.65846151459469E-02 
743	 7.65865169178606E-02 
744	 7.62247702547805E-02 
745	 7.60769922504727E-02 
746	 7.61981492368386E-02 
747	 7.58016748459582E-02 
748	 7.58141097006506E-02 
749	 7.59208119418657E-02 
750	 7.57212934216202E-02 
751	 7.56188902580429E-02 
752	 7.54294200803821E-02 
753	 7.52914735666056E-02 
754	 7.54159845662375E-02 
755	 7.50822046011528E-02 
756	 7.49435055396827E-02 
757	 7.51589271952423E-02 
758	 0.07494779796991 
759	 7.47198895843432E-02 
760	 7.44664260761953E-02 
761	 7.42234894433078E-02 
762	 7.43667697289925E-02 
763	 7.41535497556002E-02 
764	 7.40176651474321E-02 
765	 7.44366046412611E-02 
766	 7.48895238154874E-02 
767	 7.50269741672795E-02 
768	 7.49493425694367E-02 
769	 7.51134548250491E-02 
770	 7.52431616349503E-02 
771	 7.54139104563693E-02 
772	 7.56582819533039E-02 
773	 7.57116425411687E-02 
774	 7.58102476037114E-02 
775	 7.59571677449882E-02 
776	 0.076085019299874 
777	 0.076341399007781 
778	 7.67129296622635E-02 
779	 7.70444637911335E-02 
780	 7.70939964935427E-02 
781	 7.74097997210631E-02 
782	 7.78581888715615E-02 
783	 7.82214521953895E-02 
784	 7.83768111684757E-02 
785	 7.87008567196288E-02 
786	 7.91103934800975E-02 
787	 0.079393187800216 
788	 7.96825687050316E-02 
789	 8.01137598869437E-02 
790	 8.05696949859413E-02 
791	 8.08069190747355E-02 
792	 8.14588135625637E-02 
793	 8.20037892022913E-02 
794	 8.22224387402193E-02 
795	 8.25982624634949E-02 
796	 8.29566024352644E-02 
797	 8.33272772911046E-02 
798	 8.37374212934807E-02 
799	 8.39461279806948E-02 
800	 8.43094363657556E-02 
801	 8.47045042756973E-02 
802	 8.48287926396207E-02 
803	 8.52708923143016E-02 
804	 8.55306157925748E-02 
805	 0.085455689611177 
806	 8.53612233554483E-02 
807	 8.56842379783394E-02 
808	 8.57751044331894E-02 
809	 8.52389367410984E-02 
810	 8.50028959840557E-02 
811	 8.46926162844507E-02 
812	 8.41652059835407E-02 
813	 8.33996866797143E-02 
814	 8.26410092006671E-02 
815	 8.20228290417885E-02 
816	 8.17099010071119E-02 
817	 8.17077017518386E-02 
818	 8.11610379986523E-02 
819	 8.03936240163036E-02 
820	 7.95362238616816E-02 
821	 7.83755608257674E-02 
822	 7.71727062375675E-02 
823	 7.59230697180983E-02 
824	 7.46554575008727E-02 
825	 0.073558285040423 
826	 0.071927385561989 
827	 7.00973070572584E-02 
828	 6.87455330077845E-02 
829	 6.68623804705865E-02 
830	 6.54847759661789E-02 
831	 0.064698667094463 
832	 6.38964330852127E-02 
833	 6.30383904588035E-02 
834	 0.062675590799559 
835	 6.26517693628837E-02 
836	 6.19130703580532E-02 
837	 6.15864038460486E-02 
838	 6.15562022925609E-02 
839	 0.061436695130661 
840	 6.08262707715326E-02 
841	 6.05033119330219E-02 
842	 6.03704815450277E-02 
843	 6.00774293628621E-02 
844	 0.059736807540943 
845	 5.96054707018205E-02 
846	 5.96040708674982E-02 
847	 5.94149930260618E-02 
848	 5.88331256188712E-02 
849	 5.84774095092973E-02 
850	 5.85200316425771E-02 
851	 5.84355916871478E-02 
852	 5.80673827269394E-02 
853	 0.05776298266706 
854	 5.77536218481209E-02 
855	 5.77871921905565E-02 
856	 5.72646359923987E-02 
857	 5.69189422909565E-02 
858	 5.73311851631389E-02 
859	 5.72365908262081E-02 
860	 5.68481972900501E-02 
861	 5.63809065839282E-02 
862	 5.60993179195135E-02 
863	 5.65356575512878E-02 
864	 5.64251782272864E-02 
865	 5.58682438336943E-02 
866	 5.61469193559691E-02 
867	 5.59260904307153E-02 
868	 5.55642807942052E-02 
869	 5.53200195137279E-02 
870	 0.055021051583104 
871	 0.054713205190425 
872	 5.43470786186361E-02 
873	 5.40219784202184E-02 
874	 5.42185824142323E-02 
875	 5.42024721309365E-02 
876	 5.37966818370481E-02 
877	 5.31922904418713E-02 
878	 5.31059770676868E-02 
879	 5.30676384946173E-02 
880	 5.28255492994785E-02 
881	 0.052356271563147 
882	 5.21624222360921E-02 
883	 5.18148805842768E-02 
884	 5.15091338004403E-02 
885	 5.17465656162515E-02 
886	 5.10924536211671E-02 
887	 0.050672792032014 
888	 5.08155467129154E-02 
889	 5.06451629853423E-02 
890	 5.04441718822126E-02 
891	 5.03613016815911E-02 
892	 5.02999198969675E-02 
893	 4.97060442583141E-02 
894	 4.92645530603114E-02 
895	 4.90289168542504E-02 
896	 4.88831538115378E-02 
897	 4.88918828806971E-02 
898	 4.85429130612254E-02 
899	 0.047903935679109 
900	 4.74352182927693E-02 
901	 4.78968299632718E-02 
902	 4.82284533985578E-02 
903	 4.80233710023203E-02 
904	 4.73148847265037E-02 
905	 4.67851295177437E-02 
906	 0.046183390725111 
907	 4.58983077373857E-02 
908	 4.64225252988845E-02 
909	 4.50088415765549E-02 
910	 4.45739113426137E-02 
911	 0.045579032501178 
912	 0.045700504853188 
913	 4.39490601691731E-02 
914	 4.26346163136042E-02 
915	 4.28235613729581E-02 
916	 4.34062638792852E-02 
917	 4.33963547441575E-02 
918	 4.30553264010462E-02 
919	 0.042769312079502 
920	 4.27777569751424E-02 
921	 4.30657469208801E-02 
922	 0.042723431929204 
923	 4.18703617090728E-02 
924	 4.32597542795177E-02 
925	 4.14532153139574E-02 
926	 3.92524268172544E-02 
927	 4.04776730339256E-02 
928	 4.07930589239471E-02 
929	 3.95641936850934E-02 
930	 3.80789665135185E-02 
931	 3.87478400419215E-02 
932	 3.69426350624445E-02 
933	 0.032995796117625 
934	 3.13860940645201E-02 
935	 3.50122092638843E-02 
936	 3.49669543645152E-02 
937	 3.37633515704971E-02 
938	 3.24238880616617E-02 
939	 3.13452727165015E-02 
940	 3.08890049270148E-02 
941	 3.19416913426849E-02 
942	 3.27157368082972E-02 
943	 3.07934538802274E-02 
944	 2.95761134046072E-02 
945	 2.79918717085412E-02 
946	 0.026374647164851 
947	 0.026676717202564 
948	 3.54283606794544E-02 
949	 3.51837402347683E-02 
950	 2.91368192223118E-02 
951	 3.06559249312616E-02 
952	 2.69451536572275E-02 
953	 2.81086014096911E-02 
954	 3.21651326379997E-02 
955	 3.01682384259592E-02 
956	 2.91264008791259E-02 
957	 2.96101306905469E-02 
958	 3.05010134391774E-02 
959	 3.03270487537926E-02 
960	 3.06942326689636E-02 
961	 2.96726721716695E-02 
962	 2.88207799925936E-02 
963	 3.11942551538083E-02 
964	 3.39871934979988E-02 
965	 3.37269044349079E-02 
966	 3.18947568734209E-02 
967	 3.22099350829012E-02 
968	 0.02922538696373 
969	 3.04927550988478E-02 
970	 3.39054045425159E-02 
971	 3.05298109778497E-02 
972	 0.031337819760827 
973	 3.17365626015629E-02 
974	 3.05057062686049E-02 
975	 3.09635155822026E-02 
976	 3.06315067863367E-02 
977	 3.13865411370642E-02 
978	 3.28165687740074E-02 
979	 3.26829258492848E-02 
980	 3.23606007633955E-02 
981	 3.23791309102676E-02 
982	 3.25959193237968E-02 
983	 3.23635504895112E-02 
984	 3.06214674155128E-02 
985	 3.08600481021762E-02 
986	 3.24066689288646E-02 
987	 3.17424283576864E-02 
988	 0.030741271095535 
989	 3.34128568028496E-02 
990	 3.64240205852725E-02 
991	 3.27557516726394E-02 
992	 2.81945264903514E-02 
993	 2.90195003346935E-02 
994	 3.30159326104911E-02 
995	 3.32756413992167E-02 
996	 3.29513150115543E-02 
997	 3.42632495812599E-02 
998	 3.60223983208291E-02 
999	 3.55373630546334E-02 
1000	 3.44386083562164E-02 
1001	 3.44891122485423E-02 
1002	 3.46580596148646E-02 
1003	 3.47084878654899E-02 
1004	 3.55763933826117E-02 
1005	 3.56756297951482E-02 
1006	 3.49671956744543E-02 
1007	 3.51827686769751E-02 
1008	 3.51845094854382E-02 
1009	 3.48514976127714E-02 
1010	 3.52471383331306E-02 
1011	 0.035338910574955 
1012	 3.51938303909333E-02 
1013	 3.55486519904486E-02 
1014	 3.58146351087002E-02 
1015	 3.61858249171746E-02 
1016	 3.64086319779331E-02 
1017	 3.67797927911737E-02 
1018	 3.69182024841413E-02 
1019	 3.69669833855571E-02 
1020	 0.036930464450503 
1021	 3.68761985133793E-02 
1022	 3.63861370724584E-02 
1023	 0.035989635383347 
1024	 3.56929802099714E-02 
1025	 3.58638962536125E-02 
1026	 3.62624215674806E-02 
1027	 3.63916324628309E-02 
1028	 3.66701219631534E-02 
1029	 3.68243545739941E-02 
1030	 3.65470339999047E-02 
1031	 3.67658025095911E-02 
1032	 3.74877855897619E-02 
1033	 0.037716032826765 
1034	 3.79868106737168E-02 
1035	 3.80236576208757E-02 
1036	 3.73971054609605E-02 
1037	 3.73338676939221E-02 
1038	 3.73581868755257E-02 
1039	 3.77843776040289E-02 
1040	 3.81360238282065E-02 
1041	 3.81367923466647E-02 
1042	 3.83095532602104E-02 
1043	 3.83278029886024E-02 
1044	 3.84316194889579E-02 
1045	 3.88383613391744E-02 
1046	 3.88282366533729E-02 
1047	 3.84411974477066E-02 
1048	 3.82438159216915E-02 
1049	 3.78070841908917E-02 
1050	 0.037735619367086 
1051	 0.037859646009406 
1052	 3.81162280939635E-02 
1053	 3.86819399142879E-02 
1054	 3.91458200742373E-02 
1055	 4.01252832582073E-02 
1056	 4.03800562362166E-02 
1057	 4.02939924662658E-02 
1058	 3.98937551499998E-02 
1059	 3.94233499985847E-02 
1060	 3.79293506251547E-02 
1061	 3.79305900873666E-02 
1062	 3.86963665659387E-02 
1063	 0.039102719246904 
1064	 4.04646813995744E-02 
1065	 4.07886526255577E-02 
1066	 4.03639113618797E-02 
1067	 4.01168482097386E-02 
1068	 0.039410063635753 
1069	 3.90449430661512E-02 
1070	 3.86528814729844E-02 
1071	 0.038522118291005 
1072	 3.88198959646983E-02 
1073	 3.89295133033596E-02 
1074	 3.90181520722306E-02 
1075	 3.93045721365986E-02 
1076	 3.92446055875821E-02 
1077	 3.86612723006292E-02 
1078	 3.87634037607822E-02 
1079	 3.94846027549888E-02 
1080	 3.92740290121501E-02 
1081	 0.038910033413354 
1082	 3.86042164566077E-02 
1083	 3.70650454342532E-02 
1084	 3.67207854648786E-02 
1085	 3.78813949548848E-02 
1086	 3.78907187972201E-02 
1087	 3.76478646452952E-02 
1088	 3.75324125597087E-02 
1089	 3.65044055311737E-02 
1090	 3.58023705764101E-02 
1091	 3.62385041426947E-02 
1092	 0.038111263418784 
1093	 3.84333687310899E-02 
1094	 3.89054720241496E-02 
1095	 0.038974289574032 
1096	 3.77764370517198E-02 
1097	 3.72068175782489E-02 
1098	 3.70077342448789E-02 
1099	 3.68880255369685E-02 
1100	 3.65922642115065E-02 
1101	 3.65373860171932E-02 
1102	 3.69455670987892E-02 
1103	 3.72257444827579E-02 
1104	 3.78143881050118E-02 
1105	 3.78244832717231E-02 
1106	 3.76908037078409E-02 
1107	 3.77364904059093E-02 
1108	 3.62282589738673E-02 
1109	 3.54403332399155E-02 
1110	 3.52735594636133E-02 
1111	 3.52103277971895E-02 
1112	 3.58241327845266E-02 
1113	 3.94856287640613E-02 
1114	 3.95706369026981E-02 
1115	 3.71901812130807E-02 
1116	 3.59754227053565E-02 
1117	 2.89524510092783E-02 
1118	 0.0279383372589 
1119	 3.95976263685819E-02 
1120	 4.23188300162374E-02 
1121	 4.27222627275762E-02 
1122	 4.21826430533977E-02 
1123	 0.037713772438565 
1124	 0.02901394977452 
1125	 3.20762919052863E-02 
1126	 4.47987228065076E-02 
1127	 5.20613231520401E-02 
1128	 5.37478030745261E-02 
1129	 5.12262348425189E-02 
1130	 4.89907342750147E-02 
1131	 4.27393650501603E-02 
1132	 2.70644719103542E-02 
1133	 0.026085159251047 
1134	 3.16806658023584E-02 
1135	 0.032354718896027 
1136	 3.56211154136739E-02 
1137	 3.51306577973435E-02 
1138	 3.09812894785981E-02 
1139	 3.00645928449557E-02 
1140	 2.47407291699448E-02 
1141	 1.90658769291265E-02 
1142	 2.00757129390694E-02 
1143	 2.37369550937318E-02 
1144	 2.67860637599516E-02 
1145	 3.08273057236315E-02 
1146	 0.030635656664672 
1147	 0.025823125367631 
1148	 2.37444546989472E-02 
1149	 2.68970980563333E-02 
1150	 2.92154773265187E-02 
1151	 3.19564008097281E-02 
1152	 3.24045730054344E-02 
1153	 3.44953871203256E-02 
1154	 3.39597763825919E-02 
1155	 3.06934790006974E-02 
1156	 3.03508633639303E-02 
1157	 3.35243830716987E-02 
1158	 3.15440300526993E-02 
1159	 2.98818808848732E-02 
1160	 3.16082915082393E-02 
1161	 3.03473012285449E-02 
1162	 2.81763830343147E-02 
1163	 2.93855658196613E-02 
1164	 3.03276112517356E-02 
1165	 2.91044155356352E-02 
1166	 0.029099486227515 
1167	 2.96991993841873E-02 
1168	 2.86794712106125E-02 
1169	 2.83878631863201E-02 
1170	 2.93683530740243E-02 
1171	 2.96629238153231E-02 
1172	 2.93862543481327E-02 
1173	 2.95570469676079E-02 
1174	 2.99169263905811E-02 
1175	 3.01740772908667E-02 
1176	 3.04602172791545E-02 
1177	 3.06333112253793E-02 
1178	 3.09468381458081E-02 
1179	 3.07858177987593E-02 
1180	 3.01014002982866E-02 
1181	 3.00105886687382E-02 
1182	 0.029627423849028 
1183	 2.95110867599248E-02 
1184	 0.029820221584324 
1185	 2.96186941412273E-02 
1186	 2.99287151994127E-02 
1187	 2.99138873692303E-02 
1188	 2.92221130159571E-02 
1189	 2.90610709007095E-02 
1190	 2.87677765639729E-02 
1191	 2.82796986292658E-02 
1192	 2.83029071661395E-02 
1193	 2.89536816185125E-02 
1194	 2.93985941454765E-02 
1195	 2.94252269238342E-02 
1196	 2.98058411107812E-02 
1197	 3.03439930973334E-02 
1198	 3.00366000741071E-02 
1199	 2.91227247144282E-02 
1200	 2.93615253938978E-02 
1201	 0.029587092780302 
1202	 2.98274643951085E-02 
1203	 3.09369339002278E-02 
1204	 3.10152331940759E-02 
1205	 0.03030305234417 
1206	 2.99628950142353E-02 
1207	 3.02305465227105E-02 
1208	 3.05590652542677E-02 
1209	 3.04702615867824E-02 
1210	 3.03848204901304E-02 
1211	 3.03144924995533E-02 
1212	 3.00668652810884E-02 
1213	 2.99756844394159E-02 
1214	 2.99730406012495E-02 
1215	 3.01028735146109E-02 
1216	 3.00324653767266E-02 
1217	 3.02443166031358E-02 
1218	 3.03946109762795E-02 
1219	 3.01752939181058E-02 
1220	 3.02480373073448E-02 
1221	 3.03455830268438E-02 
1222	 0.030088073710853 
1223	 0.030170661831509 
1224	 3.01310719789693E-02 
1225	 2.96493310307717E-02 
1226	 3.00208622724467E-02 
1227	 3.04833996191082E-02 
1228	 0.03034562154579 
1229	 3.06696286445374E-02 
1230	 3.11230471286539E-02 
1231	 0.030876842576565 
1232	 3.04919736066031E-02 
1233	 0.030731662493081 
1234	 3.06922783194226E-02 
1235	 3.02818145583593E-02 
1236	 2.97336307416194E-02 
1237	 2.96258907012664E-02 
1238	 2.92974586440175E-02 
1239	 2.89800308446096E-02 
1240	 2.95216600675638E-02 
1241	 3.03931634504492E-02 
1242	 0.030767373832457 
1243	 3.02777217591566E-02 
1244	 2.96748603848119E-02 
1245	 2.95654083613044E-02 
1246	 2.94932597968009E-02 
1247	 2.92838959541799E-02 
1248	 2.95065946250504E-02 
1249	 2.98954625883741E-02 
1250	 2.97202778844174E-02 
1251	 2.96888523766176E-02 
1252	 2.99652247628394E-02 
1253	 0.029550243058213 
1254	 2.91684131144805E-02 
1255	 2.96011929351764E-02 
1256	 2.98297344890727E-02 
1257	 0.030129071319225 
1258	 3.01541156942099E-02 
1259	 0.030144851753363 
1260	 3.00814848649796E-02 
1261	 0.029570589970599 
1262	 2.94336365721569E-02 
1263	 0.02962219777702 
1264	 2.96716969010694E-02 
1265	 0.029197795598635 
1266	 0.029434686045904 
1267	 2.98833697455169E-02 
1268	 2.95642995833152E-02 
1269	 2.93947102531661E-02 
1270	 2.97170310723029E-02 
1271	 0.029941252209762 
1272	 0.029777544293419 
1273	 2.99345081165872E-02 
1274	 3.05173137291127E-02 
1275	 3.04650477487337E-02 
1276	 3.02281964656313E-02 
1277	 3.00587989655268E-02 
1278	 2.97401659391091E-02 
1279	 2.99222966249816E-02 
1280	 3.01932712712561E-02 
1281	 3.00781022489065E-02 
1282	 2.98638870162615E-02 
1283	 3.00222573631802E-02 
1284	 3.00428659501288E-02 
1285	 3.00287001365162E-02 
1286	 3.05588590881654E-02 
1287	 3.07862948525304E-02 
1288	 3.05628629495443E-02 
1289	 3.03993338436086E-02 
1290	 3.04883482147439E-02 
1291	 3.02045098156253E-02 
1292	 2.99057894004108E-02 
1293	 2.94632743007798E-02 
1294	 2.92042243009828E-02 
1295	 2.92726011011719E-02 
1296	 2.93716785721902E-02 
1297	 2.91984708117067E-02 
1298	 2.89069234495149E-02 
1299	 2.89979523263873E-02 
1300	 2.87380458414888E-02 
1301	 2.83118441214583E-02 
1302	 2.82482566391376E-02 
1303	 2.79644991040972E-02 
1304	 2.78109341345623E-02 
1305	 2.85821235100284E-02 
1306	 2.87565177851928E-02 
1307	 0.028717959015249 
1308	 2.87856730772484E-02 
1309	 0.028696629278694 
1310	 2.86475877977617E-02 
1311	 2.88294360939905E-02 
1312	 0.028973035962327 
1313	 2.89565698768732E-02 
1314	 2.89866793750694E-02 
1315	 2.88572621959608E-02 
1316	 2.92916974409179E-02 
1317	 3.07343007740991E-02 
1318	 3.08077787297077E-02 
1319	 0.029997073785615 
1320	 3.00491333279874E-02 
1321	 2.98500306454215E-02 
1322	 2.93252975565979E-02 
1323	 2.99771062908965E-02 
1324	 3.03416012593369E-02 
1325	 2.93583537747943E-02 
1326	 2.83442259381094E-02 
1327	 2.80574225157122E-02 
1328	 2.79383637586576E-02 
1329	 2.87873968333677E-02 
1330	 2.97851999223692E-02 
1331	 2.83558989819006E-02 
1332	 2.75641644049173E-02 
1333	 2.92867341937117E-02 
1334	 3.00428614441826E-02 
1335	 3.01455477944914E-02 
1336	 0.031488939869161 
1337	 3.32749982712331E-02 
1338	 3.35444229995679E-02 
1339	 3.29954598552862E-02 
1340	 3.42624389163485E-02 
1341	 3.52267638441004E-02 
1342	 3.33206531597135E-02 
1343	 3.25386355327873E-02 
1344	 3.33823577107579E-02 
1345	 3.43034257801072E-02 
1346	 3.34974604114573E-02 
1347	 3.37753499858314E-02 
1348	 3.96603191871961E-02 
1349	 4.43320344971236E-02 
1350	 0.047246825560106 
1351	 5.45368421537082E-02 
1352	 7.15382875725466E-02 
1353	 9.39873440043911E-02 
1354	 0.135414744032581 
1355	 0.140753138198045 
1356	 2.77948819446497E-02 
1357	 4.85936361786683E-02 
1358	 0.142155577249378 
1359	-2.95211626392344E-02 
1360	-7.84650921336273E-02 
1361	 0.159039501613285 
1362	 0.409020799242317 
1363	 0.489805671299906 
1364	 0.954018342835426 
1365	 1.61874298609263 
1366	 1.37116659664201 
1367	 0.43684309433266 
1368	 0.417432414721748 
1369	 0.555090661236098 
1370	 0.22209081572302 
1371	 0.296690352137117 
1372	 0.317486104743777 
1373	-0.500170174442846 
1374	-0.652782708271114 
1375	-0.891355388968037 
1376	 3.40656499421419 
1377	 1.05643663884362 
1378	 0.915228661236672 
1379	 0.550818728004985 
1380	 0.50892673373208 
1381	 0.402912270776888 
1382	 0.410034352972632 
1383	 1.14902854691666 
1384	 1.77964014629563 
1385	 4.44417507910244 
1386	-16.5983654893497 
1387	 1.59069686465907 
1388	 0.909157830663684 
1389	 0.621740758932654 
1390	 0.324183549642358 
1391	 0.351981417933359 
1392	 0.198305373037515 
1393	 0.477851908728856 
1394	 1.87338827042675 
1395	 3.45954297883804 
1396	-175.274624362911 
1397	-26.0429752333754 
1398	 2.88398841176489 
1399	 1.7532318058886 
1400	 33.2226545669686 
1401	-4.57399634013218 
1402	-1.6147947749861 
1403	 3.52766771688638 
1404	-1.04583489493437 
1405	-0.156949188571742 
1406	-0.238308792089344 
1407	-3.41339097380088E-02 
1408	 1.44171590606346 
1409	 1.43314937618408 
1410	 0.725538084521288 
1411	 0.856617218299475 
1412	 1.33614096008161 
1413	 1.38737154838101 
1414	 3.14818159261391 
1415	 3.67913629157848 
1416	 0.983334641364357 
1417	 0.778091166952802 
1418	 0.92020480508565 
1419	 0.822764381418042 
1420	 0.827466881122339 
1421	 0.611064338611607 
1422	 0.228047964851059 
1423	 0.155371056809839 
1424	 0.133080868323257 
1425	 9.83639892909559E-02 
1426	 0.1870892850026 
1427	 0.165575594450121 
1428	 0.048851125868532 
1429	 4.32969273084322E-02 
1430	 8.17165109725446E-02 
1431	 8.53325850320691E-02 
1432	 7.61817807098619E-02 
1433	 0.109025890802574 
1434	 0.249089267776418 
1435	 0.237949919071795 
1436	 0.159209797300931 
1437	 9.10628559443215E-02 
1438	 0.103093346146106 
1439	 1.38933484124351E-02 
1440	-1.57189041453021E-02 
1441	 2.48614483440621E-02 
1442	 4.98068923646761E-02 
1443	 4.12068314251924E-02 
1444	-5.54397394155306E-03 
1445	 8.72271311457954E-03 
1446	 3.82898807086786E-02 
1447	 1.59262005943715E-02 
1448	 2.18036252254677E-02 
1449	 5.79785610704805E-02 
1450	 4.51851819777856E-02 
1451	 1.44706136218601E-02 
1452	 1.58807846530596E-02 
1453	 2.93373680756931E-02 
1454	 2.83612487507367E-02 
1455	 1.91202996227294E-02 
1456	 1.81533734892936E-02 
1457	 1.95407702266779E-02 
1458	 1.73894023698756E-02 
1459	 1.83101819971893E-02 
1460	 1.75423259968567E-02 
1461	 8.95181313659301E-03 
1462	 7.47985041440782E-03 
1463	 1.06458423259498E-02 
1464	 1.38742047175103E-02 
1465	 2.30056340051269E-02 
1466	 2.32373899701816E-02 
1467	 0.01386164368169 
1468	 1.80886419066582E-02 
1469	 3.05005785197689E-02 
1470	 3.29293216314723E-02 
1471	 4.09671331829055E-02 
1472	 4.28947167923594E-02 
1473	 2.33225094048694E-02 
1474	 2.47556642357353E-02 
1475	 4.75030478897862E-02 
1476	 4.60171612113598E-02 
1477	 3.66740400706481E-02 
1478	 3.22660936041738E-02 
1479	 1.72581395887358E-02 
1480	 1.49506131698982E-02 
1481	 2.32660228303818E-02 
1482	 2.51783772958589E-02 
1483	 2.63616508566387E-02 
1484	 2.72048026089007E-02 
1485	 2.92137793846542E-02 
1486	 2.84813596031942E-02 
1487	 2.66981992244404E-02 
1488	 2.40979106395671E-02 
1489	 1.63955163274961E-02 
1490	 1.61670176867803E-02 
1491	 2.18492468839801E-02 
1492	 2.22438922660968E-02 
1493	 2.24769817978212E-02 
1494	 2.28902771509714E-02 
1495	 2.01409244020822E-02 
1496	 1.94665417005891E-02 
1497	 2.14340612400401E-02 
1498	 2.16899260270845E-02 
1499	 2.06179850411801E-02 
1500	 2.07834467942632E-02 
1501	 2.17060085899632E-02 
1502	 2.19766615083894E-02 
1503	 2.26328548975384E-02 
1504	 2.23841239063588E-02 
1505	 2.04758669996903E-02 
1506	 2.02599174175655E-02 
1507	 2.11131131578404E-02 
1508	 2.18023551241085E-02 
1509	 2.22256436993789E-02 
1510	 2.24942365342123E-02 
1511	 2.22964192125498E-02 
1512	 2.17743966646788E-02 
1513	 2.24830205890976E-02 
1514	 2.31711650317899E-02 
1515	 2.27188260070065E-02 
1516	 2.25939030857031E-02 
1517	 0.022191482739339 
1518	 2.15972079018582E-02 
1519	 2.23274936536264E-02 
1520	 2.22514096749557E-02 
1521	 2.06102833947832E-02 
1522	 2.04802082009057E-02 
1523	 2.10404664951905E-02 
1524	 2.10767432124787E-02 
1525	 0.021612632095798 
1526	 2.19606804644084E-02 
1527	 2.17475066524342E-02 
1528	 2.14773386757924E-02 
1529	 2.12861705905836E-02 
1530	 2.14818094490689E-02 
1531	 2.18111817065438E-02 
1532	 2.14458760036994E-02 
1533	 2.16336840608799E-02 
1534	 0.022238109654668 
1535	 2.15555814247295E-02 
1536	 2.11367614106881E-02 
1537	 2.16693752174205E-02 
1538	 2.19126321513096E-02 
1539	 2.20588941278204E-02 
1540	 2.24261381476837E-02 
1541	 2.26558204487493E-02 
1542	 2.24043943312645E-02 
1543	 2.20252572178856E-02 
1544	 2.21567867011476E-02 
1545	 2.24802421659271E-02 
1546	 2.25395546212115E-02 
1547	 2.25485104267947E-02 
1548	 2.24100277958347E-02 
1549	 2.21240103861633E-02 
1550	 2.18012704334116E-02 
1551	 2.14062730557512E-02 
1552	 2.14481732528831E-02 
1553	 2.16358952133308E-02 
1554	 2.18205116233432E-02 
1555	 0.022446061027764 
1556	 2.29847117025753E-02 
1557	 0.022521004073781 
1558	 2.16676303994927E-02 
1559	 2.13025731236011E-02 
1560	 0.020918624732379 
1561	 2.08631626000988E-02 
1562	 2.12786436292485E-02 
1563	 2.19992500072527E-02 
1564	 2.26224759324697E-02 
1565	 2.29765258723247E-02 
1566	 2.36235875026142E-02 
1567	 2.37502345436442E-02 
1568	 2.34366875247951E-02 
1569	 2.29315115654789E-02 
1570	 2.26997488137161E-02 
1571	 2.31462693441072E-02 
1572	 0.02318060026691 
1573	 2.35898758867491E-02 
1574	 2.42340046085287E-02 
1575	 2.38975779478041E-02 
1576	 2.37324389600201E-02 
1577	 2.41281179022712E-02 
1578	 2.38997579775067E-02 
1579	 0.023303064278289 
1580	 2.28561012721436E-02 
1581	 2.23036674240927E-02 
1582	 2.25007180701536E-02 
1583	 2.31374436920666E-02 
1584	 2.30586034765757E-02 
1585	 2.24889980529724E-02 
1586	 2.26339933810356E-02 
1587	 2.33244104047898E-02 
1588	 2.32184630043236E-02 
1589	 2.34991508831716E-02 
1590	 2.36371042827509E-02 
1591	 2.27408816555714E-02 
1592	 0.022951410388898 
1593	 2.38431304084459E-02 
1594	 2.38005540695843E-02 
1595	 2.35577821805102E-02 
1596	 2.37700486872199E-02 
1597	 0.023689741837276 
1598	 2.29281240656624E-02 
1599	 2.24003705634899E-02 
1600	 2.29026434427024E-02 
1601	 2.33056694279602E-02 
1602	 2.33463074942667E-02 
1603	 2.36193113820891E-02 
1604	 2.36519398591202E-02 
1605	 2.38560206887065E-02 
1606	 2.37718816410677E-02 
1607	 2.32776501431001E-02 
1608	 2.31358649453416E-02 
1609	 2.29541185048306E-02 
1610	 0.023206046199709 
1611	 2.33537011051019E-02 
1612	 2.27760226574387E-02 
1613	 2.29118355035206E-02 
1614	 2.29166937239263E-02 
1615	 2.27785496466634E-02 
1616	 2.36463134266219E-02 
1617	 2.36664618746746E-02 
1618	 2.34498266832743E-02 
1619	 2.40068691763844E-02 
1620	 2.40125836388242E-02 
1621	 2.34864983865492E-02 
1622	 2.31109181553146E-02 
1623	 2.36785689769812E-02 
1624	 2.37415890136451E-02 
1625	 0.022762792752974 
1626	 2.28775951871565E-02 
1627	 2.32878469879284E-02 
1628	 2.33968427718401E-02 
1629	 2.38994073479537E-02 
1630	 2.40378373903847E-02 
1631	 2.33112841389317E-02 
1632	 2.28308536407137E-02 
1633	 2.34013323178045E-02 
1634	 2.34466341397909E-02 
1635	 2.34771270956993E-02 
1636	 2.41432073629682E-02 
1637	 2.41243591165866E-02 
1638	 2.41823780935957E-02 
1639	 2.40274660121428E-02 
1640	 2.28726578074956E-02 
1641	 2.26960729874766E-02 
1642	 2.35461664065379E-02 
1643	 2.37919407349842E-02 
1644	 0.023735487220467 
1645	 2.40561026615618E-02 
1646	 2.43771736920303E-02 
1647	 2.41360108968004E-02 
1648	 2.41376642056975E-02 
1649	 2.39750039818879E-02 
1650	 2.35700408600988E-02 
1651	 2.32921012246615E-02 
1652	 2.33435501257855E-02 
1653	 2.37606042928623E-02 
1654	 2.33915519037145E-02 
1655	 2.30788320024344E-02 
1656	 2.32915388672689E-02 
1657	 2.30290081058529E-02 
1658	 2.27816456977565E-02 
1659	 2.33678020407153E-02 
1660	 2.35475498000733E-02 
1661	 2.29560837402068E-02 
1662	 0.022690836138874 
1663	 0.02278605247793 
1664	 2.26688330257622E-02 
1665	 2.19905180237259E-02 
1666	 2.23900137814053E-02 
1667	 2.36062227181369E-02 
1668	 2.30566798166369E-02 
1669	 2.39567940896603E-02 
1670	 2.43611050210195E-02 
1671	 2.38878138847095E-02 
1672	 2.40786767506293E-02 
1673	 2.43230987079921E-02 
1674	 2.35352572965949E-02 
1675	 2.25728519847701E-02 
1676	 2.27712530789274E-02 
1677	 2.28039030640337E-02 
1678	 2.30142953262954E-02 
1679	 2.37775731772827E-02 
1680	 2.32910074784198E-02 
1681	 0.023087296542992 
1682	 2.33645556236708E-02 
1683	 2.31107910764273E-02 
1684	 2.37309893795356E-02 
1685	 2.39529601597687E-02 
1686	 2.28131139573252E-02 
1687	 2.26380852650113E-02 
1688	 2.33654068869913E-02 
1689	 2.36148316771761E-02 
1690	 2.44013135000448E-02 
1691	 2.45367082061307E-02 
1692	 2.33249822122636E-02 
1693	 2.33220827875751E-02 
1694	 2.42123327864193E-02 
1695	 2.48024261587627E-02 
1696	 2.44126405074347E-02 
1697	 0.023465974569098 
1698	 2.29165127880494E-02 
1699	 2.21920472604532E-02 
1700	 2.22187201803715E-02 
1701	 2.26460237857284E-02 
1702	 2.23883144923706E-02 
1703	 2.26971195035142E-02 
1704	 2.40573424390305E-02 
1705	 2.42191334027383E-02 
1706	 2.31845786804697E-02 
1707	 2.35294961447252E-02 
1708	 2.41456802490409E-02 
1709	 2.42887951605503E-02 
1710	 0.025340504708949 
1711	 2.51454601031511E-02 
1712	 2.32754023136308E-02 
1713	 2.38063949495653E-02 
1714	 2.35291122245488E-02 
1715	 2.24655344219625E-02 
1716	 2.32724403445701E-02 
1717	 2.27356563757463E-02 
1718	 2.20941122634563E-02 
1719	 2.29701299306904E-02 
1720	 2.41444494657572E-02 
1721	 2.45494865244097E-02 
1722	 2.50782667238387E-02 
1723	 0.025174286579515 
1724	 2.42491195458618E-02 
1725	 2.46159290146888E-02 
1726	 2.48389429557226E-02 
1727	 2.42155143503686E-02 
1728	 2.39226548847143E-02 
1729	 2.32111196338791E-02 
1730	 2.33197374565832E-02 
1731	 2.42048167568855E-02 
1732	 2.39844273385451E-02 
1733	 2.34659027792728E-02 
1734	 2.29867041767194E-02 
1735	 2.24995880779804E-02 
1736	 0.023678665377662 
1737	 2.44574389995938E-02 
1738	 2.32557254456712E-02 
1739	 2.35009501105147E-02 
1740	 0.024393890357569 
1741	 2.30729421512152E-02 
1742	 2.27039038371312E-02 
1743	 2.37032285561805E-02 
1744	 2.18862581726236E-02 
1745	 2.10952060845351E-02 
1746	 2.43096374663011E-02 
1747	 2.40521994375928E-02 
1748	 2.30682462093983E-02 
1749	 2.32215849191662E-02 
1750	 2.14410721521487E-02 
1751	 2.04695030436749E-02 
1752	 2.12224799436632E-02 
1753	 2.17448918872219E-02 
1754	 2.16240807393062E-02 
1755	 0.021835832780038 
1756	 2.29191908709102E-02 
1757	 2.07341769187007E-02 
1758	 0.021040216973101 
1759	 2.29707158507247E-02 
1760	 2.47450583254257E-02 
1761	 2.36252500274852E-02 
1762	 2.16817369684224E-02 
1763	 2.04339171182283E-02 
1764	 1.84814159745381E-02 
1765	 0.020864393866761 
1766	 2.39610737239579E-02 
1767	 2.31201942747067E-02 
1768	 2.43167222787435E-02 
1769	 2.50604754380758E-02 
1770	 2.14737458953291E-02 
1771	 0.020038265285972 
1772	 1.90676780824057E-02 
1773	 0.0193593993106 
1774	 2.58513925088049E-02 
1775	 0.024261265509971 
1776	 2.23239358035942E-02 
1777	 1.10215210974251E-02 
1778	 9.29220540700633E-03 
1779	 1.99198957861821E-02 
1780	 2.30217061058629E-02 
1781	 2.76237105752414E-02 
1782	 2.97754267784092E-02 
1783	 2.30928300635275E-02 
1784	 0.020887777437675 
1785	 2.24418227018309E-02 
1786	 2.20842975142336E-02 
1787	 2.02161262516549E-02 
1788	 2.11844791214681E-02 
1789	 2.55008569562312E-02 
1790	 2.28688318741991E-02 
1791	 2.25519832315151E-02 
1792	 1.95794787591686E-02 
1793	 1.58664621490452E-02 
1794	 3.05724933268399E-02 
1795	 2.62853784594339E-02 
1796	 6.60708301646302E-03 
1797	 0.012437125366654 
1798	 1.16309363922562E-02 
1799	 4.04506307208159E-02 
1800	 0.122365440719938 
1801	 0.143206333247014 
1802	 2.48205015237891E-02 
1803	-3.72020662379485E-03 
1804	-2.03600125713242E-02 
1805	-2.68239391657249E-02 
1806	 0.158622252070997 
1807	 0.235309494704686 
1808	 0.13332153162769 
1809	 7.20770957582738E-02 
1810	-0.221221094073878 
1811	-0.309038068180373 
1812	 0.142505515749108 
1813	 0.14107117356545 
1814	 0.104845235665844 
1815	 0.152611787226407 
1816	-0.399885503220945 
1817	 2.14607417408332 
1818	-7.36344441532288 
1819	-3.16422838535 
1820	 4.56563298190551 
1821	 4.52145627328111E-03 
1822	-0.11581865988467 
1823	 4.01068493400835E-02 
1824	 4.26745789770436E-02 
1825	 0.394272739197915 
1826	 1.6933817829814 
1827	-0.411677766935508 
1828	-0.608144895002859 
1829	-4.69797112221081 
1830	-8.26038546720899 
1831	 4.85573625921041 
1832	 1.73177964055102 
1833	 1.06535623562599 
1834	 0.874464054240941 
1835	 0.391138895640653 
1836	 0.219941003149223 
1837	-0.115178743407472 
1838	-0.27293775402724 
1839	-0.960935208317425 
1840	 2.27539280395122 
1841	 2.1909676216317 
1842	-4.95484275099775 
1843	-24.5414482446425 
1844	 1.86822570733068 
1845	 1.73095190608104 
1846	 1.23349741470586 
1847	 1.35671005461945 
1848	 2.42189152002261 
1849	-6.75180172615116 
1850	-1.25719532125816 
1851	-0.555745870350705 
1852	-0.527634748522311 
1853	-0.608828298052264 
1854	-0.364395311112067 
1855	-8.35230687790306E-02 
1856	 0.127480845830615 
1857	 0.796572383247633 
1858	 1.84084424623833 
1859	 9.12619463608208 
1860	-33.6431283624352 
1861	-9.46867931193695 
1862	-3.6825952143637 
1863	-1.40015030130724 
1864	-0.397802359957615 
1865	-1.18393913680884E-03 
1866	 0.497332184792378 
1867	 0.567185767374574 
1868	 0.273784742613999 
1869	 0.129373464035445 
1870	-0.250294682400935 
1871	-0.660968858615998 
1872	-0.350100886586844 
1873	 0.65134427157167 
1874	 6.29126138534611 
1875	-3.49328240492168 
1876	-2.08674887574015 
1877	 0.173056917123863 
1878	-1.39088884561442 
1879	 1.0283208249794 
1880	 1.08369784578173 
1881	 0.822913455232729 
1882	 0.484285464294313 
1883	 1.01422073069441 
1884	 1.31293948927634 
1885	 1.00840070645765 
1886	 1.94698163497675 
1887	 3.08649954643517 
1888	 4.53091823091869 
1889	 2.56243650320844 
1890	-0.782284573286363 
1891	-1.83568254773525 
1892	-2.7602528551164 
1893	-2.38113517065372 
1894	-1.16656914964355 
1895	-2.24539757081734 
1896	 6.81728611686546E-02 
1897	 8.54359121279169E-02 
1898	-0.2180817410505 
1899	 0.33207284840568 
1900	 0.639371622787733 
1901	-1.40337478711416 
1902	 0.697028336783048 
1903	 2.61274252227958 
1904	 0.614102985933838 
1905	 0.903707742879759 
1906	 1.85736265402953 
1907	 1.10603640501559 
1908	 0.577813375173818 
1909	-0.472355632906785 
1910	 3.25032816270984 
1911	 11.5264274421529 
1912	-1.92864807652751 
1913	-0.238856693498789 
1914	 1.58370990478479 
1915	 1.9708979175605 
1916	 2.43022878492774 
1917	 1.51165756055922 
1918	 16.9089567902918 
1919	 1.03790706285861 
1920	-19.8991912511961 
1921	-0.712686471645001 
1922	-0.492740783520086 
1923	-0.4237603530188 
1924	-0.466781663447282 
1925	-0.61559423206674 
1926	-0.70259251130999 
1927	-0.670748187235582 
1928	 0.179787595879691 
1929	-0.56881685506804 
1930	-0.464961343834749 
1931	-0.395136651341061 
1932	-1.90480451186227 
1933	 2.31024591255843 
1934	 1.19872111045652 
1935	 2.97892431803841 
1936	-25.6766597674023 
1937	 61.9935059700204 
1938	-5.16929853259111 
1939	-10.2504127437188 
1940	 3.3124073503392 
1941	 0.726181373164037 
1942	 0.432045838557575 
1943	 0.833479452256067 
1944	 1.24085343449032 
1945	 1.46742557456493 
1946	 0.264244249455998 
1947	-1.1529560577674 
1948	-1.73490644486315 
1949	-1.20957728903207 
1950	-0.910560817935616 
1951	-0.325396419371653 
1952	 0.173036558941589 
1953	 0.233154658764288 
1954	 0.682772812994157 
1955	 1.07744529803485 
1956	 0.662917137759486 
1957	 0.238247706987824 
1958	 0.149254364524975 
1959	 4.59140020861887E-02 
1960	-8.86151877555743E-03 
1961	 8.46514929482202E-02 
1962	 0.115146409077738 
1963	 0.128578447268001 
1964	 0.152418768066259 
1965	 8.79979348789605E-02 
1966	 2.97604911503329E-02 
1967	-4.59063321566457E-02 
1968	-0.103886692888631 
1969	-0.118255126421185 
1970	-8.29654419670165E-02 
1971	-0.028259344059025 
1972	 2.79860530692586E-02 
1973	 6.09044516490767E-02 
1974	 7.45109942183557E-02 
1975	 5.26310758163878E-02 
1976	 3.36743215827102E-02 
1977	 1.49841188991042E-02 
1978	-1.64698033546077E-02 
1979	-2.49501696579276E-02 
1980	-2.53805927763034E-02 
1981	-1.16529400927224E-02 
1982	 4.74921386528481E-03 
1983	 0.021776479525829 
1984	 3.41384133756363E-02 
1985	 3.72635901482097E-02 
1986	 4.97504232942479E-02 
1987	 4.54317680189952E-02 
1988	 3.59244116054872E-02 
1989	 3.88716223704604E-02 
1990	 2.70321117034699E-02 
1991	 2.42890743929096E-02 
1992	 2.42218152832272E-02 
1993	 2.22639861187472E-02 
1994	 1.91100056824605E-02 
1995	 1.28220754317054E-02 
1996	 3.94002090102127E-03 
1997	 1.88515713198492E-02 
1998	 1.90004620701122E-02 
1999	 7.7735727868495E-03 
2000	 1.99328692792635E-02 
2001	 5.78969406206467E-03 
2002	-1.31691255468845E-02 
2003	 1.40822867040821E-02 
2004	 4.37535679091291E-02 
2005	 4.49535431913597E-02 
2006	 7.62621794558293E-02 
2007	 8.15793580237859E-02 
2008	 5.04550082041134E-02 
2009	 3.43718474017159E-02 
2010	 1.33745660369256E-02 
2011	-4.09913828021683E-03 
2012	-3.67370812282857E-02 
2013	-1.54893507209708E-02 
2014	 1.44104686035752E-02 
2015	 3.68152873387975E-02 
2016	 6.88246157086088E-02 
2017	 6.44124721556296E-02 
2018	 4.75214198462189E-02 
2019	 4.79630038378603E-02 
2020	 3.86485815232989E-02 
2021	 0.042395708997013 
2022	 3.90788658391609E-02 
2023	 3.56147098210624E-02 
2024	 3.04181321619169E-02 
2025	 1.83632817882843E-02 
2026	 1.24234677556726E-02 
2027	 1.06987997943678E-02 
2028	 5.00672282114987E-03 
2029	 2.09127476975764E-03 
2030	 3.36631180985031E-03 
2031	-3.80300410360897E-04 
2032	 2.08522768621689E-03 
2033	 2.8532014051467E-03 
2034	 9.42167795568718E-03 
2035	 2.04824618683932E-02 
2036	 2.24734519159472E-02 
2037	 2.20107091149588E-02 
2038	 1.66107536486811E-02 
2039	 1.34068399459699E-02 
2040	 6.61984006753388E-03 
2041	 6.45286968212631E-03 
2042	 1.01498761389055E-02 
2043	 1.22825951499476E-02 
2044	 1.54729964908474E-02 
2045	 1.99621360411129E-02 
2046	 2.57031068584687E-02 
2047	 2.82742757876515E-02 
2048	 0.036334932431441 
2049	 3.81916420666904E-02 
2050	 0.03051570131728 
2051	 3.52731191651719E-02 
2052	 3.40345064819333E-02 
2053	 3.18331021870051E-02 
2054	 0.042611996613821 
2055	 4.49739637347755E-02 
2056	 4.21789832086561E-02 
2057	 3.78665005929524E-02 
2058	 3.09852349318119E-02 
2059	 8.37267684776861E-03 
2060	 2.61910175544114E-03 
2061	 4.64585063072542E-03 
2062	 0.010667024199441 
2063	 1.41376482758163E-02 
2064	 2.24351118768871E-02 
2065	 3.22721922174835E-02 
2066	 0.031316672556116 
2067	 2.70522488077537E-02 
2068	 3.14050538289343E-02 
2069	 3.54952320007221E-02 
2070	 3.84854234878777E-02 
2071	 4.42492069969879E-02 
2072	 4.71973535268065E-02 
2073	 4.75387365317538E-02 
2074	 4.25482267234724E-02 
2075	 3.89259434153099E-02 
2076	 3.47758694503774E-02 
2077	 3.21188855560621E-02 
2078	 2.76404913140098E-02 
2079	 2.57246057259743E-02 
2080	 2.87135662130679E-02 
2081	 2.57421935389218E-02 
2082	 2.00937555200588E-02 
2083	 1.69415627303869E-02 
2084	 1.43079092657582E-02 
2085	 1.97784693652638E-02 
2086	 2.22449031103093E-02 
2087	 2.30724882003821E-02 
2088	 2.88696350120962E-02 
2089	 2.98456205291104E-02 
2090	 0.030555063100435 
2091	 3.29613575592899E-02 
2092	 3.19243357234869E-02 
2093	 0.024317623812793 
2094	 0.020111376207085 
2095	 1.42234561302861E-02 
2096	 1.49000804261489E-02 
2097	 2.11540191561771E-02 
2098	 2.16276050837865E-02 
2099	 2.45000451818276E-02 
2100	 2.51348993964539E-02 
2101	 1.83373125899383E-02 
2102	 1.69065792117895E-02 
2103	 1.71216697847332E-02 
2104	 0.01771651956501 
2105	 1.82024885697145E-02 
2106	 0.014417219333476 
2107	 1.43512584729555E-02 
2108	 1.68815817455877E-02 
2109	 2.05136485172303E-02 
2110	 2.21853203375464E-02 
2111	 2.21440517328766E-02 
2112	 2.63573768543059E-02 
2113	 2.99603102783117E-02 
2114	 3.70401576426594E-02 
2115	 3.88608766142531E-02 
2116	 3.87305523573107E-02 
2117	 3.66886999483805E-02 
2118	 2.73515149729549E-02 
2119	 2.33977653182893E-02 
2120	 2.16739255887485E-02 
2121	 2.17153816342369E-02 
2122	 1.72257955991157E-02 
2123	 1.84116764048214E-02 
2124	 2.23053927497674E-02 
2125	 2.46949056871171E-02 
2126	 2.50933100430879E-02 
2127	 2.55259979338963E-02 
2128	 2.41764462860331E-02 
2129	 1.88756772786251E-02 
2130	 1.89023024672464E-02 
2131	 2.03345202266303E-02 
2132	 1.85003407103433E-02 
2133	 1.76830240006391E-02 
2134	 1.89235084877759E-02 
2135	 2.27669470773842E-02 
2136	 2.40971130983288E-02 
2137	 2.65672219960779E-02 
2138	 2.72858709942838E-02 
2139	 2.57898310954274E-02 
2140	 2.46161819484937E-02 
2141	 2.42839410118784E-02 
2142	 2.24980011520497E-02 
2143	 1.85784865789359E-02 
2144	 1.40174792288352E-02 
2145	 1.66444406105176E-02 
2146	 1.61383966070481E-02 
2147	 1.73881736450073E-02 
2148	 2.50250581810218E-02 
2149	 2.73557904247785E-02 
2150	 2.77839993113948E-02 
2151	 2.62362767795599E-02 
2152	 2.23551279900336E-02 
2153	 2.01968605750938E-02 
2154	 1.52391538433302E-02 
2155	 1.43056588723524E-02 
2156	 1.84081292738053E-02 
2157	 2.01572742958456E-02 
2158	 2.42866870179114E-02 
2159	 2.34674144859697E-02 
2160	 1.69665232856152E-02 
2161	 1.53214563029957E-02 
2162	 1.34246646981309E-02 
2163	 1.29367149785405E-02 
2164	 1.79641526196662E-02 
2165	 2.02085422698037E-02 
2166	 1.90630768982405E-02 
2167	 1.90245370601166E-02 
2168	 2.04633342287875E-02 
2169	 2.07842788841339E-02 
2170	 2.13357575836822E-02 
2171	 1.86482025367704E-02 
2172	 1.88831731155351E-02 
2173	 2.08971052296859E-02 
2174	 2.29808576438583E-02 
2175	 2.84634417999186E-02 
2176	 3.06946905610985E-02 
2177	 2.82506406164434E-02 
2178	 2.48416677752654E-02 
2179	 1.89299557533155E-02 
2180	 0.011232208153808 
2181	 7.80340728634112E-03 
2182	 6.79162932303838E-03 
2183	 0.00523354200788 
2184	 8.95327210755557E-03 
2185	 1.41305875038627E-02 
2186	 1.54127715050732E-02 
2187	 1.39648000752114E-02 
2188	 1.59376916934821E-02 
2189	 1.64779243721448E-02 
2190	 0.017882797477163 
2191	 2.31894087808979E-02 
2192	 2.57796193308286E-02 
2193	 2.46655795764431E-02 
2194	 2.68284039667032E-02 
2195	 3.29490288993521E-02 
2196	 3.25077234230022E-02 
2197	 3.03794950169992E-02 
2198	 3.02056376906134E-02 
2199	 2.55386979747085E-02 
2200	 2.21905217762556E-02 
2201	 2.71633786963507E-02 
2202	 2.74346290340701E-02 
2203	 2.73775266961727E-02 
2204	 2.92121993510679E-02 
2205	 3.22498273314022E-02 
2206	 3.13791029053681E-02 
2207	 2.22359155949844E-02 
2208	 1.55005444606934E-02 
2209	 1.03275286922382E-02 
2210	 8.34422070384598E-03 
2211	 1.05088231138703E-02 
2212	 1.27346633400805E-02 
2213	 2.19548745106413E-02 
2214	 2.63749925389152E-02 
2215	 2.83486083054774E-02 
2216	 3.35775730844349E-02 
2217	 3.28325721793962E-02 
2218	 2.21019087053548E-02 
2219	 1.92787594354065E-02 
2220	 1.80102390727919E-02 
2221	 1.78973935641605E-02 
2222	 2.06949815158894E-02 
2223	 1.97888845461885E-02 
2224	 2.20441224577932E-02 
2225	 1.90074165050638E-02 
2226	 3.62012848331465E-03 
2227	 1.98011801982285E-03 
2228	 6.49306476941412E-03 
2229	 6.72297087290534E-03 
2230	 1.28697604551282E-02 
2231	 0.019470586676222 
2232	 2.58550550532961E-02 
2233	 2.73655979773627E-02 
2234	 2.74789472254008E-02 
2235	 3.23286729764366E-02 
2236	 0.029812016045153 
2237	 2.35271341212059E-02 
2238	 0.027069578682829 
2239	 2.89982525149994E-02 
2240	 2.40620386587079E-02 
2241	 1.70370595484275E-02 
2242	 1.78402104090697E-02 
2243	 1.94235789132092E-02 
2244	 1.70729604227032E-02 
2245	 2.54544036133455E-02 
2246	 2.78826738288819E-02 
2247	 2.70085745802139E-02 
2248	 3.39379896586891E-02 
2249	 3.57415401896527E-02 
2250	 2.92897348514507E-02 
2251	 2.80895396866524E-02 
2252	 3.23674564594542E-02 
2253	 2.84389007441642E-02 
2254	 3.04172408757184E-02 
2255	 3.81477946799757E-02 
2256	 3.31797113441928E-02 
2257	 2.71279112832524E-02 
2258	 2.98868539172329E-02 
2259	 2.19064073181591E-02 
2260	 1.70605577295379E-02 
2261	 0.017039269620605 
2262	 1.71812717280576E-02 
2263	 1.35984964493731E-02 
2264	 1.13334187840019E-02 
2265	 1.31935544754952E-02 
2266	 1.42317076646997E-02 
2267	 1.24011012613963E-02 
2268	 1.43568967462321E-02 
2269	 1.79017338177812E-02 
2270	 1.82971929679912E-02 
2271	 1.73390685418064E-02 
2272	 2.38396961899888E-02 
2273	 3.82477677744721E-02 
2274	 4.47709778083068E-02 
2275	 5.29742594667963E-02 
2276	 0.051420666217944 
2277	 3.54943226054649E-02 
2278	 3.12007680015141E-02 
2279	 2.77191848934667E-02 
2280	 2.90874842471855E-02 
2281	 4.05754076477509E-02 
2282	 4.42202512128734E-02 
2283	 4.78774391214833E-02 
2284	 4.80467342472058E-02 
2285	 3.39477654836393E-02 
2286	 1.77313916908155E-02 
2287	 5.97489708456898E-03 
2288	 2.73936293957779E-03 
2289	 1.95556015029917E-02 
2290	 3.26464855888587E-02 
2291	 3.95024053395908E-02 
2292	 3.92666414406252E-02 
2293	 1.19819075811078E-02 
2294	-0.014003551080356 
2295	-2.40783644379092E-02 
2296	-3.29416180874487E-02 
2297	-3.75721454731301E-02 
2298	-2.15414912793772E-02 
2299	-1.50266782439583E-02 
2300	-1.53849590397468E-02 
2301	 1.87483711155211E-02 
2302	 4.65025119522464E-02 
2303	 5.52987198067152E-02 
2304	 5.74836436521993E-02 
2305	 3.65110052176682E-02 
2306	 1.90353197933628E-02 
2307	 2.36769556499466E-02 
2308	 1.86453945879783E-02 
2309	 2.05208650040897E-02 
2310	 0.020099792194465 
2311	-4.16424569602581E-03 
2312	-4.75287445964485E-03 
2313	 0.019049928177048 
2314	 4.13231777925757E-02 
2315	 7.36182144412472E-02 
2316	 8.61273299638647E-02 
2317	 0.065311034244468 
2318	 3.52139741617346E-02 
2319	 7.48458013342178E-03 
2320	-7.34424943580235E-03 
2321	-1.56377775049011E-02 
2322	-2.61629137973443E-02 
2323	-4.87931679550605E-02 
2324	-5.68098067770991E-02 
2325	-4.82129124207635E-02 
2326	-3.77288739667413E-02 
2327	-5.74152324343726E-04 
2328	 2.06294224696484E-02 
2329	 0.024807134551549 
2330	 0.050936233744249 
2331	 7.63772165573042E-02 
2332	 9.91896596398802E-02 
2333	 0.101703392859079 
2334	 8.03455661532207E-02 
2335	 0.054727310131471 
2336	 1.04403306786077E-02 
2337	-1.79134167024642E-02 
2338	-5.60011666786278E-02 
2339	-0.077534403499777 
2340	-4.79116310808036E-02 
2341	-4.81953660853668E-02 
2342	-2.67138472492766E-02 
2343	-9.82209974321047E-03 
2344	-7.17779405725294E-03 
2345	 3.10964778077165E-02 
2346	-5.20407653341197E-03 
2347	-1.74038222839424E-02 
2348	-2.23798087952683E-02 
2349	-0.105846850865235 
2350	-8.07101403044874E-02 
2351	-2.07181285998096E-02 
2352	-1.16834154256181E-02 
2353	 4.85246513632067E-02 
2354	 5.04823393768047E-02 
2355	 3.31507632687115E-02 
2356	 6.40111556110718E-02 
2357	 3.69108874384936E-02 
2358	 3.48230950741536E-02 
2359	 0.13576421493964 
2360	 0.186282367202931 
2361	 0.176310731998645 
2362	 0.261339983821064 
2363	 0.308868050633762 
2364	 0.2048801891528 
2365	 0.204522807095847 
2366	 0.183951290488961 
2367	 0.101113397877356 
2368	 0.129457440929174 
2369	 0.14274933538288 
2370	 0.186603804079806 
2371	 0.251665642046729 
2372	 0.220612744753324 
2373	 0.295774560883398 
2374	 0.487754878322785 
2375	 0.490424871059661 
2376	 0.50121029448064 
2377	 0.45052771959252 
2378	 0.162339327614865 
2379	 1.17873602105795E-02 
2380	-0.125886332732304 
2381	-0.270349683303996 
2382	-0.186995962434205 
2383	-0.148081845784595 
2384	 0.050771163277792 
2385	 0.196560424591246 
2386	 0.291822848336532 
2387	 0.642491515541367 
2388	 0.919155207984593 
2389	 0.828531949151565 
2390	 0.578393984416467 
2391	 0.443100498715769 
2392	 0.152949357953508 
2393	 1.70078396335304E-02 
2394	 0.135617176130174 
2395	 8.06570361649752E-02 
2396	 0.109294932981145 
2397	 0.104303942666714 
2398	-0.199408965066333 
2399	-0.503658275481802 
2400	-1.12145661290804 
2401	-0.784421910124238 
2402	-8.77357633841978E-02 
2403	 0.129169373656087 
2404	 0.33610367413718 
2405	 0.474803994311535 
2406	 0.377295554445183 
2407	 0.348648823303986 
2408	 0.153996300200445 
2409	-0.741451482929065 
2410	-4.93389174151832 
2411	-0.87771463679707 
2412	-0.283348376303363 
2413	 0.230096441947678 
2414	 0.528498575836173 
2415	 0.177802984004777 
2416	-5.39765713262705E-02 
2417	-0.122685568211645 
2418	-0.248568208444241 
2419	 0.300924148661167 
2420	 1.85758914042193 
2421	 0.386033802304243 
2422	 0.601846780237289 
2423	 0.949949368816476 
2424	 4.87753756082925 
2425	 11.4926435545321 
2426	 88.1586284697355 
2427	-4.04222731662865 
2428	-17.6822569846556 
2429	 2.6394945960187 
2430	 3.55756400265237 
2431	 2.78634432974992 
2432	 2.5717234227013 
2433	-48.114042983512 
2434	-1.48767679629896 
2435	-0.369703059815036 
2436	 0.245457284915245 
2437	 0.265079313931124 
2438	 0.339239275847757 
2439	 1.60094968751082 
2440	 1.28232617424006 
2441	 0.436029057018281 
2442	 0.717067013834973 
2443	 0.321013468859936 
2444	-3.21160207866055E-02 
2445	-0.127229006533122 
2446	-0.193014373144085 
2447	-5.50540401219347E-02 
2448	 1.70685345709347E-02 
2449	 0.293698978358151 
2450	 0.431507682683306 
2451	 7.33100500885094E-02 
2452	 0.273633465593983 
2453	 0.347439593631063 
2454	 1.11799401563923 
2455	 0.102137477970535 
2456	-0.200002861772364 
2457	-0.346397972916184 
2458	-0.300891910719413 
2459	-0.233361660283863 
2460	-0.507681760171901 
2461	-0.994013670380194 
2462	-1.79724148501719 
2463	-3.70609442239687 
2464	-3.62163869415363 
2465	-0.351325227299114 
2466	 0.331440933290736 
2467	-0.663191662880645 
2468	-0.938505939032158 
2469	-0.728747509460514 
2470	-0.41958690069472 
2471	-4.41801188702609E-02 
2472	 0.16199705262041 
2473	-0.275878576339963 
2474	-0.710807025402631 
2475	-1.75503033962408 
2476	-3.17636889819596 
2477	-7.98385876216975 
2478	 4.07326099825586 
2479	 2.17744623772823 
2480	 6.56351447243946 
2481	-2.16194348349979 
2482	-0.937764475325114 
2483	-6.97717634917546E-02 
2484	-0.442828811619429 
2485	-0.529448827439563 
2486	 0.51693733677453 
2487	 0.720210244185055 
2488	 0.873949294195653 
2489	 0.871724913309559 
2490	 0.266955675736391 
2491	 0.153546335283225 
2492	 0.450754294782143 
2493	 0.994974511639778 
2494	 1.63537238574465 
2495	 1.76279247132262 
2496	 1.50931473362966 
2497	 0.327603155592175 
2498	 0.197966406624734 
2499	 0.100762842467936 
2500	 0.326098518201752 
