Wavelength	rt0704rt200002.asd
350	 5.40724695082348E-02 
351	 5.45339498498125E-02 
352	 5.50953304548979E-02 
353	 5.54014474950118E-02 
354	 0.05549290439801 
355	 5.62851882108553E-02 
356	 5.63745180788175E-02 
357	 5.65600488911481E-02 
358	 5.77474538694355E-02 
359	 5.82498246207873E-02 
360	 5.85048842666571E-02 
361	 5.88491545390609E-02 
362	 5.94408670741097E-02 
363	 5.99077625738659E-02 
364	 6.02655314262039E-02 
365	 6.06731006958504E-02 
366	 0.061432047473474 
367	 6.18825705813871E-02 
368	 6.19963027850412E-02 
369	 6.20879374344049E-02 
370	 6.30172588714227E-02 
371	 6.37119855004098E-02 
372	 6.40732775015521E-02 
373	 6.45906812320444E-02 
374	 6.52731416271367E-02 
375	 6.55472998392382E-02 
376	 6.56659038944827E-02 
377	 6.70304822065838E-02 
378	 6.75388650034443E-02 
379	 6.75000181573712E-02 
380	 6.76716324289949E-02 
381	 0.06825263059547 
382	 6.86130290256129E-02 
383	 6.89402328471431E-02 
384	 6.96375299186155E-02 
385	 6.95824525200454E-02 
386	 6.95041323139097E-02 
387	 6.98587724669947E-02 
388	 0.070575252053663 
389	 7.06077849786106E-02 
390	 7.06415689892726E-02 
391	 7.10957705859468E-02 
392	 7.08308905023625E-02 
393	 7.08417127045811E-02 
394	 7.10664120372613E-02 
395	 7.10793005248241E-02 
396	 7.08075931737966E-02 
397	 7.07919916273053E-02 
398	 7.09497204756283E-02 
399	 7.06868081722833E-02 
400	 7.05434886089363E-02 
401	 7.03314993861826E-02 
402	 6.99930626848181E-02 
403	 7.00459266201851E-02 
404	 6.99696097418399E-02 
405	 6.96443254499428E-02 
406	 6.91815429312021E-02 
407	 6.90604728076537E-02 
408	 6.87567007740616E-02 
409	 6.82368382588624E-02 
410	 6.79847741659139E-02 
411	 0.067724905222236 
412	 6.73952442383298E-02 
413	 6.70118852470742E-02 
414	 6.66853592394971E-02 
415	 6.63223337443073E-02 
416	 6.59398098923318E-02 
417	 0.065583356478829 
418	 6.51408757406601E-02 
419	 0.064983398461862 
420	 6.50363092655624E-02 
421	 6.47364622139577E-02 
422	 6.43314981739824E-02 
423	 6.40715893112741E-02 
424	 6.40627904668427E-02 
425	 6.40177482719971E-02 
426	 6.39661381037033E-02 
427	 6.39706465653844E-02 
428	 6.40736524574135E-02 
429	 6.40190580801576E-02 
430	 0.063949269522224 
431	 6.39706849370931E-02 
432	 6.40967728255961E-02 
433	 0.06419962240381 
434	 6.43438487476154E-02 
435	 6.45670266935958E-02 
436	 6.47131840600876E-02 
437	 6.46900473092749E-02 
438	 6.46118708409035E-02 
439	 6.46823287879906E-02 
440	 6.47771540075488E-02 
441	 6.48361407185225E-02 
442	 6.48463507805034E-02 
443	 6.48517373119347E-02 
444	 6.48978390707233E-02 
445	 6.48871350278136E-02 
446	 6.47675836863775E-02 
447	 6.48209415666873E-02 
448	 6.48876883385644E-02 
449	 6.48231618558389E-02 
450	 6.45464555750774E-02 
451	 6.45259660256786E-02 
452	 6.44967364125257E-02 
453	 6.42941770205607E-02 
454	 6.41917449181666E-02 
455	 6.40098152591918E-02 
456	 6.37262913623429E-02 
457	 6.34014924923439E-02 
458	 6.32008553756125E-02 
459	 6.29917364263207E-02 
460	 6.27573056995443E-02 
461	 0.0626038786841 
462	 6.23045058206403E-02 
463	 6.19836587540849E-02 
464	 6.17641397038301E-02 
465	 6.15682878037605E-02 
466	 6.13533875738072E-02 
467	 6.11647403459176E-02 
468	 6.10554699726343E-02 
469	 6.07629880441877E-02 
470	 0.060577852679861 
471	 6.05361920123278E-02 
472	 6.02722181313156E-02 
473	 5.99570399933976E-02 
474	 5.98842202121831E-02 
475	 6.01272772887964E-02 
476	 5.98670052606728E-02 
477	 0.059744739649229 
478	 5.98289991092318E-02 
479	 5.97953651967592E-02 
480	 5.97529030730063E-02 
481	 5.97270926333884E-02 
482	 5.97407145263845E-02 
483	 5.98420496283519E-02 
484	 5.97963114574025E-02 
485	 5.97695865701837E-02 
486	 5.99747274755194E-02 
487	 5.99959905723609E-02 
488	 6.00520682150874E-02 
489	 6.02487038188698E-02 
490	 6.05402816508384E-02 
491	 6.06985164566645E-02 
492	 6.08561533840353E-02 
493	 6.11231565323272E-02 
494	 6.13315385793938E-02 
495	 6.16422132382461E-02 
496	 6.19928370971501E-02 
497	 0.062232323217319 
498	 6.24911395705847E-02 
499	 6.28045119808334E-02 
500	 0.063185108144614 
501	 6.36342635174608E-02 
502	 6.38611237277143E-02 
503	 6.40316893026056E-02 
504	 6.43665164718698E-02 
505	 6.47009678477266E-02 
506	 6.50429379799991E-02 
507	 6.53717655599383E-02 
508	 6.56554023840311E-02 
509	 6.60770423075545E-02 
510	 6.65598092013043E-02 
511	 6.69923799378968E-02 
512	 0.067270041273219 
513	 6.76380377688069E-02 
514	 6.80920592055664E-02 
515	 6.85231716616403E-02 
516	 0.068977584089427 
517	 6.94472814376497E-02 
518	 6.99251725169948E-02 
519	 7.04112134974984E-02 
520	 7.10325092013337E-02 
521	 7.16574731742863E-02 
522	 7.21990573207764E-02 
523	 7.29110690142557E-02 
524	 7.37312301091142E-02 
525	 7.46109393483015E-02 
526	 7.55160384409124E-02 
527	 7.64222966623185E-02 
528	 7.74581515980397E-02 
529	 7.86560634719943E-02 
530	 0.079821097854989 
531	 8.11643549008983E-02 
532	 8.26414950044903E-02 
533	 8.41170127515696E-02 
534	 8.55625276412123E-02 
535	 8.71261717243681E-02 
536	 8.88385428256151E-02 
537	 9.05805033085357E-02 
538	 9.24796589808744E-02 
539	 9.44372481830787E-02 
540	 9.63519459203308E-02 
541	 9.82954582831551E-02 
542	 0.100307991206267 
543	 0.102326899468973 
544	 0.104254659247389 
545	 0.106273027711698 
546	 0.108314183507907 
547	 0.110296908799854 
548	 0.112188787209288 
549	 0.114004927342891 
550	 0.115794750845059 
551	 0.117594436769304 
552	 0.119258098013819 
553	 0.120916569231033 
554	 0.122607088493526 
555	 0.12423346502329 
556	 0.12577286810361 
557	 0.12738781948039 
558	 0.129152709375937 
559	 0.130767369796456 
560	 0.132408083264717 
561	 0.134118900751942 
562	 0.135857781534216 
563	 0.13749216248535 
564	 0.139098944987615 
565	 0.140697012185206 
566	 0.142140160557424 
567	 0.143480599557183 
568	 0.144787943381622 
569	 0.146093456792875 
570	 0.147192248922866 
571	 0.148187959861819 
572	 0.149118674262545 
573	 0.149927204930555 
574	 0.150724072755167 
575	 0.151475810752073 
576	 0.152149436553388 
577	 0.152861954510585 
578	 0.153397978656408 
579	 0.153819577801825 
580	 0.154331703835718 
581	 0.154693607649394 
582	 0.154997756373597 
583	 0.15528637084774 
584	 0.155443320683605 
585	 0.155365946666902 
586	 0.15512560394248 
587	 0.154849061334723 
588	 0.154500802266512 
589	 0.154331205985711 
590	 0.154331530901117 
591	 0.154196787198799 
592	 0.154187671596457 
593	 0.154177413021159 
594	 0.15402106163467 
595	 0.153732475309165 
596	 0.153535317856058 
597	 0.153300752707715 
598	 0.152765603906138 
599	 0.152410859984998 
600	 0.152110626259625 
601	 0.151799092705239 
602	 0.151642909873703 
603	 0.15150967372827 
604	 0.151350123874561 
605	 0.151186465972421 
606	 0.151267716315244 
607	 0.151251101590151 
608	 0.151074887531671 
609	 0.150992229966553 
610	 0.150906504938669 
611	 0.150775314619624 
612	 0.150588669464091 
613	 0.150405561327104 
614	 0.150194041565833 
615	 0.150013476217317 
616	 0.149943103387411 
617	 0.149743185733603 
618	 0.149558630720212 
619	 0.149429723483556 
620	 0.149157465049955 
621	 0.148980509708604 
622	 0.148855301215541 
623	 0.148681898183422 
624	 0.148579434337691 
625	 0.148370010073876 
626	 0.148120371978083 
627	 0.148121087257559 
628	 0.147933647631216 
629	 0.147900469054805 
630	 0.14817762266226 
631	 0.14807363492321 
632	 0.147828935910907 
633	 0.147570646114904 
634	 0.147333006790711 
635	 0.146793122015359 
636	 0.146195962971786 
637	 0.145581126694407 
638	 0.144599414162018 
639	 0.143822172938805 
640	 0.142975970271276 
641	 0.141744704147315 
642	 0.140675749710412 
643	 0.139459680819987 
644	 0.138017403599481 
645	 0.136470675715655 
646	 0.134609417235476 
647	 0.132887782541641 
648	 0.131639373350202 
649	 0.130483616475938 
650	 0.129352524576099 
651	 0.128444887053055 
652	 0.12805047928425 
653	 0.127871688180111 
654	 0.127762336141225 
655	 0.127662115015947 
656	 0.127608089473228 
657	 0.127428527518666 
658	 0.127128350954428 
659	 0.126715792018687 
660	 0.126158907990299 
661	 0.125187865409368 
662	 0.123851987863132 
663	 0.122426015463608 
664	 0.120938193362818 
665	 0.119455495031824 
666	 0.117995747119589 
667	 0.11653628264714 
668	 0.115107636997255 
669	 0.113813804844908 
670	 0.112773819221332 
671	 0.112017200483715 
672	 0.111370596991434 
673	 0.110876894048596 
674	 0.110777816534965 
675	 0.110834649750389 
676	 0.11115184024523 
677	 0.11186636800009 
678	 0.113053292708279 
679	 0.114457120737987 
680	 0.116229511453851 
681	 0.118645795569214 
682	 0.121391571606845 
683	 0.124598999477536 
684	 0.128211611654389 
685	 0.132261484250718 
686	 0.137157871952568 
687	 0.14200715524975 
688	 0.14577427138607 
689	 0.149722053980047 
690	 0.153272778542687 
691	 0.156381110290726 
692	 0.159284331079732 
693	 0.162021259229066 
694	 0.164445709417338 
695	 0.166344943432803 
696	 0.167664314552898 
697	 0.168513844442517 
698	 0.169068261896113 
699	 0.169410492242645 
700	 0.169509842765867 
701	 0.169540696005812 
702	 0.169441516441802 
703	 0.1689764701143 
704	 0.168347980430994 
705	 0.167400912554903 
706	 0.166164332983653 
707	 0.165108117471397 
708	 0.163734099952499 
709	 0.162063659353525 
710	 0.160288364786089 
711	 0.158337097705519 
712	 0.15615031741237 
713	 0.153778913506307 
714	 0.151324636186504 
715	 0.148686094605917 
716	 0.145621680264779 
717	 0.142347469947205 
718	 0.13947236706022 
719	 0.13696075518815 
720	 0.135041723735381 
721	 0.133315325345358 
722	 0.131116582657 
723	 0.128322180812334 
724	 0.125475479977152 
725	 0.122974483490272 
726	 0.120450100931715 
727	 0.117960547673265 
728	 0.115512370811872 
729	 0.112540440568477 
730	 0.10984284854105 
731	 0.107615397823812 
732	 0.105542380962786 
733	 0.10386881820361 
734	 0.102307649496842 
735	 0.100860878455217 
736	 9.98969669932491E-02 
737	 9.91012080818689E-02 
738	 9.84220901454076E-02 
739	 9.79056388430676E-02 
740	 9.76676628968225E-02 
741	 9.74008014525385E-02 
742	 9.71958886229203E-02 
743	 9.72656892086421E-02 
744	 9.70526907801994E-02 
745	 9.69245413209776E-02 
746	 9.69131029188406E-02 
747	 9.64847854750585E-02 
748	 9.64170990504991E-02 
749	 9.64720315800149E-02 
750	 9.63216032113743E-02 
751	 9.62607450535429E-02 
752	 9.60582449555145E-02 
753	 9.58620114171454E-02 
754	 9.59300413678604E-02 
755	 9.55981754217461E-02 
756	 9.53604354797963E-02 
757	 9.53554460900766E-02 
758	 9.49835095139799E-02 
759	 9.45098261276807E-02 
760	 9.38427383034935E-02 
761	 0.093275212541732 
762	 9.31125437261557E-02 
763	 9.31176508226108E-02 
764	 9.34244495795344E-02 
765	 9.40876660398491E-02 
766	 9.46629945943726E-02 
767	 9.49962435312612E-02 
768	 9.51638207752785E-02 
769	 9.54023735522501E-02 
770	 9.54606853220377E-02 
771	 9.55318496363649E-02 
772	 9.57472353969956E-02 
773	 9.58338330425673E-02 
774	 9.59333863430589E-02 
775	 9.61206561484776E-02 
776	 9.63956107955389E-02 
777	 9.64658466694885E-02 
778	 9.67447778350727E-02 
779	 9.72147713699281E-02 
780	 9.73981124762436E-02 
781	 9.74770065273762E-02 
782	 9.77121755305859E-02 
783	 9.81392747368702E-02 
784	 9.82391389439832E-02 
785	 9.84554845679442E-02 
786	 9.87465832393099E-02 
787	 9.89533416504032E-02 
788	 9.92984855268093E-02 
789	 9.96820533397471E-02 
790	 0.100056133865094 
791	 0.100456494735955 
792	 0.101125092830141 
793	 0.101610659780378 
794	 0.101772471753031 
795	 0.102086574964129 
796	 0.102248154059497 
797	 0.102458355702277 
798	 0.102909586370384 
799	 0.103261250364411 
800	 0.103634903848829 
801	 0.103980294294978 
802	 0.104201445234286 
803	 0.10459274698888 
804	 0.104728863984333 
805	 0.104623438813574 
806	 0.104778945238855 
807	 0.104736062662799 
808	 0.10457719411213 
809	 0.104350866026873 
810	 0.103691986378592 
811	 0.103179539083639 
812	 0.102589117623487 
813	 0.101511653568959 
814	 0.100942698933047 
815	 0.100096022191639 
816	 9.94516030892238E-02 
817	 0.100123832934306 
818	 9.93596026824121E-02 
819	 9.85409996769924E-02 
820	 9.80974517856864E-02 
821	 0.096920391113168 
822	 9.57539591993576E-02 
823	 9.45368047779259E-02 
824	 9.31973473621794E-02 
825	 9.19769703682654E-02 
826	 9.04409072795572E-02 
827	 0.088535667156765 
828	 8.66251800313102E-02 
829	 8.53934479362415E-02 
830	 8.41606948810634E-02 
831	 8.28482827676486E-02 
832	 8.18914839877846E-02 
833	 8.11536566275104E-02 
834	 8.07997665056375E-02 
835	 8.05985546167116E-02 
836	 7.98469895494607E-02 
837	 0.079431800732288 
838	 7.93728982045698E-02 
839	 7.93746708052388E-02 
840	 7.88377668256695E-02 
841	 7.84680564097622E-02 
842	 7.83570950447209E-02 
843	 7.82930737476558E-02 
844	 0.077817868794801 
845	 7.76316358371993E-02 
846	 7.76062700134463E-02 
847	 0.077111720940379 
848	 7.66734586390048E-02 
849	 7.64154728606829E-02 
850	 7.62464620082762E-02 
851	 7.58794068258632E-02 
852	 7.56936913603194E-02 
853	 0.075500319974361 
854	 0.075183023893685 
855	 0.07502768983292 
856	 7.46994552612995E-02 
857	 7.43450068875791E-02 
858	 7.42038197859062E-02 
859	 7.44069397281159E-02 
860	 7.41917239255291E-02 
861	 7.36566806647184E-02 
862	 7.33427528926015E-02 
863	 7.34254502509488E-02 
864	 0.073354916755636 
865	 7.30522887850008E-02 
866	 7.28866268723044E-02 
867	 7.25120029655034E-02 
868	 7.23191017737773E-02 
869	 7.22072048126657E-02 
870	 7.13845366783891E-02 
871	 7.12706577658273E-02 
872	 7.12146856733706E-02 
873	 7.07104531531063E-02 
874	 7.06170126611477E-02 
875	 7.04511941196644E-02 
876	 6.99424674562534E-02 
877	 6.92104439175982E-02 
878	 6.95027412301888E-02 
879	 6.94606265704557E-02 
880	 6.88107745959194E-02 
881	 6.80054275088451E-02 
882	 6.79981304605954E-02 
883	 6.78228080872063E-02 
884	 6.72665723019616E-02 
885	 6.68063100542336E-02 
886	 6.67962463491994E-02 
887	 6.65161147653986E-02 
888	 6.59313192353599E-02 
889	 6.58750077334958E-02 
890	 6.59466785482861E-02 
891	 6.56126975049629E-02 
892	 0.064682795818402 
893	 6.37223094473981E-02 
894	 6.32760847441148E-02 
895	 0.063242195984083 
896	 6.31088512685537E-02 
897	 0.062013442089124 
898	 6.15782397335063E-02 
899	 6.14367496355003E-02 
900	 6.09157775494295E-02 
901	 6.12306608447042E-02 
902	 6.11708648914444E-02 
903	 6.06015116573783E-02 
904	 5.99390314190803E-02 
905	 6.01547417200815E-02 
906	 0.05945743533528 
907	 5.84217247007426E-02 
908	 5.90687941828654E-02 
909	 5.86749646147667E-02 
910	 0.057672505082912 
911	 5.67164631036399E-02 
912	 5.62288378508759E-02 
913	 5.54483013957739E-02 
914	 5.51947795665543E-02 
915	 5.53809059782071E-02 
916	 5.49040213759369E-02 
917	 5.60203460411183E-02 
918	 5.63616921809386E-02 
919	 5.49814273905893E-02 
920	 5.34434663946638E-02 
921	 5.34117033649507E-02 
922	 5.30033676363943E-02 
923	 5.15545085394569E-02 
924	 5.26276465102538E-02 
925	 5.20714243001941E-02 
926	 5.05746203670346E-02 
927	 4.99368785869352E-02 
928	 4.95345501450884E-02 
929	 4.84359142017408E-02 
930	 0.047789010429619 
931	 4.92422068508364E-02 
932	 4.58854456338024E-02 
933	 4.01278576020216E-02 
934	 3.91756307376436E-02 
935	 4.58143694452138E-02 
936	 4.45923189414226E-02 
937	 3.93500869809852E-02 
938	 3.53801159406472E-02 
939	 3.66196815838617E-02 
940	 4.34625881052189E-02 
941	 4.16718768735101E-02 
942	 3.47925249289573E-02 
943	 3.40710760969872E-02 
944	 0.034721357452558 
945	 3.20364738253227E-02 
946	 3.13865307858062E-02 
947	 3.99240341590634E-02 
948	 4.28103741382705E-02 
949	 4.03811198927555E-02 
950	 3.72664430394735E-02 
951	 3.79146710357263E-02 
952	 3.29537538798774E-02 
953	 3.24229045834148E-02 
954	 3.56796205036321E-02 
955	 3.53365298747705E-02 
956	 3.58126383293275E-02 
957	 3.55183103027367E-02 
958	 3.44574248281896E-02 
959	 3.39023087410596E-02 
960	 3.40919901673908E-02 
961	 3.32513767647128E-02 
962	 3.36679918246013E-02 
963	 3.82659572766925E-02 
964	 3.68760776263427E-02 
965	 3.59238256755345E-02 
966	 3.64851019827886E-02 
967	 3.55171257249686E-02 
968	 3.42471558382049E-02 
969	 3.61637901876267E-02 
970	 3.88987561749216E-02 
971	 3.65053183609619E-02 
972	 3.55843388508299E-02 
973	 0.034216009425702 
974	 3.29135400592723E-02 
975	 3.47107919517673E-02 
976	 3.54963898463923E-02 
977	 3.60431609204977E-02 
978	 3.67564592787871E-02 
979	 3.71154820488521E-02 
980	 3.52367339157327E-02 
981	 3.68337807761131E-02 
982	 3.99108525718415E-02 
983	 0.037475628826464 
984	 3.44044453180758E-02 
985	 3.49717493099687E-02 
986	 3.67753128338273E-02 
987	 3.41666195208124E-02 
988	 3.51853831200827E-02 
989	 3.83886566150109E-02 
990	 4.02182253817313E-02 
991	 3.76603918593877E-02 
992	 3.60999174500237E-02 
993	 3.69426458162973E-02 
994	 0.038989299628498 
995	 3.95481054137166E-02 
996	 3.70621189689832E-02 
997	 0.037242257309589 
998	 3.85653877881341E-02 
999	 3.64909954126994E-02 
1000	 3.82832077806523E-02 
1001	 3.57802480241275E-02 
1002	 3.69462800454892E-02 
1003	 3.72039715594304E-02 
1004	 3.69419787773149E-02 
1005	 3.69710146454719E-02 
1006	 3.67209353149051E-02 
1007	 3.65152874455474E-02 
1008	 3.64383759629126E-02 
1009	 0.036191376207994 
1010	 3.54862099612142E-02 
1011	 3.55901574027545E-02 
1012	 3.65554913107195E-02 
1013	 3.74356691942396E-02 
1014	 0.037891623166017 
1015	 3.82565500192616E-02 
1016	 3.84775270035726E-02 
1017	 3.82283392883482E-02 
1018	 0.038256624165846 
1019	 3.85248041221146E-02 
1020	 3.86565865083518E-02 
1021	 0.038568408712735 
1022	 3.86819116264261E-02 
1023	 3.90228321477016E-02 
1024	 3.90564688700892E-02 
1025	 3.93837744435848E-02 
1026	 3.98134248521753E-02 
1027	 4.01041366039664E-02 
1028	 4.04624157169743E-02 
1029	 4.05570392818803E-02 
1030	 4.03928014168012E-02 
1031	 0.040390116383825 
1032	 4.03988590473622E-02 
1033	 4.03020537002773E-02 
1034	 3.99094482480082E-02 
1035	 4.01002237514031E-02 
1036	 4.03470170267798E-02 
1037	 4.08021252281985E-02 
1038	 4.18191395012719E-02 
1039	 4.30911396619128E-02 
1040	 4.33405961047498E-02 
1041	 4.30035244901575E-02 
1042	 4.29469592086877E-02 
1043	 0.042287119657137 
1044	 4.21762646612339E-02 
1045	 4.24084105455097E-02 
1046	 4.26729278706451E-02 
1047	 4.31408938524003E-02 
1048	 4.33266450136684E-02 
1049	 4.33380103388452E-02 
1050	 4.37161944088881E-02 
1051	 4.43669775297755E-02 
1052	 4.45643869466864E-02 
1053	 4.49840398802956E-02 
1054	 4.50975671314739E-02 
1055	 4.43489516144702E-02 
1056	 4.40235746438141E-02 
1057	 4.38353232858798E-02 
1058	 4.36352438252569E-02 
1059	 4.40522903749637E-02 
1060	 0.045131023766555 
1061	 0.045466453076422 
1062	 4.63825824749704E-02 
1063	 4.61104847240623E-02 
1064	 4.40954564003628E-02 
1065	 4.37510645899182E-02 
1066	 4.38027378523341E-02 
1067	 4.37453047533983E-02 
1068	 0.044744901499442 
1069	 4.50752886625995E-02 
1070	 4.46519745264001E-02 
1071	 4.44996709033927E-02 
1072	 4.41578896284676E-02 
1073	 4.43722320058197E-02 
1074	 4.43931137595681E-02 
1075	 4.45748955042678E-02 
1076	 4.44203874454406E-02 
1077	 4.39961200184789E-02 
1078	 4.39816842370472E-02 
1079	 4.38516304495943E-02 
1080	 0.043957531186927 
1081	 4.49412877561426E-02 
1082	 4.49475089075931E-02 
1083	 4.44257887991678E-02 
1084	 4.40229414815469E-02 
1085	 0.042572158655689 
1086	 4.22307431728692E-02 
1087	 4.29875643559313E-02 
1088	 4.30622340807834E-02 
1089	 0.043399954610076 
1090	 4.39208671210863E-02 
1091	 4.33125366974153E-02 
1092	 4.11877793509086E-02 
1093	 4.08399009648664E-02 
1094	 4.07059134647229E-02 
1095	 4.06578067848795E-02 
1096	 4.21383174638341E-02 
1097	 4.20380032882961E-02 
1098	 4.03771809527099E-02 
1099	 3.99382364468756E-02 
1100	 3.95160913370371E-02 
1101	 0.039289159548699 
1102	 4.05780022445136E-02 
1103	 4.06164395894206E-02 
1104	 3.96839693299747E-02 
1105	 3.86793968390571E-02 
1106	 3.86198057614051E-02 
1107	 3.74652737050482E-02 
1108	 3.65999031224104E-02 
1109	 3.76892011655035E-02 
1110	 3.76324732003632E-02 
1111	 3.70481898191201E-02 
1112	 3.57419207495592E-02 
1113	 3.34561817943272E-02 
1114	 3.12086435603256E-02 
1115	 2.60452824200714E-02 
1116	 2.42365752750179E-02 
1117	 0.027087539036844 
1118	 2.75878362842824E-02 
1119	 3.07323893862614E-02 
1120	 3.33810929417192E-02 
1121	 3.69965457639199E-02 
1122	 3.29595670528821E-02 
1123	 2.41488183456364E-02 
1124	 2.27821544725923E-02 
1125	 1.37573052102778E-02 
1126	 7.27932354602301E-03 
1127	 1.76352637987592E-02 
1128	 1.88647207674757E-02 
1129	 1.99449687417108E-02 
1130	 2.32386804086606E-02 
1131	 2.05778901218235E-02 
1132	 9.60596090096143E-03 
1133	 1.17001617917388E-02 
1134	 1.92881122427822E-02 
1135	 1.91225571977791E-02 
1136	 2.05619172515434E-02 
1137	 2.28987005651006E-02 
1138	 2.25403141082771E-02 
1139	 1.90545922740987E-02 
1140	 2.20147572486364E-02 
1141	 2.26097276010375E-02 
1142	 1.21346701402908E-02 
1143	 6.48285620769656E-03 
1144	 1.06560665977038E-02 
1145	 1.47841019105867E-02 
1146	 1.91532993842245E-02 
1147	 2.00027773870287E-02 
1148	 0.013455403872379 
1149	 0.010585933767662 
1150	 1.23152054698633E-02 
1151	 1.91818916512274E-02 
1152	 2.12948531199098E-02 
1153	 2.43972028377897E-02 
1154	 2.45356881456202E-02 
1155	 2.13527653483551E-02 
1156	 2.18095073277822E-02 
1157	 2.38338332202702E-02 
1158	 2.57905796852483E-02 
1159	 2.80551947434162E-02 
1160	 2.80335380997579E-02 
1161	 2.64337067869687E-02 
1162	 0.025971101103118 
1163	 2.61184329421705E-02 
1164	 2.55626207156655E-02 
1165	 2.60200598882328E-02 
1166	 2.67556346431627E-02 
1167	 2.59049065429405E-02 
1168	 2.53772978845044E-02 
1169	 2.55803845076321E-02 
1170	 0.025189478587302 
1171	 2.52083549437763E-02 
1172	 2.59949782815267E-02 
1173	 2.64136816760114E-02 
1174	 2.69468143762379E-02 
1175	 2.66828877998421E-02 
1176	 0.02625052203534 
1177	 2.63497975643442E-02 
1178	 2.68221779063389E-02 
1179	 2.65493174787479E-02 
1180	 2.67653964389145E-02 
1181	 2.72677299396041E-02 
1182	 0.026552303101348 
1183	 2.64668356976556E-02 
1184	 2.73502618487452E-02 
1185	 2.74881582764744E-02 
1186	 2.72709457888792E-02 
1187	 2.73449664609639E-02 
1188	 2.70702135914376E-02 
1189	 2.68069766196477E-02 
1190	 2.71037059424653E-02 
1191	 2.72512745605001E-02 
1192	 2.73568053472849E-02 
1193	 2.74101422430825E-02 
1194	 2.75508667839897E-02 
1195	 0.027577064468535 
1196	 2.76473174787742E-02 
1197	 2.81626317264646E-02 
1198	 2.81550673787821E-02 
1199	 2.76745988699015E-02 
1200	 2.80062235694347E-02 
1201	 2.84004040947277E-02 
1202	 2.83700681711512E-02 
1203	 2.81602157324139E-02 
1204	 0.027792104448539 
1205	 2.73225990477366E-02 
1206	 0.026698440445102 
1207	 2.64253744758751E-02 
1208	 2.66930639984214E-02 
1209	 2.68959623923299E-02 
1210	 2.73304386217754E-02 
1211	 2.84674343355293E-02 
1212	 2.90807382010954E-02 
1213	 2.89974152051337E-02 
1214	 2.89708497489586E-02 
1215	 2.87545950626791E-02 
1216	 2.80957837888376E-02 
1217	 2.79910460236024E-02 
1218	 2.87181799987887E-02 
1219	 2.89726366870264E-02 
1220	 2.89846310357826E-02 
1221	 2.91020024217929E-02 
1222	 2.85204550620565E-02 
1223	 2.79273454624509E-02 
1224	 2.83241462589645E-02 
1225	 2.86783512928929E-02 
1226	 2.86590840418536E-02 
1227	 2.86482471954929E-02 
1228	 2.84367245573527E-02 
1229	 2.85051327013174E-02 
1230	 2.86773132092758E-02 
1231	 2.85269061721678E-02 
1232	 2.87647790018768E-02 
1233	 2.88813241588913E-02 
1234	 2.83700912449213E-02 
1235	 0.028174396544515 
1236	 2.83310778555049E-02 
1237	 2.84196161954678E-02 
1238	 2.83131466765475E-02 
1239	 0.028622577277522 
1240	 0.028802685832163 
1241	 2.87982578608304E-02 
1242	 2.88737187619549E-02 
1243	 0.02864807633529 
1244	 2.87555056633791E-02 
1245	 2.93702029881193E-02 
1246	 2.92882672800035E-02 
1247	 0.028944896266641 
1248	 2.89265909990841E-02 
1249	 2.85594984178239E-02 
1250	 2.81719949018045E-02 
1251	 0.028248943939039 
1252	 2.81486556537145E-02 
1253	 2.81849826154788E-02 
1254	 2.85577947524276E-02 
1255	 2.84933571979477E-02 
1256	 2.85275124797206E-02 
1257	 0.028789133724504 
1258	 0.028768514645861 
1259	 2.82673087467471E-02 
1260	 2.82259054406965E-02 
1261	 2.84780221067596E-02 
1262	 2.84418855785112E-02 
1263	 2.82675892183324E-02 
1264	 2.85065835170842E-02 
1265	 2.87263476659671E-02 
1266	 2.84280946508213E-02 
1267	 2.83318858640426E-02 
1268	 2.84107876967346E-02 
1269	 2.83891244901518E-02 
1270	 2.80059358246025E-02 
1271	 2.72625523214301E-02 
1272	 2.72760110006573E-02 
1273	 2.75226990586198E-02 
1274	 2.73732278397659E-02 
1275	 2.73282961724806E-02 
1276	 2.75831942314132E-02 
1277	 2.79963986012889E-02 
1278	 2.81312963672604E-02 
1279	 2.83047378643134E-02 
1280	 2.83894003513959E-02 
1281	 2.83180066602127E-02 
1282	 2.75580671393552E-02 
1283	 2.76243132619476E-02 
1284	 0.028387113321086 
1285	 2.84667091601291E-02 
1286	 2.82306184641269E-02 
1287	 2.83588509775423E-02 
1288	 2.86600621208065E-02 
1289	 2.84430449138152E-02 
1290	 2.79993470841703E-02 
1291	 2.80056113076445E-02 
1292	 2.81833657700818E-02 
1293	 2.80558682844757E-02 
1294	 2.80112201416959E-02 
1295	 2.80107062412282E-02 
1296	 2.76631571656053E-02 
1297	 2.71069392463585E-02 
1298	 2.66095438124014E-02 
1299	 2.70843775590205E-02 
1300	 2.75462571431369E-02 
1301	 2.71553672259655E-02 
1302	 2.74923395383962E-02 
1303	 2.78404560271749E-02 
1304	 2.74662465733064E-02 
1305	 2.70131489994371E-02 
1306	 2.67247554068019E-02 
1307	 2.66771691016407E-02 
1308	 0.02642057700169 
1309	 2.60332449744135E-02 
1310	 2.56825106232213E-02 
1311	 2.52631750541811E-02 
1312	 0.025230005998469 
1313	 2.56357467987502E-02 
1314	 0.025137411721766 
1315	 2.38276527524823E-02 
1316	 2.36944666258491E-02 
1317	 2.41777552072178E-02 
1318	 2.37014849557568E-02 
1319	 2.35465330939838E-02 
1320	 2.37345960816247E-02 
1321	 2.31679495512076E-02 
1322	 2.20351183033192E-02 
1323	 2.28621933329956E-02 
1324	 2.27676917168084E-02 
1325	 2.14690246134128E-02 
1326	 2.13632528940041E-02 
1327	 2.22206559962482E-02 
1328	 2.36893654364581E-02 
1329	 2.29744933128246E-02 
1330	 0.020981807152402 
1331	 2.07995671484014E-02 
1332	 2.00305746233716E-02 
1333	 1.80443533774754E-02 
1334	 1.76039001940732E-02 
1335	 1.87972057344483E-02 
1336	 2.07420362494269E-02 
1337	 2.05803096532255E-02 
1338	 2.33260518039508E-02 
1339	 2.35236302416745E-02 
1340	 1.86793898787493E-02 
1341	 1.51842685541384E-02 
1342	 1.11049006808744E-02 
1343	 8.63958194456241E-03 
1344	 5.94743290859184E-03 
1345	 1.99798268787785E-03 
1346	-3.91986948564292E-04 
1347	-1.75179549545941E-03 
1348	-5.50570646358939E-03 
1349	-1.04833147329583E-02 
1350	-1.27157954181979E-02 
1351	-0.012469379400034 
1352	 6.46527211246976E-03 
1353	-2.50435329422792E-03 
1354	-5.61568230742509E-02 
1355	-0.106517444165179 
1356	-0.165320621734537 
1357	-0.185923179762353 
1358	-0.067340435236795 
1359	 0.12204639269401 
1360	 9.14219602713335E-02 
1361	-0.108517639785848 
1362	-8.89087659915887E-02 
1363	-4.33769906997738E-02 
1364	-0.455952313829697 
1365	-1.2674826276524 
1366	-1.99433157971724 
1367	-1.6240738325799 
1368	-1.59454923237474 
1369	-0.878284711189691 
1370	-0.294357433724647 
1371	 0.151794120105215 
1372	 0.17069677308216 
1373	 7.84071412045097E-04 
1374	 0.319513411166327 
1375	 14.671828632225 
1376	 4.79294092545293 
1377	 0.204017311115447 
1378	 0.228158758458729 
1379	 0.302745656954743 
1380	 3.08638831311965E-02 
1381	-0.342392716920769 
1382	-0.471054697648144 
1383	-1.19763383222436 
1384	-2.82853187783302 
1385	-11.5784971467507 
1386	 53.4265475671334 
1387	-7.25732656260104 
1388	-5.33535281968678 
1389	-4.04063483552827 
1390	-2.62935439296621 
1391	-1.92017407279469 
1392	-2.05210738607021 
1393	-1.24014769050624 
1394	-1.08355563208162 
1395	-3.9400812789988 
1396	 147.158672739641 
1397	 27.8365912560079 
1398	-2.8784724916344 
1399	-2.37137366576818 
1400	-130.316032001819 
1401	 8.05806267995204 
1402	 7.46206616301324 
1403	 11.3566168529397 
1404	-3.96607271756735 
1405	-1.72409384818589 
1406	-0.999283228558666 
1407	-0.802638562321172 
1408	-0.764877648797436 
1409	-0.194195888156606 
1410	 0.168536425801569 
1411	 0.245916006435762 
1412	 0.428752497163335 
1413	 0.373564101459411 
1414	-0.418334671264165 
1415	-1.56968056784685 
1416	-0.861148031324923 
1417	-0.825253657046489 
1418	-0.865352850506149 
1419	-0.680675913567734 
1420	-0.186787758655918 
1421	-0.158529948061465 
1422	-0.3122900971639 
1423	-0.310144175378525 
1424	-0.440065095518895 
1425	-0.420519840495142 
1426	-0.280258331542441 
1427	-0.193006384414648 
1428	-0.110650649124592 
1429	-7.42529904856698E-02 
1430	-1.08382986182969E-02 
1431	 1.87737548072673E-02 
1432	 1.21863487262309E-02 
1433	-5.38679687020144E-03 
1434	-7.96993326593377E-02 
1435	-9.53392824088685E-02 
1436	-0.139469914446785 
1437	-7.24450687798811E-02 
1438	-2.33320264477238E-02 
1439	-3.57412537279193E-02 
1440	-6.66302138540452E-02 
1441	-0.115163460651517 
1442	-0.100716988415744 
1443	-6.85161733745937E-02 
1444	-6.43611238497829E-02 
1445	-7.11417082267674E-02 
1446	-9.97742274707205E-02 
1447	-0.110467713573625 
1448	-6.95460227540856E-02 
1449	-4.65482524422978E-02 
1450	-6.17328413816301E-02 
1451	-5.10551671573347E-02 
1452	-2.95767136154385E-02 
1453	-2.56878176381268E-02 
1454	-2.12212536485326E-02 
1455	 6.82348601902908E-04 
1456	 6.81698368339512E-03 
1457	-1.71866277734895E-03 
1458	-8.16686819926896E-03 
1459	-1.24727267512874E-02 
1460	-7.47377150251689E-03 
1461	-4.56995944792203E-03 
1462	-8.16788238652863E-03 
1463	-0.002532151889318 
1464	-1.99728553956627E-03 
1465	-2.21244582049536E-02 
1466	-2.47305213394935E-02 
1467	-7.82195201911867E-03 
1468	-1.14912889074073E-03 
1469	 4.37240539060584E-03 
1470	 5.35615460146004E-03 
1471	 6.28355048469356E-03 
1472	 2.55559602527477E-03 
1473	-1.91107209519875E-02 
1474	-1.51891356941647E-02 
1475	 9.72372205059289E-03 
1476	 1.03432704537977E-02 
1477	 8.59526074912204E-03 
1478	 9.65772788252638E-03 
1479	-1.12132932603153E-03 
1480	-6.98657901643289E-03 
1481	-7.19332507039032E-03 
1482	-3.85233373560918E-03 
1483	-2.46545129832373E-03 
1484	-5.73233431003797E-04 
1485	 8.6265143187805E-03 
1486	 1.09655973857568E-02 
1487	 6.0027997376507E-03 
1488	 7.64509435505649E-03 
1489	 1.42647474690698E-02 
1490	 1.34832822726878E-02 
1491	 8.66765363306731E-03 
1492	 9.65009100339612E-03 
1493	 1.21904449874737E-02 
1494	 1.06499599134144E-02 
1495	 9.63171507523379E-03 
1496	 1.01620003763217E-02 
1497	 7.4590235957636E-03 
1498	 7.15663398432245E-03 
1499	 1.06716778522703E-02 
1500	 0.01222461850195 
1501	 1.29071456456449E-02 
1502	 1.30953365587635E-02 
1503	 1.30061740102114E-02 
1504	 1.33547639567904E-02 
1505	 1.38833260452743E-02 
1506	 1.28007302585723E-02 
1507	 1.27033223309404E-02 
1508	 0.013606546033953 
1509	 1.32343876339711E-02 
1510	 1.36386085778931E-02 
1511	 1.42045283971628E-02 
1512	 1.47567265524558E-02 
1513	 1.52924400102264E-02 
1514	 1.56752776600557E-02 
1515	 1.64206675055516E-02 
1516	 1.54043968781732E-02 
1517	 0.01420195045945 
1518	 1.38684960447494E-02 
1519	 1.34403512624003E-02 
1520	 1.41082853750042E-02 
1521	 1.46189158444705E-02 
1522	 1.45958504468409E-02 
1523	 1.52260488511209E-02 
1524	 1.58606632561846E-02 
1525	 1.54339325035167E-02 
1526	 1.51540668956852E-02 
1527	 0.015643624057466 
1528	 1.52357319076371E-02 
1529	 0.015224319805379 
1530	 1.55669913423949E-02 
1531	 1.50698126226357E-02 
1532	 1.53988651468227E-02 
1533	 1.63068068996063E-02 
1534	 1.66004045519914E-02 
1535	 1.62201338334366E-02 
1536	 1.60039100327963E-02 
1537	 1.60581027906041E-02 
1538	 1.55892392121211E-02 
1539	 1.57831122457915E-02 
1540	 1.62651335255476E-02 
1541	 1.60194655938911E-02 
1542	 0.016287219393179 
1543	 1.67999473587771E-02 
1544	 1.65796491891001E-02 
1545	 1.61283128728806E-02 
1546	 1.62001490946282E-02 
1547	 1.63866337600242E-02 
1548	 1.62674805359702E-02 
1549	 1.62443941055935E-02 
1550	 1.65532670431047E-02 
1551	 1.75258905443523E-02 
1552	 1.79103827000777E-02 
1553	 1.72892125464916E-02 
1554	 1.72277425857639E-02 
1555	 1.73311120703312E-02 
1556	 1.73618369735988E-02 
1557	 1.77340713335505E-02 
1558	 1.79073964554434E-02 
1559	 1.74711077562875E-02 
1560	 1.68769234662545E-02 
1561	 1.64164430074326E-02 
1562	 1.64435212829363E-02 
1563	 1.69912386936379E-02 
1564	 1.72911008423275E-02 
1565	 1.80136916277179E-02 
1566	 1.84518462973831E-02 
1567	 1.75782332703687E-02 
1568	 1.71574364257274E-02 
1569	 1.71763053603416E-02 
1570	 0.016502106764429 
1571	 0.016260069059125 
1572	 1.69293963479701E-02 
1573	 1.72410148462724E-02 
1574	 1.69760380218109E-02 
1575	 1.72721318919539E-02 
1576	 1.75853963864104E-02 
1577	 1.71908084462071E-02 
1578	 1.77271647067819E-02 
1579	 1.90577114261339E-02 
1580	 1.88240573830322E-02 
1581	 1.77980508373354E-02 
1582	 1.79913161548735E-02 
1583	 0.018206728951285 
1584	 1.81157652558389E-02 
1585	 1.83834852334591E-02 
1586	 0.018404345574746 
1587	 1.80511696134254E-02 
1588	 1.82253888348547E-02 
1589	 1.91869790967068E-02 
1590	 1.92846789228139E-02 
1591	 1.92860558314663E-02 
1592	 1.97004693902133E-02 
1593	 1.86240312797869E-02 
1594	 1.78831001051262E-02 
1595	 0.018445344063374 
1596	 1.84664028780563E-02 
1597	 1.88874986519954E-02 
1598	 1.99276942313406E-02 
1599	 2.00939064533904E-02 
1600	 1.90901357428755E-02 
1601	 1.80313867838224E-02 
1602	 1.83955896331944E-02 
1603	 1.95231204403326E-02 
1604	 1.98290306186749E-02 
1605	 1.96662533423749E-02 
1606	 2.00388284680581E-02 
1607	 1.94438623620819E-02 
1608	 1.85730538946398E-02 
1609	 1.89795885147957E-02 
1610	 1.87824689737542E-02 
1611	 1.85315644666573E-02 
1612	 1.87555251029767E-02 
1613	 0.018504438284 
1614	 1.82643413721649E-02 
1615	 0.018227571230494 
1616	 1.87229104512692E-02 
1617	 1.97664720647867E-02 
1618	 1.99472085538402E-02 
1619	 1.91318366935138E-02 
1620	 1.87998262847406E-02 
1621	 1.92865800223633E-02 
1622	 1.97614139223678E-02 
1623	 1.97620803536032E-02 
1624	 1.94936896842836E-02 
1625	 1.94131431041488E-02 
1626	 1.99809392441436E-02 
1627	 2.02687765877811E-02 
1628	 0.019787304107008 
1629	 1.90173304801652E-02 
1630	 1.79951535463491E-02 
1631	 1.80733261474415E-02 
1632	 0.01942920573856 
1633	 1.97673690284967E-02 
1634	 0.019326664384098 
1635	 1.95724796787008E-02 
1636	 1.99105410423672E-02 
1637	 1.96761491341715E-02 
1638	 1.90846968548465E-02 
1639	 1.91722804518571E-02 
1640	 1.92427380598209E-02 
1641	 1.93088018514661E-02 
1642	 2.00630823623935E-02 
1643	 1.96281787903152E-02 
1644	 1.88761110037166E-02 
1645	 1.92543409837564E-02 
1646	 1.94324651384351E-02 
1647	 1.93051925188902E-02 
1648	 1.91012004063514E-02 
1649	 1.82916847633802E-02 
1650	 1.86032673405436E-02 
1651	 1.98945118356423E-02 
1652	 1.98558780532475E-02 
1653	 2.02122993868636E-02 
1654	 2.04112950939755E-02 
1655	 0.020349728239858 
1656	 2.01474653046292E-02 
1657	 1.95386763094076E-02 
1658	 1.95553691024606E-02 
1659	 1.96766912767505E-02 
1660	 1.97354142840018E-02 
1661	 2.02301004079844E-02 
1662	 2.02478401928274E-02 
1663	 1.99682453360182E-02 
1664	 1.95700040241321E-02 
1665	 1.90137261973001E-02 
1666	 1.89569520932428E-02 
1667	 0.018626181164811 
1668	 1.86390113982726E-02 
1669	 1.93028706590123E-02 
1670	 1.95602909966736E-02 
1671	 1.99276045924839E-02 
1672	 2.05373240322732E-02 
1673	 1.99429474080887E-02 
1674	 1.93305919032322E-02 
1675	 1.93824069358318E-02 
1676	 1.89344966791394E-02 
1677	 1.89485482266218E-02 
1678	 0.019461707254658 
1679	 1.89275375941572E-02 
1680	 1.89669653462097E-02 
1681	 1.96912337167266E-02 
1682	 1.85918832648648E-02 
1683	 1.77424441247413E-02 
1684	 1.82275266517395E-02 
1685	 1.85788158629848E-02 
1686	 1.95143219992998E-02 
1687	 1.95643296214024E-02 
1688	 1.89525597704125E-02 
1689	 1.90994038675437E-02 
1690	 1.88233762749499E-02 
1691	 1.94039156771097E-02 
1692	 2.04236981727793E-02 
1693	 1.96676152705857E-02 
1694	 1.86609149625948E-02 
1695	 1.90179209677675E-02 
1696	 1.92143879432795E-02 
1697	 1.86008095185241E-02 
1698	 1.93778840537366E-02 
1699	 2.00614468526328E-02 
1700	 1.89459968876954E-02 
1701	 1.84883335279905E-02 
1702	 1.85961440183511E-02 
1703	 1.88032461764273E-02 
1704	 1.92757321111467E-02 
1705	 1.95847228800334E-02 
1706	 2.02937799828702E-02 
1707	 2.02922145557763E-02 
1708	 1.97077829256753E-02 
1709	 0.019492528160151 
1710	 1.87721116849949E-02 
1711	 0.01777775852342 
1712	 0.017277693947982 
1713	 1.80235444543477E-02 
1714	 1.83490971770801E-02 
1715	 1.90197003833918E-02 
1716	 0.020302960373413 
1717	 1.96202196292397E-02 
1718	 1.80813476269346E-02 
1719	 1.85488730820964E-02 
1720	 1.96575604941343E-02 
1721	 1.93177884459814E-02 
1722	 1.83970135629026E-02 
1723	 1.76563235007744E-02 
1724	 1.63019482458044E-02 
1725	 1.58112768489054E-02 
1726	 1.74379081928012E-02 
1727	 1.77058447987045E-02 
1728	 1.66144078170585E-02 
1729	 0.01712537389152 
1730	 1.75342349291436E-02 
1731	 1.74347709572142E-02 
1732	 1.80631591146979E-02 
1733	 0.018284267642115 
1734	 0.018127195992727 
1735	 1.80437627555055E-02 
1736	 1.73289685733056E-02 
1737	 1.69000736362594E-02 
1738	 1.66023699107633E-02 
1739	 1.61025406861613E-02 
1740	 1.71748350933694E-02 
1741	 1.80505682026127E-02 
1742	 1.70784072698381E-02 
1743	 1.73366217514163E-02 
1744	 1.79345033942803E-02 
1745	 1.64007028366021E-02 
1746	 1.62840274312582E-02 
1747	 1.71876950956801E-02 
1748	 1.86892833436093E-02 
1749	 1.90201699371663E-02 
1750	 1.98401131396038E-02 
1751	 2.01585931394441E-02 
1752	 1.88787571346916E-02 
1753	 1.80118214908007E-02 
1754	 1.77771403202127E-02 
1755	 1.73249912259841E-02 
1756	 1.57627106543937E-02 
1757	 1.63531116297963E-02 
1758	 1.70222301211128E-02 
1759	 0.018694927009338 
1760	 2.01678570373641E-02 
1761	 1.94856701276573E-02 
1762	 1.89130910303906E-02 
1763	 0.018159083892024 
1764	 1.76159018996231E-02 
1765	 1.68211909751484E-02 
1766	 1.46340199202882E-02 
1767	 1.45404137715447E-02 
1768	 1.13892495796782E-02 
1769	 9.30808226960623E-03 
1770	 1.48589037183858E-02 
1771	 1.58191113007239E-02 
1772	 1.35709346640579E-02 
1773	 1.42894575448806E-02 
1774	 1.24037922378168E-02 
1775	 1.52556086380299E-02 
1776	 1.57987073515519E-02 
1777	 1.37744966014193E-02 
1778	 1.31619686296159E-02 
1779	 1.04539189783464E-02 
1780	 8.58985646396957E-03 
1781	 9.32816234665465E-03 
1782	 1.14580162661177E-02 
1783	 1.65530165515053E-02 
1784	 1.62870440709068E-02 
1785	 1.48901098478062E-02 
1786	 1.21405633523216E-02 
1787	 5.04957869350263E-04 
1788	-1.34190346703396E-03 
1789	 4.70963442680494E-03 
1790	 1.07193984979335E-02 
1791	 6.93867232753914E-03 
1792	 2.68822007718143E-03 
1793	 5.64220425099189E-03 
1794	-1.75865376466812E-03 
1795	 9.72947530568204E-04 
1796	-1.15527381008152E-02 
1797	-3.50029423863754E-02 
1798	-3.18129343477374E-02 
1799	-4.27464100556346E-02 
1800	 1.48400683091362E-02 
1801	 4.39892135570878E-02 
1802	 5.59617266621401E-02 
1803	 5.44961256868849E-02 
1804	-2.21682903047939E-02 
1805	-7.87710622083357E-02 
1806	-0.149078860950647 
1807	-0.223091717159789 
1808	-0.386113941184146 
1809	-0.528904122486258 
1810	-0.498519715084133 
1811	-0.579560870074027 
1812	-0.355272578492628 
1813	-0.497313559437126 
1814	-1.00894822413431 
1815	-1.16535465713031 
1816	-1.33389810249928 
1817	-0.417982392550514 
1818	-3.22494024733803 
1819	 1.61282203684014 
1820	-4.15217297467499 
1821	-0.777780807193354 
1822	-0.650423092886858 
1823	-0.203428800585486 
1824	-0.102683387473837 
1825	-0.637499235957524 
1826	-2.15050056352613 
1827	 0.857658002734802 
1828	 0.686588840096715 
1829	 2.93353682324969 
1830	 4.85389244801779 
1831	 1.76126435203358 
1832	 1.4576143934237 
1833	 1.60718330007319 
1834	 1.61388043364407 
1835	 0.968203804831928 
1836	 0.906886641170607 
1837	 1.59423132281204 
1838	 2.31724669718275 
1839	-9.69655679839333 
1840	 4.98886253466721 
1841	 0.999691314305501 
1842	 3.89069662031213 
1843	 31.2427866368939 
1844	-3.72661723686281 
1845	-3.61031851385322 
1846	-2.16004475026704 
1847	-2.10368935282602 
1848	-2.46782971309557 
1849	 5.62342712984637 
1850	 1.26346007403507 
1851	 0.870310454897044 
1852	 1.0866680372088 
1853	 1.8001136242301 
1854	 1.86805004166463 
1855	 1.47456750720668 
1856	 1.45947057618962 
1857	 1.68870706930934 
1858	 1.52555519306952 
1859	-0.111164343348139 
1860	 6.24735214228015 
1861	 1.6944614171812 
1862	 1.47189775765527 
1863	 0.256093879947027 
1864	-0.388166663864766 
1865	-0.510366069871991 
1866	-0.584046877630306 
1867	-0.532326973700136 
1868	-0.128089009887208 
1869	 0.144136644935567 
1870	 0.328135008864353 
1871	 0.565268519040812 
1872	 0.857172844330987 
1873	 2.41081391179153 
1874	 14.9687853573663 
1875	-6.61010979944539 
1876	-2.88844294005089 
1877	-4.18517292605143 
1878	 4.2687929712783 
1879	-0.386177947173683 
1880	-0.352588637716765 
1881	 0.165361429183167 
1882	 0.314566092651763 
1883	 0.382758856996217 
1884	 1.65347505074123 
1885	 0.749103466491799 
1886	-0.179365705774875 
1887	-0.875145482109231 
1888	-1.27782811780709 
1889	-1.49575792498559 
1890	-1.00758436422864 
1891	-0.887606887939921 
1892	-0.986184784923288 
1893	-0.214495613154314 
1894	 0.67912806176487 
1895	-1.24248819202197 
1896	 0.861442937853618 
1897	 1.26800221809539 
1898	 1.8626283746229 
1899	 1.56182754399584 
1900	 1.87078741908234 
1901	-4.16290898632673 
1902	-1.49292309293844 
1903	-3.28988315543339 
1904	-1.20555115171319 
1905	-1.3562926482245 
1906	-3.28091253803407 
1907	-5.99092878364796 
1908	 5.2070545225065 
1909	 2.49959578864012 
1910	 1.4195802279545 
1911	-0.727339647381295 
1912	 1.6551377211218 
1913	 1.99579424527082 
1914	 2.3548733969707 
1915	 2.56062738483752 
1916	 3.26223449102531 
1917	 3.47368886643254 
1918	 113.194562818729 
1919	-1.88220247796504 
1920	 8.52215530143099 
1921	 0.392180748487178 
1922	 0.599922884930854 
1923	 0.477237325544342 
1924	 0.486478093539485 
1925	 0.557695815626354 
1926	 0.649309444702977 
1927	 0.846226810876101 
1928	-9.67197016606401 
1929	-0.70362518019793 
1930	-0.589082871288691 
1931	-1.11348845286838 
1932	-9.66725499835974 
1933	 9.28033338563377 
1934	 2.00592275268029 
1935	 3.17712783610792 
1936	-18.9074423375658 
1937	 15.2347472582893 
1938	-1.94987875529133 
1939	-3.01434277955506 
1940	 0.254086677814318 
1941	-0.385431239708031 
1942	-0.312343544144942 
1943	-0.697338798132414 
1944	-1.06800487449508 
1945	-1.1256924136866 
1946	-7.10290063246165E-02 
1947	 0.135863429780079 
1948	-0.626042642737592 
1949	-1.03241953736537 
1950	-1.13143339861998 
1951	-0.670637915093342 
1952	-0.363385230653377 
1953	 0.662936614482391 
1954	 0.49918549421507 
1955	 4.08425940785952E-02 
1956	-0.118240169887878 
1957	-3.78780653219292E-02 
1958	 0.344213423790405 
1959	 0.511945589992353 
1960	 0.406234348050684 
1961	 0.338729290732742 
1962	 0.267529002665364 
1963	 0.207475001502405 
1964	 0.231004114274837 
1965	 0.168886811673344 
1966	 0.146217951641608 
1967	 0.122589150092877 
1968	 0.130242862276418 
1969	 9.77636565980699E-02 
1970	 0.103447033409263 
1971	 9.48575707877072E-02 
1972	 3.75115015295638E-02 
1973	 1.79405526895355E-02 
1974	 2.91519245871179E-02 
1975	 1.88034648386745E-02 
1976	 3.34371110028135E-03 
1977	-1.72444795349216E-03 
1978	-1.89976285268567E-02 
1979	-2.40989608902718E-02 
1980	-2.44638224712218E-02 
1981	-7.86029648534254E-03 
1982	 7.84386561704773E-04 
1983	 1.74276781093865E-03 
1984	 7.17075724818034E-04 
1985	-7.19768788970579E-03 
1986	-2.23090974885417E-02 
1987	-2.83811821386282E-02 
1988	-2.84678180856449E-02 
1989	-2.19085274325454E-02 
1990	-9.23856095923105E-03 
1991	 6.95872038329446E-03 
1992	 0.020330372905593 
1993	 2.74682256422842E-02 
1994	 3.45813887419036E-02 
1995	 4.42425143624716E-02 
1996	 3.95985470303749E-02 
1997	 3.32837949366228E-02 
1998	 2.89471026636839E-02 
1999	 1.96952212989651E-02 
2000	 4.44083248533474E-02 
2001	 6.49632676668972E-02 
2002	 6.96945891114851E-02 
2003	 7.28394796174805E-02 
2004	 5.88653514821465E-02 
2005	 4.52729844206666E-02 
2006	 3.56733131980834E-02 
2007	 2.68765045256445E-02 
2008	 2.24574289982832E-02 
2009	 0.014477383525417 
2010	 0.011902274685579 
2011	 1.31984783789905E-03 
2012	-1.83790160759732E-02 
2013	-4.13617084891661E-02 
2014	-1.55143690405037E-02 
2015	 1.74818401676985E-02 
2016	 2.54161868229307E-02 
2017	 5.82740976534281E-02 
2018	 6.27023710819225E-02 
2019	 4.13051381137156E-02 
2020	 4.87954081540453E-02 
2021	 4.52505623304844E-02 
2022	 4.23243222449997E-02 
2023	 5.04887741489791E-02 
2024	 4.53228655738375E-02 
2025	 3.51506921358668E-02 
2026	 3.13669514118437E-02 
2027	 2.38175287373928E-02 
2028	 1.75460953464919E-02 
2029	 2.29717490866412E-02 
2030	 2.56863531901992E-02 
2031	 2.08692885267426E-02 
2032	 0.019345112243014 
2033	 0.015508061428274 
2034	 8.98305016010287E-03 
2035	 8.35739024343158E-03 
2036	 5.21419109590679E-03 
2037	-1.24569713093619E-03 
2038	 5.07396686502625E-03 
2039	 1.15442382362349E-02 
2040	 2.52678198664446E-02 
2041	 0.029305129068005 
2042	 3.08529244817786E-02 
2043	 3.10037482642921E-02 
2044	 2.52138136783169E-02 
2045	 2.39502915558789E-02 
2046	 2.42358553364414E-02 
2047	 2.36906251862222E-02 
2048	 1.04745688077873E-02 
2049	-4.75078491253544E-03 
2050	-9.58159067354763E-03 
2051	-9.18481716344009E-03 
2052	-5.85949959411805E-03 
2053	-3.39143030969136E-03 
2054	 2.02736159477973E-03 
2055	 4.1925847866299E-03 
2056	 7.76782471718794E-03 
2057	 2.60912835907613E-02 
2058	 2.99180805821603E-02 
2059	 1.97679117700777E-02 
2060	 1.57962361150416E-02 
2061	 1.15974639149422E-02 
2062	 1.90417666733419E-03 
2063	 9.64950263764703E-04 
2064	-4.65528986545674E-04 
2065	-4.75582281462289E-03 
2066	 4.03093115173938E-03 
2067	 8.26552384748801E-03 
2068	 1.07636921288364E-02 
2069	 1.71899629140344E-02 
2070	 1.66375299983951E-02 
2071	 1.71335405393734E-02 
2072	 2.18150883966161E-02 
2073	 2.53436480565475E-02 
2074	 3.29620129812114E-02 
2075	 3.37288496523463E-02 
2076	 3.04188410757851E-02 
2077	 0.026160448570155 
2078	 1.84593599426376E-02 
2079	 1.37127787858883E-02 
2080	 6.04149398600869E-03 
2081	 6.45859672598576E-03 
2082	 1.20204201286083E-02 
2083	 1.35411671393262E-02 
2084	 1.52969386845464E-02 
2085	 1.94192894316489E-02 
2086	 2.05342688504859E-02 
2087	 0.018647561471118 
2088	 1.93080516578331E-02 
2089	 0.020229334923425 
2090	 2.02485153103359E-02 
2091	 1.98592517802945E-02 
2092	 1.67134937812197E-02 
2093	 8.9590162969658E-03 
2094	 6.95366365984517E-03 
2095	 4.63147328179083E-03 
2096	 5.33420485509698E-03 
2097	 1.33888743810787E-02 
2098	 1.55153426083442E-02 
2099	 1.46744644949971E-02 
2100	 1.56925294582514E-02 
2101	 0.017032414210246 
2102	 2.00284717493144E-02 
2103	 2.34767856177334E-02 
2104	 2.18110674738041E-02 
2105	 1.93349182773183E-02 
2106	 1.73600881413932E-02 
2107	 0.015753527784596 
2108	 1.43845006368222E-02 
2109	 1.19550341358252E-02 
2110	 7.75235644162668E-03 
2111	 3.51740033403128E-03 
2112	 3.99840938518723E-03 
2113	 5.38962740840241E-03 
2114	 8.95570722472735E-03 
2115	 1.11446669026846E-02 
2116	 1.54458086095066E-02 
2117	 1.81669118598656E-02 
2118	 2.19709665410052E-02 
2119	 2.21711680050666E-02 
2120	 0.02094795138278 
2121	 1.68693622453838E-02 
2122	 1.35449037374422E-02 
2123	 9.5118661313939E-03 
2124	 6.69042460664654E-03 
2125	 8.87240188245574E-03 
2126	 8.89874558754025E-03 
2127	 6.4891491444381E-03 
2128	 9.68994867932476E-03 
2129	 1.23362118566875E-02 
2130	 1.47592091169513E-02 
2131	 1.58604948945276E-02 
2132	 1.50946864956128E-02 
2133	 0.016753154450009 
2134	 1.67034915004216E-02 
2135	 0.016133042204838 
2136	 1.56776360631909E-02 
2137	 1.33936946701572E-02 
2138	 1.23567439585091E-02 
2139	 1.14917810957945E-02 
2140	 1.27748454338189E-02 
2141	 1.71362536926977E-02 
2142	 1.89804885990823E-02 
2143	 2.06938735831282E-02 
2144	 2.20448771258178E-02 
2145	 2.28710968359784E-02 
2146	 2.32368288906512E-02 
2147	 2.49701579851516E-02 
2148	 2.54305571476449E-02 
2149	 2.44037009019459E-02 
2150	 2.60787165541849E-02 
2151	 2.38641163962039E-02 
2152	 0.019511527692281 
2153	 1.92299972824031E-02 
2154	 1.82331081469054E-02 
2155	 1.96309180081462E-02 
2156	 2.41149124381328E-02 
2157	 2.35086694795346E-02 
2158	 1.70212322358589E-02 
2159	 1.50031651231964E-02 
2160	 1.29958377847544E-02 
2161	 1.18515063094946E-02 
2162	 1.48646627226709E-02 
2163	 1.55327711724392E-02 
2164	 0.011426214298364 
2165	 1.31007356952688E-02 
2166	 1.80938571874369E-02 
2167	 2.11637564609621E-02 
2168	 2.87644806820572E-02 
2169	 3.24181876104142E-02 
2170	 3.37445211010325E-02 
2171	 3.36305678391699E-02 
2172	 2.91474756358007E-02 
2173	 2.89069740999649E-02 
2174	 2.76544386228324E-02 
2175	 2.01352520247913E-02 
2176	 1.55349215112304E-02 
2177	 1.20452162287519E-02 
2178	 7.79224043504479E-03 
2179	 5.54464466816303E-03 
2180	 5.20192170683566E-03 
2181	 6.60373895109635E-03 
2182	 7.72054431505279E-03 
2183	 1.13777974425402E-02 
2184	 1.79022221563282E-02 
2185	 1.88401531074517E-02 
2186	 1.84308580838674E-02 
2187	 1.32181242728981E-02 
2188	 1.35359183507081E-02 
2189	 1.44114901664482E-02 
2190	 1.64238179306905E-02 
2191	 2.60031146359082E-02 
2192	 2.60367093858006E-02 
2193	 1.71997962304432E-02 
2194	 1.46844677673528E-02 
2195	 8.55759753798414E-03 
2196	 7.81813306174827E-03 
2197	 1.56697432732882E-02 
2198	 2.36256261905204E-02 
2199	 3.46013937937767E-02 
2200	 4.24932160509061E-02 
2201	 4.92905770858834E-02 
2202	 4.31822512875002E-02 
2203	 3.65461666863107E-02 
2204	 2.79459461279774E-02 
2205	 1.89760955642364E-02 
2206	 0.012146325759864 
2207	 5.37375820619287E-03 
2208	 1.13121209307874E-02 
2209	 2.14980521540514E-02 
2210	 2.72285500494057E-02 
2211	 3.13347354128637E-02 
2212	 2.64446718725305E-02 
2213	 2.13081794638161E-02 
2214	 2.25855999135945E-02 
2215	 0.023881749587864 
2216	 2.70767980625163E-02 
2217	 2.65612810285457E-02 
2218	 2.08654670218002E-02 
2219	 2.20536115965474E-02 
2220	 2.69255473643926E-02 
2221	 2.95568756271366E-02 
2222	 3.74725314554784E-02 
2223	 0.039694073707448 
2224	 3.51683224560255E-02 
2225	 3.13823953704315E-02 
2226	 0.027269633260369 
2227	 2.29270120527662E-02 
2228	 1.52681668011512E-02 
2229	 1.14438510229602E-02 
2230	 8.99782909617884E-03 
2231	 8.42792343784256E-03 
2232	 1.11256327061037E-02 
2233	 1.40121888632067E-02 
2234	 0.018133073888136 
2235	 2.27588835763338E-02 
2236	 2.63951150206318E-02 
2237	 2.44195337834312E-02 
2238	 2.36207124900697E-02 
2239	 1.56398731054973E-02 
2240	 2.50251739677453E-03 
2241	 1.50106975983519E-03 
2242	 5.50631677946295E-03 
2243	 6.01835449931898E-03 
2244	 7.98651241699242E-03 
2245	 1.10506451481645E-02 
2246	 9.39559760458191E-03 
2247	 1.02350118791115E-02 
2248	 2.22951763267255E-02 
2249	 0.037830127304664 
2250	 4.51276091527621E-02 
2251	 4.78733863646511E-02 
2252	 4.54781778091571E-02 
2253	 3.43977904060949E-02 
2254	 2.41415507716358E-02 
2255	 1.63684271017731E-02 
2256	 9.59793559678906E-03 
2257	 3.76052644126523E-03 
2258	-1.99320753791278E-03 
2259	-3.55368585952444E-03 
2260	-4.83639773253894E-03 
2261	-4.43526832970763E-03 
2262	-4.22907840891268E-03 
2263	-3.88765877122297E-03 
2264	-7.41404976361173E-04 
2265	 3.82990151984736E-03 
2266	 5.46435779402949E-03 
2267	 1.07625508653674E-02 
2268	 1.07121796167997E-02 
2269	 6.93864583728511E-03 
2270	 5.8464393114097E-03 
2271	 1.90662349577997E-03 
2272	-2.04513870883662E-04 
2273	-6.58856557040844E-03 
2274	-5.32541078078318E-03 
2275	 9.49356535736553E-03 
2276	 9.8928135780176E-03 
2277	 3.6742833738392E-03 
2278	 2.4053861748214E-03 
2279	-4.69121374919899E-03 
2280	-1.12509231239604E-02 
2281	-1.91949532271754E-02 
2282	-6.49119080459841E-03 
2283	-5.99232026466638E-03 
2284	-9.98907884711942E-03 
2285	 2.53477816015361E-04 
2286	-3.57114436497754E-03 
2287	-6.16224652179742E-03 
2288	-2.22897901785421E-03 
2289	 0.004990918621952 
2290	 2.29466177818374E-02 
2291	 3.50393469684244E-02 
2292	 3.74722813296572E-02 
2293	 3.80387377888065E-02 
2294	 2.33646541402673E-02 
2295	 5.58690970627596E-03 
2296	 1.99416444818623E-03 
2297	 5.06532202772413E-03 
2298	 1.34865173589707E-02 
2299	 1.84947645875469E-02 
2300	 1.01976609521575E-02 
2301	 2.31148066137138E-03 
2302	-6.95796842157437E-03 
2303	-1.17250315166964E-02 
2304	 4.79129207866634E-03 
2305	 9.2438984910874E-03 
2306	 2.25902263567701E-03 
2307	 5.86089096701937E-03 
2308	 1.45266431804329E-03 
2309	-1.00528875274101E-03 
2310	 1.16068324110225E-02 
2311	 0.020938032847156 
2312	 3.05018180028286E-02 
2313	 2.69722498857712E-02 
2314	 1.46365759740195E-02 
2315	 1.82208697082879E-02 
2316	 3.66477601097866E-02 
2317	 5.60929898585056E-02 
2318	 5.85784286366223E-02 
2319	 4.72532710744753E-02 
2320	 3.98208827653926E-02 
2321	 6.36247905703446E-02 
2322	 8.42860800315515E-02 
2323	 8.96394923477675E-02 
2324	 0.108067187771825 
2325	 9.49927934366904E-02 
2326	 6.57536771222661E-02 
2327	 6.66063371589146E-02 
2328	 4.26220593858875E-02 
2329	 4.88232634336105E-03 
2330	 1.55116950192072E-02 
2331	-6.69920393056932E-03 
2332	-4.01626657461606E-02 
2333	-1.53057382063415E-02 
2334	-4.2087443117616E-03 
2335	 9.81581052633415E-03 
2336	 2.71944829502645E-02 
2337	 3.96549389623091E-02 
2338	 5.24530279583181E-02 
2339	 7.17114249599206E-02 
2340	 0.111220998253007 
2341	 0.108300977717411 
2342	 8.81504634875893E-02 
2343	 0.113055176192144 
2344	 0.184410092590553 
2345	 0.233842735376997 
2346	 0.23463445222443 
2347	 0.196477505376955 
2348	 6.17003036780001E-02 
2349	-8.79221156460763E-03 
2350	-4.01480053158446E-02 
2351	-0.070198498735758 
2352	-0.049501193592262 
2353	-5.90387024314726E-02 
2354	-4.42453686836736E-02 
2355	 2.49857437519898E-02 
2356	 0.116354110025507 
2357	 0.149329032809085 
2358	 0.096273662646077 
2359	 1.70553803321589E-02 
2360	-8.14539163770876E-02 
2361	-0.229763079238521 
2362	-0.326999435682229 
2363	-0.277266655427596 
2364	-0.218168511110831 
2365	-0.222885613066365 
2366	-0.203075609359804 
2367	-0.159002224720376 
2368	-0.147214625782544 
2369	-0.110224017886864 
2370	-1.37733145165428E-02 
2371	 9.96046370834824E-03 
2372	-3.58330781240099E-02 
2373	-0.174370550847254 
2374	-0.423542140480759 
2375	-0.581278411130512 
2376	-0.802101439441824 
2377	-0.799064148099233 
2378	-0.507271798413018 
2379	-0.452460710417469 
2380	-0.388178420991301 
2381	-0.309689523021388 
2382	-0.256280973742126 
2383	-0.155626485127187 
2384	-7.92360174164848E-02 
2385	 0.131719902885061 
2386	 0.161506197168729 
2387	 0.357617151606614 
2388	 0.921748982332652 
2389	 0.818252424377543 
2390	 0.514206549890436 
2391	 0.359618553055144 
2392	 0.213052162640153 
2393	 0.184901598982341 
2394	 0.230241977444991 
2395	 0.310669331496032 
2396	 0.250895420658549 
2397	 0.378424637031815 
2398	 0.626755152664038 
2399	 0.589221710397113 
2400	 0.609634410079643 
2401	 0.360641887903888 
2402	 0.341740455081145 
2403	 0.412423044118922 
2404	 0.218675474050813 
2405	 0.181570923614662 
2406	 5.40037755458743E-02 
2407	-0.849026128305502 
2408	-1.15118422127401 
2409	-2.93999652115596 
2410	-10.5826813305571 
2411	-2.03076646796787 
2412	-2.25162696797885 
2413	-3.11007352250017 
2414	-2.45274600184458 
2415	-1.38197867804792 
2416	-0.916671316182983 
2417	-1.1900925923385 
2418	-1.94507072797464 
2419	-2.73783012810172 
2420	-10.0025113791333 
2421	-1.7936447323252 
2422	-0.972993872982686 
2423	-0.5678873823363 
2424	 1.12665914772197 
2425	 2.18303877243211 
2426	 31.3319935528518 
2427	-0.800167476036143 
2428	 0.700971926056182 
2429	 0.18240064513571 
2430	 0.584077911894515 
2431	 0.673474368587899 
2432	 1.08087676849581 
2433	-19.1162870925418 
2434	-1.38319659159587 
2435	-1.36485231146303 
2436	-1.03975671831146 
2437	-1.23308186798653 
2438	-0.972852382259334 
2439	-1.03204472272092 
2440	-0.950228981480215 
2441	-0.338350946916633 
2442	-0.501857374302741 
2443	-0.3538418791168 
2444	-0.234461799313151 
2445	-0.205733271369826 
2446	-6.31507810768682E-02 
2447	-0.520544593467805 
2448	-0.718424479978459 
2449	-1.57246542787345 
2450	-2.18993947636424 
2451	-1.28139002099222 
2452	-9.97615942164602E-02 
2453	 0.208409910169613 
2454	 1.5923618842193 
2455	 0.934430317004465 
2456	 0.173506540492497 
2457	-7.42940557328013E-02 
2458	 2.10004237473215E-02 
2459	-0.059585131027393 
2460	-7.45911609336746E-02 
2461	 0.128950907562723 
2462	 6.61729402961263E-02 
2463	 0.128413702948347 
2464	 0.443900779780753 
2465	 1.72428072700472 
2466	 2.43287028631153 
2467	 2.50310494380169 
2468	 2.69649078433948 
2469	 2.24888452331823 
2470	 0.493771344665591 
2471	-5.40644185825428E-03 
2472	 6.50641178170532E-02 
2473	-9.70088826087181E-02 
2474	 0.252780885796884 
2475	 0.369552155820784 
2476	-0.726990878714609 
2477	 1.13599059100862 
2478	-2.25022518106759 
2479	-1.94521391279778 
2480	-17.9509684320148 
2481	 4.76971997295831 
2482	 0.419466382812175 
2483	-3.78226951574592E-02 
2484	-0.518381160436158 
2485	-1.31746597355048 
2486	-0.522654720894044 
2487	-0.440975926839856 
2488	-0.89678206119442 
2489	-0.346996650983471 
2490	-6.25605584435703E-02 
2491	-0.129973985393251 
2492	-0.186731467450642 
2493	-0.204575294388294 
2494	-0.283069420210306 
2495	-0.377750672266532 
2496	-3.62684797867227E-02 
2497	 0.750456077730631 
2498	 0.445303603840493 
2499	-1.73540121038814 
2500	-1.20668779479414 
