Wavelength	rt0704rt300002.asd
350	 5.00763154284395E-02 
351	 5.08093796394685E-02 
352	 5.13123183852466E-02 
353	 5.13881132909353E-02 
354	 5.11836431614568E-02 
355	 5.15622827279787E-02 
356	 5.19152351109274E-02 
357	 5.21064418861483E-02 
358	 5.22560844176945E-02 
359	 5.28641122445872E-02 
360	 5.36951226859456E-02 
361	 5.43041347186452E-02 
362	 5.42894335986764E-02 
363	 5.48878434696829E-02 
364	 5.53927415123507E-02 
365	 5.54674239961763E-02 
366	 5.56946744438883E-02 
367	 5.59773266058759E-02 
368	 5.63068167487873E-02 
369	 5.66832164434113E-02 
370	 5.71005556581667E-02 
371	 5.76365878541389E-02 
372	 5.81238091403825E-02 
373	 5.83492234526949E-02 
374	 5.90476816390983E-02 
375	 5.94654059152108E-02 
376	 0.059538018978947 
377	 6.03228744259748E-02 
378	 0.060766181684824 
379	 6.08638616048379E-02 
380	 6.09105820610066E-02 
381	 6.12540768850399E-02 
382	 6.17747946374291E-02 
383	 6.22983949554199E-02 
384	 6.26001334022562E-02 
385	 6.23148799177014E-02 
386	 6.23937947729337E-02 
387	 6.30190993475461E-02 
388	 6.34138301791441E-02 
389	 6.36351716497635E-02 
390	 6.36782574655776E-02 
391	 6.36496282078629E-02 
392	 6.39258930355187E-02 
393	 0.063963993227462 
394	 6.38860667474583E-02 
395	 6.39856035567709E-02 
396	 6.40063611850104E-02 
397	 6.40476537637266E-02 
398	 6.40371624308293E-02 
399	 6.37683430543097E-02 
400	 6.36476172867937E-02 
401	 6.36784279407416E-02 
402	 6.37339654281893E-02 
403	 6.35457663292578E-02 
404	 6.34921124260046E-02 
405	 6.32961957976676E-02 
406	 6.26592664339107E-02 
407	 0.062622342077893 
408	 6.25217063920236E-02 
409	 6.21886950327553E-02 
410	 6.20273512688457E-02 
411	 6.17249660392738E-02 
412	 6.14226652598919E-02 
413	 6.12403993466741E-02 
414	 0.061064815776245 
415	 6.08799694544984E-02 
416	 6.06461840579643E-02 
417	 6.03330802224196E-02 
418	 5.99722740365669E-02 
419	 0.059749483059431 
420	 5.96832152076052E-02 
421	 5.96018210343415E-02 
422	 5.92513287256259E-02 
423	 5.90555283934882E-02 
424	 5.92677914209245E-02 
425	 5.92895599174682E-02 
426	 5.91612512285907E-02 
427	 5.90417791646912E-02 
428	 0.059109655448469 
429	 5.91302552175572E-02 
430	 5.91517682961072E-02 
431	 5.92172566695321E-02 
432	 5.93314753798862E-02 
433	 5.95053018648044E-02 
434	 5.96515175176205E-02 
435	 5.97309089772107E-02 
436	 5.99135745282138E-02 
437	 6.00241848187105E-02 
438	 6.00858689715205E-02 
439	 6.02169221338391E-02 
440	 0.060332423852392 
441	 6.04105043772435E-02 
442	 6.04497913018969E-02 
443	 6.04648975312164E-02 
444	 6.05488857643536E-02 
445	 0.060670448355563 
446	 0.06076754677033 
447	 6.08187534785645E-02 
448	 6.08483412277123E-02 
449	 6.08628583297562E-02 
450	 6.08546292174023E-02 
451	 6.08213595341824E-02 
452	 6.07648781552538E-02 
453	 6.06913448693183E-02 
454	 6.06171603246107E-02 
455	 6.05036347643281E-02 
456	 6.03483000323127E-02 
457	 0.060164538234688 
458	 5.99589670052678E-02 
459	 5.97661527631894E-02 
460	 5.95919430071377E-02 
461	 0.059414472126786 
462	 5.92756155139482E-02 
463	 5.91077216688632E-02 
464	 5.88824298871474E-02 
465	 5.87474632326266E-02 
466	 5.85169514216131E-02 
467	 5.83074540782526E-02 
468	 5.83133239237995E-02 
469	 0.058112269046358 
470	 5.79524543332997E-02 
471	 5.79071093869661E-02 
472	 5.77337728773829E-02 
473	 5.76960314726415E-02 
474	 5.77181267718871E-02 
475	 0.057675857025766 
476	 5.75988685096066E-02 
477	 5.75913216721971E-02 
478	 5.76351392326228E-02 
479	 5.76406134298035E-02 
480	 5.77632677160574E-02 
481	 0.057811104932508 
482	 5.77364134692327E-02 
483	 5.78815123090712E-02 
484	 5.79463000943218E-02 
485	 5.79823043967374E-02 
486	 5.81174253010084E-02 
487	 5.81350006971098E-02 
488	 5.83229524205674E-02 
489	 5.86807588357358E-02 
490	 5.89179088526641E-02 
491	 5.90726682191566E-02 
492	 5.92693406573568E-02 
493	 5.96017744056657E-02 
494	 0.060044339171055 
495	 6.04573374012745E-02 
496	 0.06080219668057 
497	 6.11137898239925E-02 
498	 6.15022547432513E-02 
499	 6.19527847366999E-02 
500	 6.24348890641649E-02 
501	 6.29242132724495E-02 
502	 6.32128623169027E-02 
503	 6.35134884358725E-02 
504	 6.40280963116927E-02 
505	 6.43699304711808E-02 
506	 6.47771572622386E-02 
507	 0.065271849465374 
508	 6.56998338347148E-02 
509	 6.61325369565006E-02 
510	 6.65670969751915E-02 
511	 6.69971302078298E-02 
512	 6.74231077057891E-02 
513	 6.79739915498686E-02 
514	 6.85479995720313E-02 
515	 6.89845150368644E-02 
516	 6.95478890475233E-02 
517	 7.01614784154325E-02 
518	 7.07660627506671E-02 
519	 0.071365789869658 
520	 7.20941232194155E-02 
521	 7.28605575941432E-02 
522	 7.35746457151208E-02 
523	 7.43004144193236E-02 
524	 7.51617691410381E-02 
525	 7.61405870046418E-02 
526	 7.71243665754136E-02 
527	 7.81659374680995E-02 
528	 7.92717859243973E-02 
529	 8.04238337066795E-02 
530	 8.15531846009144E-02 
531	 8.29370051377908E-02 
532	 8.44304006396789E-02 
533	 8.57940435050746E-02 
534	 8.73163707616957E-02 
535	 8.89310877357576E-02 
536	 9.05786598067461E-02 
537	 0.092228494698582 
538	 9.40206133887024E-02 
539	 9.58704200689633E-02 
540	 9.76970059736547E-02 
541	 9.96338717329545E-02 
542	 0.101558588151066 
543	 0.10343104057305 
544	 0.105276441582311 
545	 0.107120888873449 
546	 0.108968266512215 
547	 0.110796487538217 
548	 0.112549012639979 
549	 0.114287724936419 
550	 0.115982266030277 
551	 0.11758293619243 
552	 0.119095676015895 
553	 0.120615446064415 
554	 0.122168235698068 
555	 0.123687056801445 
556	 0.125130723287834 
557	 0.126616882331644 
558	 0.128199414369634 
559	 0.129648153271837 
560	 0.131130237048518 
561	 0.13264495157786 
562	 0.134109545055349 
563	 0.135667559462817 
564	 0.137157126447738 
565	 0.13846468609178 
566	 0.139638785309558 
567	 0.140813199768732 
568	 0.141987405531489 
569	 0.143092625938786 
570	 0.144072863547007 
571	 0.144923101717067 
572	 0.145688346383318 
573	 0.146451646694877 
574	 0.147053097849094 
575	 0.147594070730891 
576	 0.148172023092066 
577	 0.148693937519215 
578	 0.149077141944763 
579	 0.149416322930534 
580	 0.14987876789485 
581	 0.150170796725769 
582	 0.150360186965275 
583	 0.150492263891721 
584	 0.150483504394718 
585	 0.150374785773185 
586	 0.150159371190819 
587	 0.14981393676677 
588	 0.149312959090064 
589	 0.149041993393016 
590	 0.149041203759833 
591	 0.148927384260765 
592	 0.148629914453998 
593	 0.148333319102246 
594	 0.148132492802273 
595	 0.147643913129858 
596	 0.147146871037661 
597	 0.14663641020606 
598	 0.145976082155527 
599	 0.14534531396138 
600	 0.144794165307435 
601	 0.14432994743646 
602	 0.143903573237216 
603	 0.143814642604891 
604	 0.14380639644875 
605	 0.143560436214821 
606	 0.143433414748143 
607	 0.143424661240359 
608	 0.14344072650043 
609	 0.14331748459489 
610	 0.143203704783087 
611	 0.143100471475079 
612	 0.142983180618358 
613	 0.142849387941605 
614	 0.142674899641715 
615	 0.142496628764957 
616	 0.142386753904521 
617	 0.142387590310274 
618	 0.142223594517208 
619	 0.141897629302019 
620	 0.141924839477781 
621	 0.141713621850761 
622	 0.141419628299686 
623	 0.141349485228332 
624	 0.141297110181997 
625	 0.14107827677272 
626	 0.140832561539474 
627	 0.140975317535576 
628	 0.140841591457213 
629	 0.140715504661018 
630	 0.140827301273565 
631	 0.140793978699743 
632	 0.140643773235531 
633	 0.14044736463007 
634	 0.140255525883168 
635	 0.139735934319724 
636	 0.139107413967026 
637	 0.138496124141693 
638	 0.137808777537177 
639	 0.137080440761127 
640	 0.136273525185248 
641	 0.135364953224912 
642	 0.134455755459647 
643	 0.13331557119971 
644	 0.131975065567902 
645	 0.130683852631627 
646	 0.12926803184012 
647	 0.127858679564462 
648	 0.126620617492669 
649	 0.125528347770869 
650	 0.124590294939729 
651	 0.123839785533646 
652	 0.123341438953346 
653	 0.122971711377398 
654	 0.122778731738529 
655	 0.122658382022717 
656	 0.122291845142538 
657	 0.122041947235267 
658	 0.121785010575506 
659	 0.121333900315191 
660	 0.120654056236626 
661	 0.119698505673196 
662	 0.11852236127607 
663	 0.117260511700648 
664	 0.115864077296904 
665	 0.114494585464581 
666	 0.113191641804223 
667	 0.11177517850831 
668	 0.110418843430186 
669	 0.109172536648009 
670	 0.108076447409769 
671	 0.107292749958144 
672	 0.106627332940545 
673	 0.106094575207585 
674	 0.105910982655257 
675	 0.105903351658002 
676	 0.106154587493597 
677	 0.106732851350412 
678	 0.107533292411681 
679	 0.108751779079567 
680	 0.110431777109165 
681	 0.112524790821997 
682	 0.114914923273661 
683	 0.117728997831813 
684	 0.120881679672471 
685	 0.124308486249283 
686	 0.128342705944936 
687	 0.132337848980079 
688	 0.135479222002966 
689	 0.13851981860426 
690	 0.141294618713552 
691	 0.143714399406726 
692	 0.14572676518959 
693	 0.147697564023114 
694	 0.149329670849602 
695	 0.150404387559374 
696	 0.151086402819429 
697	 0.151336685357083 
698	 0.151318494898056 
699	 0.151190569051807 
700	 0.150885727486559 
701	 0.150466167864956 
702	 0.149881861711001 
703	 0.148980961288447 
704	 0.147924018974485 
705	 0.146682413287646 
706	 0.145299903155101 
707	 0.143924870396174 
708	 0.142357994642242 
709	 0.140492680896814 
710	 0.138354248501343 
711	 0.13637459298699 
712	 0.134204693893842 
713	 0.131769012976831 
714	 0.129261476444506 
715	 0.126622664716527 
716	 0.123608757483135 
717	 0.120425723221674 
718	 0.117736765451359 
719	 0.115039335076913 
720	 0.112780513842833 
721	 0.110873860707504 
722	 0.108584703297676 
723	 0.105726444970382 
724	 0.102922496105584 
725	 0.10077030413254 
726	 9.82991882149941E-02 
727	 9.56283058594517E-02 
728	 9.29666173157685E-02 
729	 8.98831563657331E-02 
730	 8.71288837399208E-02 
731	 8.48726149004997E-02 
732	 8.27702154343545E-02 
733	 8.09905652726362E-02 
734	 7.94360719316052E-02 
735	 7.81100049868417E-02 
736	 7.71129986743655E-02 
737	 7.63824577541318E-02 
738	 7.57973348137717E-02 
739	 7.52906220175163E-02 
740	 7.49410932006645E-02 
741	 7.46994492011938E-02 
742	 7.45557311610404E-02 
743	 7.44864297642052E-02 
744	 7.42129187987766E-02 
745	 7.41168156289201E-02 
746	 7.42053670015114E-02 
747	 7.39073183284264E-02 
748	 7.38313521497758E-02 
749	 0.073784566725773 
750	 7.35551315110704E-02 
751	 7.35662558189984E-02 
752	 7.34762806908856E-02 
753	 7.33190540536119E-02 
754	 7.32962640428897E-02 
755	 7.31236515632076E-02 
756	 7.30704508260239E-02 
757	 7.31296177726634E-02 
758	 7.27251558384244E-02 
759	 0.072498543761677 
760	 7.22639662271486E-02 
761	 7.16834291985321E-02 
762	 7.16524524974448E-02 
763	 0.071622140901862 
764	 7.17937668011088E-02 
765	 7.23564391575253E-02 
766	 7.27315366229244E-02 
767	 7.28816840213374E-02 
768	 7.29464042306782E-02 
769	 7.31930209272914E-02 
770	 7.33103014405559E-02 
771	 7.34054762266485E-02 
772	 0.073593476114721 
773	 7.37973429429334E-02 
774	 7.38741211151065E-02 
775	 7.39405050796534E-02 
776	 7.41693238591271E-02 
777	 7.42687263222247E-02 
778	 7.45127874116043E-02 
779	 7.48859964086389E-02 
780	 7.50651679601539E-02 
781	 0.075277397574757 
782	 7.56645323794228E-02 
783	 7.61633393702329E-02 
784	 0.076276354185936 
785	 7.64587348734402E-02 
786	 7.67181888427523E-02 
787	 7.69557765191202E-02 
788	 0.077427846178711 
789	 0.077910985050742 
790	 7.82969564292111E-02 
791	 7.86403679484449E-02 
792	 7.92852681617357E-02 
793	 7.97219588968273E-02 
794	 7.98204135772119E-02 
795	 8.02215739647069E-02 
796	 8.05172512520447E-02 
797	 8.08258518159472E-02 
798	 8.12878737762198E-02 
799	 8.15589287767964E-02 
800	 8.18643737339183E-02 
801	 0.082177671930421 
802	 8.23738486643502E-02 
803	 8.27291642225663E-02 
804	 8.29819065624968E-02 
805	 8.30517580587826E-02 
806	 8.30965389236862E-02 
807	 8.32695972519919E-02 
808	 8.31175501892515E-02 
809	 0.082465047953592 
810	 0.082233589686437 
811	 8.18810990219666E-02 
812	 8.12953259425334E-02 
813	 8.05831738702777E-02 
814	 8.00448107815253E-02 
815	 7.94671546380023E-02 
816	 7.90471018039278E-02 
817	 7.91021099269432E-02 
818	 7.81692541616683E-02 
819	 7.75347414042225E-02 
820	 7.72830858161095E-02 
821	 7.58431274687219E-02 
822	 7.46167924193282E-02 
823	 7.35908903788755E-02 
824	 7.24765351521019E-02 
825	 7.12186948620584E-02 
826	 6.96601041562941E-02 
827	 6.79031877184062E-02 
828	 6.62965293360573E-02 
829	 6.48823469981297E-02 
830	 6.36720770170335E-02 
831	 6.26904348111315E-02 
832	 6.19701162850821E-02 
833	 6.09996710992855E-02 
834	 6.06300371215673E-02 
835	 6.07409412834585E-02 
836	 0.059897626846052 
837	 5.95521162572313E-02 
838	 0.059594788735872 
839	 5.95767424518147E-02 
840	 5.90433732044215E-02 
841	 5.87947238998139E-02 
842	 5.87445984808278E-02 
843	 5.85093053504687E-02 
844	 5.79623573824904E-02 
845	 5.78481600085404E-02 
846	 5.79475240373898E-02 
847	 5.74994278576409E-02 
848	 5.74121981175911E-02 
849	 5.71937397481766E-02 
850	 5.67660312130889E-02 
851	 5.67235779602201E-02 
852	 5.61970884610172E-02 
853	 5.58262062574104E-02 
854	 5.60152274545884E-02 
855	 5.60146057457706E-02 
856	 5.57501698417603E-02 
857	 5.55210479993649E-02 
858	 5.55627436497602E-02 
859	 0.055490963488034 
860	 5.51831137167739E-02 
861	 5.48928847455175E-02 
862	 0.054933287739898 
863	 5.47112144344554E-02 
864	 5.45634651624521E-02 
865	 5.45342939780998E-02 
866	 5.43740398824033E-02 
867	 5.43243696970173E-02 
868	 5.41232430755348E-02 
869	 5.36738573908867E-02 
870	 5.31775897756244E-02 
871	 5.29847081968262E-02 
872	 5.27434832897118E-02 
873	 5.23414768909567E-02 
874	 5.25951468345073E-02 
875	 5.22784466780864E-02 
876	 5.17942658148542E-02 
877	 5.17653675864371E-02 
878	 5.15962285198296E-02 
879	 5.15618638675332E-02 
880	 5.13763857012287E-02 
881	 5.07115833654388E-02 
882	 5.04890483602032E-02 
883	 5.03971834409272E-02 
884	 5.01553471955648E-02 
885	 0.049646231894077 
886	 4.94100528602172E-02 
887	 4.91755557371419E-02 
888	 4.88719244036326E-02 
889	 4.87579854038985E-02 
890	 4.89515676915878E-02 
891	 4.87518153739568E-02 
892	 4.78591323658733E-02 
893	 0.047082070329182 
894	 4.68259619779636E-02 
895	 4.70519738806683E-02 
896	 4.73522881876177E-02 
897	 4.69201012475087E-02 
898	 4.64946908074045E-02 
899	 4.60841161151358E-02 
900	 4.55954793794618E-02 
901	 4.55420937495563E-02 
902	 4.60070514308834E-02 
903	 4.60509902093986E-02 
904	 4.49504717421672E-02 
905	 4.48707818834653E-02 
906	 4.43596940673714E-02 
907	 4.35247600604446E-02 
908	 4.36175804621051E-02 
909	 4.39731327467538E-02 
910	 4.40146746607114E-02 
911	 4.32977395082994E-02 
912	 0.041755772437131 
913	 4.10464645339267E-02 
914	 4.11098225522234E-02 
915	 0.041378811107631 
916	 4.12011163359845E-02 
917	 0.042165281343996 
918	 4.19592985273588E-02 
919	 4.03727111045417E-02 
920	 4.02779972645363E-02 
921	 4.08455757935428E-02 
922	 4.05467720077186E-02 
923	 3.91708809734616E-02 
924	 3.97283245157012E-02 
925	 3.78443891359453E-02 
926	 3.64567939968078E-02 
927	 0.038817433048586 
928	 3.87566743240003E-02 
929	 3.66425868197213E-02 
930	 3.52706401253067E-02 
931	 3.80765222766416E-02 
932	 3.32406115282411E-02 
933	 3.18660819313492E-02 
934	 3.50573107805619E-02 
935	 3.58481828587133E-02 
936	 0.033090561022498 
937	 2.91624187121795E-02 
938	 2.51186887149582E-02 
939	 2.21407701828397E-02 
940	 2.42163012307057E-02 
941	 2.71008622764834E-02 
942	 2.92396735601288E-02 
943	 2.94617119272978E-02 
944	 2.14543746353162E-02 
945	 1.94170188762968E-02 
946	 0.023583135932138 
947	 2.49460990434931E-02 
948	 2.27374696505523E-02 
949	 2.09568550595619E-02 
950	 2.38290625547332E-02 
951	 0.031869851069973 
952	 2.75831387351265E-02 
953	 2.66641216199794E-02 
954	 3.00916650943722E-02 
955	 0.028687041957287 
956	 2.65059900884175E-02 
957	 2.59095979115986E-02 
958	 2.57825765428892E-02 
959	 2.42173340161681E-02 
960	 2.96873610656974E-02 
961	 2.98440711504625E-02 
962	 2.66766407462379E-02 
963	 3.03576535208221E-02 
964	 3.08353561353619E-02 
965	 3.04145874862654E-02 
966	 2.93930085181887E-02 
967	 2.67370650119709E-02 
968	 2.69569774221854E-02 
969	 2.91291645959002E-02 
970	 3.09839590696657E-02 
971	 0.03035231011807 
972	 3.06830360184294E-02 
973	 2.95191323582759E-02 
974	 2.74063906882394E-02 
975	 2.78895907225926E-02 
976	 2.80474302434983E-02 
977	 0.03008930718505 
978	 3.17887950154568E-02 
979	 2.87256020353517E-02 
980	 2.96897431518765E-02 
981	 3.17257151811699E-02 
982	 3.22618357563468E-02 
983	 3.05567373739789E-02 
984	 2.83525949466706E-02 
985	 2.83869631310407E-02 
986	 3.00573304792923E-02 
987	 3.04738248399292E-02 
988	 2.97099385595461E-02 
989	 3.17817089902873E-02 
990	 3.33743565701124E-02 
991	 2.81438795574314E-02 
992	 2.77691432279361E-02 
993	 2.92958100007782E-02 
994	 3.01184639000221E-02 
995	 2.93264501762947E-02 
996	 2.85436117574399E-02 
997	 2.85400865063577E-02 
998	 3.00038365086685E-02 
999	 3.25788753815052E-02 
1000	 3.14571875381371E-02 
1001	 3.25442934537152E-02 
1002	 3.28276344312029E-02 
1003	 3.29074730646518E-02 
1004	 3.28750243082414E-02 
1005	 3.26958198245849E-02 
1006	 3.21299435988028E-02 
1007	 3.20727737901215E-02 
1008	 3.22578293109886E-02 
1009	 3.25255720500793E-02 
1010	 3.30913865271099E-02 
1011	 3.34342759827234E-02 
1012	 3.26703290817836E-02 
1013	 3.19574244675757E-02 
1014	 3.19517333044291E-02 
1015	 3.22479390704456E-02 
1016	 3.24268655124661E-02 
1017	 3.34786847276424E-02 
1018	 3.36781826484964E-02 
1019	 3.30269809638987E-02 
1020	 0.032749945409038 
1021	 3.23257632668744E-02 
1022	 3.20676048455208E-02 
1023	 3.24501244077309E-02 
1024	 3.32080187094842E-02 
1025	 3.32267295402357E-02 
1026	 3.33774411763433E-02 
1027	 3.35703399563749E-02 
1028	 3.33956632386729E-02 
1029	 3.33647014059319E-02 
1030	 3.36225119169591E-02 
1031	 3.38749506730678E-02 
1032	 3.36394224233356E-02 
1033	 0.034024095537626 
1034	 3.53381735319985E-02 
1035	 3.58184316083924E-02 
1036	 3.63221127411042E-02 
1037	 3.64006928931659E-02 
1038	 3.59502918971536E-02 
1039	 3.52924725568567E-02 
1040	 3.46135818137771E-02 
1041	 3.42155415965634E-02 
1042	 3.40775133837232E-02 
1043	 3.41516931273333E-02 
1044	 3.43910473952722E-02 
1045	 3.49653347759372E-02 
1046	 3.53778258757336E-02 
1047	 3.59932087867836E-02 
1048	 3.62841517890004E-02 
1049	 3.62839930270408E-02 
1050	 0.036579584154725 
1051	 3.70575720856128E-02 
1052	 3.72235302534654E-02 
1053	 3.74277747468551E-02 
1054	 3.75560557284564E-02 
1055	 3.73588563884181E-02 
1056	 0.037160998999899 
1057	 3.69492387716875E-02 
1058	 3.67809994665504E-02 
1059	 3.66300186256748E-02 
1060	 3.63459908635966E-02 
1061	 3.62223673558479E-02 
1062	 3.62342123699647E-02 
1063	 3.62706944758161E-02 
1064	 3.62346229933398E-02 
1065	 3.64320119453663E-02 
1066	 3.71429680422901E-02 
1067	 3.72603649775571E-02 
1068	 0.037016909840022 
1069	 0.037057007337192 
1070	 3.68954976165119E-02 
1071	 3.67959677408446E-02 
1072	 3.67512237040312E-02 
1073	 3.72358558733548E-02 
1074	 3.71867485735511E-02 
1075	 3.67352832997164E-02 
1076	 3.66890252521142E-02 
1077	 0.036768591531267 
1078	 3.67403679726462E-02 
1079	 3.69257188679521E-02 
1080	 3.68335854305053E-02 
1081	 3.63218481527079E-02 
1082	 3.62261131684465E-02 
1083	 3.63136319596353E-02 
1084	 3.62692249990875E-02 
1085	 3.64948511944344E-02 
1086	 3.64853315619404E-02 
1087	 3.61180393775997E-02 
1088	 3.58768194829067E-02 
1089	 3.50635883384483E-02 
1090	 3.53813828803989E-02 
1091	 3.57140630512457E-02 
1092	 0.036531893181403 
1093	 3.65840616643996E-02 
1094	 3.67220860416139E-02 
1095	 3.65607795104494E-02 
1096	 3.55194255148921E-02 
1097	 3.51713964673686E-02 
1098	 3.54332504482087E-02 
1099	 3.51413799932501E-02 
1100	 3.44612843945035E-02 
1101	 3.41726619446516E-02 
1102	 0.033752608545809 
1103	 3.36002233900145E-02 
1104	 3.43335452592905E-02 
1105	 3.40913682853386E-02 
1106	 3.40125012585349E-02 
1107	 3.36204992877191E-02 
1108	 3.27151725903585E-02 
1109	 3.20327232811337E-02 
1110	 3.16689180819822E-02 
1111	 3.20565622196622E-02 
1112	 3.16606056945121E-02 
1113	 3.06430886820664E-02 
1114	 2.98237773455307E-02 
1115	 2.75411425374274E-02 
1116	 2.64167493472653E-02 
1117	 2.81708703106654E-02 
1118	 2.89601480297177E-02 
1119	 3.10121911727531E-02 
1120	 3.03419696079986E-02 
1121	 2.47373131982867E-02 
1122	 2.05416618724278E-02 
1123	 0.015849709207125 
1124	 1.31739853541174E-02 
1125	 0.01710833246626 
1126	 1.50037437328014E-02 
1127	 1.84465128708186E-02 
1128	 2.79944420885171E-02 
1129	 3.19869012193436E-02 
1130	 3.98506556650144E-02 
1131	 3.95792871632853E-02 
1132	 3.14672515104942E-02 
1133	 2.86360052869802E-02 
1134	 2.63349894729605E-02 
1135	 2.53949207788817E-02 
1136	 2.48849389959053E-02 
1137	 2.39468626063245E-02 
1138	 2.50854502531033E-02 
1139	 2.19544816941269E-02 
1140	 1.35936270536622E-02 
1141	 1.71483012897159E-02 
1142	 2.45853803583222E-02 
1143	 2.71444587142713E-02 
1144	 3.23164303705362E-02 
1145	 3.38372893416922E-02 
1146	 2.46322163639385E-02 
1147	 1.88975725258752E-02 
1148	 2.18860772404777E-02 
1149	 2.65640668891817E-02 
1150	 2.73611052019168E-02 
1151	 2.90278177138036E-02 
1152	 2.91795634811415E-02 
1153	 2.54095992813413E-02 
1154	 2.50778207603955E-02 
1155	 2.59061242263945E-02 
1156	 2.88002444781666E-02 
1157	 2.88444205527207E-02 
1158	 2.83884577673171E-02 
1159	 0.028637334109443 
1160	 2.75943113855223E-02 
1161	 2.75830709352476E-02 
1162	 2.90159365386396E-02 
1163	 2.89003136723103E-02 
1164	 2.72999137977057E-02 
1165	 2.69828684929958E-02 
1166	 2.69191961120067E-02 
1167	 2.65869307881234E-02 
1168	 2.78725632093621E-02 
1169	 2.86143845502895E-02 
1170	 0.02821054792021 
1171	 2.83702988723956E-02 
1172	 0.029016434133287 
1173	 0.028935619597334 
1174	 2.84692518164252E-02 
1175	 2.85342882009134E-02 
1176	 2.87754659078876E-02 
1177	 2.84309953282218E-02 
1178	 2.86269973849001E-02 
1179	 2.85852658607778E-02 
1180	 2.74132789535331E-02 
1181	 2.73029082599991E-02 
1182	 2.78789523715386E-02 
1183	 2.77502603279208E-02 
1184	 2.79887019628458E-02 
1185	 2.86341633655681E-02 
1186	 2.84464770615397E-02 
1187	 2.78474642633144E-02 
1188	 2.80398941900983E-02 
1189	 2.83933623476844E-02 
1190	 2.79050560257628E-02 
1191	 2.81245984837722E-02 
1192	 2.85206480959434E-02 
1193	 2.92579267147252E-02 
1194	 0.028365074459159 
1195	 2.80299810095324E-02 
1196	 2.89149745353127E-02 
1197	 0.02851607668614 
1198	 0.027908844734167 
1199	 0.028445443432771 
1200	 2.82329726698291E-02 
1201	 2.77410533744477E-02 
1202	 2.80299599199745E-02 
1203	 2.78953438843988E-02 
1204	 2.77794092311555E-02 
1205	 2.79557622464889E-02 
1206	 0.027749761509308 
1207	 2.80305971449691E-02 
1208	 2.79117090606836E-02 
1209	 2.69497442518206E-02 
1210	 2.70495099174825E-02 
1211	 2.76767476076643E-02 
1212	 2.81189646692543E-02 
1213	 2.88315092016095E-02 
1214	 2.90162220804061E-02 
1215	 2.88018848118733E-02 
1216	 2.82563084525145E-02 
1217	 0.028418240740254 
1218	 2.83067681277358E-02 
1219	 2.77796962292992E-02 
1220	 2.78247643099952E-02 
1221	 2.78303856500906E-02 
1222	 2.72060718781085E-02 
1223	 2.72549101780413E-02 
1224	 2.79053957666026E-02 
1225	 2.80368646667548E-02 
1226	 2.80044150167411E-02 
1227	 2.82736692700285E-02 
1228	 2.82980592783545E-02 
1229	 2.75629501048463E-02 
1230	 2.73401619527604E-02 
1231	 2.81474091470604E-02 
1232	 2.85324763594569E-02 
1233	 2.83081185050228E-02 
1234	 2.84784761228758E-02 
1235	 0.028628880212046 
1236	 2.84100036216897E-02 
1237	 2.81100789254462E-02 
1238	 2.79858029402975E-02 
1239	 2.79725361131325E-02 
1240	 2.75261626912217E-02 
1241	 2.73364319236588E-02 
1242	 2.79460781542921E-02 
1243	 2.83603732511412E-02 
1244	 2.80973385041672E-02 
1245	 2.80640333732484E-02 
1246	 2.80245245067451E-02 
1247	 2.77433831745091E-02 
1248	 2.76996594944849E-02 
1249	 2.80571558809219E-02 
1250	 0.028583140640357 
1251	 2.87457856019642E-02 
1252	 0.028665568060637 
1253	 2.83615687919768E-02 
1254	 2.77766488518995E-02 
1255	 2.74706287062655E-02 
1256	 0.027404152114903 
1257	 2.78368752501941E-02 
1258	 2.80143802840945E-02 
1259	 2.82954822582475E-02 
1260	 2.84287010627639E-02 
1261	 2.86401318123723E-02 
1262	 2.85533871625945E-02 
1263	 2.80613270209768E-02 
1264	 2.79632120136753E-02 
1265	 2.81241625071759E-02 
1266	 2.79127336142994E-02 
1267	 2.80864103489688E-02 
1268	 2.80909676993232E-02 
1269	 2.78592534332702E-02 
1270	 2.81358232950896E-02 
1271	 2.85115289278775E-02 
1272	 2.89343986381839E-02 
1273	 2.94426135784462E-02 
1274	 2.93956979261835E-02 
1275	 2.88501144106304E-02 
1276	 2.82598165385839E-02 
1277	 2.77824262296436E-02 
1278	 2.75721101496609E-02 
1279	 2.77416176946536E-02 
1280	 2.79898952785529E-02 
1281	 2.80958218611629E-02 
1282	 0.027823606637425 
1283	 2.77555359969181E-02 
1284	 2.80219032813216E-02 
1285	 2.80448219551546E-02 
1286	 2.76937297314844E-02 
1287	 0.027709149565927 
1288	 2.80004299884407E-02 
1289	 2.80058884430774E-02 
1290	 2.80022722008393E-02 
1291	 2.81532723126498E-02 
1292	 2.76155079705774E-02 
1293	 2.69357942922172E-02 
1294	 2.70792255240318E-02 
1295	 2.68795811203581E-02 
1296	 2.68297446115089E-02 
1297	 2.75464402165002E-02 
1298	 2.76787452342235E-02 
1299	 2.74626783806387E-02 
1300	 0.027181097816956 
1301	 2.66081466135102E-02 
1302	 2.61208136495535E-02 
1303	 2.59311686561729E-02 
1304	 2.64422705860064E-02 
1305	 2.67334671055777E-02 
1306	 0.027051604688437 
1307	 2.74769952047286E-02 
1308	 2.76656809430233E-02 
1309	 0.028005866310297 
1310	 2.77879695094345E-02 
1311	 2.62679715545006E-02 
1312	 2.61040040363102E-02 
1313	 2.65926848261703E-02 
1314	 2.66388530560526E-02 
1315	 2.74981639990928E-02 
1316	 2.78835656734875E-02 
1317	 2.76886446779868E-02 
1318	 2.73498514249345E-02 
1319	 2.65497372850294E-02 
1320	 2.65316683119387E-02 
1321	 2.69769825442537E-02 
1322	 2.66199982560006E-02 
1323	 2.60263811900037E-02 
1324	 2.51931419128492E-02 
1325	 2.31490920806262E-02 
1326	 2.19010771110546E-02 
1327	 2.35692473458144E-02 
1328	 2.41959645732653E-02 
1329	 2.13482144514178E-02 
1330	 2.07703948643837E-02 
1331	 2.26453014592546E-02 
1332	 2.28423210995835E-02 
1333	 2.30414417656641E-02 
1334	 2.31931659957772E-02 
1335	 0.023591340012989 
1336	 1.97225753040721E-02 
1337	 1.97194492899578E-02 
1338	 0.025408548984072 
1339	 2.72177252168788E-02 
1340	 2.70317604796348E-02 
1341	 2.70506181866234E-02 
1342	 0.025862294292705 
1343	 2.44557924270129E-02 
1344	 1.96983439955243E-02 
1345	 1.97813397982648E-02 
1346	 2.66935325061329E-02 
1347	 2.99816431620016E-02 
1348	 3.89594259081838E-02 
1349	 4.41200176130818E-02 
1350	 3.21350490524985E-02 
1351	 2.49452474711226E-02 
1352	 1.68649049806573E-02 
1353	 6.75024064372141E-03 
1354	-1.70594988342513E-02 
1355	 2.99365270735898E-02 
1356	 4.73869515524945E-02 
1357	-0.18587543896618 
1358	-0.256743865360475 
1359	-0.161495905479742 
1360	-8.07182632268367E-02 
1361	 0.236633695769438 
1362	 0.45348943776062 
1363	 0.145327757649909 
1364	 0.120697290082081 
1365	 0.637964236146724 
1366	 1.15372506883694 
1367	 0.972969658057317 
1368	 0.925855518531062 
1369	 0.537730647873102 
1370	 0.345622200764967 
1371	 0.223094722402749 
1372	 4.19619343991886E-02 
1373	-0.404359491324796 
1374	-0.237896268627214 
1375	 6.06212823674809 
1376	 2.41123275543316 
1377	 0.553416601870593 
1378	 0.457588292979044 
1379	-0.12838192443254 
1380	-0.229851202758856 
1381	-1.16980351041872E-02 
1382	-9.58087672182468E-02 
1383	-0.887287340282062 
1384	-1.32074945879081 
1385	-4.16660725555303 
1386	 17.8513004320375 
1387	 1.34859825784608 
1388	 1.51903050045649 
1389	 0.37251672003427 
1390	 6.45568236800098E-02 
1391	-0.138787285462622 
1392	-0.422399951446773 
1393	-0.894143677284567 
1394	 8.45426985507177E-02 
1395	 0.432086929706351 
1396	-32.3067914602091 
1397	-4.7546062076707 
1398	 0.05952505083798 
1399	-0.128931204151835 
1400	-69.4350540011467 
1401	 7.73090218750902 
1402	 3.12687909954032 
1403	 1.50984403544655 
1404	-0.580812469985285 
1405	 0.327797020003967 
1406	 0.83813251044781 
1407	 0.837897419274509 
1408	 1.08704987323221 
1409	 0.799103535584881 
1410	 0.389371700565186 
1411	 0.307329532146327 
1412	 0.102480396708977 
1413	 0.163425325037332 
1414	 1.27171319621142 
1415	 1.32616940385691 
1416	 0.193041121699282 
1417	 0.34892949386781 
1418	 0.728870898429798 
1419	 0.531016400048433 
1420	 0.371105874149924 
1421	 0.319392171383069 
1422	 8.22928091574571E-02 
1423	-0.10353812067563 
1424	-0.26541018106033 
1425	-0.195093886546303 
1426	-8.84517877271414E-02 
1427	-0.113434170631122 
1428	-8.01060132653592E-02 
1429	-3.41793510313582E-02 
1430	-5.38656606245937E-02 
1431	-8.14151904073238E-02 
1432	-6.59877305968395E-02 
1433	-9.61429449817339E-03 
1434	 5.16052319304953E-02 
1435	 5.07908703893602E-02 
1436	 8.13210045515191E-02 
1437	 0.157678302182519 
1438	 7.99819371359439E-02 
1439	 2.60581679693465E-03 
1440	-7.95555982821555E-03 
1441	 1.06559395979426E-02 
1442	-2.44088787787449E-02 
1443	-7.10664878869465E-02 
1444	 2.12502054781419E-02 
1445	 0.130655114173081 
1446	 0.117655705735393 
1447	 0.104802987706731 
1448	 7.21145114688571E-02 
1449	 8.53322149462512E-03 
1450	 1.59324915477216E-02 
1451	 0.031055586538507 
1452	 2.65672330886716E-02 
1453	 2.53254723638228E-02 
1454	 2.17533442742842E-02 
1455	 1.78158832755342E-02 
1456	 2.02000519405153E-02 
1457	 0.023733637997427 
1458	 2.23037188202948E-02 
1459	 2.18573240095637E-02 
1460	 2.22849337592678E-02 
1461	 1.51544993023849E-02 
1462	 1.92465693243546E-02 
1463	 3.73067732632247E-02 
1464	 3.99037145458974E-02 
1465	 4.24554313399483E-02 
1466	 4.25405351752037E-02 
1467	 2.59669769443068E-02 
1468	 2.26854701224775E-02 
1469	 3.04671773768176E-02 
1470	 3.05815997669919E-02 
1471	 2.55557217513776E-02 
1472	 2.85931017037025E-02 
1473	 4.41267536465665E-02 
1474	 0.035522691412135 
1475	 1.21570057499984E-02 
1476	 1.03356525334127E-02 
1477	 6.59028175562471E-03 
1478	 2.97938820933477E-03 
1479	 1.06898872234678E-02 
1480	 1.68970099186781E-02 
1481	 0.015893654873084 
1482	 1.75907260518437E-02 
1483	 3.11274659345015E-02 
1484	 3.18451973353974E-02 
1485	 2.23899992337473E-02 
1486	 1.98842500742612E-02 
1487	 1.77793339673045E-02 
1488	 1.54819415276724E-02 
1489	 1.32218923463251E-02 
1490	 1.44549612964626E-02 
1491	 0.017084200172022 
1492	 0.017417266568123 
1493	 1.84030842046698E-02 
1494	 2.01643192740881E-02 
1495	 2.27023872963757E-02 
1496	 2.22796344322964E-02 
1497	 1.98998947839924E-02 
1498	 1.98536002868676E-02 
1499	 1.95311268372687E-02 
1500	 1.85914430431598E-02 
1501	 1.85892263837726E-02 
1502	 1.97053241985872E-02 
1503	 2.13217175809534E-02 
1504	 2.07808630351782E-02 
1505	 2.03180461726454E-02 
1506	 1.98555599303507E-02 
1507	 1.85655085083922E-02 
1508	 1.76919215620271E-02 
1509	 1.88225804878026E-02 
1510	 1.97758599363334E-02 
1511	 1.89564091937819E-02 
1512	 1.85968366873033E-02 
1513	 1.98976615152487E-02 
1514	 2.07956857119343E-02 
1515	 2.09923540369871E-02 
1516	 2.03835538604591E-02 
1517	 1.97028049100994E-02 
1518	 1.97309436793807E-02 
1519	 1.86963489062109E-02 
1520	 0.017843518137775 
1521	 1.78243865116056E-02 
1522	 1.72132242240429E-02 
1523	 1.78640799363635E-02 
1524	 1.97824173424105E-02 
1525	 2.01902433414971E-02 
1526	 0.020081253504327 
1527	 0.020276530975793 
1528	 1.98442857524128E-02 
1529	 1.98466182524728E-02 
1530	 2.01714169098533E-02 
1531	 0.019959538577843 
1532	 1.97289312369363E-02 
1533	 1.99317278298471E-02 
1534	 1.97947095065405E-02 
1535	 1.98970636341521E-02 
1536	 2.10873557270207E-02 
1537	 2.10119512308232E-02 
1538	 2.06577935187919E-02 
1539	 2.17121863920213E-02 
1540	 2.13393657773677E-02 
1541	 2.06222120056732E-02 
1542	 2.12802360180767E-02 
1543	 2.16473766495461E-02 
1544	 2.15597762572353E-02 
1545	 2.13938628516825E-02 
1546	 0.021102782012119 
1547	 2.04346331102676E-02 
1548	 2.02312476590887E-02 
1549	 2.08036759961553E-02 
1550	 2.07461811866436E-02 
1551	 2.03153553510207E-02 
1552	 2.03274763544303E-02 
1553	 2.02890971504961E-02 
1554	 2.04718195428645E-02 
1555	 2.08260693920479E-02 
1556	 2.07679729470011E-02 
1557	 2.11632766435105E-02 
1558	 2.14893795245125E-02 
1559	 2.10534254208644E-02 
1560	 2.11465134331228E-02 
1561	 2.12162466365599E-02 
1562	 2.06257271767096E-02 
1563	 2.08715141928475E-02 
1564	 2.13253097358752E-02 
1565	 2.09217956320781E-02 
1566	 2.07188610509034E-02 
1567	 2.08569193969727E-02 
1568	 2.09874796817494E-02 
1569	 2.14151425851509E-02 
1570	 0.021650739470447 
1571	 2.11611909929669E-02 
1572	 2.12152814980825E-02 
1573	 2.20175588371024E-02 
1574	 2.24237304603678E-02 
1575	 2.25959006802024E-02 
1576	 2.27155410350548E-02 
1577	 2.22474172397239E-02 
1578	 2.10870496614222E-02 
1579	 2.08626934174934E-02 
1580	 0.02123612572126 
1581	 2.08481110655298E-02 
1582	 2.14422269671863E-02 
1583	 2.25826982090096E-02 
1584	 2.22817094975286E-02 
1585	 2.24682417501767E-02 
1586	 2.30630782437544E-02 
1587	 2.23449537753881E-02 
1588	 2.21814585476709E-02 
1589	 2.20088940975962E-02 
1590	 2.13846428015543E-02 
1591	 2.17933941143294E-02 
1592	 2.21174100407435E-02 
1593	 2.18402440524375E-02 
1594	 2.17967643015317E-02 
1595	 2.20371397378327E-02 
1596	 2.18797738451328E-02 
1597	 0.021252108842207 
1598	 2.08980749997255E-02 
1599	 2.14401149247645E-02 
1600	 2.20216102927661E-02 
1601	 2.21063538457126E-02 
1602	 2.22633720622207E-02 
1603	 2.18983389041069E-02 
1604	 2.12586088126272E-02 
1605	 2.17027006702461E-02 
1606	 2.23289694354498E-02 
1607	 2.17166812246486E-02 
1608	 2.15386404694099E-02 
1609	 2.17276482744648E-02 
1610	 2.10415423915288E-02 
1611	 2.10604178866286E-02 
1612	 2.11457298571582E-02 
1613	 2.07210780745147E-02 
1614	 2.09654650438322E-02 
1615	 2.13626069586902E-02 
1616	 2.15004940806208E-02 
1617	 0.020883459895347 
1618	 0.020848310733259 
1619	 2.20617789515509E-02 
1620	 2.17377103390273E-02 
1621	 2.16054907650656E-02 
1622	 0.02259135872936 
1623	 2.17371864713522E-02 
1624	 2.12165406693041E-02 
1625	 2.24601651298103E-02 
1626	 2.32389157580363E-02 
1627	 2.30271679463323E-02 
1628	 2.29138437108432E-02 
1629	 2.27466239776021E-02 
1630	 2.16640733533494E-02 
1631	 2.11367372970767E-02 
1632	 2.14582211025171E-02 
1633	 2.13359747727774E-02 
1634	 0.020998249458037 
1635	 2.14541889044051E-02 
1636	 2.20964531285617E-02 
1637	 2.13923060304732E-02 
1638	 2.09302914902946E-02 
1639	 2.16023102071298E-02 
1640	 2.16471436983366E-02 
1641	 2.14634786133171E-02 
1642	 2.11292330105194E-02 
1643	 2.07339411088652E-02 
1644	 2.11988001054052E-02 
1645	 2.16778665483544E-02 
1646	 0.021969983977835 
1647	 2.17803573574995E-02 
1648	 2.12933795650241E-02 
1649	 2.12802358806236E-02 
1650	 2.15058647918092E-02 
1651	 2.22680830326613E-02 
1652	 2.23693260691026E-02 
1653	 2.20546232660502E-02 
1654	 2.22744220998004E-02 
1655	 0.021974193552536 
1656	 2.15704769894608E-02 
1657	 2.17548566276666E-02 
1658	 2.19737095591136E-02 
1659	 2.16066288860447E-02 
1660	 2.14402462557806E-02 
1661	 2.16876853209776E-02 
1662	 2.17907129248117E-02 
1663	 2.18154941738984E-02 
1664	 2.21690087944456E-02 
1665	 2.29758754174916E-02 
1666	 2.30239094302302E-02 
1667	 2.25630353874404E-02 
1668	 2.25702549565788E-02 
1669	 2.23066742166928E-02 
1670	 0.022511829244274 
1671	 2.28086184346667E-02 
1672	 2.18536191177902E-02 
1673	 2.11925342818307E-02 
1674	 2.10090399062226E-02 
1675	 2.08147208844526E-02 
1676	 2.16887229757366E-02 
1677	 2.17129874942791E-02 
1678	 2.09099078602759E-02 
1679	 2.16842875531469E-02 
1680	 2.21053592340911E-02 
1681	 2.21698489278837E-02 
1682	 2.32048367106107E-02 
1683	 2.21057031325711E-02 
1684	 2.02458004196495E-02 
1685	 0.021366160795938 
1686	 2.17449129516105E-02 
1687	 2.06685393648468E-02 
1688	 2.16059886494585E-02 
1689	 2.17119097273468E-02 
1690	 2.00922316194479E-02 
1691	 2.05252492943911E-02 
1692	 2.18085982730745E-02 
1693	 2.14581077986371E-02 
1694	 2.16472211067727E-02 
1695	 2.22832940620731E-02 
1696	 2.10131809698374E-02 
1697	 2.01991160110197E-02 
1698	 2.11503653377574E-02 
1699	 2.21572405059485E-02 
1700	 2.21626526513917E-02 
1701	 2.09552911682526E-02 
1702	 1.97653268181797E-02 
1703	 1.95352002501117E-02 
1704	 2.05052999825295E-02 
1705	 2.17985511968643E-02 
1706	 2.28168527870557E-02 
1707	 2.23916596078651E-02 
1708	 2.08769648298514E-02 
1709	 2.07603774838305E-02 
1710	 2.15549727688086E-02 
1711	 2.29709956952243E-02 
1712	 2.39083140347858E-02 
1713	 2.26623576424864E-02 
1714	 2.24568303853686E-02 
1715	 2.17060708491205E-02 
1716	 2.12159582811387E-02 
1717	 0.020946945075554 
1718	 0.021045579184984 
1719	 2.03499043121655E-02 
1720	 2.10906925234424E-02 
1721	 2.28853179692536E-02 
1722	 2.16955488544187E-02 
1723	 2.08085298429794E-02 
1724	 2.13434970589581E-02 
1725	 2.01979365756807E-02 
1726	 1.98244252597955E-02 
1727	 2.08893112518959E-02 
1728	 2.02978434268181E-02 
1729	 1.97893270082625E-02 
1730	 2.06888038158426E-02 
1731	 2.01879980086463E-02 
1732	 2.00379029617172E-02 
1733	 2.16653524504602E-02 
1734	 2.27507284556639E-02 
1735	 2.24749310945009E-02 
1736	 2.12566728095187E-02 
1737	 0.020268574423592 
1738	 1.96419746114328E-02 
1739	 1.90766766044696E-02 
1740	 1.98422459871557E-02 
1741	 2.04149298436094E-02 
1742	 1.89324487930067E-02 
1743	 1.88490612332374E-02 
1744	 2.09052944268114E-02 
1745	 2.08547896045723E-02 
1746	 1.84542744342451E-02 
1747	 1.81457848213121E-02 
1748	 0.015787140541724 
1749	 1.57085076259881E-02 
1750	 2.06266861909281E-02 
1751	 2.13936132459338E-02 
1752	 1.95695129380856E-02 
1753	 2.01464657406235E-02 
1754	 2.10477802834125E-02 
1755	 1.97580655065754E-02 
1756	 1.76722144680803E-02 
1757	 1.59137304019317E-02 
1758	 0.015834663507769 
1759	 1.80534711295366E-02 
1760	 2.15306784538648E-02 
1761	 2.25553685613467E-02 
1762	 2.04493410599376E-02 
1763	 1.86262621895376E-02 
1764	 1.84984375564543E-02 
1765	 1.65502265016607E-02 
1766	 1.58877160661473E-02 
1767	 2.00971123314475E-02 
1768	 2.09146665180791E-02 
1769	 1.77819355471826E-02 
1770	 0.019456334776317 
1771	 0.021131328856883 
1772	 1.71675189051965E-02 
1773	 1.86775460363637E-02 
1774	 2.18868338646232E-02 
1775	 1.63232548928396E-02 
1776	 1.54325136947585E-02 
1777	 1.89472263511962E-02 
1778	 0.019028455341995 
1779	 0.018958114539798 
1780	 1.90472316956835E-02 
1781	 1.70143930067338E-02 
1782	 1.73033974285984E-02 
1783	 1.72615600257747E-02 
1784	 1.69165587103079E-02 
1785	 1.94714663439433E-02 
1786	 2.10275216370622E-02 
1787	 2.37199163676689E-02 
1788	 2.69451624743256E-02 
1789	 0.029195890247531 
1790	 0.026896647091267 
1791	 2.76469324678269E-02 
1792	 2.62810685868567E-02 
1793	 2.10051424987637E-02 
1794	 3.44156634680268E-02 
1795	 3.51919986582142E-02 
1796	 1.53079085203513E-02 
1797	 3.41112342812396E-02 
1798	 3.75901905416799E-02 
1799	 2.88498210145219E-02 
1800	 5.12962569343253E-02 
1801	 5.77258272014401E-02 
1802	 4.65945254712686E-02 
1803	 3.37873805344489E-02 
1804	-8.69462974451839E-03 
1805	-2.65900498908519E-02 
1806	-3.44561905084682E-02 
1807	-6.19436915968034E-02 
1808	-8.28629559520452E-02 
1809	-5.15016769169341E-02 
1810	 8.74961881988664E-03 
1811	 0.123807011908366 
1812	 0.379066518206675 
1813	 0.461057680970511 
1814	 0.417706910987729 
1815	 0.314384866974531 
1816	-0.117724294306128 
1817	-3.70420398775827 
1818	 9.6002652433814 
1819	 1.90110080651445 
1820	-1.02188609779856 
1821	 0.57898115101126 
1822	 0.652353674216554 
1823	 0.38914011727062 
1824	 0.461138086806639 
1825	 1.09592453817287 
1826	 3.4675732816272 
1827	-2.69241319414753 
1828	-1.90016318675537 
1829	-4.5333735828454 
1830	-4.8412170291066 
1831	 0.271052110313174 
1832	 0.164130594567757 
1833	 0.261217707421634 
1834	 0.216529994086418 
1835	 0.426940081011321 
1836	 0.390273896556077 
1837	-0.384017179777289 
1838	-0.939032633499627 
1839	-0.484538215837156 
1840	-1.10544523161704 
1841	-0.090379415726122 
1842	-0.498425230108013 
1843	-5.45142415581159 
1844	 0.670555948068083 
1845	 0.535545684400387 
1846	 2.36483978245102E-02 
1847	 0.150888315545516 
1848	 0.753707791394031 
1849	-2.50947967055873 
1850	-0.834791630080476 
1851	-0.932763882356937 
1852	-0.967103936783929 
1853	-0.822940337028472 
1854	-0.745239103312593 
1855	-0.831915637678037 
1856	-0.840954664058373 
1857	-0.564085773683159 
1858	-0.617273167507597 
1859	-3.24272888478859 
1860	 5.97071624463646 
1861	 1.04154749163905 
1862	 0.313549561487909 
1863	-4.02680865787369E-02 
1864	 0.108334459518712 
1865	 0.249542175180176 
1866	 0.89911277760099 
1867	 0.880384373253572 
1868	 0.55361034364192 
1869	 0.343838137531678 
1870	-0.14364755056665 
1871	-0.409990617668364 
1872	-0.448029288402303 
1873	-0.365620113895552 
1874	-5.97122805495542 
1875	 4.00614187090968 
1876	 1.65049545318602 
1877	 1.60596511451415 
1878	-2.25144920084551 
1879	 7.59977219415119E-02 
1880	 0.1217607041249 
1881	-0.411158567544164 
1882	-0.287161316433792 
1883	-0.106639000513897 
1884	 0.500561859830631 
1885	 1.19995716619258 
1886	 1.56277018001437 
1887	 1.78628580274831 
1888	 3.23143951040501 
1889	 2.57513316979615 
1890	 1.0831511916002 
1891	 0.866182139711064 
1892	 1.20259239182488 
1893	 0.214183571468526 
1894	 0.165917419883061 
1895	-1.37906694342308 
1896	-0.761254145876183 
1897	-0.912565094647793 
1898	-1.04042087924501 
1899	 0.269485708972718 
1900	 9.39701754358607E-02 
1901	 10.0850404933183 
1902	 4.51225296217448 
1903	 5.23974442865905 
1904	 2.82097650573924 
1905	 4.04550807583363 
1906	 2.80650894332814 
1907	 1.61772604294884 
1908	-3.32255892873257 
1909	-3.11072891255222 
1910	-0.988457388017315 
1911	-1.73966893694565 
1912	 1.18176441002512 
1913	 0.511850736616078 
1914	-0.433807547669496 
1915	 0.218511163557973 
1916	 1.66695715281859 
1917	 2.79738139507402 
1918	 187.417320623102 
1919	-4.92712298930793 
1920	 34.6496055638911 
1921	 0.479090881586711 
1922	 9.74112493715445E-02 
1923	 0.148574180704934 
1924	 0.392414068362828 
1925	 0.714543138291549 
1926	 0.915262158623878 
1927	 1.30309248401201 
1928	-11.7894218600857 
1929	-0.685360474266224 
1930	 1.04615191835651E-02 
1931	 0.550317164038099 
1932	 4.4652671289345 
1933	-4.6525639927141 
1934	-1.08612978027302 
1935	-0.278352044562872 
1936	-15.1932371144164 
1937	 36.7109261448334 
1938	-0.696441755399668 
1939	 0.279965470909188 
1940	-0.441895424038795 
1941	-0.294629899936355 
1942	 5.09047776784563E-02 
1943	 0.465220048830837 
1944	 0.271596123301671 
1945	 0.573012311225271 
1946	 2.46468694368832 
1947	 0.994414367302657 
1948	 0.678818436866837 
1949	 0.359837001052486 
1950	-0.559024213760288 
1951	-1.19955129672112 
1952	-1.50061465003895 
1953	-0.941099275171215 
1954	-1.22011930769312 
1955	-0.992548190159503 
1956	-0.545483117445119 
1957	-0.383879383686149 
1958	-0.149902527109173 
1959	-0.110796626690682 
1960	-0.142630611829182 
1961	-0.0992532715136 
1962	-0.140006257670956 
1963	-0.155153748896821 
1964	-0.120928918669435 
1965	-0.108844023457073 
1966	-6.10297907273022E-02 
1967	 8.03861547139579E-03 
1968	 0.100724118571444 
1969	 0.129282104933276 
1970	 0.135223429963678 
1971	 0.132235661317256 
1972	 0.103138634246176 
1973	 9.27376312374008E-02 
1974	 8.70237242561299E-02 
1975	 8.05710563996234E-02 
1976	 6.54138537439176E-02 
1977	 4.66819127222578E-02 
1978	 4.91947778591328E-02 
1979	 4.73513937641586E-02 
1980	 4.86372066914564E-02 
1981	 4.07072644655561E-02 
1982	 4.70513012666625E-02 
1983	 3.79865686681748E-02 
1984	 1.08065994985331E-02 
1985	 1.53971932315133E-02 
1986	 2.37271211218536E-02 
1987	 3.27482787812923E-02 
1988	 5.69868048714937E-02 
1989	 7.76576142128936E-02 
1990	 8.87142990807612E-02 
1991	 0.069912317597167 
1992	 5.53671868986426E-02 
1993	 5.42843402815726E-02 
1994	 4.69627243822724E-02 
1995	 3.22140761665809E-02 
1996	 4.43426352094737E-02 
1997	 4.71806910269618E-02 
1998	 0.028551537443333 
1999	 3.41370891415069E-02 
2000	 0.037728092724506 
2001	 3.94462266892862E-02 
2002	 6.23983217029314E-02 
2003	 7.53330055539024E-02 
2004	 7.11641184739727E-02 
2005	 0.08614922497359 
2006	 7.56729192561145E-02 
2007	 5.78112115405873E-02 
2008	 6.81642747621807E-02 
2009	 6.02035212581854E-02 
2010	 3.62401681366671E-02 
2011	 2.23501241419772E-02 
2012	 7.82760409359607E-03 
2013	-6.64290255985512E-03 
2014	-3.76405180245426E-03 
2015	 2.39534748712845E-02 
2016	 4.30065621165631E-02 
2017	 0.03243208544877 
2018	 1.89356752566184E-02 
2019	 1.30537606296292E-03 
2020	-1.17650194520307E-02 
2021	 3.1191400275915E-03 
2022	 0.014666010800201 
2023	 1.21160644493768E-02 
2024	 1.86662862332861E-02 
2025	 2.91751925895155E-02 
2026	 3.03330622380902E-02 
2027	 2.93247621626444E-02 
2028	 3.66438991165068E-02 
2029	 2.59746078424639E-02 
2030	 2.38200309041788E-02 
2031	 2.31039245602482E-02 
2032	 1.79815926203123E-02 
2033	 2.40137374118204E-02 
2034	 2.72712291369949E-02 
2035	 3.04240002479403E-02 
2036	 3.21571895810866E-02 
2037	 2.67844845036769E-02 
2038	 0.018544691504277 
2039	 1.48413547675998E-02 
2040	 9.55519490585266E-03 
2041	 8.47930954784082E-03 
2042	 1.58401459211243E-02 
2043	 1.72572075612223E-02 
2044	 1.49602629429293E-02 
2045	 1.64252839778378E-02 
2046	 1.99805648016037E-02 
2047	 1.81060414892751E-02 
2048	 2.42662952749101E-02 
2049	 2.64092798259921E-02 
2050	 2.29743000154976E-02 
2051	 2.12581320728818E-02 
2052	 1.36141838072124E-02 
2053	 0.015940605179935 
2054	 2.13167954108168E-02 
2055	 2.39181970041531E-02 
2056	 2.84054981036574E-02 
2057	 4.20385052138433E-02 
2058	 3.77823161441977E-02 
2059	 1.60078526048665E-02 
2060	 0.012165522680306 
2061	 1.05776662987349E-02 
2062	 5.4270670665849E-03 
2063	 4.05552969955976E-03 
2064	 1.98212159682924E-02 
2065	 2.42043391561164E-02 
2066	 2.20539293250985E-02 
2067	 2.66117779948548E-02 
2068	 2.55900327399178E-02 
2069	 3.06380477494572E-02 
2070	 2.63459581360609E-02 
2071	 1.78045289697655E-02 
2072	 2.19783254390739E-02 
2073	 0.020223126411631 
2074	 1.09030112245929E-02 
2075	 7.34310968514024E-03 
2076	 5.19432172130701E-03 
2077	 5.68639145237619E-03 
2078	 8.50466021563614E-03 
2079	 1.05282922273939E-02 
2080	 1.60091877690708E-02 
2081	 2.02077422021138E-02 
2082	 1.92885384774804E-02 
2083	 2.13863475534052E-02 
2084	 2.43404618618665E-02 
2085	 2.26469588904363E-02 
2086	 2.39881407937168E-02 
2087	 2.29091822171225E-02 
2088	 2.58635841042267E-02 
2089	 3.15212456065903E-02 
2090	 2.90204751199068E-02 
2091	 3.00956251442264E-02 
2092	 2.99522888418828E-02 
2093	 2.61943164740338E-02 
2094	 2.37469891598043E-02 
2095	 2.09269703298391E-02 
2096	 0.019941496177254 
2097	 2.10709119344953E-02 
2098	 1.99299873200739E-02 
2099	 1.92665884480135E-02 
2100	 2.10892907253209E-02 
2101	 0.017820823044254 
2102	 1.15102254795779E-02 
2103	 8.8304282100376E-03 
2104	 1.22323386374523E-02 
2105	 1.78188028397989E-02 
2106	 1.87263138531017E-02 
2107	 2.22809602018095E-02 
2108	 2.22827632036841E-02 
2109	 1.58784452562118E-02 
2110	 1.96983004026958E-02 
2111	 2.04145011025803E-02 
2112	 1.47001508624978E-02 
2113	 1.53308505387288E-02 
2114	 0.017975937534072 
2115	 1.83185682630365E-02 
2116	 2.33859575388422E-02 
2117	 2.57259938593577E-02 
2118	 2.49804874301444E-02 
2119	 0.025287583673005 
2120	 2.65695210738401E-02 
2121	 2.37045614460491E-02 
2122	 2.30603145035894E-02 
2123	 2.22692105932445E-02 
2124	 0.019131409789801 
2125	 2.00351797274711E-02 
2126	 1.87340964883507E-02 
2127	 1.63517218411052E-02 
2128	 2.04155149784529E-02 
2129	 2.27025639872599E-02 
2130	 2.47411693120702E-02 
2131	 2.76619183764039E-02 
2132	 2.29576885120436E-02 
2133	 1.79523658593931E-02 
2134	 1.63109342511009E-02 
2135	 1.39088565467212E-02 
2136	 1.41573460900318E-02 
2137	 1.93837077621908E-02 
2138	 2.21474738578542E-02 
2139	 2.49555312443049E-02 
2140	 2.67584358749962E-02 
2141	 2.86473194380015E-02 
2142	 2.83232605460496E-02 
2143	 2.38408458864354E-02 
2144	 2.57097369991721E-02 
2145	 2.64805988545373E-02 
2146	 0.025105602629978 
2147	 0.030211729871516 
2148	 2.93779042671578E-02 
2149	 2.55414706691708E-02 
2150	 2.56510942340591E-02 
2151	 2.30862055899079E-02 
2152	 2.29717483551455E-02 
2153	 0.023099436158507 
2154	 2.12870518467035E-02 
2155	 1.52762467526726E-02 
2156	 1.00015150310709E-02 
2157	 9.70495357708906E-03 
2158	 1.22011137449559E-02 
2159	 1.34202384646076E-02 
2160	 1.97135840650798E-02 
2161	 2.00247800632434E-02 
2162	 1.37075660022661E-02 
2163	 0.014520120619487 
2164	 1.94538028031337E-02 
2165	 2.13634968843904E-02 
2166	 2.40703990443889E-02 
2167	 2.61719400092516E-02 
2168	 2.71616772768649E-02 
2169	 2.57921612033019E-02 
2170	 2.34837527038607E-02 
2171	 2.24885357840696E-02 
2172	 1.73429457566362E-02 
2173	 1.71673096699079E-02 
2174	 2.08789097561803E-02 
2175	 2.48840151943451E-02 
2176	 2.92138629588254E-02 
2177	 3.08821329806632E-02 
2178	 2.91308423499591E-02 
2179	 2.61098897654393E-02 
2180	 2.62954777250227E-02 
2181	 0.024443396188036 
2182	 2.31486347746244E-02 
2183	 2.40239250184699E-02 
2184	 2.02673436422402E-02 
2185	 1.52838575404759E-02 
2186	 1.30194200361932E-02 
2187	 1.12939842685755E-02 
2188	 0.013042088260836 
2189	 2.05846449930862E-02 
2190	 2.09446677243682E-02 
2191	 1.91517992986426E-02 
2192	 1.84494352070914E-02 
2193	 1.32059139524396E-02 
2194	 9.96539517155463E-03 
2195	 1.14704744918774E-02 
2196	 1.12337889281897E-02 
2197	 3.95710278466639E-03 
2198	 4.41887710467208E-03 
2199	 1.17724844429112E-02 
2200	 1.69320955927634E-02 
2201	 1.79763694126457E-02 
2202	 2.75323875163991E-02 
2203	 3.10502200281436E-02 
2204	 2.67937157473955E-02 
2205	 2.53801546153375E-02 
2206	 2.50447177078379E-02 
2207	 3.05707372278373E-02 
2208	 3.34522301574989E-02 
2209	 3.28448786429056E-02 
2210	 3.47222043952831E-02 
2211	 2.79337620357168E-02 
2212	 2.26509699129727E-02 
2213	 2.46177174291644E-02 
2214	 2.81742691456495E-02 
2215	 2.75162504392079E-02 
2216	 2.75630428010263E-02 
2217	 3.01408933781234E-02 
2218	 2.98837879305357E-02 
2219	 3.04410553109789E-02 
2220	 3.83497970206675E-02 
2221	 3.73929830535987E-02 
2222	 2.87932902132767E-02 
2223	 2.50268554204855E-02 
2224	 2.20403887567475E-02 
2225	 2.12215646951199E-02 
2226	 2.25991537143085E-02 
2227	 2.25377076639287E-02 
2228	 1.84352599957071E-02 
2229	 1.79703892825808E-02 
2230	 2.36455606180891E-02 
2231	 2.41762839211399E-02 
2232	 2.40770337943257E-02 
2233	 2.39409516848729E-02 
2234	 2.16516249876569E-02 
2235	 1.33128356791423E-02 
2236	 1.18561422989596E-02 
2237	 1.72591021770541E-02 
2238	 2.24642541839753E-02 
2239	 2.91847379423647E-02 
2240	 2.97229008598272E-02 
2241	 2.85122823054436E-02 
2242	 2.25648762580844E-02 
2243	 1.28782032266095E-02 
2244	 9.52191884312982E-03 
2245	 7.5231685335876E-03 
2246	 1.16267392965725E-02 
2247	 1.68498281046775E-02 
2248	 2.16445890109377E-02 
2249	 2.90296960341594E-02 
2250	 2.65667604116008E-02 
2251	 2.07199662610593E-02 
2252	 1.41005830915594E-02 
2253	 6.57224333461141E-03 
2254	 8.54966584324862E-04 
2255	-2.78663734790832E-03 
2256	-7.80249101268427E-03 
2257	-1.08454580017885E-02 
2258	 2.87479972639545E-04 
2259	 1.09306578613818E-02 
2260	 2.03558943129908E-02 
2261	 3.88527320518442E-02 
2262	 4.55155287631344E-02 
2263	 4.35151235790562E-02 
2264	 4.03822069627738E-02 
2265	 3.32931319928463E-02 
2266	 2.56818720554723E-02 
2267	 1.05312439591465E-02 
2268	 8.31246014835844E-03 
2269	 9.58929901828375E-03 
2270	 1.17400649621337E-02 
2271	 2.46311245400907E-02 
2272	 2.14304775924111E-02 
2273	 8.47924336402464E-03 
2274	 9.03169727661282E-03 
2275	 1.01410792579641E-02 
2276	 1.34659882217343E-02 
2277	 2.49499271756289E-02 
2278	 0.033854647061997 
2279	 0.041063797795332 
2280	 4.45523987661535E-02 
2281	 5.08475636040369E-02 
2282	 5.44175402636014E-02 
2283	 4.49173027153299E-02 
2284	 4.61484633563313E-02 
2285	 5.85094765105594E-02 
2286	 6.02988892060012E-02 
2287	 5.20917982934787E-02 
2288	 3.86980096847887E-02 
2289	 2.43123425093851E-02 
2290	 1.48858489340826E-02 
2291	 9.3094974719507E-03 
2292	 3.61615894425589E-03 
2293	 3.04026848750146E-03 
2294	-7.84540250776726E-03 
2295	-2.40943948138003E-02 
2296	-1.77231928096173E-02 
2297	-1.67734167997823E-02 
2298	-6.74719986878476E-03 
2299	 1.12598729906151E-03 
2300	-1.63088665050662E-03 
2301	 4.50946083773732E-04 
2302	-1.16645538548072E-02 
2303	 4.94904128365785E-03 
2304	 1.91030177192823E-02 
2305	 1.92984162642421E-02 
2306	 2.17006597496792E-02 
2307	 1.39047658092919E-02 
2308	 0.021737605741377 
2309	 1.39046095680278E-02 
2310	 9.58370058263564E-04 
2311	-2.9779719313598E-04 
2312	-4.87919399163102E-03 
2313	-8.02865224476401E-03 
2314	-1.69623348650442E-03 
2315	 1.96657968159513E-02 
2316	 2.51325104958921E-02 
2317	 3.73541591951624E-02 
2318	 5.37037263114527E-02 
2319	 4.16702173131689E-02 
2320	 2.77992580289118E-02 
2321	 1.11607524646912E-02 
2322	-4.73763752832434E-03 
2323	-2.90386547923184E-02 
2324	-4.21531829120977E-02 
2325	-3.01767256329226E-02 
2326	-2.11685131020358E-02 
2327	-3.0852964762385E-03 
2328	 6.57536287184274E-03 
2329	 1.73567377768162E-02 
2330	 2.45248791004377E-02 
2331	 2.76174938302884E-02 
2332	 5.20813377259175E-02 
2333	 3.72363789019292E-02 
2334	 3.24296662979131E-02 
2335	 5.89490307398111E-02 
2336	 3.48904873638996E-02 
2337	 2.72881145121044E-02 
2338	 2.48247174890197E-02 
2339	-3.71629636999011E-03 
2340	 1.08682727576297E-02 
2341	-2.32592720589137E-03 
2342	-2.87402113878471E-02 
2343	-2.85756214408264E-02 
2344	-3.13146896188354E-02 
2345	-2.49594575868927E-02 
2346	 1.14173556166762E-04 
2347	 9.71656719146085E-02 
2348	 0.122119224952991 
2349	 0.128686510532333 
2350	 0.172936436473516 
2351	 3.80336169097003E-02 
2352	-3.80431139037147E-02 
2353	-5.04122960218632E-03 
2354	-1.80539716650255E-02 
2355	 3.83895311602483E-02 
2356	 0.103391105465558 
2357	 2.05450340034151E-02 
2358	-1.10003137730022E-02 
2359	-6.59674538783511E-02 
2360	-0.144192517583695 
2361	-8.26809178058522E-02 
2362	-4.95254634972021E-02 
2363	-3.59320620303189E-02 
2364	-6.30743255153524E-02 
2365	-0.16715419944876 
2366	-0.214352089710988 
2367	-0.207601145065967 
2368	-0.197827632208489 
2369	-0.156669409951124 
2370	-0.103501217677936 
2371	-0.105387857845721 
2372	-0.129098046017032 
2373	-0.111229046933374 
2374	-0.158619522776532 
2375	-0.147002579390686 
2376	-7.63772660757477E-02 
2377	 2.44326219742103E-04 
2378	 6.48850246524093E-02 
2379	 8.23257608120304E-02 
2380	 0.217646920100089 
2381	 0.320030286372726 
2382	 0.387759849923435 
2383	 0.399444986340087 
2384	 0.124959908958265 
2385	-4.40308459990627E-02 
2386	-0.164593958507282 
2387	-0.12475732160368 
2388	 0.280967107439423 
2389	 0.213204770296639 
2390	 4.12514877790367E-02 
2391	 6.66511533478733E-02 
2392	-0.179478698540123 
2393	-0.165593936038518 
2394	-0.012882241910256 
2395	-0.286666455779357 
2396	-0.329241575363336 
2397	-0.332920529787982 
2398	-0.307071490267761 
2399	-8.50003474248071E-02 
2400	 1.91089234511478E-02 
2401	-0.133988764157234 
2402	-0.400680265850838 
2403	-0.376159133484452 
2404	-0.143700444168861 
2405	-5.11912557246954E-02 
2406	-6.92257242583217E-02 
2407	-1.03722589157095 
2408	-1.05985098275785 
2409	-0.344292525700149 
2410	-2.42810990592557 
2411	 8.00829758030446E-02 
2412	 0.225953571525263 
2413	-0.920423971784736 
2414	-0.599137460827953 
2415	 0.209696636288264 
2416	-9.28621750534703E-02 
2417	 0.125519158017525 
2418	 0.929765425952222 
2419	-4.61238741152396E-02 
2420	-3.66350671033031 
2421	-0.908066171693113 
2422	-0.615216829809354 
2423	-0.864817283759066 
2424	-2.38191568496527 
2425	-5.68428199594969 
2426	-74.3255024976382 
2427	 1.93232041537019 
2428	 0.805477005576028 
2429	 3.69030576730754 
2430	 6.11015228796597 
2431	 3.56830249101181 
2432	 3.42048784929082 
2433	-36.2196989380271 
2434	-1.52305677254866 
2435	-1.85672934478083 
2436	-1.36573041115656 
2437	-1.33391682939309 
2438	-0.44375743367768 
2439	 0.516211797473681 
2440	-6.49717514617223E-02 
2441	-0.254571350985229 
2442	-0.265406013321492 
2443	-4.08633731423576E-02 
2444	 0.212056821383559 
2445	 0.195822268055858 
2446	 0.108161607325575 
2447	 0.175332005363884 
2448	 9.50183100344707E-02 
2449	-3.67932572604597E-02 
2450	-0.348350963505187 
2451	-1.09774568444387 
2452	-0.988070972705502 
2453	-1.13681702910601 
2454	-2.09854941877071 
2455	-0.632246929720087 
2456	-0.102755740321207 
2457	 0.166739654807295 
2458	-3.78207690740854E-02 
2459	-0.122639741422833 
2460	-0.32632682279943 
2461	-0.35350768476096 
2462	 0.441481472351421 
2463	 1.60637174760157 
2464	 1.58856961836794 
2465	-0.187454692091706 
2466	-2.12507646440838 
2467	-1.15626488451388 
2468	-0.62022136929424 
2469	 4.02943865721988E-02 
2470	 0.320089833536744 
2471	-0.247503287502137 
2472	-0.452555619053088 
2473	-0.662772852475985 
2474	-1.2601554625733 
2475	-0.721491766300832 
2476	 0.225292905494291 
2477	 3.67176116216444 
2478	-3.61407484313777 
2479	-1.88364702125331 
2480	-8.14704091122566 
2481	 1.03436620819785 
2482	-1.30852376594489 
2483	-0.863923718927643 
2484	-0.458034656747636 
2485	 0.173428173164777 
2486	 4.07574875914751E-02 
2487	-2.25184207270282E-03 
2488	-0.214956858080073 
2489	-0.323293910440869 
2490	 0.124134561610561 
2491	 0.49362316406611 
2492	 0.504726676023773 
2493	 1.0857232767802 
2494	 1.57987126382016 
2495	 1.59317507117705 
2496	 1.96232942443873 
2497	-5.47089947012283E-02 
2498	-0.933018389484009 
2499	 1.39421326486526 
2500	 7.06694771451832E-02 
