Wavelength	rt0704rt00002.asd
350	 4.94652975935772E-02 
351	 4.92300566183767E-02 
352	 4.96481920863265E-02 
353	 5.00867750064304E-02 
354	 5.01764283710495E-02 
355	 5.09491036625945E-02 
356	 5.09935205142123E-02 
357	 5.09667605051358E-02 
358	 5.17499364274405E-02 
359	 5.22740628360341E-02 
360	 5.25426136873705E-02 
361	 5.28718798362651E-02 
362	 5.36674322813287E-02 
363	 5.42632278520724E-02 
364	 5.44550250486889E-02 
365	 5.45437774345483E-02 
366	 5.54900989739742E-02 
367	 5.58811148196867E-02 
368	 5.59058869568508E-02 
369	 5.61121641355947E-02 
370	 5.66353839985659E-02 
371	 0.057503700987604 
372	 0.0582838243802 
373	 5.84091041519577E-02 
374	 5.86076027856395E-02 
375	 5.90426656898591E-02 
376	 5.97639652539301E-02 
377	 6.07437909980736E-02 
378	 6.10782777757706E-02 
379	 6.10771435520281E-02 
380	 6.12511642004563E-02 
381	 6.16496501165812E-02 
382	 6.24344361028131E-02 
383	 6.32575598835361E-02 
384	 0.063570517624454 
385	 6.33304366056272E-02 
386	 6.32702026182737E-02 
387	 6.37417114539472E-02 
388	 6.45495531994074E-02 
389	 6.44612865783407E-02 
390	 6.42053047885394E-02 
391	 6.43992560381625E-02 
392	 6.43657040881024E-02 
393	 6.44546148037177E-02 
394	 0.064522567667307 
395	 6.43401737268638E-02 
396	 6.41597024125952E-02 
397	 6.42157367013734E-02 
398	 6.44702666996788E-02 
399	 6.46521167415851E-02 
400	 6.41845109706138E-02 
401	 6.37795970437869E-02 
402	 6.38608223063504E-02 
403	 6.38234234072848E-02 
404	 6.36561775940029E-02 
405	 6.33516573175497E-02 
406	 6.29769874162369E-02 
407	 6.29032144783645E-02 
408	 0.062625811849011 
409	 6.21790276258312E-02 
410	 0.062134556953923 
411	 6.19260216658217E-02 
412	 6.14434809082277E-02 
413	 6.08459611838525E-02 
414	 6.07209263410542E-02 
415	 6.06036028803878E-02 
416	 0.060328029970652 
417	 5.98974221045794E-02 
418	 5.95195008368794E-02 
419	 0.059207098808327 
420	 5.89968968293323E-02 
421	 5.89552119381244E-02 
422	 5.86247989922396E-02 
423	 5.83521484214615E-02 
424	 5.84070135143629E-02 
425	 5.83638235260492E-02 
426	 5.83426465370314E-02 
427	 5.83503644692053E-02 
428	 5.83414666826284E-02 
429	 5.82559500663797E-02 
430	 5.82631140843159E-02 
431	 5.83998591238722E-02 
432	 5.85255944684753E-02 
433	 5.86832818682539E-02 
434	 0.058746666800408 
435	 5.87003995455687E-02 
436	 5.89717362219305E-02 
437	 5.90963099598897E-02 
438	 5.90792145288605E-02 
439	 5.91614673718029E-02 
440	 5.91668059596626E-02 
441	 5.91253069697019E-02 
442	 5.91141903063478E-02 
443	 5.92529260916236E-02 
444	 5.92586619205498E-02 
445	 5.91918760318018E-02 
446	 5.91736150866758E-02 
447	 5.91478139139891E-02 
448	 5.91468144969807E-02 
449	 0.059115258429581 
450	 5.89492386627591E-02 
451	 5.87796520522295E-02 
452	 5.87112568108422E-02 
453	 5.87020119022664E-02 
454	 5.84121675739401E-02 
455	 5.82441890491222E-02 
456	 5.81365256427102E-02 
457	 5.79028342598946E-02 
458	 5.76697219220034E-02 
459	 5.73756909633045E-02 
460	 5.70862773902255E-02 
461	 0.056984996130667 
462	 5.67264515660356E-02 
463	 5.64684772664643E-02 
464	 5.63505592293529E-02 
465	 5.61886299389332E-02 
466	 5.59146979215323E-02 
467	 5.56615159153204E-02 
468	 5.56016523518124E-02 
469	 5.53380447341955E-02 
470	 5.51989263534343E-02 
471	 5.52338014636346E-02 
472	 0.055038001823256 
473	 5.47777059911434E-02 
474	 5.46857844890412E-02 
475	 0.054815146517731 
476	 5.44846526713271E-02 
477	 5.44451218293856E-02 
478	 0.054636613316867 
479	 5.44829017523741E-02 
480	 5.44152622482907E-02 
481	 5.44179043621247E-02 
482	 5.44234527991071E-02 
483	 5.43760009926696E-02 
484	 5.43620787657647E-02 
485	 5.44498087507226E-02 
486	 0.054634211736718 
487	 5.45883074703175E-02 
488	 5.46471467373826E-02 
489	 5.48563507806262E-02 
490	 5.49580259202717E-02 
491	 0.055054646389143 
492	 5.52415715726415E-02 
493	 5.55273592147825E-02 
494	 5.56675760662139E-02 
495	 0.056023573240821 
496	 5.64014485601458E-02 
497	 5.64230188004076E-02 
498	 5.67415999741768E-02 
499	 5.71181688488684E-02 
500	 5.73803739920147E-02 
501	 5.76040010686022E-02 
502	 0.057867598920507 
503	 5.80919133235716E-02 
504	 5.82338432679825E-02 
505	 5.86007011393875E-02 
506	 5.89161453559808E-02 
507	 5.91493334040602E-02 
508	 5.94656036527932E-02 
509	 5.97472312571911E-02 
510	 5.99898232140544E-02 
511	 6.02342073356597E-02 
512	 0.060601463615265 
513	 6.08587170450746E-02 
514	 6.11152344084466E-02 
515	 6.15762254391388E-02 
516	 6.19721245026844E-02 
517	 6.23462940469028E-02 
518	 6.27401315923591E-02 
519	 6.31568826622992E-02 
520	 6.37455856997689E-02 
521	 6.43753979511746E-02 
522	 6.49203196654186E-02 
523	 6.54779983631865E-02 
524	 6.61256793940876E-02 
525	 6.68573885571484E-02 
526	 6.76123287641865E-02 
527	 6.84210342675666E-02 
528	 6.93533304262901E-02 
529	 7.03939361999427E-02 
530	 7.13394147278802E-02 
531	 7.25205944790619E-02 
532	 7.38604946488319E-02 
533	 0.075149202488108 
534	 7.64203065677237E-02 
535	 7.78354277862159E-02 
536	 7.93982740314153E-02 
537	 8.09238567779532E-02 
538	 8.26719457405791E-02 
539	 8.44299177749124E-02 
540	 8.60544903991779E-02 
541	 8.80209300516572E-02 
542	 9.00041953635793E-02 
543	 9.18491431209563E-02 
544	 9.35552195667659E-02 
545	 9.54019127621387E-02 
546	 9.72824643667101E-02 
547	 9.91217210748489E-02 
548	 0.101037216325529 
549	 0.10275666289277 
550	 0.104337063066211 
551	 0.105939743340138 
552	 0.107526544562876 
553	 0.109104214244689 
554	 0.110683073183304 
555	 0.112264626748384 
556	 0.113733825337806 
557	 0.115300821530296 
558	 0.117078291868384 
559	 0.118651782149642 
560	 0.120350874371049 
561	 0.122163619198136 
562	 0.123891734495609 
563	 0.125681922644412 
564	 0.127434913074566 
565	 0.129090800280552 
566	 0.13073664665727 
567	 0.132247376455078 
568	 0.133623036677662 
569	 0.134905124060172 
570	 0.136117588562637 
571	 0.137129731174941 
572	 0.137962057747853 
573	 0.138796698510108 
574	 0.139617752128374 
575	 0.140409831568386 
576	 0.141150773643617 
577	 0.141841825302118 
578	 0.14241083924321 
579	 0.142937181564814 
580	 0.143559943893379 
581	 0.144016401478963 
582	 0.144362441162076 
583	 0.144647941212236 
584	 0.144834979948684 
585	 0.144912928782916 
586	 0.144879049576671 
587	 0.144765523240989 
588	 0.144776044217516 
589	 0.144821165758867 
590	 0.144884919672039 
591	 0.145052444768081 
592	 0.14514286042411 
593	 0.145250434204182 
594	 0.14541652156348 
595	 0.145356926117181 
596	 0.145288395646343 
597	 0.145179340850221 
598	 0.144895674099213 
599	 0.144720629782235 
600	 0.144559032497563 
601	 0.144370722992795 
602	 0.144290162740735 
603	 0.144223645378386 
604	 0.144113077678635 
605	 0.14395495919429 
606	 0.14396106523149 
607	 0.143954736320173 
608	 0.143854720069939 
609	 0.143699262826805 
610	 0.143465799829089 
611	 0.143180291871597 
612	 0.142906317462059 
613	 0.142800522756352 
614	 0.142656956669812 
615	 0.142442549089279 
616	 0.142225660855228 
617	 0.141981448945056 
618	 0.141772899038168 
619	 0.141631058265565 
620	 0.141535573166161 
621	 0.141386158748008 
622	 0.141188952064105 
623	 0.140994060259295 
624	 0.140851837871746 
625	 0.140695907832896 
626	 0.140577439971059 
627	 0.140648365666355 
628	 0.140571500357226 
629	 0.140519073681529 
630	 0.140599440975755 
631	 0.140491101479926 
632	 0.140361228574814 
633	 0.140231035324625 
634	 0.14001263846493 
635	 0.139336754376254 
636	 0.13870705794801 
637	 0.138261347144671 
638	 0.137494377018263 
639	 0.136657377942235 
640	 0.135773061600196 
641	 0.1348305794482 
642	 0.133916715661448 
643	 0.13274581059022 
644	 0.131318752888177 
645	 0.129879212224397 
646	 0.12829213886778 
647	 0.126649323191928 
648	 0.125136726568487 
649	 0.123893393645321 
650	 0.122832194512634 
651	 0.122031318501537 
652	 0.121608639884145 
653	 0.121185530519892 
654	 0.120923566443272 
655	 0.120839399589523 
656	 0.120686275894881 
657	 0.120495188048108 
658	 0.120185883189466 
659	 0.119676369260176 
660	 0.118978907810189 
661	 0.117931038032974 
662	 0.116614564465728 
663	 0.115270164118355 
664	 0.113748308360957 
665	 0.112267307857456 
666	 0.110891750438857 
667	 0.109373927164119 
668	 0.108011131433822 
669	 0.106805419388887 
670	 0.105715477678952 
671	 0.10495417880694 
672	 0.104404912410664 
673	 0.104053914746377 
674	 0.103995890906012 
675	 0.104120602615876 
676	 0.104422792136769 
677	 0.105010197643347 
678	 0.106231355374975 
679	 0.107755544006714 
680	 0.10959207061186 
681	 0.111891944885418 
682	 0.114621727619857 
683	 0.117755046534119 
684	 0.121304571057744 
685	 0.125750419106859 
686	 0.131035587452093 
687	 0.136163532210473 
688	 0.140192963862913 
689	 0.144697191069636 
690	 0.148955397967883 
691	 0.15284960309245 
692	 0.156617882043209 
693	 0.160609847773971 
694	 0.16421277130021 
695	 0.166971708647199 
696	 0.169228713783958 
697	 0.171326695011127 
698	 0.17330371835687 
699	 0.174900177694256 
700	 0.176242570311173 
701	 0.177364405302564 
702	 0.178260794573219 
703	 0.178919049634943 
704	 0.179020111715504 
705	 0.178763623606974 
706	 0.178405555915223 
707	 0.178185091540641 
708	 0.177479147286067 
709	 0.176361386200819 
710	 0.175125718235344 
711	 0.173644424428308 
712	 0.171811409672458 
713	 0.169735018206352 
714	 0.167687957014095 
715	 0.165377564697648 
716	 0.16271614464897 
717	 0.159997942661734 
718	 0.157341605853781 
719	 0.15468308878482 
720	 0.152450893842089 
721	 0.150422243595355 
722	 0.148175015668478 
723	 0.145349577469803 
724	 0.142414948540533 
725	 0.139948710381965 
726	 0.137403462619311 
727	 0.134594999552763 
728	 0.13145758452486 
729	 0.127860086332243 
730	 0.124397941099793 
731	 0.121430627728521 
732	 0.118814441015088 
733	 0.116562302234073 
734	 0.114605239979796 
735	 0.112915679406539 
736	 0.111466564255472 
737	 0.110418944471798 
738	 0.109635720806285 
739	 0.10898748020756 
740	 0.108526221754082 
741	 0.108175773506018 
742	 0.107992720559904 
743	 0.108020060725819 
744	 0.107662188421861 
745	 0.107500789293502 
746	 0.107609608602599 
747	 0.107237084009531 
748	 0.107144768220912 
749	 0.10714516330523 
750	 0.106972941793499 
751	 0.106941553546129 
752	 0.106772600614256 
753	 0.106582040343892 
754	 0.106625362991787 
755	 0.106373540766455 
756	 0.106241696793683 
757	 0.106348386511953 
758	 0.106245165186997 
759	 0.106336664850592 
760	 0.106241778194905 
761	 0.105544265130271 
762	 0.105394935432005 
763	 0.105366831930933 
764	 0.105535516687226 
765	 0.105968065118858 
766	 0.106259678692405 
767	 0.106352762992543 
768	 0.106415631290824 
769	 0.10679517921097 
770	 0.106939890889833 
771	 0.106971613505321 
772	 0.107112891381637 
773	 0.107490971605979 
774	 0.107792297626491 
775	 0.107989797129881 
776	 0.10819218536588 
777	 0.108410382028912 
778	 0.108776953933381 
779	 0.109286778117009 
780	 0.109785070906436 
781	 0.110096335213573 
782	 0.11039859030099 
783	 0.110835135137089 
784	 0.111322350902988 
785	 0.111777493893512 
786	 0.112121717743971 
787	 0.112368920573981 
788	 0.112943712334376 
789	 0.113643487378966 
790	 0.114231684543494 
791	 0.114573372445478 
792	 0.115351373977346 
793	 0.115971425732119 
794	 0.116216764854789 
795	 0.116720092987342 
796	 0.117220353026231 
797	 0.117634679984842 
798	 0.117990952255179 
799	 0.118433144478392 
800	 0.118989961061625 
801	 0.119505109240475 
802	 0.119793579554474 
803	 0.120250794963289 
804	 0.12059774980014 
805	 0.120694127668845 
806	 0.120614140587334 
807	 0.120691569482349 
808	 0.120589367219467 
809	 0.120120104790823 
810	 0.119894440992661 
811	 0.119537405521409 
812	 0.118836433354274 
813	 0.117790104605528 
814	 0.11731436795883 
815	 0.116686137271174 
816	 0.115953411789685 
817	 0.115726739566121 
818	 0.114956245736505 
819	 0.114099984313357 
820	 0.113245580063997 
821	 0.111917148173029 
822	 0.110273605850313 
823	 0.108476348290506 
824	 0.106735261418268 
825	 0.105132990243049 
826	 0.103237308617946 
827	 0.100747720567228 
828	 9.78720328923668E-02 
829	 9.58913198176875E-02 
830	 0.09429530516729 
831	 0.09273462302043 
832	 9.11815358716707E-02 
833	 8.99512222765863E-02 
834	 8.93755105036022E-02 
835	 0.089070307452104 
836	 8.78668225561107E-02 
837	 8.72725871933065E-02 
838	 8.70184321917652E-02 
839	 8.66332065749716E-02 
840	 8.61263376388364E-02 
841	 8.58504351878907E-02 
842	 0.085614836717464 
843	 8.51221738336182E-02 
844	 8.45565273135573E-02 
845	 0.084346944173667 
846	 8.41925724995727E-02 
847	 8.34498827788593E-02 
848	 0.083234120215627 
849	 8.28946589810623E-02 
850	 8.22930699747018E-02 
851	 8.21491998968978E-02 
852	 8.18221685915026E-02 
853	 8.13719383984606E-02 
854	 8.10073323400231E-02 
855	 8.09186178667902E-02 
856	 8.04585443497996E-02 
857	 8.00442894267686E-02 
858	 8.00880812006749E-02 
859	 7.99388954158901E-02 
860	 7.94056514151364E-02 
861	 7.88437082927695E-02 
862	 7.87735842740874E-02 
863	 7.89118184962648E-02 
864	 7.85481794251788E-02 
865	 7.79027930487198E-02 
866	 7.79360359905411E-02 
867	 7.76723544558143E-02 
868	 7.72431882981539E-02 
869	 7.67702643435923E-02 
870	 7.61696322545761E-02 
871	 7.56755149935404E-02 
872	 7.51799492144733E-02 
873	 7.47236695012084E-02 
874	 7.48912048333291E-02 
875	 7.44288204222043E-02 
876	 7.35888016035531E-02 
877	 7.30124556882941E-02 
878	 7.27985421814933E-02 
879	 7.25729933466931E-02 
880	 7.21643797499234E-02 
881	 7.15672152553325E-02 
882	 7.09513707315017E-02 
883	 7.04714444232093E-02 
884	 7.02622277357938E-02 
885	 7.03166801717645E-02 
886	 6.96835877074704E-02 
887	 6.89808737959211E-02 
888	 6.86195379188543E-02 
889	 6.85259103113929E-02 
890	 6.84440301298619E-02 
891	 6.79738264468163E-02 
892	 6.70690452512007E-02 
893	 6.64232951321023E-02 
894	 6.56566729952306E-02 
895	 6.55631094163709E-02 
896	 6.63872266008837E-02 
897	 6.54264425117027E-02 
898	 6.47836394094721E-02 
899	 6.41843773181041E-02 
900	 6.31023210154803E-02 
901	 6.32891084724417E-02 
902	 0.063426085765469 
903	 6.28850175109865E-02 
904	 0.061708801977653 
905	 6.16601513481132E-02 
906	 6.12163953587906E-02 
907	 6.02124552500103E-02 
908	 5.96187923681683E-02 
909	 5.94968942601427E-02 
910	 0.059638898953984 
911	 5.95605693654638E-02 
912	 5.86740702925328E-02 
913	 5.69893485072745E-02 
914	 5.57506072140669E-02 
915	 5.52975670744197E-02 
916	 5.48103809817795E-02 
917	 5.58556298121594E-02 
918	 5.60745577836536E-02 
919	 5.45127375098782E-02 
920	 5.25844450085337E-02 
921	 5.25846868727088E-02 
922	 5.30571576763808E-02 
923	 5.25319319561177E-02 
924	 5.11608008606399E-02 
925	 5.07193162172801E-02 
926	 5.02469548691766E-02 
927	 4.84029596739546E-02 
928	 4.65040474819048E-02 
929	 4.51093129623029E-02 
930	 4.39260777806044E-02 
931	 4.22992237082175E-02 
932	 4.21346501935119E-02 
933	 4.53386031060009E-02 
934	 0.048009661802135 
935	 4.59737764061436E-02 
936	 4.76529015413786E-02 
937	 4.33460406282346E-02 
938	 3.70865886162407E-02 
939	 3.53086743894209E-02 
940	 3.74537807476457E-02 
941	 3.68737923712763E-02 
942	 3.48281120174686E-02 
943	 3.52348330671249E-02 
944	 3.06692853131413E-02 
945	 2.94417660612998E-02 
946	 3.28217975022772E-02 
947	 3.60903057839886E-02 
948	 3.34447126836179E-02 
949	 3.21202950881772E-02 
950	 3.43845067032962E-02 
951	 3.73752768649748E-02 
952	 3.14414420233938E-02 
953	 3.45946521435337E-02 
954	 4.13602946704696E-02 
955	 3.42091381401323E-02 
956	 3.08334097666377E-02 
957	 3.07352423431937E-02 
958	 3.19214613107769E-02 
959	 3.28602428094548E-02 
960	 3.52975148424482E-02 
961	 3.25435475936724E-02 
962	 2.80006638083051E-02 
963	 2.99445481406619E-02 
964	 3.01863202242329E-02 
965	 3.22039675935256E-02 
966	 3.51438528067514E-02 
967	 3.52313390137897E-02 
968	 3.34218373701982E-02 
969	 3.29034440292181E-02 
970	 3.32460109656512E-02 
971	 3.14939527839607E-02 
972	 3.14698310296145E-02 
973	 0.032149602520242 
974	 3.27455766365072E-02 
975	 3.31770887652807E-02 
976	 3.25765515616485E-02 
977	 3.36131779152647E-02 
978	 3.50189339511173E-02 
979	 3.28692151413201E-02 
980	 2.95288323272067E-02 
981	 3.13290763181751E-02 
982	 3.55045159838251E-02 
983	 3.38601893291424E-02 
984	 3.30743838657017E-02 
985	 3.25208928079527E-02 
986	 0.032158015100679 
987	 3.24737924070878E-02 
988	 0.030687683873286 
989	 3.21697684857456E-02 
990	 3.49309651967999E-02 
991	 3.25008773353908E-02 
992	 2.93351301654291E-02 
993	 3.12753473183849E-02 
994	 3.53285695503006E-02 
995	 3.41260724389272E-02 
996	 3.32967826135811E-02 
997	 3.40348231794336E-02 
998	 3.48846009664058E-02 
999	 3.38409839866097E-02 
1000	 3.46203037727356E-02 
1001	 3.41058327337957E-02 
1002	 3.47586489051743E-02 
1003	 0.035215647478948 
1004	 3.58578425569242E-02 
1005	 3.62319247033764E-02 
1006	 3.67277038442013E-02 
1007	 3.67779286305237E-02 
1008	 3.65477527948995E-02 
1009	 3.62610267487342E-02 
1010	 0.035760100306537 
1011	 3.57455308951827E-02 
1012	 3.58333052785342E-02 
1013	 3.54666321551252E-02 
1014	 3.47991762743564E-02 
1015	 3.32323612825651E-02 
1016	 3.29484330111237E-02 
1017	 0.0329080524219 
1018	 3.31314537898385E-02 
1019	 3.44224680079058E-02 
1020	 3.50548335618228E-02 
1021	 3.56967242380991E-02 
1022	 3.57257435080576E-02 
1023	 3.53213425628492E-02 
1024	 3.56741053702332E-02 
1025	 3.62611710998478E-02 
1026	 3.67849831066008E-02 
1027	 3.69870588949875E-02 
1028	 3.74447171075732E-02 
1029	 3.76978297898186E-02 
1030	 3.71867481881753E-02 
1031	 3.73192954865599E-02 
1032	 3.80886604316722E-02 
1033	 0.038378162706389 
1034	 0.038742717105878 
1035	 0.038794070874556 
1036	 3.83703467433505E-02 
1037	 3.82195967555532E-02 
1038	 3.81246532369156E-02 
1039	 3.75837947164894E-02 
1040	 0.037987548318196 
1041	 3.86599089588331E-02 
1042	 3.89881796737513E-02 
1043	 3.96213815415028E-02 
1044	 3.97902814279143E-02 
1045	 3.91779152734916E-02 
1046	 3.95829207608936E-02 
1047	 4.06538626253329E-02 
1048	 4.09746069153828E-02 
1049	 4.15153339391649E-02 
1050	 4.17320912580614E-02 
1051	 0.040986651535643 
1052	 4.09154182512899E-02 
1053	 4.13648791551115E-02 
1054	 4.15835340560403E-02 
1055	 4.18553022420041E-02 
1056	 0.042082158908913 
1057	 4.22608827043984E-02 
1058	 4.22666301227993E-02 
1059	 4.25033289928551E-02 
1060	 4.29554725630272E-02 
1061	 4.30679666053995E-02 
1062	 4.34054306404147E-02 
1063	 4.30446621268666E-02 
1064	 4.17684102950609E-02 
1065	 4.13175836366013E-02 
1066	 4.05305344597016E-02 
1067	 4.04753723892456E-02 
1068	 4.15597463837282E-02 
1069	 4.20227731499116E-02 
1070	 4.27948436445248E-02 
1071	 4.30087281720681E-02 
1072	 0.042117509286381 
1073	 4.22192358111509E-02 
1074	 4.21871377077151E-02 
1075	 4.21370237745504E-02 
1076	 4.19947594648836E-02 
1077	 4.19883074487782E-02 
1078	 4.20801194209224E-02 
1079	 4.21857175397583E-02 
1080	 4.20099946652033E-02 
1081	 4.20007081706778E-02 
1082	 4.18465671914908E-02 
1083	 4.07701408451984E-02 
1084	 0.040687219885352 
1085	 4.17500886385941E-02 
1086	 4.18928096674011E-02 
1087	 4.21072287301962E-02 
1088	 4.20467784538855E-02 
1089	 4.11480107264193E-02 
1090	 4.02893785522486E-02 
1091	 3.98917793588031E-02 
1092	 3.97114062093603E-02 
1093	 3.95363819536499E-02 
1094	 3.98795787267439E-02 
1095	 3.95623390357516E-02 
1096	 3.87273094387074E-02 
1097	 3.84033060898473E-02 
1098	 3.79404477524219E-02 
1099	 0.037714633684912 
1100	 3.79654819852888E-02 
1101	 0.038159760970165 
1102	 3.89517548155615E-02 
1103	 3.86219923245022E-02 
1104	 3.67286442199591E-02 
1105	 3.66520163670012E-02 
1106	 3.72708550951205E-02 
1107	 3.73453809620528E-02 
1108	 0.038456876272979 
1109	 3.92998876482945E-02 
1110	 3.91251347588534E-02 
1111	 3.59646466579983E-02 
1112	 3.49662771723721E-02 
1113	 3.50159036871422E-02 
1114	 3.45995947277234E-02 
1115	 3.42861389438383E-02 
1116	 3.47597427585519E-02 
1117	 3.59187761910081E-02 
1118	 3.72657236785006E-02 
1119	 4.35878638745648E-02 
1120	 4.54716449027311E-02 
1121	 4.26075464400913E-02 
1122	 3.62307689006015E-02 
1123	 3.27690801769489E-02 
1124	 2.75915505469869E-02 
1125	 2.42023323836408E-02 
1126	 3.41540144410242E-02 
1127	 4.41918113043744E-02 
1128	 3.77959303477879E-02 
1129	 3.73298844382787E-02 
1130	 4.35537545372184E-02 
1131	 4.22790694901899E-02 
1132	 3.27880130853195E-02 
1133	 3.24463677518589E-02 
1134	 3.54937688582512E-02 
1135	 3.19465542137078E-02 
1136	 2.70893953214727E-02 
1137	 2.72700942742969E-02 
1138	 2.78645291027019E-02 
1139	 2.57080679370055E-02 
1140	 2.61402149203007E-02 
1141	 2.56208816169791E-02 
1142	 2.35807224063553E-02 
1143	 2.64876617728625E-02 
1144	 3.00530840535246E-02 
1145	 3.47169115428548E-02 
1146	 3.75500427655698E-02 
1147	 3.13565603699617E-02 
1148	 2.58808716852875E-02 
1149	 2.55523163717971E-02 
1150	 2.56783348958613E-02 
1151	 2.84009920116281E-02 
1152	 2.80678909316144E-02 
1153	 2.64120451232736E-02 
1154	 2.64506838106439E-02 
1155	 2.57498038024922E-02 
1156	 2.65578835702316E-02 
1157	 2.79198838844605E-02 
1158	 2.81518714379968E-02 
1159	 2.73164122731614E-02 
1160	 2.59870251406373E-02 
1161	 2.63076085714462E-02 
1162	 2.76730384406188E-02 
1163	 2.76531704085372E-02 
1164	 2.70556113896945E-02 
1165	 2.68161430329174E-02 
1166	 2.67383881924712E-02 
1167	 2.66412803089079E-02 
1168	 2.65934383823837E-02 
1169	 2.68607662198705E-02 
1170	 0.02702210042255 
1171	 2.71061941026307E-02 
1172	 2.79863691187021E-02 
1173	 2.81058881813844E-02 
1174	 2.76578898226481E-02 
1175	 0.027078308443917 
1176	 2.70405478852443E-02 
1177	 2.75942850048863E-02 
1178	 2.79677027250538E-02 
1179	 2.76970467570503E-02 
1180	 2.75778897011624E-02 
1181	 2.70451808945675E-02 
1182	 2.63199140154593E-02 
1183	 2.65554436491895E-02 
1184	 2.73890531210603E-02 
1185	 2.75308751897612E-02 
1186	 2.71833947604279E-02 
1187	 2.71352547863859E-02 
1188	 2.69203452212868E-02 
1189	 2.68733581989574E-02 
1190	 2.74680669688508E-02 
1191	 2.75682477202374E-02 
1192	 2.75189646708846E-02 
1193	 0.026929580259562 
1194	 2.65683710423949E-02 
1195	 2.62818896712419E-02 
1196	 0.026557933596849 
1197	 2.69416658976157E-02 
1198	 2.65391636095066E-02 
1199	 2.62876431258948E-02 
1200	 0.026481944009177 
1201	 2.66665831190616E-02 
1202	 2.70162294960504E-02 
1203	 0.02724087433332 
1204	 2.73920725369793E-02 
1205	 2.74556248042117E-02 
1206	 0.027188460200117 
1207	 2.71010704439839E-02 
1208	 2.70986137082338E-02 
1209	 2.66893618503725E-02 
1210	 2.66606115817051E-02 
1211	 2.73129503195339E-02 
1212	 2.73789652732986E-02 
1213	 2.71229772459767E-02 
1214	 2.73855244534992E-02 
1215	 2.80383203109937E-02 
1216	 2.79841145747394E-02 
1217	 2.74041463272984E-02 
1218	 2.75465412654516E-02 
1219	 2.72136256429617E-02 
1220	 2.66261658542305E-02 
1221	 2.69683010462916E-02 
1222	 2.73646394624445E-02 
1223	 2.73363073405126E-02 
1224	 2.73040733105275E-02 
1225	 0.027264495139884 
1226	 0.027313899830577 
1227	 2.74142418386621E-02 
1228	 2.72881271297646E-02 
1229	 2.72574464624511E-02 
1230	 2.74728631767861E-02 
1231	 2.74929032495226E-02 
1232	 2.72768008496295E-02 
1233	 2.69698738899688E-02 
1234	 2.64580503284906E-02 
1235	 2.63421880648168E-02 
1236	 2.63057186765737E-02 
1237	 2.64262798452934E-02 
1238	 2.69613767931521E-02 
1239	 0.027377991689016 
1240	 2.73527984039307E-02 
1241	 0.027696832376636 
1242	 2.77521782564868E-02 
1243	 0.027287709197942 
1244	 0.027634796990832 
1245	 2.77141861689034E-02 
1246	 2.72304523473359E-02 
1247	 2.75960828062921E-02 
1248	 2.77245560113762E-02 
1249	 2.70266353446057E-02 
1250	 2.69530762168679E-02 
1251	 2.73473030546481E-02 
1252	 2.74790763028663E-02 
1253	 2.73834349130414E-02 
1254	 2.72319262718509E-02 
1255	 2.74550494761471E-02 
1256	 2.75171378164218E-02 
1257	 2.73594124900152E-02 
1258	 0.027318552588872 
1259	 2.74018405170327E-02 
1260	 2.73730056431771E-02 
1261	 0.027442274434206 
1262	 2.74359325979266E-02 
1263	 2.75052610709888E-02 
1264	 2.70932605867063E-02 
1265	 2.69325375037559E-02 
1266	 2.68297606845082E-02 
1267	 2.75310241847333E-02 
1268	 2.82909239258731E-02 
1269	 2.77809858751654E-02 
1270	 2.73659202718172E-02 
1271	 2.75083743577052E-02 
1272	 2.74580328735165E-02 
1273	 2.74707852591003E-02 
1274	 2.77037521857501E-02 
1275	 2.73752587830291E-02 
1276	 2.66661790238434E-02 
1277	 2.68271155904696E-02 
1278	 2.73706918728541E-02 
1279	 0.027453873592141 
1280	 2.73588294263724E-02 
1281	 2.73191492898585E-02 
1282	 2.72289227774711E-02 
1283	 2.71802400995346E-02 
1284	 2.71221427162481E-02 
1285	 2.70489346095021E-02 
1286	 2.68557377628273E-02 
1287	 2.68592456954901E-02 
1288	 2.70678030235834E-02 
1289	 2.71023948585107E-02 
1290	 2.71726119791629E-02 
1291	 2.72293084204989E-02 
1292	 2.72838909854991E-02 
1293	 2.73703956290829E-02 
1294	 2.74368051707922E-02 
1295	 2.75446700491821E-02 
1296	 2.77353514767809E-02 
1297	 2.75982460364842E-02 
1298	 0.02710180683166 
1299	 2.66424086201569E-02 
1300	 2.65878343051839E-02 
1301	 2.69378005257521E-02 
1302	 2.72757152146995E-02 
1303	 2.70261027394462E-02 
1304	 2.62772824815805E-02 
1305	 2.60524677274728E-02 
1306	 2.58520271468863E-02 
1307	 2.63874735006054E-02 
1308	 2.64761446194487E-02 
1309	 2.58060784775169E-02 
1310	 2.58520053481954E-02 
1311	 2.68800970421255E-02 
1312	 2.67977090397493E-02 
1313	 2.63369676835627E-02 
1314	 0.026623912545772 
1315	 2.61902661246719E-02 
1316	 2.61180052140497E-02 
1317	 0.027523555310591 
1318	 2.79549209632093E-02 
1319	 2.74552299421433E-02 
1320	 2.72564482837308E-02 
1321	 2.72767530048177E-02 
1322	 2.69595877325819E-02 
1323	 2.57878361842737E-02 
1324	 2.52245061897425E-02 
1325	 2.60069358027176E-02 
1326	 2.64219887076871E-02 
1327	 2.61372551187248E-02 
1328	 2.54550706135562E-02 
1329	 2.49358729157227E-02 
1330	 2.55025925068761E-02 
1331	 2.75695822696608E-02 
1332	 3.11704803408823E-02 
1333	 3.26686379952323E-02 
1334	 3.02021576813525E-02 
1335	 2.90126706438731E-02 
1336	 2.53837111293405E-02 
1337	 2.50232773194299E-02 
1338	 2.68348131824046E-02 
1339	 2.76431791163979E-02 
1340	 2.95342732237259E-02 
1341	 3.10452933022983E-02 
1342	 3.38119886311645E-02 
1343	 3.35660667983777E-02 
1344	 2.95932127391895E-02 
1345	 0.029135305998214 
1346	 2.57371464526139E-02 
1347	 0.024990348045279 
1348	 3.69134638357312E-02 
1349	 4.35482990935191E-02 
1350	 4.69368786314616E-02 
1351	 4.83924962359413E-02 
1352	 2.99775897038318E-02 
1353	 0.018682425310117 
1354	 2.21129145053782E-03 
1355	-3.11933216381379E-03 
1356	-4.69277534675308E-02 
1357	-0.177147041275574 
1358	-0.234727141543928 
1359	-0.267978326848556 
1360	-0.25121325196412 
1361	-3.33319306431603E-02 
1362	-3.92491114379897E-02 
1363	-0.133118354948484 
1364	 0.206716460700506 
1365	 0.3664760313283 
1366	 0.230342686408787 
1367	 0.459262673021105 
1368	 0.298509424419563 
1369	-0.638989118263656 
1370	-0.618862066253721 
1371	-0.150902234132533 
1372	-8.04453368526342E-02 
1373	 0.191904865345001 
1374	 0.365174773728557 
1375	 3.19377386272837 
1376	 1.95619333881356 
1377	 0.42636304402367 
1378	 0.429334614680314 
1379	 0.483988923076559 
1380	 0.417294592243996 
1381	 0.244176878921037 
1382	 0.217713080866261 
1383	 0.235952279627359 
1384	 0.281398817974063 
1385	 1.47812479448383 
1386	-11.6996708868751 
1387	 3.35884474395583 
1388	 1.96270899432444 
1389	 0.174802412436576 
1390	-2.60412258167311E-02 
1391	 4.71661517831159E-02 
1392	 0.178561709570164 
1393	 0.240692058525777 
1394	 0.473188259157618 
1395	-0.21579790808976 
1396	 5.20476849903598 
1397	-7.99322114169754 
1398	 1.88225231106484 
1399	 1.79296998906598 
1400	 35.5977401337751 
1401	-3.36692526971648 
1402	-2.1088982456114 
1403	 4.36808137925115 
1404	-2.56462521669676 
1405	-1.29269682199689 
1406	-0.747127900216444 
1407	-0.843983326585708 
1408	-0.938653037732906 
1409	-0.386241236544613 
1410	-0.232164077308115 
1411	-0.230615304269958 
1412	-8.72717631995935E-03 
1413	 0.306233707173625 
1414	 1.99098898466791 
1415	 2.06880708589192 
1416	 0.171101437346576 
1417	 0.292494652017523 
1418	 0.425572762511405 
1419	 0.243297126830151 
1420	 0.435426452977491 
1421	 0.437757009222505 
1422	 4.11533282732064E-02 
1423	-8.10368900307037E-02 
1424	-4.67103001497333E-02 
1425	 4.30426516145379E-02 
1426	 0.123184527636441 
1427	 0.12512371085772 
1428	 0.185205380145881 
1429	 0.184146854689545 
1430	 5.09946392644891E-02 
1431	 1.60514062637749E-02 
1432	 7.10829120316874E-02 
1433	 5.00856834952925E-02 
1434	 1.23437711077647E-02 
1435	 1.52134513221694E-02 
1436	 2.56752782482214E-03 
1437	-6.79479544763641E-02 
1438	 3.88505673053292E-02 
1439	 4.56638282167866E-02 
1440	 3.71280549090119E-02 
1441	 0.108277106905654 
1442	 6.88164695000619E-02 
1443	 2.95524281226689E-02 
1444	 1.54446318245003E-02 
1445	 8.89731559589609E-03 
1446	 3.35193119645228E-02 
1447	 4.63191578368607E-02 
1448	 3.30459965845826E-02 
1449	 1.71642416580411E-02 
1450	 1.01992622790126E-02 
1451	-2.67608276159904E-03 
1452	-9.65326222610764E-03 
1453	-7.63484345657603E-03 
1454	-4.18878058041559E-03 
1455	 5.93493774627531E-03 
1456	 6.07803009106554E-03 
1457	 2.76152733907409E-04 
1458	 3.50192409683405E-03 
1459	 1.25659130670559E-02 
1460	 9.27854851712531E-03 
1461	 4.59880355575833E-04 
1462	 5.78851821842796E-03 
1463	 1.18503244826255E-02 
1464	 8.89458771766361E-03 
1465	 1.51888325246677E-02 
1466	 2.02024747598853E-02 
1467	 7.68473183077082E-03 
1468	 5.72340202444554E-03 
1469	 2.88165475418856E-02 
1470	 0.024295416159729 
1471	-1.35536134191557E-02 
1472	-1.30109216298552E-02 
1473	 5.14636975014344E-03 
1474	 5.99197504373187E-03 
1475	 1.52682990765056E-02 
1476	 2.15788715045953E-02 
1477	 1.84621267512183E-02 
1478	 1.28619613830896E-02 
1479	 7.7882478428964E-03 
1480	 8.86854821789136E-03 
1481	 7.93374023683717E-03 
1482	 3.22722905718329E-03 
1483	 3.20352022126828E-03 
1484	 4.92383142365301E-03 
1485	-2.70731640917277E-04 
1486	-9.64239788927158E-04 
1487	 0.006781028712141 
1488	 7.90177708446851E-03 
1489	 5.1170379883054E-03 
1490	 4.79055581360617E-03 
1491	 4.71744975925549E-03 
1492	 3.88487995778262E-03 
1493	 8.53433853139359E-04 
1494	 0.001841135309204 
1495	 6.82500751522137E-03 
1496	 7.26113787978247E-03 
1497	 6.17263724703037E-03 
1498	 6.90825090585497E-03 
1499	 6.50595785964758E-03 
1500	 5.7819642751465E-03 
1501	 0.006575690161939 
1502	 7.59455517784707E-03 
1503	 7.94866441353376E-03 
1504	 7.54508301080583E-03 
1505	 7.38850537512336E-03 
1506	 7.32452614422033E-03 
1507	 8.72051011030754E-03 
1508	 8.71871108680136E-03 
1509	 8.35811605399138E-03 
1510	 1.01087880092215E-02 
1511	 1.03026704339944E-02 
1512	 8.37059660603064E-03 
1513	 8.36271142461459E-03 
1514	 9.64991985762584E-03 
1515	 8.91736069022282E-03 
1516	 8.22902120934089E-03 
1517	 9.23364133676514E-03 
1518	 9.20389710173326E-03 
1519	 9.0560086043014E-03 
1520	 9.91400412196621E-03 
1521	 1.07206675549942E-02 
1522	 1.12518077444578E-02 
1523	 1.10352858840339E-02 
1524	 1.08951591368783E-02 
1525	 1.16306536089082E-02 
1526	 1.17867324325699E-02 
1527	 1.10980475131898E-02 
1528	 1.17264289222403E-02 
1529	 1.18378996737313E-02 
1530	 1.05199369643496E-02 
1531	 1.08099917479502E-02 
1532	 1.16325166043525E-02 
1533	 1.18388029697886E-02 
1534	 1.21147023696689E-02 
1535	 1.22448655345685E-02 
1536	 0.01262340429618 
1537	 1.32880730797928E-02 
1538	 1.31254806464071E-02 
1539	 0.012814325395912 
1540	 1.32192600649195E-02 
1541	 1.35628403943886E-02 
1542	 0.013869842739369 
1543	 1.40117726011115E-02 
1544	 1.38720293493945E-02 
1545	 1.34244033020845E-02 
1546	 1.31773138363128E-02 
1547	 1.31261329835192E-02 
1548	 1.26796569095336E-02 
1549	 1.27786143783598E-02 
1550	 1.28363995539776E-02 
1551	 1.28162438372162E-02 
1552	 1.36230753419084E-02 
1553	 1.35591121299413E-02 
1554	 1.28182913690949E-02 
1555	 1.33684336995486E-02 
1556	 0.013804890981074 
1557	 1.35709078567246E-02 
1558	 1.42814205652335E-02 
1559	 1.45775643552366E-02 
1560	 1.41918612599956E-02 
1561	 1.43975634589354E-02 
1562	 1.44413787109205E-02 
1563	 1.44192398658198E-02 
1564	 1.44906429300988E-02 
1565	 1.41894854908068E-02 
1566	 1.46307493538255E-02 
1567	 1.59363818158792E-02 
1568	 0.016692424498137 
1569	 1.67428575554498E-02 
1570	 1.63620742561392E-02 
1571	 1.62509330174967E-02 
1572	 1.62611638428962E-02 
1573	 1.60448835737306E-02 
1574	 1.64740758743275E-02 
1575	 1.63372007650893E-02 
1576	 1.53467950400902E-02 
1577	 1.51284338334842E-02 
1578	 1.56238043893812E-02 
1579	 1.54201592001686E-02 
1580	 1.46941958483013E-02 
1581	 1.56997764442659E-02 
1582	 1.70587189919053E-02 
1583	 1.69433807619692E-02 
1584	 1.71884641476805E-02 
1585	 1.78432557663702E-02 
1586	 0.017648311763939 
1587	 1.71960638255588E-02 
1588	 1.75881911088092E-02 
1589	 1.82644855417706E-02 
1590	 1.78847538196893E-02 
1591	 0.017795695203967 
1592	 1.86401672954937E-02 
1593	 0.017911280279606 
1594	 1.68220174310705E-02 
1595	 1.71541584422297E-02 
1596	 1.70396444710208E-02 
1597	 1.72813657106403E-02 
1598	 1.79136694796655E-02 
1599	 1.76834876860403E-02 
1600	 0.017683455941536 
1601	 1.75963579768847E-02 
1602	 1.75684541462622E-02 
1603	 1.75852502953094E-02 
1604	 1.70646375172565E-02 
1605	 1.71081874078719E-02 
1606	 1.70155635893167E-02 
1607	 1.62790215410633E-02 
1608	 1.67934905812756E-02 
1609	 1.76511293289678E-02 
1610	 1.73650179606037E-02 
1611	 1.80117267365657E-02 
1612	 1.91208671712644E-02 
1613	 1.84989302648803E-02 
1614	 1.81013257378021E-02 
1615	 1.88439776693377E-02 
1616	 1.87151576286973E-02 
1617	 0.018648128744699 
1618	 1.90444949047251E-02 
1619	 1.83355075371343E-02 
1620	 1.75454729169939E-02 
1621	 1.69645897081949E-02 
1622	 1.68913797834875E-02 
1623	 1.76162811616765E-02 
1624	 1.81322513370754E-02 
1625	 1.85832645684115E-02 
1626	 1.85549179097705E-02 
1627	 1.82210201774588E-02 
1628	 1.80787885929958E-02 
1629	 1.82014656978879E-02 
1630	 1.84652730781264E-02 
1631	 0.018427156167592 
1632	 1.86964189573885E-02 
1633	 1.87563436023478E-02 
1634	 1.85876395952822E-02 
1635	 1.93362912656966E-02 
1636	 1.93950942548326E-02 
1637	 1.87249072647747E-02 
1638	 1.96509182833373E-02 
1639	 2.04113822201284E-02 
1640	 2.00476282410945E-02 
1641	 2.02555837426897E-02 
1642	 1.96307479961133E-02 
1643	 1.82674398118522E-02 
1644	 1.81795940489488E-02 
1645	 1.85215857735988E-02 
1646	 1.82885499517739E-02 
1647	 1.80158928971964E-02 
1648	 1.81081797447204E-02 
1649	 1.83349117382002E-02 
1650	 1.89172898644597E-02 
1651	 1.98271239418553E-02 
1652	 1.97045524605737E-02 
1653	 1.89972520887929E-02 
1654	 1.89326293113866E-02 
1655	 1.89262201782793E-02 
1656	 1.89107672318251E-02 
1657	 1.91631479039994E-02 
1658	 1.89796172521018E-02 
1659	 1.86741481067653E-02 
1660	 0.018434030121559 
1661	 1.74916464668222E-02 
1662	 1.74238161371642E-02 
1663	 1.81184088456724E-02 
1664	 1.84160079926588E-02 
1665	 1.90599439556215E-02 
1666	 0.019600985583677 
1667	 1.96872523781635E-02 
1668	 2.03507331418086E-02 
1669	 2.08959587438011E-02 
1670	 2.03475043431095E-02 
1671	 2.02083437126944E-02 
1672	 2.00721899904221E-02 
1673	 0.019887856473358 
1674	 2.06041037797369E-02 
1675	 2.12569908353844E-02 
1676	 2.01260602079817E-02 
1677	 1.91997268852067E-02 
1678	 1.96019507556676E-02 
1679	 1.95133839729837E-02 
1680	 0.019867315371047 
1681	 1.97031744457042E-02 
1682	 1.91542484286658E-02 
1683	 1.98859022271622E-02 
1684	 2.01225255379743E-02 
1685	 1.99172297459698E-02 
1686	 1.94445881281505E-02 
1687	 1.87564666286759E-02 
1688	 1.88284386628071E-02 
1689	 1.92363974665517E-02 
1690	 0.019880835863326 
1691	 2.01455043541206E-02 
1692	 1.92700917168365E-02 
1693	 1.81578710551377E-02 
1694	 1.80067243685094E-02 
1695	 1.80634137953533E-02 
1696	 1.81057168210372E-02 
1697	 1.89468556916868E-02 
1698	 1.94258677787252E-02 
1699	 1.94262309404256E-02 
1700	 1.98803437659022E-02 
1701	 1.97552397820302E-02 
1702	 1.96111072741985E-02 
1703	 1.94381597587632E-02 
1704	 1.81589743889823E-02 
1705	 1.88118801446927E-02 
1706	 2.04981181146593E-02 
1707	 2.02534853373918E-02 
1708	 2.03555953280276E-02 
1709	 2.08117562693677E-02 
1710	 1.98426658600499E-02 
1711	 1.89672108818244E-02 
1712	 1.90841241348449E-02 
1713	 1.86470527117518E-02 
1714	 1.83991633747141E-02 
1715	 1.86382234492775E-02 
1716	 1.90134642370332E-02 
1717	 1.92366921209892E-02 
1718	 1.91382300147598E-02 
1719	 1.85541809786999E-02 
1720	 1.87532716607705E-02 
1721	 1.93591114820787E-02 
1722	 1.89155921815038E-02 
1723	 1.95618379086434E-02 
1724	 2.14430850024281E-02 
1725	 2.18979208896567E-02 
1726	 2.07323796583268E-02 
1727	 2.05303064439562E-02 
1728	 2.03592661763618E-02 
1729	 1.93450578163608E-02 
1730	 2.02986194829296E-02 
1731	 2.11547978233886E-02 
1732	 2.07916648305605E-02 
1733	 2.07943882121727E-02 
1734	 2.17499948931298E-02 
1735	 2.19358060631073E-02 
1736	 1.91457233591488E-02 
1737	 0.01711993577917 
1738	 1.65633618333531E-02 
1739	 1.57612167975578E-02 
1740	 1.64527620989148E-02 
1741	 0.016891301464218 
1742	 1.56188681222836E-02 
1743	 1.52367981842649E-02 
1744	 1.69731888358188E-02 
1745	 1.75371313250588E-02 
1746	 1.61866373991963E-02 
1747	 1.62011765474763E-02 
1748	 0.014647594852232 
1749	 1.40342592406377E-02 
1750	 1.60324771169226E-02 
1751	 0.016080360649865 
1752	 1.43281383751763E-02 
1753	 1.46521305428541E-02 
1754	 1.53409646815946E-02 
1755	 0.014572598181168 
1756	 1.45100515857956E-02 
1757	 1.57178566928955E-02 
1758	 1.65443209651202E-02 
1759	 0.018368292610145 
1760	 1.81435154328103E-02 
1761	 1.58460510798618E-02 
1762	 1.40593143830024E-02 
1763	 1.52586057747772E-02 
1764	 0.016390953026878 
1765	 1.58867288129236E-02 
1766	 1.73883411762822E-02 
1767	 1.83114676874989E-02 
1768	 1.70909642695218E-02 
1769	 1.47253918017966E-02 
1770	 1.25742795450613E-02 
1771	 1.33401942094636E-02 
1772	 1.32309360235822E-02 
1773	 1.59856476617595E-02 
1774	 2.10137819749154E-02 
1775	 1.74393800944461E-02 
1776	 1.72862862696563E-02 
1777	 1.63627487583372E-02 
1778	 1.60744909710561E-02 
1779	 1.80102732031461E-02 
1780	 2.00149067142307E-02 
1781	 2.61994098196634E-02 
1782	 2.55546993716799E-02 
1783	 1.92685351777465E-02 
1784	 1.76468299490344E-02 
1785	 0.010070999583013 
1786	 7.97411429283243E-03 
1787	 1.73299921668473E-02 
1788	 1.99614734103747E-02 
1789	 2.04171525719037E-02 
1790	 2.09679324785324E-02 
1791	 7.26052166656282E-03 
1792	 9.31759585108468E-04 
1793	 8.58974800582394E-03 
1794	 1.75270953700326E-02 
1795	 4.11277980510142E-02 
1796	 4.58755396641605E-02 
1797	 2.74317645758807E-02 
1798	 2.23985801378272E-02 
1799	 1.30842528721194E-02 
1800	 2.94545570869035E-02 
1801	 4.81858381097609E-02 
1802	 8.62756906133141E-02 
1803	 9.60370702218803E-02 
1804	 7.45204419073452E-02 
1805	 6.36801167452123E-02 
1806	-1.74786558188641E-03 
1807	-4.80963878570058E-02 
1808	-0.099293747344956 
1809	-0.100702939201955 
1810	 7.12162587773881E-03 
1811	 0.128043847082032 
1812	 0.496187687720611 
1813	 0.385770959300391 
1814	-0.145652700128248 
1815	-0.335428305713717 
1816	-1.02122213028569 
1817	-0.922948980732963 
1818	 2.11075977394323 
1819	 0.315730855765997 
1820	-6.58047050607025E-02 
1821	-0.429905590167121 
1822	-0.293335536454902 
1823	-0.236246625623848 
1824	-5.42708815151922E-02 
1825	 1.80617911008749 
1826	 6.71938388457206 
1827	-3.66449628244585 
1828	-2.12268244345118 
1829	 6.35457515256468E-02 
1830	 2.81293709697248 
1831	-1.72641910560781 
1832	-0.160805431391225 
1833	-0.292900533704934 
1834	 1.58303962792083E-02 
1835	 0.705702015805404 
1836	 1.01302900866631 
1837	 2.20520409743128 
1838	 4.37936410526048 
1839	-21.6982890854679 
1840	 10.8791051842728 
1841	 4.73028147384785 
1842	-12.4282956060465 
1843	-45.6192426928127 
1844	 1.31591735438887 
1845	 0.70939167203054 
1846	 0.315804044321099 
1847	 0.314295279263968 
1848	 0.997330181675857 
1849	-7.5956525953181 
1850	-1.71772510344163 
1851	-0.660347856756281 
1852	-0.711491802229413 
1853	-0.683747898785729 
1854	-0.619768302488061 
1855	-0.926462490816373 
1856	-0.956744317455089 
1857	-0.213600602035065 
1858	-7.92728355101823E-02 
1859	-2.07367934123895 
1860	 4.99648458737338 
1861	 2.07480101791948 
1862	 0.836985784996783 
1863	 0.454809044835555 
1864	 0.518349717639549 
1865	 0.489468976135423 
1866	 0.682409791450961 
1867	 0.757100908836119 
1868	 0.701772247492303 
1869	 0.609987060201666 
1870	 0.387106740287175 
1871	 0.6077778512656 
1872	 1.12631991185635 
1873	 1.95740669574311 
1874	 11.7388163470121 
1875	-9.86355811269718 
1876	-5.38042825099101 
1877	-7.14064711141577 
1878	 8.33940856763505 
1879	 0.70255187103078 
1880	 0.422162686958766 
1881	 0.237371555416664 
1882	 0.881671605674901 
1883	 1.76612101689131 
1884	 4.28164388586937 
1885	 2.9659905129836 
1886	 2.90356848879422 
1887	 3.20277820763844 
1888	 5.49892368842793 
1889	 3.77251523944074 
1890	 0.962837896238588 
1891	 1.35386849191819 
1892	 5.26629492110787 
1893	 1.4191056193979 
1894	 2.35808872892836 
1895	-17.1190944077624 
1896	-2.17724352376039 
1897	-2.40347722473658 
1898	-5.56786464960319 
1899	-2.15816729098015 
1900	-2.20067026386202 
1901	 15.8800515147587 
1902	 5.60786070161857 
1903	 4.9280577381315 
1904	 1.28777018365309 
1905	 0.966730007040669 
1906	 0.617208969895215 
1907	-0.430760370635364 
1908	 4.55392508687998 
1909	 3.23302405441192 
1910	 2.92914147528918 
1911	 9.57851193373951 
1912	-4.99666464070244 
1913	-2.84949640973648 
1914	-1.38766851628378 
1915	-0.813152692530131 
1916	-0.237635856523458 
1917	 0.427819068016007 
1918	 61.271904393293 
1919	-1.77930748192202 
1920	 13.9786447277987 
1921	 1.42539668845429 
1922	 1.09025951186815 
1923	 0.764632777887955 
1924	 0.721259351644326 
1925	 0.605860026099656 
1926	 0.672859156593832 
1927	 0.762554571442335 
1928	-7.45069024804038 
1929	-0.660436758663706 
1930	-0.731108112408077 
1931	-1.14401968891926 
1932	-11.7684712024122 
1933	 10.5381128608999 
1934	 1.97691045373117 
1935	 2.06290657547351 
1936	 7.52421243034174 
1937	-49.9522671431759 
1938	 3.1889283601729 
1939	 5.00430693655767 
1940	-0.364344560638921 
1941	 4.83007836016601E-02 
1942	 0.369647735832256 
1943	 0.434505006327199 
1944	-0.071768298566005 
1945	-0.167520659393608 
1946	-0.162364574728379 
1947	 1.29660823219175E-02 
1948	 1.15667094812546 
1949	 0.76197247643584 
1950	 0.477330747668851 
1951	 0.630772579180022 
1952	 0.672791814025523 
1953	 0.551855977361981 
1954	 1.12835524088145 
1955	 0.890170402279751 
1956	 0.292498288870831 
1957	 0.191867426829711 
1958	 0.219516306770247 
1959	 0.410846472125291 
1960	 0.580621162956653 
1961	 0.479664638033318 
1962	 0.395286058504194 
1963	 0.24799319156241 
1964	 0.181050800924607 
1965	 0.183872103926121 
1966	 0.151955038303229 
1967	 0.120883455721774 
1968	 0.13441021432568 
1969	 0.127457387103985 
1970	 0.101684962118979 
1971	 9.72666639280377E-02 
1972	 7.48095365306705E-02 
1973	 3.44267751402274E-02 
1974	 3.2488243466856E-03 
1975	-5.58336801656043E-03 
1976	 0.013725699005889 
1977	 2.80854529700663E-02 
1978	 1.65890837866116E-02 
1979	 1.75038031117604E-02 
1980	 2.17053277389836E-02 
1981	 1.88949090836684E-02 
1982	 1.61230044321503E-02 
1983	 4.06504482129929E-02 
1984	 6.29876037626679E-02 
1985	 5.85183059575604E-02 
1986	 5.49235789960228E-02 
1987	 5.27997498079389E-02 
1988	 4.97062337624935E-02 
1989	 4.61847756181331E-02 
1990	 3.58583027516478E-02 
1991	 3.17049045181159E-02 
1992	 2.02584402554959E-02 
1993	 9.1664296254547E-03 
1994	 1.07132691169018E-02 
1995	 2.40477757456041E-02 
1996	 4.20819684452428E-02 
1997	 5.89136099176646E-02 
1998	 6.72153841498875E-02 
1999	 0.055013975105447 
2000	 3.57109905787262E-02 
2001	 0.039196887115818 
2002	 5.10120807544459E-02 
2003	 8.46341770951011E-02 
2004	 9.57070903652656E-02 
2005	 7.39336775711178E-02 
2006	 8.04220563301496E-02 
2007	 5.97419341313851E-02 
2008	 3.37082460602469E-02 
2009	 0.020963808030251 
2010	-1.09109475297306E-03 
2011	-9.71103436149448E-03 
2012	-4.72139634837007E-03 
2013	 8.62500572618016E-03 
2014	-4.24238305644626E-03 
2015	 2.77589051264145E-03 
2016	 7.13040774182356E-03 
2017	 0.01110461114411 
2018	 5.28055665980759E-02 
2019	 5.42623045564341E-02 
2020	 3.83903488831822E-02 
2021	 4.10300888869419E-02 
2022	 2.31072811044207E-02 
2023	 1.29995190711234E-02 
2024	 0.010620490574342 
2025	 0.016564886395521 
2026	 1.68218862901032E-02 
2027	 1.80162183891868E-02 
2028	 1.84347381526941E-02 
2029	 1.78377327414311E-02 
2030	 1.29327820879297E-02 
2031	 0.011284785945052 
2032	 1.61582463898445E-02 
2033	 1.76061002481465E-02 
2034	 2.07294730291183E-02 
2035	 2.22076183267234E-02 
2036	 1.47831272539583E-02 
2037	 1.33660367714206E-02 
2038	 1.23657480396991E-02 
2039	 1.00926215833418E-02 
2040	 8.5070203600859E-03 
2041	 7.08604505530958E-03 
2042	 2.84242810429505E-03 
2043	 3.80527946456243E-03 
2044	 8.32873081457428E-03 
2045	 0.010062141294313 
2046	 1.47255184012549E-02 
2047	 1.40256383018105E-02 
2048	 9.09659973362887E-03 
2049	 0.010610499606096 
2050	 1.74834510013806E-02 
2051	 1.70123573387436E-02 
2052	 3.71441893601833E-03 
2053	-5.67459349129805E-03 
2054	-5.19718429138676E-03 
2055	-8.84508810379571E-03 
2056	-8.30950184468378E-03 
2057	 1.00451244042885E-02 
2058	 1.58519117218715E-02 
2059	 7.85103571358775E-03 
2060	 1.18371493763996E-02 
2061	 2.65683671159188E-02 
2062	 2.40686882624558E-02 
2063	 2.10216276711763E-02 
2064	 2.80508823939105E-02 
2065	 2.14003982791092E-02 
2066	 1.36682593558129E-02 
2067	 1.63653307599479E-02 
2068	 9.76798561769795E-03 
2069	 1.76198415639786E-03 
2070	 5.8677137519795E-03 
2071	 1.19686317918316E-02 
2072	 9.57447676606496E-03 
2073	 8.27389268004254E-03 
2074	 7.96679488667763E-03 
2075	 9.23139057223632E-03 
2076	 8.97574792641995E-03 
2077	 1.06581484923692E-02 
2078	 1.61397925303522E-02 
2079	 1.83508072354411E-02 
2080	 1.83910663299934E-02 
2081	 1.80255510958078E-02 
2082	 0.01785026845239 
2083	 1.90358501989362E-02 
2084	 2.29951408004256E-02 
2085	 2.92628765367619E-02 
2086	 0.034965131586694 
2087	 3.73429246085039E-02 
2088	 3.60236942270213E-02 
2089	 3.01365918619793E-02 
2090	 2.30356100797165E-02 
2091	 1.99048549244935E-02 
2092	 1.69791888444029E-02 
2093	 1.25424068110296E-02 
2094	 1.25609797485746E-02 
2095	 1.71563487672327E-02 
2096	 1.79440804304273E-02 
2097	 2.13513627170196E-02 
2098	 0.022938868932492 
2099	 2.22451513029167E-02 
2100	 0.020490856451478 
2101	 1.82061278209196E-02 
2102	 1.34621318619948E-02 
2103	 1.04584212519355E-02 
2104	 9.06016199343008E-03 
2105	 0.010341363816927 
2106	 1.18687177610467E-02 
2107	 1.45948156916053E-02 
2108	 0.013722378348289 
2109	 7.10434323131102E-03 
2110	 2.91221205698482E-03 
2111	 7.76484195805858E-04 
2112	-5.65886446578741E-04 
2113	 1.4319526174554E-03 
2114	 1.33385919652321E-02 
2115	 1.68991624639093E-02 
2116	 1.73329397181114E-02 
2117	 1.77037178841056E-02 
2118	 1.41040521064695E-02 
2119	 1.39124278267263E-02 
2120	 1.44600919509333E-02 
2121	 1.62271198628453E-02 
2122	 1.72667071099665E-02 
2123	 1.72109682580746E-02 
2124	 1.55510206442559E-02 
2125	 1.27308505471486E-02 
2126	 1.07724237734384E-02 
2127	 7.31173316053161E-03 
2128	 8.00468997113774E-03 
2129	 8.95953745407625E-03 
2130	 1.08048580586179E-02 
2131	 1.78023837155226E-02 
2132	 0.017369249959913 
2133	 1.59478728485446E-02 
2134	 1.25621854001056E-02 
2135	 2.04770821980984E-03 
2136	 4.15285279207693E-05 
2137	-2.36861486538477E-04 
2138	 1.21485183484049E-03 
2139	 1.11427835191808E-02 
2140	 1.38431570211675E-02 
2141	 1.41076787889426E-02 
2142	 1.39037431515986E-02 
2143	 1.14533487461992E-02 
2144	 6.90326110752487E-03 
2145	 4.8539175988465E-03 
2146	 3.12781396916044E-03 
2147	 1.74261122822115E-03 
2148	 7.1538433806234E-03 
2149	 7.9575463542622E-03 
2150	 7.64843753174242E-03 
2151	 8.72977892955745E-03 
2152	 2.37141952593814E-03 
2153	 8.17321654122069E-04 
2154	 5.35440063091795E-03 
2155	 9.23166641482582E-03 
2156	 0.01160036531857 
2157	 1.40228423065878E-02 
2158	 1.54165169820215E-02 
2159	 1.76392052545497E-02 
2160	 0.021790457203269 
2161	 0.02368691805293 
2162	 2.51970779435081E-02 
2163	 2.50920248282332E-02 
2164	 2.13324546748062E-02 
2165	 1.94438678867119E-02 
2166	 1.60164382659839E-02 
2167	 1.57954883229745E-02 
2168	 2.01070596411543E-02 
2169	 2.04787254108857E-02 
2170	 1.99483369037391E-02 
2171	 2.20770156808908E-02 
2172	 1.81088566918293E-02 
2173	 1.50268102034674E-02 
2174	 1.39466599249546E-02 
2175	 1.17985728491331E-02 
2176	 1.48419490129259E-02 
2177	 0.018064750337205 
2178	 2.08573757963039E-02 
2179	 1.97160453189127E-02 
2180	 0.016693961372731 
2181	 1.52911263230888E-02 
2182	 1.14595750067914E-02 
2183	 1.21797059017648E-02 
2184	 1.30965831599379E-02 
2185	 1.01546260240445E-02 
2186	 8.00890040882646E-03 
2187	 5.34816126440125E-03 
2188	 3.12392228291649E-03 
2189	-5.7002634078388E-04 
2190	 6.63055030609504E-04 
2191	 3.75055810937618E-03 
2192	 8.72463763379209E-03 
2193	 0.021802733146588 
2194	 2.52453871563938E-02 
2195	 0.023317092819367 
2196	 2.53510910961386E-02 
2197	 2.66297701682008E-02 
2198	 2.56538591050418E-02 
2199	 2.31289614021104E-02 
2200	 2.52504072812953E-02 
2201	 0.028026844314447 
2202	 1.60858661470757E-02 
2203	 1.59674076135191E-02 
2204	 2.06255175627623E-02 
2205	 0.016262481765589 
2206	 2.02781870619702E-02 
2207	 2.14951955631622E-02 
2208	 1.76147528818899E-02 
2209	 1.72902312273504E-02 
2210	 1.68334205966908E-02 
2211	 1.76913776145936E-02 
2212	 1.87369873141984E-02 
2213	 1.89017333291044E-02 
2214	 2.13496276853685E-02 
2215	 2.62635057965002E-02 
2216	 2.54046341983701E-02 
2217	 2.46653271500432E-02 
2218	 2.52208240149279E-02 
2219	 2.22583878923009E-02 
2220	 1.39663346529817E-02 
2221	 1.13893265913845E-02 
2222	 7.22910149355824E-03 
2223	 8.82102982368295E-03 
2224	 1.57318815775073E-02 
2225	 2.10586986141414E-02 
2226	 3.37134890402855E-02 
2227	 3.65770763506643E-02 
2228	 0.033521561887478 
2229	 3.19190796782068E-02 
2230	 0.023868903874135 
2231	 1.98865443112576E-02 
2232	 0.019709171505909 
2233	 1.69871029579389E-02 
2234	 1.00166531556213E-02 
2235	 1.31693389154494E-02 
2236	 1.58980663776571E-02 
2237	 1.89491464541054E-02 
2238	 2.89164532254081E-02 
2239	 3.13123999303549E-02 
2240	 3.32743569542942E-02 
2241	 3.34899413945137E-02 
2242	 2.92888685867885E-02 
2243	 3.42755447528668E-02 
2244	 3.82341540604924E-02 
2245	 3.46006778365739E-02 
2246	 2.69837725421054E-02 
2247	 1.63854348387661E-02 
2248	 6.07565173868695E-03 
2249	 1.62074081552265E-03 
2250	 5.22462272577596E-03 
2251	 2.52738357963588E-03 
2252	-3.54922416698229E-03 
2253	-5.48986027966152E-03 
2254	-7.21935143709614E-03 
2255	 2.63495469713426E-03 
2256	 8.40624654142143E-03 
2257	 4.71491137291557E-03 
2258	 9.42911218724617E-03 
2259	 5.12513858051206E-03 
2260	 7.95078790949309E-03 
2261	 1.96821678305116E-02 
2262	 2.34160606832865E-02 
2263	 2.92072028819749E-02 
2264	 2.88790314464868E-02 
2265	 0.015022993453478 
2266	 1.41149291844463E-02 
2267	 0.018074163701815 
2268	 1.89766286975711E-02 
2269	 2.91153413584927E-02 
2270	 2.98698606414621E-02 
2271	 1.70130608573667E-02 
2272	 1.11847627990367E-02 
2273	 7.2992616837559E-03 
2274	 3.46435686208732E-03 
2275	 9.12858248137998E-04 
2276	 5.09076915723996E-03 
2277	 1.46677365047787E-02 
2278	 1.91311900061778E-02 
2279	 2.33426857710471E-02 
2280	 3.25091334655114E-02 
2281	 4.51367263844583E-02 
2282	 4.70414020607693E-02 
2283	 4.78379645034004E-02 
2284	 4.68569614418012E-02 
2285	 3.84211583468256E-02 
2286	 3.45013529085409E-02 
2287	 3.71889554712707E-02 
2288	 4.99628755873581E-02 
2289	 5.23638138463479E-02 
2290	 3.65806876856698E-02 
2291	 0.034125763507559 
2292	 2.37345260578161E-02 
2293	 1.78115641681915E-02 
2294	 2.60138247486334E-02 
2295	 2.58056309385041E-02 
2296	 1.97128329569887E-02 
2297	-1.3375672852166E-03 
2298	 5.13684167891157E-04 
2299	 6.14664731407251E-03 
2300	 1.03981359591048E-03 
2301	 1.63525152477896E-02 
2302	 2.21856512241434E-02 
2303	 1.32201543018789E-02 
2304	 1.42057477209152E-02 
2305	 3.26397386534704E-02 
2306	 3.26572591208287E-02 
2307	 1.69552676363722E-02 
2308	 2.24433067589946E-02 
2309	 3.55057770332606E-02 
2310	 4.58314811475669E-02 
2311	 5.68756571794743E-02 
2312	 7.50501816781412E-02 
2313	 8.76928328893801E-02 
2314	 9.51545012035737E-02 
2315	 0.112724813373287 
2316	 0.119550718112184 
2317	 0.106731776965313 
2318	 6.40658652596681E-02 
2319	 0.02247863477464 
2320	 2.12221725860251E-02 
2321	 2.08581664952493E-02 
2322	 2.30518197005064E-02 
2323	 3.81154085010569E-02 
2324	 1.42704794577087E-02 
2325	-0.037524398633354 
2326	-5.11525239277746E-02 
2327	-0.033107622390763 
2328	-1.12599956270432E-02 
2329	 2.28786128201862E-02 
2330	 4.64647217078197E-02 
2331	 3.53399310730719E-02 
2332	 3.70127911715559E-02 
2333	 5.24416716358689E-02 
2334	 5.76860209982817E-02 
2335	 4.56861511999269E-02 
2336	 2.85024882349064E-02 
2337	 0.026740694736068 
2338	 1.49576630282161E-02 
2339	 3.01919503684991E-02 
2340	 5.24857843782863E-02 
2341	 6.64818355327259E-02 
2342	 7.51958337580419E-02 
2343	 7.64368839795608E-02 
2344	 9.15547255287035E-02 
2345	 3.94728146697839E-02 
2346	 2.81366667454007E-02 
2347	 9.70415990631052E-02 
2348	 0.142352848005726 
2349	 0.234002158333845 
2350	 0.296498362659543 
2351	 0.259516290181693 
2352	 0.275510132839291 
2353	 0.305951053898272 
2354	 0.321909897731937 
2355	 0.351737919541496 
2356	 0.321746898654167 
2357	 0.170966177899349 
2358	 9.82019572738993E-02 
2359	 7.85484246327166E-02 
2360	 4.12260639868742E-03 
2361	-4.54649149304658E-04 
2362	-3.04510492216459E-03 
2363	-3.33965336994755E-03 
2364	 1.66715561787524E-02 
2365	 5.38909470163138E-02 
2366	 9.14691797510327E-02 
2367	 0.141350200461308 
2368	 0.201133269731584 
2369	 0.271320053870446 
2370	 0.344800787670301 
2371	 0.319429120336647 
2372	 0.354326764392864 
2373	 0.471586120608632 
2374	 0.443002092244312 
2375	 0.431439658663629 
2376	 0.385547469663577 
2377	 0.17372820451518 
2378	 9.52776466350548E-02 
2379	 0.143181733639557 
2380	 0.188762891450141 
2381	 0.210539208463621 
2382	 0.252316774452784 
2383	 0.261352716605214 
2384	-1.77140271750438E-02 
2385	-0.043005071003217 
2386	 0.226545545918741 
2387	 0.359012650169746 
2388	 0.456490484153909 
2389	 0.442641363137368 
2390	 7.12298873969824E-02 
2391	-2.05037350261602E-02 
2392	 8.79153092640892E-02 
2393	 2.45306128178977E-02 
2394	 9.59593285379313E-02 
2395	 0.220499163691613 
2396	 3.53636933383415E-02 
2397	 0.271957299921784 
2398	 0.592565768668125 
2399	 0.472733650879685 
2400	 0.816077870144116 
2401	 0.639492659321443 
2402	 0.203424210899577 
2403	 0.183751782828385 
2404	 0.333773516050576 
2405	 0.396902066875974 
2406	 0.759941814093198 
2407	 1.89661165545388 
2408	 1.6005770152862 
2409	 2.46339167633361 
2410	 2.24997877688138 
2411	-5.00237704572964E-03 
2412	-0.244109726491703 
2413	-0.440534629561763 
2414	-0.412955829135454 
2415	-0.349529859108694 
2416	-0.314795039181629 
2417	-0.783695789174613 
2418	-1.64397447669025 
2419	-1.42282939338774 
2420	-4.38794012790669 
2421	-0.527510822469225 
2422	-0.080546542058671 
2423	-1.04100934816154 
2424	-6.23027029485656 
2425	-10.6853227139685 
2426	-88.7145483466672 
2427	 3.11639074806002 
2428	 7.54189002786394 
2429	-1.52216801098725 
2430	-2.57263461705576 
2431	-0.632135921209531 
2432	 0.993297210070647 
2433	-43.7028653736031 
2434	-2.81929230210294 
2435	-2.03839312716839 
2436	-1.05941605412291 
2437	-0.882941207109112 
2438	-0.508317512960767 
2439	-0.157405978221344 
2440	-0.44201551315505 
2441	-4.67584451521233E-02 
2442	 0.266555510219067 
2443	 0.288962397469875 
2444	 0.369757043966666 
2445	 0.481374466991553 
2446	 0.214907015622171 
2447	 0.243492721462783 
2448	 0.223831885259835 
2449	 9.85998715457796E-02 
2450	-3.09149369225252E-02 
2451	-0.411163852900271 
2452	-0.541916829232865 
2453	-0.120347911410729 
2454	 2.51490057866605 
2455	 0.612923934754546 
2456	-3.28035894454241E-03 
2457	-1.92525195780469E-02 
2458	-0.115229847298929 
2459	-0.117212668194593 
2460	 0.123189723989784 
2461	-7.39561313292067E-02 
2462	-0.51022266100517 
2463	-1.5177879458495 
2464	-3.184334236124 
2465	-14.0659830534655 
2466	-2.85708710400606 
2467	-0.8206152825774 
2468	-0.264670389754394 
2469	 0.199712618251792 
2470	 0.103393739556108 
2471	-0.323051774557663 
2472	-0.710852533968738 
2473	-0.87834415106716 
2474	-1.11280245217237 
2475	-1.81376313463135 
2476	-2.17038629958732 
2477	-5.60346618850566 
2478	 3.90679999728751 
2479	 2.9739311351717 
2480	 19.467434619591 
2481	-6.88545354145711 
2482	-2.32421908357073 
2483	-0.638285942959096 
2484	-0.234648194108437 
2485	 7.96123597150411E-02 
2486	-0.198924044137421 
2487	-8.91868941388583E-02 
2488	-0.333874461606943 
2489	-0.50248363779242 
2490	-0.044546225736642 
2491	 6.61886330102883E-02 
2492	 0.072488281354422 
2493	 0.249551494730935 
2494	 0.254115120724967 
2495	 0.919701048043354 
2496	 2.05344731270084 
2497	 0.836347253641273 
2498	-0.425280694881992 
2499	 3.63813782208224 
2500	 3.76397806756468 
