Wavelength	rt0704rt300007.asd
350	 7.32274566573912E-02 
351	 7.34628180490975E-02 
352	 7.40598175463376E-02 
353	 7.43232000479558E-02 
354	 7.40722215814539E-02 
355	 7.46964131346268E-02 
356	 7.50671066059042E-02 
357	 7.54935796727723E-02 
358	 7.63746257120873E-02 
359	 7.65073416633962E-02 
360	 7.68784150179728E-02 
361	 7.75111562870569E-02 
362	 7.78051896643062E-02 
363	 7.85370901426014E-02 
364	 0.078695600825138 
365	 7.83025007218892E-02 
366	 7.92368170341176E-02 
367	 7.98838915623486E-02 
368	 8.01037727588605E-02 
369	 8.02440598687325E-02 
370	 8.09172854338351E-02 
371	 8.14138637493051E-02 
372	 8.17563336937296E-02 
373	 8.23473439326699E-02 
374	 8.27300979113198E-02 
375	 8.30822636462981E-02 
376	 8.35873187897758E-02 
377	 8.43328411622119E-02 
378	 8.46679703338429E-02 
379	 8.47754596383745E-02 
380	 8.50391585771006E-02 
381	 8.57822122152007E-02 
382	 8.63638832240595E-02 
383	 8.66400398930463E-02 
384	 8.67520313170652E-02 
385	 8.68158620357514E-02 
386	 8.68898353181323E-02 
387	 8.71670561794761E-02 
388	 8.79433329719946E-02 
389	 8.79925938013435E-02 
390	 0.087846008639907 
391	 8.80008165897279E-02 
392	 0.087934550527545 
393	 8.81401422214337E-02 
394	 8.83128249722283E-02 
395	 8.80498830857514E-02 
396	 8.80513045474385E-02 
397	 8.80516574993155E-02 
398	 0.087969644962326 
399	 8.79251722805619E-02 
400	 8.77790208189727E-02 
401	 8.76518734423713E-02 
402	 0.087585109367898 
403	 8.73551010963721E-02 
404	 8.71597810990405E-02 
405	 8.69241628880326E-02 
406	 8.65369409849726E-02 
407	 8.62818407036908E-02 
408	 0.086045317407851 
409	 8.57727041943946E-02 
410	 8.54917194248917E-02 
411	 8.51286228732055E-02 
412	 8.46730527198421E-02 
413	 8.42225163604972E-02 
414	 8.41255161835655E-02 
415	 8.39425402198984E-02 
416	 0.083599770258216 
417	 8.31976226132378E-02 
418	 8.28431370680313E-02 
419	 8.26306527693362E-02 
420	 8.25226057761335E-02 
421	 8.23491202762147E-02 
422	 8.20913941632939E-02 
423	 8.18759604190541E-02 
424	 8.17979168093793E-02 
425	 8.17865125324236E-02 
426	 8.17070511884046E-02 
427	 8.16253196135203E-02 
428	 8.16832287199239E-02 
429	 8.17853278091039E-02 
430	 8.17817863402252E-02 
431	 8.16761106346242E-02 
432	 8.16511406194786E-02 
433	 8.17974618891549E-02 
434	 8.19495461023821E-02 
435	 8.20050899469707E-02 
436	 0.082257584920747 
437	 8.23299512249847E-02 
438	 8.22713074346144E-02 
439	 0.082345125610726 
440	 8.24308063626181E-02 
441	 0.082470835489771 
442	 8.24862792467796E-02 
443	 8.26067032459654E-02 
444	 8.26513485199249E-02 
445	 8.26907629435224E-02 
446	 8.27956849972375E-02 
447	 8.27397858779376E-02 
448	 8.28082608619819E-02 
449	 8.29304172641756E-02 
450	 8.27986897609815E-02 
451	 0.082708055179807 
452	 8.26867633282544E-02 
453	 8.26763340254142E-02 
454	 8.25242788915152E-02 
455	 8.23651042665567E-02 
456	 8.21568936459658E-02 
457	 8.18486702759477E-02 
458	 8.16729867360088E-02 
459	 8.15113822027539E-02 
460	 8.13083972755703E-02 
461	 8.10911809834655E-02 
462	 8.08273184029321E-02 
463	 0.08059788812427 
464	 8.04363240114456E-02 
465	 0.080184870582646 
466	 0.079948079070561 
467	 7.97632487392089E-02 
468	 7.96128489330397E-02 
469	 7.93372266407983E-02 
470	 0.079123641500393 
471	 7.90368736869766E-02 
472	 0.078936709711732 
473	 7.88241945251562E-02 
474	 7.87185623305776E-02 
475	 7.86488119894607E-02 
476	 7.86399205537398E-02 
477	 7.87141393994423E-02 
478	 7.87760681355298E-02 
479	 7.86852052352713E-02 
480	 7.87406897966423E-02 
481	 7.88042092044533E-02 
482	 7.87854573574996E-02 
483	 7.88034136656945E-02 
484	 7.89507968089581E-02 
485	 7.90801045318929E-02 
486	 7.90356996092534E-02 
487	 7.91508041914128E-02 
488	 7.93105788387471E-02 
489	 7.95052723370952E-02 
490	 7.98406279883939E-02 
491	 8.00844267681231E-02 
492	 8.02978749819606E-02 
493	 8.05721169102801E-02 
494	 8.09149381932068E-02 
495	 8.13024559718134E-02 
496	 8.16610697657153E-02 
497	 8.19353024489126E-02 
498	 8.24416778895874E-02 
499	 8.28745385167335E-02 
500	 8.31609062794982E-02 
501	 8.36909593884476E-02 
502	 8.39801668840221E-02 
503	 8.41988642780734E-02 
504	 8.46073095082617E-02 
505	 8.50015130477434E-02 
506	 8.54175243978144E-02 
507	 8.58874903898822E-02 
508	 8.64213518090826E-02 
509	 0.08677952650096 
510	 0.087248297589253 
511	 8.79306940119471E-02 
512	 8.82962306033052E-02 
513	 8.87795592487674E-02 
514	 8.93459732201129E-02 
515	 8.98110959649019E-02 
516	 9.04852861914387E-02 
517	 9.11013452961728E-02 
518	 9.15799584880041E-02 
519	 9.21341860745983E-02 
520	 9.29095086425537E-02 
521	 9.36904692255609E-02 
522	 9.43192036561437E-02 
523	 9.51279954932351E-02 
524	 9.59322009884686E-02 
525	 9.67928394230083E-02 
526	 9.79134701351733E-02 
527	 9.89531863680278E-02 
528	 0.100018190823276 
529	 0.101210402665391 
530	 0.102496833644867 
531	 0.103947267970086 
532	 0.105449961459647 
533	 0.106869514935344 
534	 0.108397772715768 
535	 0.110048466387932 
536	 0.111808693408365 
537	 0.113644017218027 
538	 0.115557835603975 
539	 0.117462652412073 
540	 0.119325838060839 
541	 0.121365751530624 
542	 0.123378585402127 
543	 0.125328741073467 
544	 0.127297141406493 
545	 0.12928684932853 
546	 0.131275567705244 
547	 0.133249374360855 
548	 0.135244264656167 
549	 0.137048879390891 
550	 0.138762106049652 
551	 0.140549708204954 
552	 0.142224261447538 
553	 0.143816461435907 
554	 0.145383577775882 
555	 0.146986575740852 
556	 0.148603528074144 
557	 0.150224322437905 
558	 0.151818706549628 
559	 0.153340187342138 
560	 0.154935010695823 
561	 0.156595058426766 
562	 0.158226846804852 
563	 0.159863532048147 
564	 0.161386909917066 
565	 0.162751934250582 
566	 0.164090555010666 
567	 0.165363613588188 
568	 0.166553884577327 
569	 0.16765296595944 
570	 0.168720472392528 
571	 0.169611884191745 
572	 0.170328275235764 
573	 0.171031945646277 
574	 0.17177158131031 
575	 0.172428579177884 
576	 0.172921063793714 
577	 0.173435988663915 
578	 0.173931761095377 
579	 0.174405151383319 
580	 0.17485796314305 
581	 0.175133496784874 
582	 0.17529690030345 
583	 0.17539944641201 
584	 0.17542652133727 
585	 0.175166141372588 
586	 0.174620216203533 
587	 0.17390737779451 
588	 0.173286631945883 
589	 0.172883008631838 
590	 0.172676672887539 
591	 0.172478641306781 
592	 0.172393842424317 
593	 0.172323283870815 
594	 0.172128756749676 
595	 0.171636066993913 
596	 0.171235481870644 
597	 0.170903660530814 
598	 0.170401867783916 
599	 0.16983337105149 
600	 0.169363784386645 
601	 0.16903814327521 
602	 0.168683168030936 
603	 0.168462841256925 
604	 0.168344814615095 
605	 0.168246588351068 
606	 0.168173677389324 
607	 0.168086915551382 
608	 0.167980317097075 
609	 0.167881635992435 
610	 0.167712228627389 
611	 0.167519545417274 
612	 0.167344866199671 
613	 0.167133208767484 
614	 0.166870436952492 
615	 0.166652381652405 
616	 0.166592091549402 
617	 0.166343975779748 
618	 0.166028639336852 
619	 0.165779779875742 
620	 0.165679715959411 
621	 0.165525942774581 
622	 0.165270715438077 
623	 0.164962480528851 
624	 0.16483546113862 
625	 0.164556885913381 
626	 0.164153797610978 
627	 0.164009623207077 
628	 0.163902460999583 
629	 0.163928475200141 
630	 0.164078747568839 
631	 0.163933864425779 
632	 0.163782039240725 
633	 0.163600818758751 
634	 0.163230488621369 
635	 0.162655223223233 
636	 0.162091841201919 
637	 0.161558644751788 
638	 0.16075358453533 
639	 0.159882053926328 
640	 0.158875244825667 
641	 0.157693311968972 
642	 0.156707754613887 
643	 0.155415232973989 
644	 0.153724643799008 
645	 0.151913009762224 
646	 0.150029017244489 
647	 0.148307555456613 
648	 0.146953983695402 
649	 0.145922440062061 
650	 0.144896979993776 
651	 0.144023057575927 
652	 0.143594661908501 
653	 0.143201026792399 
654	 0.142915168781007 
655	 0.142783001825547 
656	 0.1427518424335 
657	 0.142534360707856 
658	 0.142206769807975 
659	 0.141830486939005 
660	 0.141251274542361 
661	 0.140237781448495 
662	 0.138877285362571 
663	 0.137477389997779 
664	 0.136044490069398 
665	 0.134514808894639 
666	 0.132894244494395 
667	 0.131373490611736 
668	 0.129972108661755 
669	 0.128682641852574 
670	 0.127522414214808 
671	 0.126663307316657 
672	 0.126016584236403 
673	 0.125605205298423 
674	 0.125555026199295 
675	 0.125534685397644 
676	 0.125813205424081 
677	 0.126586838243703 
678	 0.12757594633702 
679	 0.128877605705023 
680	 0.130652843133874 
681	 0.133046630093433 
682	 0.13586579456754 
683	 0.138987159633436 
684	 0.142270920452425 
685	 0.14589177277669 
686	 0.15039101964118 
687	 0.154893807076481 
688	 0.158349022854325 
689	 0.162025183199723 
690	 0.165344744943505 
691	 0.168087540641725 
692	 0.170266766797224 
693	 0.172642834179961 
694	 0.17488589171822 
695	 0.176549151147942 
696	 0.17751598594207 
697	 0.177955466520799 
698	 0.178042051516189 
699	 0.177911828676607 
700	 0.17766149155339 
701	 0.177452728893335 
702	 0.17719580504673 
703	 0.176595632426782 
704	 0.175481810933422 
705	 0.174184518423837 
706	 0.172935681723511 
707	 0.171460869774194 
708	 0.169828519299729 
709	 0.168017626188017 
710	 0.165999996325474 
711	 0.163785895737586 
712	 0.161309541928447 
713	 0.158536573790427 
714	 0.155391323139027 
715	 0.151959186419731 
716	 0.14801810013387 
717	 0.143970609641046 
718	 0.140779678240578 
719	 0.138262577826828 
720	 0.136397915694135 
721	 0.134607781059156 
722	 0.131999191050297 
723	 0.128705817066709 
724	 0.125567172700526 
725	 0.12304031643148 
726	 0.120314180159371 
727	 0.117550536426572 
728	 0.114879460414839 
729	 0.111466662737546 
730	 0.108729121633153 
731	 0.10681411531796 
732	 0.105016028577799 
733	 0.103247775616063 
734	 0.101580873456919 
735	 0.100124223156617 
736	 9.89973370056663E-02 
737	 9.84672193413122E-02 
738	 9.81118475578239E-02 
739	 9.76230036880774E-02 
740	 9.74790065750185E-02 
741	 9.73393888334915E-02 
742	 0.0972373857343 
743	 9.73309553097422E-02 
744	 0.09715924658768 
745	 9.70072724424046E-02 
746	 9.69474099219311E-02 
747	 9.66694376917103E-02 
748	 9.66786527122254E-02 
749	 0.096677305462592 
750	 9.63986687008687E-02 
751	 9.63934557501265E-02 
752	 9.61956423953613E-02 
753	 9.59239573007209E-02 
754	 9.59437706093281E-02 
755	 9.57873953280968E-02 
756	 9.56484306405789E-02 
757	 9.54297931800095E-02 
758	 9.42374178417772E-02 
759	 9.30298588734899E-02 
760	 9.19997397302934E-02 
761	 9.13403274838141E-02 
762	 9.09549884282797E-02 
763	 9.13860303633642E-02 
764	 9.23917392840943E-02 
765	 9.34607595579585E-02 
766	 9.41839016313641E-02 
767	 9.46795752127946E-02 
768	 9.50768327464276E-02 
769	 9.54789848879944E-02 
770	 9.56037787782874E-02 
771	 9.56851456210675E-02 
772	 9.59212434923488E-02 
773	 9.61397843640631E-02 
774	 9.62563199575909E-02 
775	 9.63424650201062E-02 
776	 9.65177744137269E-02 
777	 9.66732070195353E-02 
778	 9.68965153037052E-02 
779	 9.71813816977494E-02 
780	 9.74213967784095E-02 
781	 0.097681823179225 
782	 9.79726169591989E-02 
783	 9.82471170272991E-02 
784	 9.83461608069081E-02 
785	 9.84773216897683E-02 
786	 9.86304759075228E-02 
787	 0.098753148414309 
788	 9.90187937124368E-02 
789	 9.93562428664257E-02 
790	 9.97750904620009E-02 
791	 0.100352657343674 
792	 0.101055500439962 
793	 0.101456723771606 
794	 0.101518294752568 
795	 0.101875927799047 
796	 0.102146379699872 
797	 0.102389821457919 
798	 0.10271928675903 
799	 0.102951493749287 
800	 0.103231420235915 
801	 0.103543153636105 
802	 0.103813541764826 
803	 0.104274303171671 
804	 0.104676766015667 
805	 0.104898327803546 
806	 0.104989290341165 
807	 0.104844074478119 
808	 0.104356064433972 
809	 0.103584154434048 
810	 0.103008977010663 
811	 0.102441027314009 
812	 0.101567482725607 
813	 0.10015280481195 
814	 9.89335450910506E-02 
815	 9.84279855180595E-02 
816	 9.84395643869193E-02 
817	 9.81831796631396E-02 
818	 9.77156648800439E-02 
819	 9.72042851820813E-02 
820	 9.65831029694793E-02 
821	 9.55032440195468E-02 
822	 9.39782321016439E-02 
823	 9.26505910636005E-02 
824	 9.18258203635602E-02 
825	 9.07406975288588E-02 
826	 8.90097979760005E-02 
827	 8.69490524266844E-02 
828	 8.52784974406188E-02 
829	 8.37938263910002E-02 
830	 8.25546220035907E-02 
831	 0.081571868522252 
832	 0.080867063737659 
833	 8.04930071505709E-02 
834	 0.0803394746891 
835	 8.01544850361503E-02 
836	 7.95687239821124E-02 
837	 7.93366083097677E-02 
838	 0.079424340907436 
839	 7.94856621165172E-02 
840	 7.88061321074339E-02 
841	 7.85324556328119E-02 
842	 0.078640003371708 
843	 0.078667259669296 
844	 7.83895713330315E-02 
845	 7.81891397442171E-02 
846	 7.80318260623404E-02 
847	 7.76411372611594E-02 
848	 7.74493585524234E-02 
849	 7.72129053584102E-02 
850	 7.68756631089841E-02 
851	 7.67019877590402E-02 
852	 7.65490403919586E-02 
853	 7.64678244089038E-02 
854	 7.63940426593229E-02 
855	 7.59567059441022E-02 
856	 7.55227737943379E-02 
857	 7.54581701024356E-02 
858	 7.58043990995105E-02 
859	 7.55502908702684E-02 
860	 7.52913757105013E-02 
861	 7.51491227262875E-02 
862	 7.50192646658876E-02 
863	 7.50979028324639E-02 
864	 7.48453625282351E-02 
865	 7.44373163816595E-02 
866	 7.46068142004485E-02 
867	 7.43074615536912E-02 
868	 7.40209049244187E-02 
869	 7.38698002443224E-02 
870	 7.32750638526865E-02 
871	 7.30030644391579E-02 
872	 7.28025124130706E-02 
873	 7.24968778777553E-02 
874	 7.26186030706497E-02 
875	 7.21650779908261E-02 
876	 7.14869750610816E-02 
877	 7.11973343042843E-02 
878	 7.11549859574358E-02 
879	 7.11483935738149E-02 
880	 7.08095960882612E-02 
881	 6.99514649704052E-02 
882	 6.95610440450603E-02 
883	 6.94933807869697E-02 
884	 6.94107978366566E-02 
885	 6.90024264343414E-02 
886	 6.90788961363768E-02 
887	 6.88307601069315E-02 
888	 6.81473125714179E-02 
889	 0.067852963039659 
890	 6.72690676853714E-02 
891	 6.68723246568071E-02 
892	 6.67360348683296E-02 
893	 6.57429943788706E-02 
894	 6.41277433287639E-02 
895	 6.29512620385457E-02 
896	 6.29127829006617E-02 
897	 6.23302378484123E-02 
898	 6.26596673025957E-02 
899	 6.27097615210013E-02 
900	 6.14304659928678E-02 
901	 6.13673478024584E-02 
902	 6.14835132325076E-02 
903	 6.14183643327483E-02 
904	 6.11689474921641E-02 
905	 6.12016329346382E-02 
906	 0.059912246498167 
907	 5.82434440351445E-02 
908	 0.058735274716907 
909	 5.87706343057287E-02 
910	 5.87354083773815E-02 
911	 5.84993606017744E-02 
912	 5.73703323251434E-02 
913	 5.59698863975027E-02 
914	 5.54926073782843E-02 
915	 5.59563737372702E-02 
916	 0.056067219823017 
917	 5.66939505248773E-02 
918	 5.72945712440612E-02 
919	 5.71255475188034E-02 
920	 5.55206505672527E-02 
921	 5.54674535700937E-02 
922	 5.58208309137853E-02 
923	 0.055352212572021 
924	 5.44419498345072E-02 
925	 5.28359340828048E-02 
926	 5.09277828133342E-02 
927	 4.97575695239906E-02 
928	 5.20538554746305E-02 
929	 4.94575416933071E-02 
930	 4.54955937831473E-02 
931	 4.92811917015968E-02 
932	 3.95680820448597E-02 
933	 3.60814579173089E-02 
934	 3.99253862887984E-02 
935	 4.01792113620999E-02 
936	 4.50235536002354E-02 
937	 3.92222713556778E-02 
938	 3.16675625615418E-02 
939	 3.41638705620398E-02 
940	 4.28331829710752E-02 
941	 4.05165439438324E-02 
942	 3.39781944516625E-02 
943	 3.83716859864803E-02 
944	 3.67588166383722E-02 
945	 3.07129526483198E-02 
946	 2.83229395533911E-02 
947	 3.54236000507987E-02 
948	 3.29033021490335E-02 
949	 0.030557197240061 
950	 3.50620814576978E-02 
951	 4.55288845848863E-02 
952	 3.99536504125374E-02 
953	 3.37823853453352E-02 
954	 3.37075266599006E-02 
955	 3.69685757380248E-02 
956	 3.73706055957889E-02 
957	 0.035369763385886 
958	 3.35218054323149E-02 
959	 3.48698824470224E-02 
960	 4.04792637019365E-02 
961	 4.05560996727252E-02 
962	 3.73364117670185E-02 
963	 4.00286308144938E-02 
964	 4.47017958142521E-02 
965	 4.49247134406397E-02 
966	 0.042529662125993 
967	 4.36248390109991E-02 
968	 4.28609289954355E-02 
969	 4.29627321769429E-02 
970	 4.37920031352299E-02 
971	 4.27478879217483E-02 
972	 4.20156090560375E-02 
973	 4.24792461914603E-02 
974	 4.27840226660025E-02 
975	 4.04798243414124E-02 
976	 4.08816874510172E-02 
977	 4.38975810624888E-02 
978	 4.58955693060078E-02 
979	 4.29155223452093E-02 
980	 4.28794341034405E-02 
981	 4.55937410235241E-02 
982	 4.77709970328086E-02 
983	 4.56178298225619E-02 
984	 4.28697863067175E-02 
985	 4.30382008126842E-02 
986	 4.56025299909225E-02 
987	 4.71201882804031E-02 
988	 4.62658301790266E-02 
989	 4.77754883394891E-02 
990	 5.00974817391662E-02 
991	 4.78226650918578E-02 
992	 4.46913990447732E-02 
993	 0.044951644841001 
994	 4.72976384842923E-02 
995	 4.72865806350913E-02 
996	 4.67280181037467E-02 
997	 4.83628722838911E-02 
998	 5.05958680556093E-02 
999	 5.00849192029813E-02 
1000	 5.01380385897967E-02 
1001	 4.50292011084167E-02 
1002	 4.54462443285417E-02 
1003	 4.55123035412252E-02 
1004	 4.55948660979576E-02 
1005	 4.56440665856007E-02 
1006	 4.53832959270343E-02 
1007	 4.53294163816331E-02 
1008	 4.53449834114943E-02 
1009	 4.49106116153773E-02 
1010	 4.45250831181193E-02 
1011	 4.41609736429355E-02 
1012	 4.39747239869854E-02 
1013	 4.44695138863548E-02 
1014	 4.49165807858845E-02 
1015	 4.59694092489514E-02 
1016	 4.62057446018328E-02 
1017	 4.62150041948473E-02 
1018	 4.61515426409979E-02 
1019	 4.54950115506278E-02 
1020	 4.52729708763568E-02 
1021	 4.51756060373964E-02 
1022	 4.51819430761806E-02 
1023	 4.53017405439608E-02 
1024	 4.55806828420623E-02 
1025	 4.61492844443554E-02 
1026	 4.66057666444284E-02 
1027	 4.66539098986899E-02 
1028	 4.62891815385874E-02 
1029	 0.046335180826081 
1030	 4.63216814224752E-02 
1031	 4.62906394912426E-02 
1032	 4.66956327702601E-02 
1033	 4.67715920884436E-02 
1034	 4.59926089599976E-02 
1035	 0.046121939700569 
1036	 4.70756209677793E-02 
1037	 4.73629723304645E-02 
1038	 4.76415935057364E-02 
1039	 4.82792811092497E-02 
1040	 4.75309668807561E-02 
1041	 4.67304735467043E-02 
1042	 0.046798706214105 
1043	 4.71222430454506E-02 
1044	 4.75110670891852E-02 
1045	 4.88713315780913E-02 
1046	 4.90554417291874E-02 
1047	 4.85163867382162E-02 
1048	 4.83849196925127E-02 
1049	 4.78907696128641E-02 
1050	 4.77881714819222E-02 
1051	 4.81079111159946E-02 
1052	 4.82280051581302E-02 
1053	 0.048258362117299 
1054	 4.83852437827528E-02 
1055	 4.86857326808658E-02 
1056	 4.87820925981128E-02 
1057	 4.88177296161271E-02 
1058	 0.04893162354687 
1059	 4.87580878835648E-02 
1060	 4.82190087301365E-02 
1061	 4.80086375577596E-02 
1062	 4.76081366653143E-02 
1063	 4.76996033666694E-02 
1064	 0.048276352504836 
1065	 4.85541309154718E-02 
1066	 4.90329463520514E-02 
1067	 4.93348563454426E-02 
1068	 4.95705142169912E-02 
1069	 4.95638441063988E-02 
1070	 4.94515707230844E-02 
1071	 4.92486960030767E-02 
1072	 4.87075711472819E-02 
1073	 4.81316392649356E-02 
1074	 4.78295888698056E-02 
1075	 4.74025909038353E-02 
1076	 4.76962973801704E-02 
1077	 4.87467017472483E-02 
1078	 4.90211683081317E-02 
1079	 4.94993762793544E-02 
1080	 4.96031619821909E-02 
1081	 4.89388960100629E-02 
1082	 4.86827317236826E-02 
1083	 4.89114914147886E-02 
1084	 4.86401275877657E-02 
1085	 4.76466138687842E-02 
1086	 4.73611475030614E-02 
1087	 0.047298536988633 
1088	 4.70265315287031E-02 
1089	 4.71928092936437E-02 
1090	 4.72476313311963E-02 
1091	 0.047168011832529 
1092	 4.69734185253644E-02 
1093	 4.64326901897207E-02 
1094	 0.045386445587914 
1095	 0.045426913964256 
1096	 4.55989875867666E-02 
1097	 4.53987050940853E-02 
1098	 0.046410886610922 
1099	 0.046168084546641 
1100	 4.37346672960613E-02 
1101	 4.33209269924199E-02 
1102	 4.41575271897214E-02 
1103	 4.42996106662011E-02 
1104	 4.54328281623474E-02 
1105	 4.57093786100693E-02 
1106	 4.52663558929176E-02 
1107	 0.045111942211262 
1108	 4.36858237748416E-02 
1109	 4.25128580426947E-02 
1110	 4.17800355116539E-02 
1111	 3.97048834032865E-02 
1112	 3.98804628889162E-02 
1113	 4.46799618398168E-02 
1114	 4.50937582939705E-02 
1115	 4.34199684148258E-02 
1116	 4.26388022806342E-02 
1117	 3.55030666721982E-02 
1118	 3.28590878660237E-02 
1119	 3.99893743253992E-02 
1120	 4.24266859509655E-02 
1121	 4.55496989310321E-02 
1122	 4.58638468114444E-02 
1123	 4.01894524666803E-02 
1124	 3.07616987435425E-02 
1125	 3.34579670044538E-02 
1126	 3.84772155644338E-02 
1127	 3.39233929216491E-02 
1128	 3.68665789298516E-02 
1129	 3.69772682992581E-02 
1130	 2.84828802910597E-02 
1131	 2.74172993900574E-02 
1132	 3.47087606070941E-02 
1133	 3.34931608574547E-02 
1134	 2.71892391536091E-02 
1135	 2.66157824490359E-02 
1136	 2.68967849234164E-02 
1137	 2.58676526139815E-02 
1138	 2.26612039857937E-02 
1139	 2.93625617757652E-02 
1140	 3.14283520742427E-02 
1141	 2.97815403662573E-02 
1142	 3.53186332141926E-02 
1143	 3.29421406241198E-02 
1144	 2.97740203773517E-02 
1145	 3.10013909216796E-02 
1146	 2.96894991797264E-02 
1147	 3.16473168215745E-02 
1148	 3.03603385566027E-02 
1149	 2.70068432336213E-02 
1150	 2.86359192287333E-02 
1151	 3.26547151893672E-02 
1152	 3.37319259572312E-02 
1153	 3.63024082491648E-02 
1154	 3.68948817211563E-02 
1155	 3.57547698047727E-02 
1156	 3.44658407386951E-02 
1157	 3.51068013427834E-02 
1158	 3.61457493448263E-02 
1159	 3.66942578974877E-02 
1160	 3.64764114630351E-02 
1161	 3.57154613180844E-02 
1162	 0.036926774688218 
1163	 3.80907058963772E-02 
1164	 0.037120242921211 
1165	 3.72146721837263E-02 
1166	 3.72402681135897E-02 
1167	 3.57412615836771E-02 
1168	 3.63171402221278E-02 
1169	 3.75133149954711E-02 
1170	 0.037050309725391 
1171	 0.037219038945203 
1172	 3.83933915922102E-02 
1173	 3.86226309951194E-02 
1174	 3.82382409083169E-02 
1175	 3.79862801419914E-02 
1176	 3.79748245058202E-02 
1177	 3.82071437984607E-02 
1178	 3.79100775442885E-02 
1179	 3.77686963895891E-02 
1180	 3.79298974135612E-02 
1181	 3.75372911454491E-02 
1182	 3.71774898245898E-02 
1183	 3.73057254884338E-02 
1184	 3.74495552126454E-02 
1185	 3.74857436367308E-02 
1186	 3.79532558858851E-02 
1187	 3.83515555845986E-02 
1188	 3.75189262796049E-02 
1189	 3.64743043251537E-02 
1190	 3.68047513569903E-02 
1191	 3.71436271160351E-02 
1192	 3.70925155100148E-02 
1193	 3.74414432295515E-02 
1194	 3.82139610076291E-02 
1195	 0.038054801580717 
1196	 3.74152511395962E-02 
1197	 0.037868545843027 
1198	 3.85180976128866E-02 
1199	 3.80166787989018E-02 
1200	 3.80466184074926E-02 
1201	 3.85645086352459E-02 
1202	 3.76813293541291E-02 
1203	 3.68328855493549E-02 
1204	 3.73858282957272E-02 
1205	 3.79259020573341E-02 
1206	 3.84282068508725E-02 
1207	 3.90905017062072E-02 
1208	 3.82715919210325E-02 
1209	 3.68508791301016E-02 
1210	 3.68421391980664E-02 
1211	 3.74471862722274E-02 
1212	 3.76721735901109E-02 
1213	 3.79097388126375E-02 
1214	 3.82213565287446E-02 
1215	 3.81228670785951E-02 
1216	 3.81926110939068E-02 
1217	 3.85966396517086E-02 
1218	 3.85751129372071E-02 
1219	 3.86797315229973E-02 
1220	 3.86862947967905E-02 
1221	 3.86110466200764E-02 
1222	 3.87805071848622E-02 
1223	 3.86398984210719E-02 
1224	 3.80088640349911E-02 
1225	 3.74849636639727E-02 
1226	 3.79596006476043E-02 
1227	 3.85817837905885E-02 
1228	 3.84331435182439E-02 
1229	 3.84059800091471E-02 
1230	 3.82858182682586E-02 
1231	 3.78433464982753E-02 
1232	 0.038319341596821 
1233	 3.88049582386652E-02 
1234	 3.83470595472028E-02 
1235	 3.84145230847956E-02 
1236	 3.85423254265418E-02 
1237	 3.88176107019884E-02 
1238	 3.93057577404296E-02 
1239	 4.00536228836946E-02 
1240	 3.97931426045261E-02 
1241	 3.92865715743957E-02 
1242	 3.92320128160467E-02 
1243	 0.039311105378493 
1244	 0.039554158394638 
1245	 3.93533074475015E-02 
1246	 3.89908134312471E-02 
1247	 3.87809387669662E-02 
1248	 3.86475095532335E-02 
1249	 3.91422151480843E-02 
1250	 3.92078511460337E-02 
1251	 3.88180697751709E-02 
1252	 3.90030408877538E-02 
1253	 3.90387350553701E-02 
1254	 3.91566402591641E-02 
1255	 3.93164917548871E-02 
1256	 3.92538895864613E-02 
1257	 3.92175641012999E-02 
1258	 3.91020780612011E-02 
1259	 0.038428352922695 
1260	 3.82591542660124E-02 
1261	 3.85690668418662E-02 
1262	 3.83084491828429E-02 
1263	 3.77682624619657E-02 
1264	 3.77615040748566E-02 
1265	 3.79727675025502E-02 
1266	 3.78716377203098E-02 
1267	 3.80956347959011E-02 
1268	 0.039335640258488 
1269	 3.97024810952881E-02 
1270	 3.91243753307606E-02 
1271	 3.93471381955072E-02 
1272	 3.95769331385304E-02 
1273	 3.91988409236645E-02 
1274	 3.86955467830471E-02 
1275	 0.03860024608628 
1276	 3.84395357185134E-02 
1277	 3.82766486686255E-02 
1278	 3.87514131525913E-02 
1279	 3.91749833375695E-02 
1280	 3.91360446433037E-02 
1281	 3.91903637782175E-02 
1282	 3.92551565907279E-02 
1283	 3.94548209470382E-02 
1284	 3.95381594609591E-02 
1285	 3.95691228689588E-02 
1286	 3.96683820581143E-02 
1287	 3.98724991200644E-02 
1288	 4.05447778827334E-02 
1289	 4.04642256467318E-02 
1290	 4.00808467290927E-02 
1291	 3.93534704118521E-02 
1292	 3.88298201546654E-02 
1293	 3.83204185938647E-02 
1294	 3.86729879664691E-02 
1295	 3.87131477242135E-02 
1296	 3.77758817470594E-02 
1297	 3.75593683430008E-02 
1298	 3.77733097094627E-02 
1299	 0.037697724510462 
1300	 3.76209430884329E-02 
1301	 3.72617427998871E-02 
1302	 3.68465204944055E-02 
1303	 3.67198582249145E-02 
1304	 3.68966935108985E-02 
1305	 3.74279018988065E-02 
1306	 3.75137288095662E-02 
1307	 3.71697459006959E-02 
1308	 3.70733090515318E-02 
1309	 3.67836079467562E-02 
1310	 3.65676502791525E-02 
1311	 3.66281401105618E-02 
1312	 3.64946203528761E-02 
1313	 3.61490815016897E-02 
1314	 3.60568966989259E-02 
1315	 3.59610109440386E-02 
1316	 3.57984588600122E-02 
1317	 3.63540738482628E-02 
1318	 3.61901978012139E-02 
1319	 3.49268908323306E-02 
1320	 3.42786463473063E-02 
1321	 3.32393369226645E-02 
1322	 0.032920074037174 
1323	 3.36728305041301E-02 
1324	 3.35768911793381E-02 
1325	 0.03280379999162 
1326	 0.032391521636735 
1327	 3.27976247758451E-02 
1328	 3.44865269904631E-02 
1329	 3.49497330896592E-02 
1330	 3.51509512713754E-02 
1331	 3.46525601822716E-02 
1332	 3.35939438587991E-02 
1333	 0.035165658130496 
1334	 3.50193892188953E-02 
1335	 3.41392448319041E-02 
1336	 3.11198869237824E-02 
1337	 2.93328284160008E-02 
1338	 2.70357071863614E-02 
1339	 0.026447367478988 
1340	 0.026162213709877 
1341	 2.54170420949757E-02 
1342	 0.027072866106076 
1343	 0.028602619004005 
1344	 3.01522885419955E-02 
1345	 0.031478021795567 
1346	 3.24722604219132E-02 
1347	 3.39636952819041E-02 
1348	 3.60502452294594E-02 
1349	 3.69314166322149E-02 
1350	 3.30485483132381E-02 
1351	 3.89315100419582E-02 
1352	 7.34720348936902E-02 
1353	 8.15799272758114E-02 
1354	 3.33702463841883E-02 
1355	 4.81255619602598E-02 
1356	 9.69934533829028E-02 
1357	 8.02244155434092E-04 
1358	 8.08818184570892E-02 
1359	 0.370262034892189 
1360	 0.45183813147458 
1361	 0.198973046439169 
1362	 0.240594395069451 
1363	 0.678269842961288 
1364	 0.864620852507512 
1365	 0.927177818573823 
1366	 1.13971539599465 
1367	 0.488555352255743 
1368	 0.400027812427172 
1369	 0.524704993129533 
1370	 0.619631687124252 
1371	 0.854907726711489 
1372	 0.733785480069579 
1373	 8.03777769515746E-02 
1374	 2.01787250280049E-02 
1375	 1.09448615000907 
1376	-2.14807016757889 
1377	-0.295103726033481 
1378	-0.271584732310754 
1379	-0.508245151832443 
1380	-0.50836369883575 
1381	-0.25190529779701 
1382	-0.195816158953819 
1383	-0.489018171139308 
1384	-0.723656094122675 
1385	-1.05883374165602 
1386	 7.53538120606706 
1387	-4.00182195424864 
1388	-2.34104330948049 
1389	-0.358230907491899 
1390	-0.140193124916082 
1391	-0.224387846790976 
1392	 0.533892210045936 
1393	 0.299435024601872 
1394	-3.40733943798534 
1395	-2.62448765347259 
1396	 8.7243033733637 
1397	-3.16569677601694 
1398	 0.401108555407845 
1399	-0.198870192765302 
1400	-37.6817167810336 
1401	 2.88272238559475 
1402	 2.65906319557448 
1403	 1.3655361004002 
1404	 0.630620032484949 
1405	 0.623963963517764 
1406	 0.524401077208902 
1407	 0.624757444064864 
1408	 1.13703637957692 
1409	 0.508958738325113 
1410	-0.023583510051577 
1411	-2.83730267232634E-02 
1412	-0.244138073600206 
1413	-0.267580842549225 
1414	 1.04795443633993 
1415	 1.34076091382987 
1416	-0.123315210710156 
1417	-0.17908999535079 
1418	-0.159347540209732 
1419	-0.151944820234505 
1420	-4.56486306243568E-02 
1421	-4.59677679604368E-03 
1422	-5.90846311655471E-02 
1423	-4.89932826472385E-02 
1424	 2.33167092561335E-02 
1425	 3.54027920630841E-02 
1426	 2.26563859293867E-02 
1427	 3.16078778686993E-02 
1428	 4.89596188081417E-02 
1429	 3.45158796271944E-02 
1430	-3.50985394704037E-02 
1431	-2.70525826370689E-02 
1432	 2.02914305332776E-02 
1433	 3.27158114687722E-02 
1434	 8.24816657146557E-02 
1435	 0.154858322396482 
1436	 0.23951056561302 
1437	 0.279788306919698 
1438	 0.202943836201519 
1439	 0.111264094991411 
1440	 9.91142527773509E-02 
1441	 0.052204152852764 
1442	 1.96492797952068E-02 
1443	 4.86316900674472E-02 
1444	 0.064681009516399 
1445	 4.64274796875524E-02 
1446	 1.85740567714732E-02 
1447	 3.06461875045015E-02 
1448	 4.30574169120078E-02 
1449	 7.49857235657887E-03 
1450	 8.02276686251857E-03 
1451	 3.60495152751925E-02 
1452	 2.78431639825326E-02 
1453	 2.27320027846039E-02 
1454	 2.28435771083201E-02 
1455	 2.97406726030297E-02 
1456	 2.95732978759336E-02 
1457	 2.69262814989734E-02 
1458	 2.66971173605259E-02 
1459	 0.02891980052129 
1460	 2.89021129894528E-02 
1461	 2.55081351014772E-02 
1462	 2.49896871699786E-02 
1463	 2.68860982650011E-02 
1464	 2.54898567879995E-02 
1465	 1.86335712840825E-02 
1466	 2.52522081499747E-02 
1467	 4.41144982760615E-02 
1468	 4.48057564875649E-02 
1469	 4.62106601353201E-02 
1470	 4.59214116316491E-02 
1471	 2.75088163651549E-02 
1472	 1.78924901863815E-02 
1473	 1.49368681886198E-02 
1474	 1.99093091387812E-02 
1475	 0.028811421266931 
1476	 2.74908627412054E-02 
1477	 3.11495005966442E-02 
1478	 3.14203932169729E-02 
1479	 1.76255666864118E-02 
1480	 1.82509896555662E-02 
1481	 3.29209870065911E-02 
1482	 3.27649766470681E-02 
1483	 2.58502436826463E-02 
1484	 2.64903159928414E-02 
1485	 2.78901021348993E-02 
1486	 2.65237486992759E-02 
1487	 2.61466912241773E-02 
1488	 0.02663702320963 
1489	 2.30232334530515E-02 
1490	 2.42909347628149E-02 
1491	 3.12284439702184E-02 
1492	 3.30811697552827E-02 
1493	 3.35170448785534E-02 
1494	 3.43354534888747E-02 
1495	 3.46376713950196E-02 
1496	 3.36078417628254E-02 
1497	 3.17975262467468E-02 
1498	 3.13135474878133E-02 
1499	 2.94005155423539E-02 
1500	 2.88697498344937E-02 
1501	 3.08520956679743E-02 
1502	 3.14951008961784E-02 
1503	 3.16251695872741E-02 
1504	 0.031652514240389 
1505	 3.19167198996821E-02 
1506	 3.13539794960718E-02 
1507	 2.94520236276171E-02 
1508	 2.92208920056752E-02 
1509	 3.09365248416555E-02 
1510	 3.07984904354517E-02 
1511	 3.02030102591257E-02 
1512	 3.12780061677924E-02 
1513	 3.16524935798644E-02 
1514	 3.11725013699677E-02 
1515	 3.21081099379488E-02 
1516	 3.29843238797528E-02 
1517	 3.24505698680295E-02 
1518	 3.20827651395921E-02 
1519	 3.15077669859749E-02 
1520	 3.09957954638413E-02 
1521	 3.10983027818282E-02 
1522	 3.11312873422365E-02 
1523	 3.13275652293206E-02 
1524	 3.15226283887024E-02 
1525	 3.22208290068927E-02 
1526	 3.24431205902293E-02 
1527	 3.14926943874749E-02 
1528	 0.03152995090034 
1529	 3.17194773334786E-02 
1530	 3.14944300589581E-02 
1531	 3.23768248886498E-02 
1532	 3.32126933151364E-02 
1533	 3.30270941810757E-02 
1534	 3.31674256439201E-02 
1535	 3.38577606598602E-02 
1536	 3.37736151606008E-02 
1537	 3.29510196063051E-02 
1538	 3.27172788784647E-02 
1539	 3.33011215275164E-02 
1540	 3.32111912061211E-02 
1541	 3.26698999332256E-02 
1542	 3.30018619223753E-02 
1543	 3.33635460799662E-02 
1544	 3.30451833933895E-02 
1545	 3.29151422304362E-02 
1546	 3.29195412048927E-02 
1547	 3.29226871462392E-02 
1548	 3.31873120231595E-02 
1549	 3.33696245778924E-02 
1550	 3.39623010710938E-02 
1551	 3.43230305466498E-02 
1552	 0.033945361140967 
1553	 3.39520453205137E-02 
1554	 3.42772281247861E-02 
1555	 3.41254060564864E-02 
1556	 3.36922046257934E-02 
1557	 0.033471324947235 
1558	 3.36488114380182E-02 
1559	 3.39998041493101E-02 
1560	 3.39849909697761E-02 
1561	 3.39687540557005E-02 
1562	 0.034070659993186 
1563	 0.033795138351888 
1564	 3.31921489209224E-02 
1565	 3.29560867147387E-02 
1566	 3.30423239575456E-02 
1567	 3.27447942804541E-02 
1568	 0.032620328546352 
1569	 3.26288773412111E-02 
1570	 3.25061506113241E-02 
1571	 3.29572681877177E-02 
1572	 3.32155298227289E-02 
1573	 3.36288455981619E-02 
1574	 3.42582858642921E-02 
1575	 3.38235018066931E-02 
1576	 3.39588524538311E-02 
1577	 3.44653093328064E-02 
1578	 3.40456588647615E-02 
1579	 3.36541590794158E-02 
1580	 3.36255892402932E-02 
1581	 3.36586059510522E-02 
1582	 3.31430884952685E-02 
1583	 3.27831382527508E-02 
1584	 3.33940770939249E-02 
1585	 3.39381900337008E-02 
1586	 3.37977281345689E-02 
1587	 0.034073811635531 
1588	 3.44456384559093E-02 
1589	 3.38219643054655E-02 
1590	 3.38220597882517E-02 
1591	 3.42559560846878E-02 
1592	 3.39810801609231E-02 
1593	 3.40378891764389E-02 
1594	 3.47050843288683E-02 
1595	 3.50274312756932E-02 
1596	 3.43120074616006E-02 
1597	 3.32977230166952E-02 
1598	 3.30854920158165E-02 
1599	 3.34427618074856E-02 
1600	 3.35480819242523E-02 
1601	 3.33060224694013E-02 
1602	 3.31208655905022E-02 
1603	 3.37066698136383E-02 
1604	 3.43173614422739E-02 
1605	 3.40522216195249E-02 
1606	 3.36692390252076E-02 
1607	 3.33857473836177E-02 
1608	 3.32282305590971E-02 
1609	 3.38036829490306E-02 
1610	 0.034570392927762 
1611	 3.41737411563479E-02 
1612	 3.35888937968967E-02 
1613	 3.40407476401902E-02 
1614	 0.034808393725657 
1615	 3.45405692888362E-02 
1616	 3.39019980670824E-02 
1617	 3.42753244113691E-02 
1618	 3.48299719794654E-02 
1619	 3.54211621510245E-02 
1620	 3.59592792122707E-02 
1621	 3.63334421667713E-02 
1622	 3.62938454969422E-02 
1623	 3.58757161835247E-02 
1624	 3.59417838880246E-02 
1625	 0.035438866656622 
1626	 3.46976204346084E-02 
1627	 3.47657726246744E-02 
1628	 3.49588020473933E-02 
1629	 3.47189064323829E-02 
1630	 3.47509006573637E-02 
1631	 3.51507264407208E-02 
1632	 3.47764566443527E-02 
1633	 3.46778309357544E-02 
1634	 3.46402992332969E-02 
1635	 3.42222097202209E-02 
1636	 3.49994827726918E-02 
1637	 3.59623371080283E-02 
1638	 3.55080149932211E-02 
1639	 3.43496441852216E-02 
1640	 3.41120798534146E-02 
1641	 3.44402455334725E-02 
1642	 3.45900788013893E-02 
1643	 3.49619939361857E-02 
1644	 0.034972635508111 
1645	 3.45047613728583E-02 
1646	 3.48798520933468E-02 
1647	 0.03557363457512 
1648	 0.035069189448736 
1649	 3.41642903515291E-02 
1650	 3.41027646011907E-02 
1651	 3.47422289305229E-02 
1652	 3.48796163465294E-02 
1653	 3.53852084360152E-02 
1654	 3.52658807248418E-02 
1655	 3.42739245030572E-02 
1656	 3.44187228402093E-02 
1657	 3.47823252542248E-02 
1658	 3.48077679586733E-02 
1659	 3.53588620902385E-02 
1660	 3.54199773460579E-02 
1661	 3.47833861674429E-02 
1662	 3.47376280328772E-02 
1663	 3.49673924870433E-02 
1664	 3.48869457229428E-02 
1665	 0.035202871374722 
1666	 3.53555278368858E-02 
1667	 3.48434108088409E-02 
1668	 3.43356449266473E-02 
1669	 3.43447825008677E-02 
1670	 3.45648347085177E-02 
1671	 3.50478205838606E-02 
1672	 3.54993739599533E-02 
1673	 3.58858938492639E-02 
1674	 0.03601068238346 
1675	 3.59858334729369E-02 
1676	 3.64933424214266E-02 
1677	 3.71086224138365E-02 
1678	 3.67404766203953E-02 
1679	 3.63698669938486E-02 
1680	 3.67513815252371E-02 
1681	 3.62565416842802E-02 
1682	 3.53282190403184E-02 
1683	 3.56104806603908E-02 
1684	 3.65534468282695E-02 
1685	 3.65924419593584E-02 
1686	 3.59959755790648E-02 
1687	 3.54172420548628E-02 
1688	 3.41525557625359E-02 
1689	 3.39970768172898E-02 
1690	 3.57608087268918E-02 
1691	 3.62831851523265E-02 
1692	 3.55685762275558E-02 
1693	 3.51273851946572E-02 
1694	 3.37625206571767E-02 
1695	 3.32749448835263E-02 
1696	 3.48013364305619E-02 
1697	 3.53028069708524E-02 
1698	 3.50980686223146E-02 
1699	 3.51545602923821E-02 
1700	 3.41161725309882E-02 
1701	 3.33698999650074E-02 
1702	 3.41588552734713E-02 
1703	 3.47492038705919E-02 
1704	 0.034546946079952 
1705	 3.41330030840964E-02 
1706	 3.37530835062911E-02 
1707	 3.42573062431483E-02 
1708	 3.48811888779842E-02 
1709	 3.44230548247885E-02 
1710	 3.39442813805616E-02 
1711	 3.39065092541834E-02 
1712	 3.37082546091018E-02 
1713	 3.34982134527993E-02 
1714	 3.39712634811798E-02 
1715	 3.38864983635891E-02 
1716	 3.43172150335983E-02 
1717	 3.49710505143536E-02 
1718	 3.45238341621875E-02 
1719	 3.47667144591919E-02 
1720	 3.53273787040566E-02 
1721	 3.52856618902662E-02 
1722	 3.54948442027097E-02 
1723	 3.53510503582015E-02 
1724	 3.39856953153654E-02 
1725	 0.032835476770747 
1726	 3.27669362010728E-02 
1727	 3.28248037210202E-02 
1728	 3.27684524498309E-02 
1729	 3.37680025069094E-02 
1730	 3.40668229435207E-02 
1731	 3.31506881133935E-02 
1732	 3.43149889757023E-02 
1733	 3.49587081625543E-02 
1734	 3.30038532634972E-02 
1735	 3.24370091178713E-02 
1736	 3.29860637884123E-02 
1737	 0.032524615009616 
1738	 3.29228815817422E-02 
1739	 3.31629786328253E-02 
1740	 3.23550103178704E-02 
1741	 3.22143659261478E-02 
1742	 3.16709733015719E-02 
1743	 3.15755473194304E-02 
1744	 3.26807219308174E-02 
1745	 3.30536532172203E-02 
1746	 3.50311921385833E-02 
1747	 3.54161597687211E-02 
1748	 3.17876277756729E-02 
1749	 3.15659859561652E-02 
1750	 3.40201652390228E-02 
1751	 3.36837537480897E-02 
1752	 3.35364941398114E-02 
1753	 3.42367612009421E-02 
1754	 3.30884020886964E-02 
1755	 3.23636604536296E-02 
1756	 3.33770757193029E-02 
1757	 3.12586230368244E-02 
1758	 0.031003177536544 
1759	 3.17406680275487E-02 
1760	 3.08875901996685E-02 
1761	 2.95760706084567E-02 
1762	 3.02089617303966E-02 
1763	 0.032092814746365 
1764	 3.33279660468925E-02 
1765	 3.31533293902509E-02 
1766	 2.99395682955886E-02 
1767	 2.70281732799264E-02 
1768	 2.75720650796203E-02 
1769	 0.030237093883645 
1770	 3.23697273091342E-02 
1771	 2.90247534753149E-02 
1772	 2.64462047311711E-02 
1773	 0.028398865664019 
1774	 2.79833483425339E-02 
1775	 3.33341148109539E-02 
1776	 3.50009215851395E-02 
1777	 3.08361394263123E-02 
1778	 2.99721807548445E-02 
1779	 2.96614180252744E-02 
1780	 2.78852365501455E-02 
1781	 0.025629744485862 
1782	 2.51507428733047E-02 
1783	 2.63950886341582E-02 
1784	 0.027270796597911 
1785	 0.028646431630759 
1786	 2.71231721190271E-02 
1787	 2.34607671590446E-02 
1788	 2.21202366467762E-02 
1789	 2.17672078512577E-02 
1790	 2.53963267795105E-02 
1791	 1.39132758506282E-02 
1792	 4.69803755695649E-03 
1793	 6.30316317598456E-03 
1794	 8.1564821658387E-03 
1795	 2.90680697873171E-02 
1796	 5.19026996291797E-02 
1797	 5.38934179640478E-02 
1798	 4.13748877791811E-02 
1799	 3.37520513629163E-02 
1800	 3.94508720446675E-02 
1801	 3.41477978892664E-02 
1802	 4.15317321825514E-02 
1803	 4.33652332356918E-02 
1804	 1.46793450734876E-02 
1805	 6.66562004191579E-03 
1806	 0.036362793925047 
1807	 3.17323324746445E-02 
1808	-1.63319035506631E-02 
1809	-0.113230280456216 
1810	-0.504534230168469 
1811	-0.472892495836787 
1812	 0.196873247233388 
1813	 0.433987432334981 
1814	 1.00953432615116 
1815	 1.1161043944712 
1816	 5.77375882212815E-02 
1817	-2.0518846852924 
1818	 7.5342946610495 
1819	 3.34825140301057 
1820	 7.62920082585642E-02 
1821	-0.217969707158392 
1822	-0.162784278102713 
1823	-0.296694118640867 
1824	-0.315993018661164 
1825	 4.58650551013646E-02 
1826	 1.23245809061686 
1827	-1.15738535117542 
1828	-1.00929644588759 
1829	-2.89121955706668 
1830	-4.17306858525598 
1831	 2.06968768720587 
1832	-9.87491833022712E-02 
1833	-0.858652901351346 
1834	-0.880533222242631 
1835	-0.651435944693798 
1836	-0.643003417363937 
1837	-0.319103057209096 
1838	-0.191074591040269 
1839	 4.60160869881065 
1840	-2.66218259956383 
1841	-1.90242551160426 
1842	 5.0550788806552 
1843	 16.382178021558 
1844	 3.54653554662359E-02 
1845	 0.236584930846748 
1846	 0.472853306157293 
1847	 0.470019327862623 
1848	 3.45765997168229E-02 
1849	 3.07586763986208 
1850	 1.02428396210588 
1851	 1.03842228644419 
1852	 1.09836124369469 
1853	 0.756104764118507 
1854	 0.681033174349256 
1855	 0.6130465479188 
1856	 0.67164433342165 
1857	 0.945321515592623 
1858	 1.43003901200444 
1859	 6.8260464841441 
1860	-19.6288659365006 
1861	-2.44688466301294 
1862	-0.664823657368828 
1863	-0.549543272877656 
1864	-0.293124239600223 
1865	-0.195348233147605 
1866	-0.440239725431431 
1867	-0.392023356629848 
1868	-2.52680494111182E-02 
1869	 0.282719936092774 
1870	 0.612526165065481 
1871	 0.535867894596503 
1872	 0.889740469881977 
1873	 1.60962614131974 
1874	 1.70073207201121 
1875	 1.11661664470193 
1876	 0.467093204353676 
1877	-1.5047926590641 
1878	 5.22205206086904 
1879	 3.38116775300795 
1880	 2.74078902758751 
1881	 1.71005404365315 
1882	 0.976664701531901 
1883	 0.920661747161653 
1884	 0.938062791835018 
1885	 0.523688039602128 
1886	 0.648086073542505 
1887	 1.62673626353189 
1888	 1.09139445353203 
1889	-0.257911028560161 
1890	-2.08198693789126 
1891	-2.30745205609522 
1892	-1.85296841915227 
1893	 0.355002504860102 
1894	 2.11012884352018 
1895	-8.23592512994093 
1896	-0.363042920031045 
1897	 1.06897409261643 
1898	 1.73262907052517 
1899	 0.602295978387093 
1900	 0.802978325879861 
1901	-2.00505367280866 
1902	-0.300168721838975 
1903	-0.919786205561818 
1904	-0.659918038444121 
1905	-0.688048617744242 
1906	-1.45620288789169 
1907	-2.85459524280948 
1908	 3.06379848857645 
1909	 3.23066838739678 
1910	 2.28902488656255 
1911	 3.59536961978604 
1912	-2.25280161806828 
1913	-0.759033071396434 
1914	 0.880359672111397 
1915	 1.04185165020097 
1916	 1.2093232417599 
1917	 1.27728754591728 
1918	 2.95464299757116 
1919	 1.13027367907762 
1920	-12.5244742089815 
1921	-4.58522203078648E-02 
1922	 0.170481032940022 
1923	 7.96014259158449E-02 
1924	-0.12454187063486 
1925	-0.374615626203379 
1926	-0.523050895233481 
1927	-0.850860415527344 
1928	 6.48685456908385 
1929	-0.16579261072879 
1930	-0.238835018177617 
1931	 0.157527130094548 
1932	 1.51010972134253 
1933	 0.147176814528722 
1934	-0.166583176749587 
1935	-0.101729398922155 
1936	-6.4155237013954 
1937	 3.46691398452459 
1938	-2.92011069745673 
1939	-10.7352572608616 
1940	 7.15052528429498 
1941	 1.02682065985606 
1942	 0.640283190712401 
1943	 0.245651354392689 
1944	-0.871381804748732 
1945	-1.80267126239379 
1946	-3.77504764977553 
1947	-3.43174593288419 
1948	-3.07499472408491 
1949	-1.81811148087127 
1950	-1.26056521990263 
1951	-0.558109910601816 
1952	 0.179281396596508 
1953	 1.40412333283375 
1954	 1.51744592896289 
1955	 0.440310203475809 
1956	-2.90137375014308E-02 
1957	-0.443406951053121 
1958	-0.679507608021477 
1959	-0.672590803961997 
1960	-0.403191017472745 
1961	-0.193137913438296 
1962	-3.91173701604532E-03 
1963	 0.182892488589034 
1964	 0.1840829986239 
1965	 0.149515583543003 
1966	 0.109566454569307 
1967	 5.94004581882055E-02 
1968	-1.01537108433009E-02 
1969	-0.025472602003862 
1970	 2.37709131538636E-03 
1971	 3.51418861930569E-02 
1972	 9.54117242881694E-02 
1973	 9.26739239676253E-02 
1974	 5.80377423628057E-02 
1975	 4.13014726581894E-02 
1976	 1.71687324764903E-02 
1977	 1.14646597178507E-02 
1978	 0.017634133837239 
1979	 1.74098317325072E-02 
1980	 1.11378960430646E-02 
1981	 5.4574308072151E-03 
1982	 1.29307715355453E-02 
1983	 1.35397882097055E-02 
1984	 1.98699567626996E-02 
1985	 3.16728447685438E-02 
1986	 2.38409697781567E-02 
1987	 0.021655993949744 
1988	 9.24675167817352E-03 
1989	-2.90098417013734E-03 
1990	 1.17896109439837E-02 
1991	 1.64762963947427E-02 
1992	 3.86837937067239E-02 
1993	 5.55245641324163E-02 
1994	 5.60684460033756E-02 
1995	 3.72281277901891E-02 
1996	 3.72919078584058E-02 
1997	 1.60507021230424E-02 
1998	-1.02494095700395E-02 
1999	 3.6500416079492E-03 
2000	 2.57267062992148E-02 
2001	 5.07951405828359E-02 
2002	 9.34369710565046E-02 
2003	 0.10111705993364 
2004	 7.65930299338269E-02 
2005	 5.57293298936797E-02 
2006	 2.92840129746194E-02 
2007	 9.34350345406217E-03 
2008	-9.9397814478201E-04 
2009	-1.94138139834072E-02 
2010	-6.10624541455219E-02 
2011	-6.80612269410513E-02 
2012	-0.059273157274559 
2013	-6.56465767498152E-02 
2014	-3.10353684429788E-02 
2015	 5.74492674997376E-03 
2016	 5.40353516293736E-03 
2017	 3.62365659086118E-03 
2018	 6.40334863375903E-03 
2019	 7.25372789058785E-03 
2020	-4.62903194170954E-03 
2021	 7.77409219357391E-04 
2022	 1.06846981791368E-02 
2023	 2.24586006981212E-02 
2024	 3.42089343947287E-02 
2025	 6.01870140123031E-02 
2026	 6.79695507837961E-02 
2027	 7.37341447823088E-02 
2028	 6.20440207661284E-02 
2029	 4.91704199589548E-02 
2030	 5.02516382577557E-02 
2031	 4.39368705439288E-02 
2032	 4.20277375380187E-02 
2033	 4.66049655112059E-02 
2034	 4.67080274267462E-02 
2035	 4.24646680357675E-02 
2036	 3.98053058951558E-02 
2037	 3.95657553080838E-02 
2038	 3.00923939757006E-02 
2039	 2.35339197130056E-02 
2040	 0.019417214214669 
2041	 1.74647750108461E-02 
2042	 1.15949721936664E-02 
2043	 1.19594664652465E-02 
2044	 1.92665588078125E-02 
2045	 2.39880762242742E-02 
2046	 3.19998748235868E-02 
2047	 4.23048666470027E-02 
2048	 4.83686726839947E-02 
2049	 5.21445676840874E-02 
2050	 4.34442209825333E-02 
2051	 3.44987045235086E-02 
2052	 3.03295613345834E-02 
2053	 2.56535923323737E-02 
2054	 2.83324360155346E-02 
2055	 2.06104592130262E-02 
2056	 1.89968807318335E-02 
2057	 2.22486484512452E-02 
2058	 2.25158537825811E-02 
2059	 2.43954315137346E-02 
2060	 2.78606265621851E-02 
2061	 3.61498353948925E-02 
2062	 2.35514412427258E-02 
2063	 1.76675344760536E-02 
2064	 1.69645016180981E-02 
2065	 1.91134854709764E-02 
2066	 0.021647442176878 
2067	 2.17857060013665E-02 
2068	 2.53154592701452E-02 
2069	 2.72944562785082E-02 
2070	 3.69162136585138E-02 
2071	 4.63658412736013E-02 
2072	 4.71530229108959E-02 
2073	 4.60677947889399E-02 
2074	 3.50717286584991E-02 
2075	 3.02820609186164E-02 
2076	 2.66165592014674E-02 
2077	 2.49814001778765E-02 
2078	 2.64372700619145E-02 
2079	 2.69999212387037E-02 
2080	 0.026167438667776 
2081	 2.94053892130694E-02 
2082	 3.68691704004909E-02 
2083	 3.73231326515572E-02 
2084	 0.035234886158913 
2085	 0.036636676320299 
2086	 3.18636889235141E-02 
2087	 2.67807710733825E-02 
2088	 3.03604454506242E-02 
2089	 0.030097271836633 
2090	 2.89830017475228E-02 
2091	 0.029768300773401 
2092	 0.031125266740419 
2093	 3.39765236662192E-02 
2094	 0.033656403336556 
2095	 3.27342286840782E-02 
2096	 3.21464279268108E-02 
2097	 2.87584327691088E-02 
2098	 0.026495505852331 
2099	 2.51370061188116E-02 
2100	 2.60081736052596E-02 
2101	 2.16334702885918E-02 
2102	 1.94300926605816E-02 
2103	 2.13534038487202E-02 
2104	 2.06903387103527E-02 
2105	 2.49116311815126E-02 
2106	 2.70581916184266E-02 
2107	 2.33426736722424E-02 
2108	 2.24346457509273E-02 
2109	 2.39689381291729E-02 
2110	 2.49599483796829E-02 
2111	 2.56364556856507E-02 
2112	 2.51560067173026E-02 
2113	 0.02871272891995 
2114	 0.035762923870948 
2115	 0.036560048896295 
2116	 3.84342277552371E-02 
2117	 3.97193045957128E-02 
2118	 0.031433769227748 
2119	 2.90140846503279E-02 
2120	 3.24429867070829E-02 
2121	 3.44252423318237E-02 
2122	 0.031862150389751 
2123	 3.23847845619987E-02 
2124	 2.90435655721684E-02 
2125	 2.67809905972863E-02 
2126	 2.67730232598481E-02 
2127	 2.80796708884304E-02 
2128	 2.80853611712969E-02 
2129	 2.51039668178133E-02 
2130	 2.27966744245788E-02 
2131	 1.66804063965572E-02 
2132	 1.58669728415255E-02 
2133	 2.32627509484875E-02 
2134	 2.56203753914788E-02 
2135	 2.93682024781031E-02 
2136	 3.11501101537255E-02 
2137	 2.92951625952069E-02 
2138	 2.83988932761032E-02 
2139	 0.027140243836638 
2140	 2.82713846906743E-02 
2141	 3.18579405085051E-02 
2142	 3.19128551318797E-02 
2143	 3.20867686818757E-02 
2144	 3.11442191967384E-02 
2145	 2.81850526285506E-02 
2146	 0.024449142065143 
2147	 2.11463668841084E-02 
2148	 2.48745773870772E-02 
2149	 3.20493364727999E-02 
2150	 3.74887667159696E-02 
2151	 4.27094598430762E-02 
2152	 4.61963841270121E-02 
2153	 4.56069688918401E-02 
2154	 3.93006387110138E-02 
2155	 3.87742269567845E-02 
2156	 4.09848463540419E-02 
2157	 4.24889989957871E-02 
2158	 4.72287284263499E-02 
2159	 4.79864382976214E-02 
2160	 4.81309003868506E-02 
2161	 4.46670248818977E-02 
2162	 3.38117978715071E-02 
2163	 3.02186815686475E-02 
2164	 2.80511137051927E-02 
2165	 2.66920981022784E-02 
2166	 2.94272132088655E-02 
2167	 3.05273312621792E-02 
2168	 3.19943139983704E-02 
2169	 3.13873684071657E-02 
2170	 2.87871995376138E-02 
2171	 2.95718306036079E-02 
2172	 2.96862282464337E-02 
2173	 2.94843812037899E-02 
2174	 3.26072579056227E-02 
2175	 3.33675403694864E-02 
2176	 2.72042328213695E-02 
2177	 2.75962130622758E-02 
2178	 2.82784289397456E-02 
2179	 2.58990235018034E-02 
2180	 2.87945296380461E-02 
2181	 2.48672054000408E-02 
2182	 1.97667500253219E-02 
2183	 1.91333211666402E-02 
2184	 0.021639689709847 
2185	 0.027855100830461 
2186	 3.11458572408791E-02 
2187	 3.63968888137826E-02 
2188	 3.90694329479504E-02 
2189	 3.92523410583435E-02 
2190	 0.039118385219251 
2191	 3.82538394483959E-02 
2192	 3.56773871742975E-02 
2193	 2.85057641478516E-02 
2194	 2.66374696900945E-02 
2195	 2.59966788935905E-02 
2196	 2.69946716167897E-02 
2197	 3.61399483133635E-02 
2198	 3.57049841292862E-02 
2199	 2.76653160150026E-02 
2200	 2.72213391566908E-02 
2201	 2.46992073542269E-02 
2202	 1.77553706033076E-02 
2203	 1.95382707591237E-02 
2204	 2.54011756469423E-02 
2205	 2.71332408402441E-02 
2206	 0.031835684382814 
2207	 3.93812073657822E-02 
2208	 4.68012826614976E-02 
2209	 4.69694387836092E-02 
2210	 4.52231810610225E-02 
2211	 4.58969635248987E-02 
2212	 3.60573542015066E-02 
2213	 2.37929539845443E-02 
2214	 1.91233994032853E-02 
2215	 1.60392934180003E-02 
2216	 1.28485496469495E-02 
2217	 1.20545139162197E-02 
2218	 1.94979095726815E-02 
2219	 2.15397145798438E-02 
2220	 1.79503118163889E-02 
2221	 2.05441384412167E-02 
2222	 2.66117148848485E-02 
2223	 0.032086836524136 
2224	 4.20977945805537E-02 
2225	 4.76019832229078E-02 
2226	 5.22327687849431E-02 
2227	 5.52406138192537E-02 
2228	 5.41941755522699E-02 
2229	 0.0521923014301 
2230	 5.02015081694863E-02 
2231	 4.53645101810385E-02 
2232	 3.32032281298324E-02 
2233	 2.91283792558351E-02 
2234	 0.027237279975696 
2235	 0.028610623239615 
2236	 2.86506313101017E-02 
2237	 3.76652562982139E-02 
2238	 4.71460406865964E-02 
2239	 4.84517702113468E-02 
2240	 5.26664453667691E-02 
2241	 5.60729952792134E-02 
2242	 4.85414028344867E-02 
2243	 4.17970915170998E-02 
2244	 4.28491846911978E-02 
2245	 4.27081917625819E-02 
2246	 0.046842347939641 
2247	 4.85039841966638E-02 
2248	 4.28213791597807E-02 
2249	 4.16837995691658E-02 
2250	 3.99828370917881E-02 
2251	 0.036204284588421 
2252	 3.64119371354936E-02 
2253	 3.61849767041817E-02 
2254	 3.61460764184938E-02 
2255	 3.63659742375183E-02 
2256	 3.28538007561812E-02 
2257	 3.07605732663792E-02 
2258	 3.19783444397966E-02 
2259	 3.57642837414421E-02 
2260	 3.88647757152309E-02 
2261	 4.70190907351998E-02 
2262	 4.74559508163339E-02 
2263	 4.34697122328644E-02 
2264	 4.06613717460025E-02 
2265	 3.67697401450193E-02 
2266	 3.44754057865332E-02 
2267	 2.75392081241202E-02 
2268	 2.51977376815496E-02 
2269	 2.90872212761585E-02 
2270	 2.72576529108817E-02 
2271	 2.12152519046322E-02 
2272	 0.023932486047514 
2273	 2.88784389856408E-02 
2274	 3.24168355209076E-02 
2275	 4.89730241677819E-02 
2276	 5.16388522991645E-02 
2277	 3.94085878476973E-02 
2278	 3.53287674691185E-02 
2279	 2.84461367972582E-02 
2280	 1.95195678681822E-02 
2281	 9.62008146540656E-03 
2282	 1.20421468907152E-02 
2283	 1.25929311743159E-02 
2284	 0.030427097124392 
2285	 3.52679826650872E-02 
2286	 2.71356199149895E-02 
2287	 1.93526997933931E-02 
2288	-1.37208574824909E-03 
2289	-7.45598304203968E-03 
2290	 2.85876615180309E-03 
2291	 2.91746831868857E-03 
2292	-1.16192415409563E-03 
2293	 7.24959721515255E-03 
2294	 1.36088089836571E-02 
2295	 2.03711546785289E-02 
2296	 2.83510764872638E-02 
2297	 3.46603081388211E-02 
2298	 4.74856652271657E-02 
2299	 4.76731631828537E-02 
2300	 0.052730853920987 
2301	 0.047341112540725 
2302	 1.59606564211185E-02 
2303	 5.22505671715053E-03 
2304	 1.20641466535342E-02 
2305	 2.48995325076472E-02 
2306	 4.49733465055753E-02 
2307	 5.95443149607938E-02 
2308	 4.80789166563794E-02 
2309	 2.54583725909379E-02 
2310	 1.48312264241611E-02 
2311	-5.46897780122342E-04 
2312	-1.69810055639219E-02 
2313	-3.04319194174187E-02 
2314	-3.68249926731012E-02 
2315	-0.052808150444815 
2316	-6.82836075114935E-02 
2317	-6.71933788986547E-02 
2318	-7.41532879908923E-02 
2319	-6.13304670628556E-02 
2320	-3.29118780515416E-02 
2321	-5.64356495810119E-03 
2322	 1.30612575480449E-02 
2323	 0.016713826993082 
2324	 3.81901385246763E-03 
2325	-2.15023816734784E-02 
2326	-3.27000885921929E-02 
2327	-5.88843301203261E-02 
2328	-6.00047019607487E-02 
2329	-4.00986008337955E-02 
2330	-4.75740824990381E-02 
2331	-7.01118174126509E-03 
2332	 3.45558789824303E-02 
2333	 2.82292727658754E-02 
2334	 2.70229724248797E-02 
2335	 5.61473386315639E-03 
2336	 0.005527967751073 
2337	 2.10206499728133E-02 
2338	 1.98571834240639E-02 
2339	 6.41127506455194E-02 
2340	 9.24954737063679E-02 
2341	 0.09505715413182 
2342	 9.14484801917513E-02 
2343	 5.29666200463167E-02 
2344	-1.02516369124841E-02 
2345	-5.70031654552363E-02 
2346	 6.72871552215298E-03 
2347	 2.60929390828446E-02 
2348	-5.52619092170764E-03 
2349	-2.21405638973455E-03 
2350	-4.29879895615716E-02 
2351	-6.47601345539474E-02 
2352	 3.83635080650539E-03 
2353	 6.29580363949612E-02 
2354	 3.09681946516477E-02 
2355	 1.16742120271413E-02 
2356	-4.96232633710532E-03 
2357	-9.12900698074276E-02 
2358	-0.112548653022787 
2359	-2.97648725292243E-02 
2360	-0.068075561984755 
2361	-0.039262136031262 
2362	 0.036208367642948 
2363	 2.73081855020822E-02 
2364	 0.021556215233007 
2365	-4.03346196871753E-02 
2366	-5.32835246100169E-02 
2367	-5.19858684795744E-02 
2368	-6.51533746695391E-02 
2369	-7.57076341444776E-02 
2370	-0.128588123386309 
2371	-9.64493674710034E-02 
2372	 7.97302908948723E-02 
2373	 0.232531597154828 
2374	 0.243391079221412 
2375	 5.69832933059662E-02 
2376	-0.212900878876368 
2377	-0.271211568399259 
2378	-0.103655001486101 
2379	-4.71424912933882E-03 
2380	-4.99613850050349E-03 
2381	-0.134314952421046 
2382	-0.10383828870843 
2383	 9.71736626895497E-02 
2384	 2.27477815537215E-02 
2385	 7.85960343249716E-02 
2386	-4.64525107162722E-02 
2387	-0.41674961952263 
2388	-0.359581741691881 
2389	-0.12176751290598 
2390	 5.44096644383885E-02 
2391	 6.17645646097574E-02 
2392	 3.32855649466071E-02 
2393	-0.238088118280119 
2394	-0.498025479267533 
2395	-0.465176039723724 
2396	-0.246888808244202 
2397	-0.130727022392988 
2398	-0.125876041605291 
2399	-8.85655601979591E-02 
2400	-0.269940216638364 
2401	-0.287590336961677 
2402	-0.044312088103563 
2403	-6.73567295334198E-02 
2404	-6.91836376953432E-02 
2405	-2.76514799625213E-02 
2406	-8.70878128909129E-02 
2407	-0.197930412558919 
2408	 4.01956865989034E-02 
2409	-1.78154391087938E-03 
2410	-4.09710623227314 
2411	-0.848329942793591 
2412	-0.831350985085806 
2413	-1.34561753406984 
2414	-0.916367555666891 
2415	-0.174876815825378 
2416	-0.47704276988841 
2417	-0.993006280645857 
2418	-1.14507182958267 
2419	-1.69115744909749 
2420	-4.43975406214595 
2421	 0.1226224862458 
2422	 0.198283639516623 
2423	 0.777596211290643 
2424	 3.16337942857673 
2425	 6.99172130174785 
2426	 74.6378752633973 
2427	-1.12429773288234 
2428	 3.02410220114935 
2429	-3.8628294184413 
2430	-5.95373565684383 
2431	-3.25095908391165 
2432	-2.51582245997424 
2433	 60.6164369347617 
2434	 2.50309325600531 
2435	 0.960856771257308 
2436	 0.705465413267541 
2437	 0.446924463372664 
2438	-0.78013071372273 
2439	-1.2631568153448 
2440	-0.544685674170136 
2441	-0.437496686169278 
2442	-0.299922521323757 
2443	 0.113269891224745 
2444	 0.082365491449937 
2445	 6.83197679361424E-02 
2446	 0.117952089935354 
2447	 3.06555690260153E-02 
2448	 0.170493566151735 
2449	 1.05206960721064 
2450	 1.55478059306057 
2451	 1.58928770114065 
2452	 1.19126430337234 
2453	 0.750914316168699 
2454	 1.10536885923319 
2455	 0.669032642446884 
2456	 0.693220269519719 
2457	 0.425813056115927 
2458	 0.275170302744772 
2459	 0.481729042297546 
2460	 0.483913555527667 
2461	 0.34973634266419 
2462	 0.721633410599325 
2463	-0.922450262777756 
2464	-4.59659907720162 
2465	-12.1635289371029 
2466	-0.72931373086191 
2467	 0.579581329910079 
2468	 2.02064757636483 
2469	 2.10032929737508 
2470	 0.870347434112381 
2471	 0.566649751898371 
2472	 0.847592553620928 
2473	 0.599805130528799 
2474	 0.583828438459354 
2475	 0.853301381821564 
2476	-0.405052394630765 
2477	-2.35340526860154 
2478	-2.92712918345982E-02 
2479	-0.376515850236316 
2480	-8.4003882036346 
2481	 5.14228934828488 
2482	 2.15770425081214 
2483	 0.677846630050493 
2484	-0.126546348495512 
2485	-1.56490034508753 
2486	-1.44921476665399 
2487	-1.29735169282867 
2488	-0.707626833678502 
2489	-4.92190456050455E-02 
2490	 0.20203420192515 
2491	 0.116849626618228 
2492	-0.102161401020166 
2493	-0.599565669433089 
2494	-1.4425922029334 
2495	-0.897415074189824 
2496	-0.992089268660513 
2497	-0.832952951302502 
2498	-0.506031943437394 
2499	 3.02868480221006 
2500	 1.64736342783447 
