Wavelength	rt0704dirt00002.asd
350	 0.108817899890645 
351	 0.109159450843164 
352	 0.109395286017385 
353	 0.109477265430863 
354	 0.109562102315062 
355	 0.110254258877423 
356	 0.110414090574387 
357	 0.110405343946061 
358	 0.110878030996152 
359	 0.111544614644089 
360	 0.111812114050364 
361	 0.111849288192224 
362	 0.112273655324218 
363	 0.112524975589503 
364	 0.112781097180198 
365	 0.113186726481774 
366	 0.113708706345203 
367	 0.114050696674087 
368	 0.114191929008672 
369	 0.114264887875325 
370	 0.114577593183772 
371	 0.115190210797144 
372	 0.115887779718656 
373	 0.116327686542888 
374	 0.116632676739336 
375	 0.116952780117281 
376	 0.117373729631777 
377	 0.117882362070994 
378	 0.118641508761876 
379	 0.119157525904729 
380	 0.119186437049566 
381	 0.119701489935949 
382	 0.120341956617755 
383	 0.120890850589988 
384	 0.121247870814522 
385	 0.121651879012724 
386	 0.121993242612503 
387	 0.12245698166962 
388	 0.123520400848578 
389	 0.123686781553473 
390	 0.123834335378188 
391	 0.124571501850442 
392	 0.124624167207693 
393	 0.125112984483332 
394	 0.125743552705055 
395	 0.125875589723274 
396	 0.125988358362761 
397	 0.126347584976999 
398	 0.126843911868102 
399	 0.127093797326141 
400	 0.127303325806716 
401	 0.127571420052206 
402	 0.127926406229165 
403	 0.128300003577051 
404	 0.12859201677944 
405	 0.128796411643271 
406	 0.128948703265979 
407	 0.129034857134778 
408	 0.129279328781614 
409	 0.129664570568598 
410	 0.129934915232021 
411	 0.130159837506789 
412	 0.130231571834238 
413	 0.13019806140844 
414	 0.130549064796355 
415	 0.13088341050229 
416	 0.13113765160446 
417	 0.131383405267657 
418	 0.131598198156501 
419	 0.131894924824636 
420	 0.132282031279762 
421	 0.132650762366463 
422	 0.132977288904578 
423	 0.133366528570745 
424	 0.133874471862874 
425	 0.13435321401447 
426	 0.134802386945583 
427	 0.135293642367693 
428	 0.135893814927706 
429	 0.136360093341444 
430	 0.136866319005118 
431	 0.137467543450186 
432	 0.138036631802595 
433	 0.13863981852098 
434	 0.139276056644485 
435	 0.139917528017017 
436	 0.14050034468987 
437	 0.141085758389781 
438	 0.141657589214412 
439	 0.142161162337337 
440	 0.14262571102476 
441	 0.143114530046517 
442	 0.14366511224854 
443	 0.144282595131618 
444	 0.144668876277672 
445	 0.145006284704254 
446	 0.145498008120662 
447	 0.145865069155397 
448	 0.146233415001574 
449	 0.146585651913446 
450	 0.146811132401502 
451	 0.147073903356155 
452	 0.147281389817354 
453	 0.147409433005947 
454	 0.147652750611711 
455	 0.14786066904826 
456	 0.147966329580225 
457	 0.147969042919773 
458	 0.148035897707967 
459	 0.148092937082767 
460	 0.148089372904484 
461	 0.148015267113476 
462	 0.147927130145886 
463	 0.147973979502746 
464	 0.148182379860254 
465	 0.148214841901073 
466	 0.148207822260732 
467	 0.148237890917757 
468	 0.148336695953685 
469	 0.148379358560595 
470	 0.14847584462148 
471	 0.148616073057856 
472	 0.148604118795393 
473	 0.14855969083309 
474	 0.148698286214503 
475	 0.149063210379669 
476	 0.148983427055393 
477	 0.149183424011296 
478	 0.149604445194181 
479	 0.149693753712818 
480	 0.149911330433842 
481	 0.15015790755592 
482	 0.150367582055177 
483	 0.150694342676562 
484	 0.150983226173614 
485	 0.15128206206942 
486	 0.151673009142892 
487	 0.151992810606564 
488	 0.152347325046712 
489	 0.152804073732669 
490	 0.153371274329846 
491	 0.15382301764153 
492	 0.154186717524215 
493	 0.154580819116331 
494	 0.155243347916054 
495	 0.155811763659744 
496	 0.156288362796716 
497	 0.156859912351226 
498	 0.157529030328129 
499	 0.15813233907823 
500	 0.158629498242665 
501	 0.159196886991099 
502	 0.159675440115946 
503	 0.160238345051077 
504	 0.161022386166914 
505	 0.161635725966831 
506	 0.162231147245024 
507	 0.162926934035325 
508	 0.163777862410865 
509	 0.164493439256313 
510	 0.165192746026516 
511	 0.165964793998948 
512	 0.166676446823687 
513	 0.167304257738666 
514	 0.167982506539516 
515	 0.168871873306012 
516	 0.169793149065245 
517	 0.170584503911425 
518	 0.171266424721436 
519	 0.17207568791861 
520	 0.172996334105378 
521	 0.173876202463685 
522	 0.174630290905167 
523	 0.175490760854203 
524	 0.176390100484153 
525	 0.177334944989406 
526	 0.178373855852029 
527	 0.17935292380884 
528	 0.180373987477562 
529	 0.181478678411156 
530	 0.18251389147795 
531	 0.183659475640515 
532	 0.184861757385356 
533	 0.186007813270015 
534	 0.187224406845775 
535	 0.188446111449786 
536	 0.189651254492339 
537	 0.190874414111343 
538	 0.192090580327783 
539	 0.193299139969758 
540	 0.194533358706554 
541	 0.195934394399402 
542	 0.19723499944492 
543	 0.198406310498081 
544	 0.199584543641667 
545	 0.200843984718426 
546	 0.202138784373827 
547	 0.203415211617825 
548	 0.204652772100951 
549	 0.205799972127045 
550	 0.206914774596367 
551	 0.208064660641954 
552	 0.209098670658976 
553	 0.210135223838079 
554	 0.211186766364595 
555	 0.212125727618848 
556	 0.213078206971207 
557	 0.214034519829383 
558	 0.214956494684349 
559	 0.215852011265219 
560	 0.216817585999715 
561	 0.21780020706414 
562	 0.218673512750659 
563	 0.219558589184353 
564	 0.220366007560468 
565	 0.221082411495761 
566	 0.221912444490707 
567	 0.222509529526544 
568	 0.223041732166381 
569	 0.22378520112604 
570	 0.224440173912278 
571	 0.225054202059036 
572	 0.225626376561924 
573	 0.226085134160379 
574	 0.226632482588257 
575	 0.227202110571094 
576	 0.227715798349013 
577	 0.22829059900657 
578	 0.228834290600999 
579	 0.229360746133191 
580	 0.229925736066758 
581	 0.230304244428818 
582	 0.230662304689239 
583	 0.231073932377285 
584	 0.231363500014934 
585	 0.23147353489356 
586	 0.231437018186434 
587	 0.231334071020656 
588	 0.231208738100485 
589	 0.231328780569556 
590	 0.231705212195193 
591	 0.232076897834941 
592	 0.232470823457762 
593	 0.2329212056193 
594	 0.233415142329593 
595	 0.233806548372978 
596	 0.234238466022873 
597	 0.234689459415674 
598	 0.235055273990824 
599	 0.235426754420301 
600	 0.235703808569693 
601	 0.235863596586423 
602	 0.236047247900117 
603	 0.236215948810668 
604	 0.236296045777006 
605	 0.236244240096114 
606	 0.236256426912056 
607	 0.236180448498913 
608	 0.236034106933978 
609	 0.236016195332373 
610	 0.235890793938822 
611	 0.23567543583049 
612	 0.235479285589156 
613	 0.2355447041455 
614	 0.235400692030677 
615	 0.235148567558463 
616	 0.235172595896482 
617	 0.235162152245183 
618	 0.235107127040465 
619	 0.235057316162243 
620	 0.235115605723834 
621	 0.234994909167583 
622	 0.234857357882284 
623	 0.234908563064673 
624	 0.23479713584982 
625	 0.234588482562542 
626	 0.234426478217923 
627	 0.234498237966019 
628	 0.23450387954161 
629	 0.234597956867164 
630	 0.234833419672601 
631	 0.234737214436824 
632	 0.234865985943167 
633	 0.235102281539346 
634	 0.235050290531452 
635	 0.23487391398485 
636	 0.234721152051678 
637	 0.234618260170091 
638	 0.234415921373838 
639	 0.234281669920251 
640	 0.234175912225329 
641	 0.233993820949186 
642	 0.233633007486892 
643	 0.233228902636793 
644	 0.232692599276059 
645	 0.231775473672482 
646	 0.230925027188497 
647	 0.230273233171109 
648	 0.22983596113813 
649	 0.229503059596556 
650	 0.229011766473405 
651	 0.228520498865626 
652	 0.228304613721627 
653	 0.228009596076403 
654	 0.227695137605866 
655	 0.227405918874261 
656	 0.227156053205537 
657	 0.226880241813432 
658	 0.22650823493241 
659	 0.226005715635889 
660	 0.225483528519147 
661	 0.224791669516013 
662	 0.223978923328361 
663	 0.223225681087835 
664	 0.222496417983613 
665	 0.221814366225741 
666	 0.221159675897555 
667	 0.220452033973326 
668	 0.219666504693426 
669	 0.219013150374608 
670	 0.218686463441483 
671	 0.218371833752097 
672	 0.218094286192961 
673	 0.217920194349901 
674	 0.217938272169774 
675	 0.218127528755617 
676	 0.218447349793774 
677	 0.218871077511266 
678	 0.219401810175811 
679	 0.22017855074714 
680	 0.221192688270504 
681	 0.222390635490383 
682	 0.223949474972007 
683	 0.225784450855543 
684	 0.227704320404228 
685	 0.229593449550427 
686	 0.231970687667128 
687	 0.23472926046583 
688	 0.23744748564701 
689	 0.240411298653226 
690	 0.24336273094658 
691	 0.246146124023995 
692	 0.248742080401872 
693	 0.252061696060721 
694	 0.255775742424014 
695	 0.259242634205454 
696	 0.262229903885294 
697	 0.265011496354578 
698	 0.267806765761769 
699	 0.270559462008081 
700	 0.2734437732358 
701	 0.276456443511366 
702	 0.279325343414621 
703	 0.281776409468752 
704	 0.283896264242304 
705	 0.28590830301573 
706	 0.287899004904399 
707	 0.289883923594293 
708	 0.291579673676942 
709	 0.293018836628467 
710	 0.294341482185102 
711	 0.295614925042321 
712	 0.296590918922747 
713	 0.297177677148126 
714	 0.297466244162637 
715	 0.29728637077641 
716	 0.296953473807656 
717	 0.296969927421739 
718	 0.297409495971898 
719	 0.298141840537794 
720	 0.298773534636937 
721	 0.299146545653045 
722	 0.298965436394515 
723	 0.298592218635899 
724	 0.298368166008781 
725	 0.298413708838662 
726	 0.298215539565249 
727	 0.297950225961069 
728	 0.297760966037191 
729	 0.297167349038817 
730	 0.296942787787828 
731	 0.296998238258301 
732	 0.296883624639692 
733	 0.296665833812882 
734	 0.296365794808463 
735	 0.296084059139999 
736	 0.296035359141584 
737	 0.296121267116638 
738	 0.296311783960497 
739	 0.296570103915451 
740	 0.296821140749263 
741	 0.296942228962749 
742	 0.297167858906536 
743	 0.297779887458259 
744	 0.297878842705777 
745	 0.298004806173634 
746	 0.298321545621249 
747	 0.298305982301331 
748	 0.298543759656232 
749	 0.298856459584011 
750	 0.298992880615159 
751	 0.299142469493694 
752	 0.299208959285881 
753	 0.299320135509873 
754	 0.299651282090574 
755	 0.29973899207943 
756	 0.299740487585179 
757	 0.2996738505749 
758	 0.299126187040195 
759	 0.298114267821561 
760	 0.296893515044851 
761	 0.296650827260209 
762	 0.296876120625871 
763	 0.29775311727774 
764	 0.298844587621557 
765	 0.299750226124248 
766	 0.300626330573901 
767	 0.301236046425222 
768	 0.301597791063695 
769	 0.301923954561783 
770	 0.302366999102192 
771	 0.302745465381374 
772	 0.302923275422721 
773	 0.303060209250824 
774	 0.303348917013638 
775	 0.303685577316259 
776	 0.303879477595548 
777	 0.304104324968443 
778	 0.304467240144887 
779	 0.304848868012309 
780	 0.30494309215923 
781	 0.305184221656873 
782	 0.305548923930838 
783	 0.305928213414831 
784	 0.306233860278785 
785	 0.306438354611681 
786	 0.306550533091779 
787	 0.306630949512528 
788	 0.306867278628514 
789	 0.307207135405888 
790	 0.307618542207791 
791	 0.308099634594189 
792	 0.308644719498595 
793	 0.308976272455138 
794	 0.309083449773992 
795	 0.309412260820568 
796	 0.309735803588531 
797	 0.309987690911876 
798	 0.31020143536852 
799	 0.310549999573576 
800	 0.31083891907235 
801	 0.311026795290865 
802	 0.311225465380718 
803	 0.311855229927227 
804	 0.3123025564309 
805	 0.312393733990866 
806	 0.312506456998007 
807	 0.312678649013102 
808	 0.312637612018574 
809	 0.312253617787816 
810	 0.311975074629531 
811	 0.311585117871956 
812	 0.311108135634713 
813	 0.310639689403252 
814	 0.309982828267386 
815	 0.309588548236358 
816	 0.309692613719244 
817	 0.310139695835473 
818	 0.310353489340788 
819	 0.310207179242862 
820	 0.309785373698615 
821	 0.309295498011062 
822	 0.3086300058362 
823	 0.308238980535887 
824	 0.308154170365146 
825	 0.307251817938166 
826	 0.306327478138911 
827	 0.305237428015198 
828	 0.303786133219905 
829	 0.302890578960761 
830	 0.302406270896754 
831	 0.301953186505752 
832	 0.301174552265946 
833	 0.300795407759174 
834	 0.300795714071582 
835	 0.300881062461277 
836	 0.300579741883858 
837	 0.300390142262541 
838	 0.300253451918871 
839	 0.30005819328528 
840	 0.299834658876155 
841	 0.29995444928234 
842	 0.300129784411223 
843	 0.299969029371277 
844	 0.299833061667152 
845	 0.299774029744132 
846	 0.299763686024622 
847	 0.299694017607148 
848	 0.299231080427915 
849	 0.299037527587836 
850	 0.299173239555488 
851	 0.298824518003514 
852	 0.298445222796597 
853	 0.298412603152899 
854	 0.298655711772314 
855	 0.298227335538047 
856	 0.297996204726187 
857	 0.298086317368426 
858	 0.298307691762003 
859	 0.298172884864687 
860	 0.298123549101692 
861	 0.298022867083649 
862	 0.297608257351068 
863	 0.297785647292012 
864	 0.297773121976776 
865	 0.297477902869871 
866	 0.297483430057489 
867	 0.297372306225405 
868	 0.297131017430144 
869	 0.296799844480392 
870	 0.296420131340388 
871	 0.296276016665761 
872	 0.296073858112909 
873	 0.295687800636483 
874	 0.295666379967244 
875	 0.295490152743374 
876	 0.295099384602825 
877	 0.294650772455177 
878	 0.294492737243997 
879	 0.294196829713571 
880	 0.293948700254202 
881	 0.294035972216038 
882	 0.293593044676549 
883	 0.292925893824709 
884	 0.292508015962202 
885	 0.292683133621823 
886	 0.292096585168162 
887	 0.291684421538854 
888	 0.291674668824107 
889	 0.291248352514044 
890	 0.291083649922019 
891	 0.290543175267584 
892	 0.289379999682814 
893	 0.288581674112207 
894	 0.287873668340791 
895	 0.287356894966498 
896	 0.286943378206718 
897	 0.285615204025677 
898	 0.285783831866813 
899	 0.285991031643053 
900	 0.284574151325099 
901	 0.284301135077724 
902	 0.284544024935128 
903	 0.284716486190918 
904	 0.284372599411091 
905	 0.283634238112952 
906	 0.282422271698682 
907	 0.281158258870877 
908	 0.28059253228647 
909	 0.280231560435256 
910	 0.279996765046452 
911	 0.279424090840022 
912	 0.277897727774156 
913	 0.276479702185861 
914	 0.276264675963818 
915	 0.27693997737004 
916	 0.276762640213866 
917	 0.275983367014241 
918	 0.275631924647824 
919	 0.275636676161947 
920	 0.274529503194654 
921	 0.273712452575976 
922	 0.272484393733108 
923	 0.270710121069738 
924	 0.270382663932228 
925	 0.268858391003251 
926	 0.26618256528808 
927	 0.263586189971568 
928	 0.263208209614928 
929	 0.261291272838669 
930	 0.257715899013618 
931	 0.254675758946501 
932	 0.250307565979964 
933	 0.243339086252892 
934	 0.240785973311537 
935	 0.246489116834623 
936	 0.240178537489425 
937	 0.23207561542555 
938	 0.229929890034908 
939	 0.235633827802965 
940	 0.236000847459515 
941	 0.231277869239577 
942	 0.22853213478139 
943	 0.234075857393171 
944	 0.225388734226456 
945	 0.219997966409861 
946	 0.219430994209697 
947	 0.215710030531335 
948	 0.219045561048539 
949	 0.220119067537835 
950	 0.218425394450211 
951	 0.218499879160604 
952	 0.215534934135196 
953	 0.213175408925419 
954	 0.212685472758453 
955	 0.212541018961685 
956	 0.207568958138534 
957	 0.207621848716444 
958	 0.210638229367026 
959	 0.207884343753178 
960	 0.206095170401536 
961	 0.206537045300448 
962	 0.209011412913002 
963	 0.212056787873251 
964	 0.211831930415407 
965	 0.211774478286151 
966	 0.212436873543258 
967	 0.212107698412697 
968	 0.210045182004115 
969	 0.212412718316431 
970	 0.215673327287014 
971	 0.21037644543325 
972	 0.210543077468545 
973	 0.21156926042496 
974	 0.210942625166006 
975	 0.210489564918256 
976	 0.212110871584526 
977	 0.214037182911167 
978	 0.214676824532542 
979	 0.213574814481753 
980	 0.212077998596361 
981	 0.212953028443101 
982	 0.215683483499944 
983	 0.217049503023567 
984	 0.21351575454769 
985	 0.212833224118177 
986	 0.215687349440414 
987	 0.216918564726389 
988	 0.217007232106084 
989	 0.219838966354762 
990	 0.221972971274301 
991	 0.217050703896618 
992	 0.217288443628402 
993	 0.218573441042113 
994	 0.219839001850854 
995	 0.222170130631652 
996	 0.220216403056464 
997	 0.219625307120366 
998	 0.22197247862495 
999	 0.22506282598278 
1000	 0.225542740811127 
1001	 0.220705065631233 
1002	 0.22133809454964 
1003	 0.222009180071269 
1004	 0.222938738118586 
1005	 0.223662459527668 
1006	 0.224247829685174 
1007	 0.225134723974817 
1008	 0.225891504610985 
1009	 0.226386136236165 
1010	 0.22654397212763 
1011	 0.226387871178082 
1012	 0.22659726775749 
1013	 0.227119816650852 
1014	 0.227895664927542 
1015	 0.229517692976335 
1016	 0.230425036024734 
1017	 0.231331801906617 
1018	 0.231872950659365 
1019	 0.2318173252612 
1020	 0.232275401201756 
1021	 0.232985649538641 
1022	 0.233080151111723 
1023	 0.233735721077223 
1024	 0.234685143075558 
1025	 0.235291744303607 
1026	 0.236246135132671 
1027	 0.23701873638843 
1028	 0.237845080356318 
1029	 0.238432270538556 
1030	 0.238668782206803 
1031	 0.239525737353898 
1032	 0.240413660609773 
1033	 0.241532116706862 
1034	 0.243428101279676 
1035	 0.244699640402048 
1036	 0.245946417091676 
1037	 0.246853940499072 
1038	 0.247431623440244 
1039	 0.247712871797386 
1040	 0.248411448362634 
1041	 0.249113291618559 
1042	 0.249625141450434 
1043	 0.25032676824141 
1044	 0.250948606573791 
1045	 0.251290410091948 
1046	 0.25163313638795 
1047	 0.252074086612262 
1048	 0.252453255663425 
1049	 0.252352357595023 
1050	 0.252905181483047 
1051	 0.253966563675038 
1052	 0.254873554856741 
1053	 0.256357703338235 
1054	 0.257161381760963 
1055	 0.25754552212382 
1056	 0.257972458712009 
1057	 0.258220001449787 
1058	 0.257982571251909 
1059	 0.258119744205372 
1060	 0.258305522951856 
1061	 0.258643739206983 
1062	 0.259074695073653 
1063	 0.259530459549863 
1064	 0.260371646390988 
1065	 0.260711243579402 
1066	 0.261055274901329 
1067	 0.26094688645067 
1068	 0.25965929789952 
1069	 0.259577222672192 
1070	 0.260234406161033 
1071	 0.260313005211925 
1072	 0.260880955282848 
1073	 0.26132771358375 
1074	 0.261177153162175 
1075	 0.260013612161875 
1076	 0.25960102935435 
1077	 0.259194587653056 
1078	 0.259173914194926 
1079	 0.259635558158384 
1080	 0.259539968360234 
1081	 0.259650937199687 
1082	 0.259323798236988 
1083	 0.258014327100254 
1084	 0.257523029283391 
1085	 0.257651793228518 
1086	 0.257236765061217 
1087	 0.256859161830726 
1088	 0.256402431705422 
1089	 0.255565434287607 
1090	 0.254510041884685 
1091	 0.253791725175419 
1092	 0.253334894469166 
1093	 0.252691676891722 
1094	 0.251855042645043 
1095	 0.251369770318399 
1096	 0.251464769230866 
1097	 0.25073292557717 
1098	 0.249718818478271 
1099	 0.248614548530071 
1100	 0.245992107353878 
1101	 0.245023684869763 
1102	 0.246152309088947 
1103	 0.245568655050621 
1104	 0.245369558318153 
1105	 0.243645346223849 
1106	 0.240896160991532 
1107	 0.238938718841466 
1108	 0.23828285110119 
1109	 0.23957182010291 
1110	 0.23911938170974 
1111	 0.238028702075898 
1112	 0.237384256440534 
1113	 0.235498406397351 
1114	 0.233897937002427 
1115	 0.233796807540644 
1116	 0.233297188837904 
1117	 0.232104815018179 
1118	 0.232434130602426 
1119	 0.235009861966725 
1120	 0.235042026568335 
1121	 0.235214849027727 
1122	 0.231554231066052 
1123	 0.224104348708141 
1124	 0.236144937279084 
1125	 0.236374832696404 
1126	 0.218941924551555 
1127	 0.217244680815641 
1128	 0.210262298732093 
1129	 0.202063055689385 
1130	 0.20215580570491 
1131	 0.200245745287385 
1132	 0.190313675659379 
1133	 0.187863694332384 
1134	 0.190268172900861 
1135	 0.191101946646432 
1136	 0.194585973031341 
1137	 0.193879852251009 
1138	 0.19091705320654 
1139	 0.19082268001104 
1140	 0.186990933115999 
1141	 0.184413596068576 
1142	 0.18769564552863 
1143	 0.186839604335466 
1144	 0.184983165398726 
1145	 0.182421449814774 
1146	 0.175913906671348 
1147	 0.173613014960967 
1148	 0.17537347394453 
1149	 0.177706224414858 
1150	 0.175955087144392 
1151	 0.169753979666373 
1152	 0.169152677823829 
1153	 0.17127295444427 
1154	 0.170100506550498 
1155	 0.169293218282721 
1156	 0.16932580987999 
1157	 0.167450419853524 
1158	 0.165722023466122 
1159	 0.165691005774585 
1160	 0.165887029259003 
1161	 0.166503383075401 
1162	 0.166722641769208 
1163	 0.166010939646624 
1164	 0.167076514290853 
1165	 0.168411129836248 
1166	 0.168068604115336 
1167	 0.168571855147217 
1168	 0.169588402851824 
1169	 0.169104869721304 
1170	 0.168320908530389 
1171	 0.168487843901648 
1172	 0.169377225795482 
1173	 0.169273714337009 
1174	 0.169206786731817 
1175	 0.169159566641634 
1176	 0.168865562104076 
1177	 0.167624580168955 
1178	 0.167417227448506 
1179	 0.168548284796901 
1180	 0.168795569339744 
1181	 0.168314169809157 
1182	 0.168302612480275 
1183	 0.16793678744518 
1184	 0.166553386491105 
1185	 0.166318540419233 
1186	 0.167450655739524 
1187	 0.167892331066909 
1188	 0.167939374455562 
1189	 0.167466133184219 
1190	 0.166256448996892 
1191	 0.166002236257255 
1192	 0.166173100803917 
1193	 0.167407746523905 
1194	 0.168372526375398 
1195	 0.168223873785595 
1196	 0.167474327160945 
1197	 0.166769765999702 
1198	 0.166669899973529 
1199	 0.167531911254936 
1200	 0.167408889567857 
1201	 0.166571989334538 
1202	 0.167159379937433 
1203	 0.167520714172713 
1204	 0.167539217949379 
1205	 0.168796688147596 
1206	 0.168866907726671 
1207	 0.167636575179226 
1208	 0.168212415870019 
1209	 0.168787094190261 
1210	 0.167679898087149 
1211	 0.167682138649761 
1212	 0.168244885968085 
1213	 0.16788958391172 
1214	 0.168045857329452 
1215	 0.169036253889536 
1216	 0.170090630649234 
1217	 0.169786917861837 
1218	 0.169326170330071 
1219	 0.169499475384586 
1220	 0.169744920046748 
1221	 0.170110299568955 
1222	 0.171086053713282 
1223	 0.171455139533381 
1224	 0.170645595846568 
1225	 0.170632846791744 
1226	 0.171461341986265 
1227	 0.171610807509015 
1228	 0.1717472213399 
1229	 0.171794915662958 
1230	 0.171139841496199 
1231	 0.171314064320841 
1232	 0.172277807401932 
1233	 0.172750038419732 
1234	 0.172923454844938 
1235	 0.17310617063169 
1236	 0.172831862370843 
1237	 0.173061385086561 
1238	 0.173537107900787 
1239	 0.173990085696889 
1240	 0.174702335923909 
1241	 0.175109418856996 
1242	 0.174893029839362 
1243	 0.174699725483726 
1244	 0.174836274246034 
1245	 0.174777609983819 
1246	 0.174907224676843 
1247	 0.175733789326817 
1248	 0.175703726513855 
1249	 0.175204091519106 
1250	 0.175487353656669 
1251	 0.175416495753235 
1252	 0.175029035866035 
1253	 0.175354557935742 
1254	 0.175363898617286 
1255	 0.1744865825152 
1256	 0.174256739865999 
1257	 0.17451968042131 
1258	 0.174567045790457 
1259	 0.174680755251357 
1260	 0.174827053936657 
1261	 0.175038130884253 
1262	 0.174984270039866 
1263	 0.174634658570638 
1264	 0.174720118795512 
1265	 0.174976344928352 
1266	 0.174674485315779 
1267	 0.173999231535511 
1268	 0.174069219989538 
1269	 0.174400464760089 
1270	 0.174244982594421 
1271	 0.174406973683673 
1272	 0.174277321008426 
1273	 0.173646028242437 
1274	 0.173640730450506 
1275	 0.173968656042638 
1276	 0.173673816026828 
1277	 0.173514831279531 
1278	 0.174294689768856 
1279	 0.174543509777052 
1280	 0.174392484629007 
1281	 0.174356551842126 
1282	 0.173792376468137 
1283	 0.173513592398702 
1284	 0.173857386555792 
1285	 0.173732128848009 
1286	 0.173180479020676 
1287	 0.172895173765104 
1288	 0.172803937696704 
1289	 0.172030188484476 
1290	 0.170771266764681 
1291	 0.170177494327901 
1292	 0.169830405715384 
1293	 0.16889619219108 
1294	 0.168741027345462 
1295	 0.168960693052587 
1296	 0.167703479720941 
1297	 0.166129479941916 
1298	 0.165542078244692 
1299	 0.165027167070905 
1300	 0.164607316411211 
1301	 0.164419593761472 
1302	 0.164282457994806 
1303	 0.164216812003905 
1304	 0.163446153598194 
1305	 0.162847371158899 
1306	 0.162248394393791 
1307	 0.161230018729816 
1308	 0.160179157831016 
1309	 0.159107578174466 
1310	 0.158126286538639 
1311	 0.157301304535773 
1312	 0.155948538815395 
1313	 0.154079274731105 
1314	 0.153204689061193 
1315	 0.152062581896511 
1316	 0.151137849236794 
1317	 0.152389013191457 
1318	 0.151996063447365 
1319	 0.149705891552995 
1320	 0.148921328101247 
1321	 0.148604866212931 
1322	 0.147655220835849 
1323	 0.146540651413688 
1324	 0.145596909352145 
1325	 0.144717729621693 
1326	 0.14309533351545 
1327	 0.14266757273645 
1328	 0.14190472251879 
1329	 0.138349235317445 
1330	 0.135765697906846 
1331	 0.136460795066146 
1332	 0.136573344218089 
1333	 0.134959880098883 
1334	 0.135394589314689 
1335	 0.13456065524652 
1336	 0.130789149484061 
1337	 0.129047131357147 
1338	 0.129416161377255 
1339	 0.128210839883093 
1340	 0.125184998446322 
1341	 0.125204799676165 
1342	 0.127473491692249 
1343	 0.128100246560957 
1344	 0.131396660963378 
1345	 0.132940987545131 
1346	 0.132577954061037 
1347	 0.130214665824806 
1348	 0.113970810281985 
1349	 0.110515545852333 
1350	 0.130759351336522 
1351	 0.143155941016443 
1352	 0.171282012522405 
1353	 0.225826083969864 
1354	 0.304912509015409 
1355	 0.346299015476272 
1356	 0.381463121613022 
1357	 0.419458642318903 
1358	 0.374690765560929 
1359	 0.315291961143 
1360	 0.233276143517108 
1361	 0.204621319068277 
1362	 0.316917447435617 
1363	 0.367953587936744 
1364	 7.82019902656266E-02 
1365	 0.239067562699801 
1366	 1.18233122208232 
1367	 0.549810149567385 
1368	 0.32534043389722 
1369	 0.509142594233585 
1370	 0.56214134514859 
1371	 0.105095643722232 
1372	-0.154958679828587 
1373	-0.155626507615489 
1374	-7.83423433371175E-02 
1375	-4.71644365065744 
1376	-2.71610278740386 
1377	-0.166148473668142 
1378	 3.81456286886009E-02 
1379	 0.168783408349621 
1380	 0.178325916005211 
1381	 0.447975320648426 
1382	 0.663738239120267 
1383	 0.473193709069678 
1384	 0.48884035300889 
1385	 4.33868653793007 
1386	-18.468185702937 
1387	-0.959570374188038 
1388	-0.574307143575357 
1389	 0.463405274478049 
1390	 0.364156261233704 
1391	 0.257252301950934 
1392	 1.04989365263937 
1393	 1.50984430213508 
1394	 1.36681251720622 
1395	 1.79940709300085 
1396	-33.2896623341227 
1397	 8.55604579827159 
1398	-1.06803267797264 
1399	-0.256127944865015 
1400	 5.35231121485191 
1401	-0.656231913308144 
1402	-1.18832645989259 
1403	-4.16439376803165 
1404	 1.08190908247661 
1405	 0.362212267991109 
1406	 0.352441992369444 
1407	 0.497757268057783 
1408	 0.846943854244106 
1409	 0.444204788800148 
1410	 0.18826603040742 
1411	 0.19475046963895 
1412	-7.99496817606227E-02 
1413	-8.53517786506003E-02 
1414	 1.30234041264242 
1415	 2.13213062554495 
1416	 0.551802593102616 
1417	 0.407591141916526 
1418	 0.260686115772202 
1419	 0.288355639870279 
1420	 0.383087969095762 
1421	 0.378215906169489 
1422	 0.533698201628996 
1423	 0.435532626694321 
1424	 8.25757838975991E-02 
1425	 5.73566500850038E-02 
1426	 0.165696417244708 
1427	 9.78376594461339E-02 
1428	 4.95757064364846E-03 
1429	 2.61795130471062E-02 
1430	 6.00170066694027E-02 
1431	 1.60882931650507E-02 
1432	 1.22814484433785E-02 
1433	 3.51025935186798E-02 
1434	-4.45960783603946E-02 
1435	-0.079069197884782 
1436	 4.29974504752215E-02 
1437	 4.83558115573837E-02 
1438	-0.145699815233969 
1439	-0.139656694563788 
1440	-0.150725104697308 
1441	-0.159784496176727 
1442	-4.53040712961918E-02 
1443	-1.58133696528778E-02 
1444	-4.63665058109887E-02 
1445	-2.50160322084476E-02 
1446	 2.84534049675019E-02 
1447	 3.62136315961938E-02 
1448	 4.26514879007594E-02 
1449	 8.27508034751393E-02 
1450	 7.38935103121068E-02 
1451	 5.07145810664079E-02 
1452	 5.12360615050345E-02 
1453	 4.85454393694173E-02 
1454	 4.37655907070054E-02 
1455	 0.036700158580262 
1456	 3.68555853809282E-02 
1457	 3.95937360552269E-02 
1458	 0.038671895326029 
1459	 3.95900972670279E-02 
1460	 3.98218537796755E-02 
1461	 3.42970582155683E-02 
1462	 3.63252753638743E-02 
1463	 5.13323859509198E-02 
1464	 4.75893345176846E-02 
1465	 0.02720092968565 
1466	 2.79336435242645E-02 
1467	 3.40357106928797E-02 
1468	 2.79102092842127E-02 
1469	 2.60059751679353E-02 
1470	 0.034978844628265 
1471	 3.71235519744722E-02 
1472	 3.65185465294181E-02 
1473	 5.13110989321786E-02 
1474	 6.28397368186106E-02 
1475	 6.36802583743402E-02 
1476	 5.91982082507005E-02 
1477	 6.12259513758723E-02 
1478	 5.94768017003053E-02 
1479	 4.10656806411066E-02 
1480	 3.90024564979052E-02 
1481	 5.11764087118615E-02 
1482	 5.25168234855539E-02 
1483	 4.95478762506735E-02 
1484	 4.97719174310391E-02 
1485	 5.08987138362276E-02 
1486	 5.03805358241532E-02 
1487	 5.05259562659637E-02 
1488	 5.08235323977966E-02 
1489	 4.92337724824602E-02 
1490	 4.86820324261953E-02 
1491	 4.92511863812108E-02 
1492	 4.93303258451545E-02 
1493	 4.86107001566807E-02 
1494	 4.88435143880892E-02 
1495	 4.98018506746598E-02 
1496	 5.06051330646572E-02 
1497	 5.20401882779303E-02 
1498	 5.25572267740251E-02 
1499	 5.25883254272163E-02 
1500	 5.27162110062894E-02 
1501	 5.18112137247762E-02 
1502	 5.20010625060419E-02 
1503	 5.35208067046002E-02 
1504	 5.41022723375816E-02 
1505	 5.40068885048246E-02 
1506	 5.49330304862122E-02 
1507	 5.72327263195032E-02 
1508	 5.72908101592186E-02 
1509	 5.64321890241318E-02 
1510	 5.65683798652067E-02 
1511	 5.64483517311056E-02 
1512	 5.65692451821037E-02 
1513	 5.75780958521352E-02 
1514	 5.83024930762903E-02 
1515	 5.94251907536375E-02 
1516	 6.04266411097452E-02 
1517	 0.060913408433362 
1518	 6.20217249629785E-02 
1519	 6.22067305075115E-02 
1520	 6.18707154556993E-02 
1521	 0.061684144852595 
1522	 6.19423808163322E-02 
1523	 6.32572588163022E-02 
1524	 6.37178041193397E-02 
1525	 6.35283859606243E-02 
1526	 6.37877171144453E-02 
1527	 6.36725929676517E-02 
1528	 6.35931706074048E-02 
1529	 0.064008175605315 
1530	 6.45826343079949E-02 
1531	 6.59781843227764E-02 
1532	 6.65155407127205E-02 
1533	 6.63581015389518E-02 
1534	 6.75645762668528E-02 
1535	 6.84179164109639E-02 
1536	 6.83545313786217E-02 
1537	 6.87874902834557E-02 
1538	 7.00896625329167E-02 
1539	 0.070885976599687 
1540	 7.02110085048205E-02 
1541	 6.97256245466933E-02 
1542	 7.04776963261866E-02 
1543	 7.10146239223756E-02 
1544	 7.12708540237019E-02 
1545	 7.21469871841605E-02 
1546	 7.31223402795657E-02 
1547	 0.073808532805055 
1548	 7.41110498276297E-02 
1549	 7.44962333216004E-02 
1550	 7.44764859567908E-02 
1551	 7.38448928049355E-02 
1552	 7.46607295756381E-02 
1553	 7.59440401748256E-02 
1554	 7.59203876069845E-02 
1555	 7.65258353678876E-02 
1556	 7.73073154997481E-02 
1557	 7.77134299884653E-02 
1558	 7.90464748905907E-02 
1559	 7.97132277267495E-02 
1560	 7.98465913913539E-02 
1561	 0.080563445306318 
1562	 8.04223157748007E-02 
1563	 7.99826936841778E-02 
1564	 8.09581763952366E-02 
1565	 8.16485671994867E-02 
1566	 8.10882522380849E-02 
1567	 0.081066544280451 
1568	 8.14387532810294E-02 
1569	 8.07806908556915E-02 
1570	 8.02864364073999E-02 
1571	 8.15434337089399E-02 
1572	 8.22872261251966E-02 
1573	 8.17109996747654E-02 
1574	 8.21928901920219E-02 
1575	 0.083182395911142 
1576	 8.35140581237605E-02 
1577	 8.43132365965446E-02 
1578	 8.51131258878164E-02 
1579	 8.50275000254741E-02 
1580	 8.49292824437668E-02 
1581	 8.53451010756108E-02 
1582	 8.64176915640717E-02 
1583	 0.086816307669738 
1584	 0.086637324793046 
1585	 8.70321776761457E-02 
1586	 8.70156051763673E-02 
1587	 8.71585280967607E-02 
1588	 8.72310702516868E-02 
1589	 8.69331023117249E-02 
1590	 8.76766769065139E-02 
1591	 8.86970403798192E-02 
1592	 8.86568077792863E-02 
1593	 8.82177539653324E-02 
1594	 0.088960202314774 
1595	 9.02001235419019E-02 
1596	 9.01405818490173E-02 
1597	 0.089707229293754 
1598	 8.99964961353339E-02 
1599	 9.00901515151835E-02 
1600	 9.01964153914059E-02 
1601	 9.06426587659246E-02 
1602	 9.09320011980227E-02 
1603	 9.09565725107326E-02 
1604	 9.06655898305615E-02 
1605	 9.08467981216225E-02 
1606	 0.091211780180565 
1607	 9.12765831165688E-02 
1608	 9.18114273786825E-02 
1609	 0.093006145790611 
1610	 9.35396943718779E-02 
1611	 9.26085609089852E-02 
1612	 9.23273027921597E-02 
1613	 9.35057499874799E-02 
1614	 9.39458480019268E-02 
1615	 0.093395050116023 
1616	 9.40355465237157E-02 
1617	 9.51653388285727E-02 
1618	 9.53177618596085E-02 
1619	 9.55157352835865E-02 
1620	 9.58449503168487E-02 
1621	 9.55723873403716E-02 
1622	 9.50466789275432E-02 
1623	 0.095207135477592 
1624	 0.095330792562236 
1625	 9.49304142123108E-02 
1626	 9.50874495788527E-02 
1627	 9.54246161868964E-02 
1628	 9.57339445405364E-02 
1629	 9.63858308186907E-02 
1630	 9.65957386799655E-02 
1631	 9.64293803393733E-02 
1632	 9.67692014051378E-02 
1633	 9.67159492278354E-02 
1634	 9.59669645721788E-02 
1635	 9.65975172977486E-02 
1636	 9.77517133981692E-02 
1637	 9.80024953051142E-02 
1638	 9.89144242184567E-02 
1639	 9.96089277797395E-02 
1640	 9.87204459898321E-02 
1641	 9.79031786101761E-02 
1642	 9.81568781206044E-02 
1643	 9.80738655824155E-02 
1644	 9.77500992685336E-02 
1645	 9.86576932427874E-02 
1646	 9.83607553988359E-02 
1647	 9.69945533286143E-02 
1648	 9.85847774833817E-02 
1649	 0.100327725092204 
1650	 9.96400497379391E-02 
1651	 9.87568582256675E-02 
1652	 0.098055598448304 
1653	 0.098270747392027 
1654	 9.80518141650015E-02 
1655	 9.84224050937542E-02 
1656	 9.85856097643378E-02 
1657	 0.097572771561182 
1658	 9.76915632576765E-02 
1659	 9.91382963163095E-02 
1660	 9.98829584595645E-02 
1661	 0.100714687772765 
1662	 0.100620932326195 
1663	 9.96594401181152E-02 
1664	 0.099712902342031 
1665	 9.96238838062192E-02 
1666	 9.94265931519237E-02 
1667	 0.100091137704369 
1668	 0.100753726790169 
1669	 0.100569307124171 
1670	 0.100912548476714 
1671	 0.100398445948506 
1672	 9.91440597296772E-02 
1673	 9.93693716729271E-02 
1674	 0.100046487777871 
1675	 0.100131534238066 
1676	 9.99008686959811E-02 
1677	 9.97335545423643E-02 
1678	 0.100056984513969 
1679	 0.10071437733563 
1680	 0.101825487494089 
1681	 0.10198438898097 
1682	 0.100448267136279 
1683	 9.98533380595776E-02 
1684	 0.100283426423465 
1685	 0.100286314589041 
1686	 0.100926275871332 
1687	 0.101380029946785 
1688	 9.95497980275104E-02 
1689	 9.82473928458053E-02 
1690	 9.88477790475693E-02 
1691	 0.099343430286032 
1692	 0.100333509818634 
1693	 0.10074297974634 
1694	 9.97563004776567E-02 
1695	 9.85990011701842E-02 
1696	 9.83361693058279E-02 
1697	 9.90233393932452E-02 
1698	 9.97391157824852E-02 
1699	 0.100453963748733 
1700	 0.100002238867131 
1701	 9.96543882410811E-02 
1702	 0.100297483588745 
1703	 9.98620419682134E-02 
1704	 9.93216176324529E-02 
1705	 9.96105888112208E-02 
1706	 9.98546657191287E-02 
1707	 9.96786682671976E-02 
1708	 9.96558500182359E-02 
1709	 9.91551746216856E-02 
1710	 0.09750788876609 
1711	 9.67203162220757E-02 
1712	 9.79195709170905E-02 
1713	 0.099338218860387 
1714	 9.91879024695154E-02 
1715	 9.76967979039406E-02 
1716	 9.75071757942494E-02 
1717	 9.74464795727046E-02 
1718	 9.80310549266301E-02 
1719	 9.86657573858506E-02 
1720	 9.76998865640845E-02 
1721	 9.68281941349315E-02 
1722	 9.65390162140621E-02 
1723	 9.62078371317086E-02 
1724	 9.71910021453594E-02 
1725	 0.097880152752696 
1726	 9.65639699907589E-02 
1727	 9.55306097502737E-02 
1728	 9.44990051028786E-02 
1729	 9.40033676035621E-02 
1730	 9.63831823891553E-02 
1731	 9.73170818630704E-02 
1732	 9.60724913349026E-02 
1733	 9.56754700519983E-02 
1734	 0.094756973925744 
1735	 9.42131254382197E-02 
1736	 9.40139925079123E-02 
1737	 9.41751721356677E-02 
1738	 9.40034117971213E-02 
1739	 9.25101394519537E-02 
1740	 9.25033884181248E-02 
1741	 9.19244176205911E-02 
1742	 8.99152230333692E-02 
1743	 9.01310735036401E-02 
1744	 9.20102789553327E-02 
1745	 9.27544091629941E-02 
1746	 0.094366016033275 
1747	 9.45962586302511E-02 
1748	 0.092533199440603 
1749	 9.15828197596619E-02 
1750	 9.05210931743636E-02 
1751	 8.99160446583887E-02 
1752	 8.99830938961855E-02 
1753	 8.98850520202025E-02 
1754	 8.98406333722385E-02 
1755	 8.95889488987463E-02 
1756	 8.95676431994003E-02 
1757	 8.83489890279593E-02 
1758	 8.74179284536015E-02 
1759	 8.52741352620953E-02 
1760	 8.25084198244628E-02 
1761	 8.33836226908402E-02 
1762	 8.51864071498811E-02 
1763	 8.60794766868578E-02 
1764	 8.89821166407216E-02 
1765	 8.99684201397705E-02 
1766	 8.64271144648889E-02 
1767	 8.51381100664366E-02 
1768	 8.56006357125086E-02 
1769	 8.46428520283412E-02 
1770	 8.68457572450358E-02 
1771	 8.63948552723885E-02 
1772	 8.03792975839968E-02 
1773	 7.85650872060689E-02 
1774	 7.96608158142346E-02 
1775	 8.41968544815161E-02 
1776	 8.59263393006689E-02 
1777	 8.15740423297354E-02 
1778	 8.01098469317989E-02 
1779	 8.06909205482149E-02 
1780	 7.92612966731298E-02 
1781	 7.89584599109583E-02 
1782	 7.69500658459706E-02 
1783	 7.04894618228069E-02 
1784	 6.88712432071061E-02 
1785	 6.76900249718373E-02 
1786	 7.20779575945551E-02 
1787	 8.74770398935162E-02 
1788	 8.74903554594831E-02 
1789	 8.15816187778467E-02 
1790	 7.37300496572996E-02 
1791	 6.76975739992412E-02 
1792	 7.98309859924831E-02 
1793	 9.41616428922649E-02 
1794	 8.83493839794271E-02 
1795	 7.50545512457432E-02 
1796	 6.40334734663968E-02 
1797	 0.054235910328972 
1798	 5.84673017716757E-02 
1799	 6.60205779129963E-02 
1800	 8.49047687969513E-02 
1801	 0.104173522624867 
1802	 0.169578160765752 
1803	 0.190693034235502 
1804	 0.131987670559806 
1805	 0.111925361023182 
1806	 6.47403255841979E-02 
1807	 0.012700745904243 
1808	-0.100037020537356 
1809	-0.134766131366815 
1810	 9.26562672196371E-04 
1811	 4.45114880035632E-02 
1812	 0.326014760288937 
1813	 0.534592381146122 
1814	 0.555252038119369 
1815	 0.50083764044514 
1816	 0.453577917650864 
1817	-0.569496856885208 
1818	 8.47971347676709 
1819	 3.51856977233017 
1820	 0.162843364617899 
1821	 0.123224711415835 
1822	 0.212869803801484 
1823	 1.51261251142666E-02 
1824	 3.04162561608147E-02 
1825	 0.946446174255325 
1826	 2.80173652224084 
1827	-0.4687980670073 
1828	-0.260194906286715 
1829	-0.29967750903834 
1830	 8.76191695569572E-02 
1831	-0.953574597649653 
1832	-7.93836121643541E-02 
1833	 0.570084020499482 
1834	 0.631336774702859 
1835	 0.836862134480013 
1836	 0.918637747310832 
1837	 0.731277058227593 
1838	 1.10706242896297 
1839	-9.23763656475367 
1840	 3.90697204475883 
1841	 3.22987942122911 
1842	-11.929903650947 
1843	-55.7684447988083 
1844	 3.72930864341385 
1845	 3.46635790527793 
1846	 2.35129275422779 
1847	 2.40892617548499 
1848	 4.03684468457383 
1849	-12.7178584245993 
1850	-2.29559594514409 
1851	-0.627162448558227 
1852	-0.329995692954347 
1853	-8.82599832802832E-02 
1854	-0.104611600110673 
1855	-0.554554021800768 
1856	-0.68100926498677 
1857	-1.05771576209519 
1858	-1.38457293472755 
1859	-2.6944887934128 
1860	 2.67360166951039 
1861	 1.09425555128911 
1862	 0.565513234781639 
1863	 0.407421416069426 
1864	 0.504565439015571 
1865	 0.667881588714971 
1866	 0.991166970001613 
1867	 1.04880108991135 
1868	 1.44167059535825 
1869	 1.48220318284885 
1870	 0.677152922618459 
1871	 0.945732120848223 
1872	 1.71589811718546 
1873	 2.08744951388822 
1874	 9.44050272560723 
1875	-5.16531739578173 
1876	-2.01090631099395 
1877	-0.967316567204787 
1878	 0.8404044648774 
1879	 0.520182013275248 
1880	 0.177559521890535 
1881	 5.98801483984757E-02 
1882	-7.24737257974457E-02 
1883	-0.653122791813648 
1884	-1.08497880372592 
1885	-0.991241300313883 
1886	-2.03589966126042 
1887	-2.35105188383977 
1888	-2.74386210640867 
1889	-1.51731729861523 
1890	 1.05077701551924 
1891	 2.17155647788917 
1892	 3.36745717152474 
1893	 0.512154371532118 
1894	-0.149776347520662 
1895	-3.83464311055611 
1896	-0.882093013606312 
1897	-0.43914823860479 
1898	-0.840284100973461 
1899	-6.81670428445818E-02 
1900	 0.781425054343737 
1901	-11.507698169892 
1902	-5.02381589196419 
1903	-7.00862369498471 
1904	-3.82602969935934 
1905	-3.6221064535196 
1906	-2.18071863396455 
1907	-1.30613103138022 
1908	-3.24571867501468 
1909	-0.990751561866533 
1910	-0.257439516346581 
1911	-7.35015731720652 
1912	 1.56276971474309 
1913	 1.11957491731222 
1914	 1.62664257322962 
1915	 1.72600837712218 
1916	 1.74114058173005 
1917	 2.47610477190072 
1918	 128.267143485504 
1919	-2.10815619255792 
1920	 9.13752706249615 
1921	 0.239381236856467 
1922	 1.97914737485048E-02 
1923	-0.111776912830581 
1924	-2.77237777311828E-02 
1925	 2.36519802184558E-02 
1926	 1.69189318270826E-02 
1927	-0.131627102460973 
1928	-3.18872948367878 
1929	-0.185218885894059 
1930	 0.225910636233007 
1931	 0.319098475073015 
1932	 1.95274765044032 
1933	-0.634117780579545 
1934	-9.78509092429393E-02 
1935	 3.65051587919294E-02 
1936	-3.57640810023201 
1937	-18.6723794038221 
1938	 3.39202817292232 
1939	 10.0967100772853 
1940	-4.05566081543584 
1941	-1.44263021425542 
1942	-0.890147589873519 
1943	-0.918259105787224 
1944	-1.05565624314497 
1945	-2.08481267105477 
1946	-4.90049147603827 
1947	-2.62630652293516 
1948	-1.78800565773531 
1949	-0.890971140382567 
1950	-0.730106048702694 
1951	-1.3031836885651 
1952	-1.63069984149371 
1953	-2.31485280450394 
1954	-2.20336706550275 
1955	-1.21731713548678 
1956	-0.454762374203946 
1957	-9.60374574845763E-02 
1958	-0.117266430045449 
1959	-0.168041291568565 
1960	-0.161886284600889 
1961	-6.13188251428967E-02 
1962	 0.052247520874499 
1963	 8.65462820935142E-02 
1964	 6.36833960829462E-02 
1965	 2.17419253096606E-02 
1966	 1.68237281101984E-02 
1967	 0.014697206022801 
1968	 3.31056197918695E-02 
1969	 1.24115739075233E-02 
1970	 1.81061480182316E-02 
1971	 3.01135571381414E-02 
1972	 1.03092617948089E-02 
1973	 3.97960530801467E-02 
1974	 5.57474790614357E-02 
1975	 5.61080689634034E-02 
1976	 0.056295829866676 
1977	 5.30716764130089E-02 
1978	 6.35176362826922E-02 
1979	 5.07923329729665E-02 
1980	 1.97807292367574E-02 
1981	-1.92661676892471E-03 
1982	-9.75901400643732E-03 
1983	-2.16189210513919E-02 
1984	-2.24344635314078E-02 
1985	-1.26006129449921E-02 
1986	 2.20175182975724E-03 
1987	 1.11018013814354E-03 
1988	 1.15121700196483E-03 
1989	 4.65417343928792E-03 
1990	-1.76305847363755E-02 
1991	-3.61818090020935E-02 
1992	-3.46337568571166E-02 
1993	-3.20373846347858E-02 
1994	-2.87806201010613E-02 
1995	-0.01570708648266 
1996	 2.8436136380038E-03 
1997	 3.13485463858048E-03 
1998	 2.9316825591608E-03 
1999	 1.67560107950343E-02 
2000	 0.022941148993121 
2001	 0.033722063087363 
2002	 5.51633970415787E-02 
2003	 7.74122728288666E-02 
2004	 9.52262947355089E-02 
2005	 0.103865415812261 
2006	 9.79537442994787E-02 
2007	 8.56300580115643E-02 
2008	 0.067424585386311 
2009	 0.064547728799409 
2010	 0.081797430651974 
2011	 8.68086678199616E-02 
2012	 9.31572649289728E-02 
2013	 9.58204487358643E-02 
2014	 7.86264170980533E-02 
2015	 5.10931246299995E-02 
2016	 0.028044128077239 
2017	 2.95574798522716E-02 
2018	 3.11722154153665E-02 
2019	 4.40890549180245E-02 
2020	 6.18065075339341E-02 
2021	 4.60727710816008E-02 
2022	 3.99116144960146E-02 
2023	 2.99118310751634E-02 
2024	 2.28096154679571E-02 
2025	 1.27140017738019E-02 
2026	 1.43927742278455E-02 
2027	 2.05559888729022E-02 
2028	 2.76565783300225E-02 
2029	 3.04750261958123E-02 
2030	 3.11227378818365E-02 
2031	 3.14379652498909E-02 
2032	 2.66491617909248E-02 
2033	 2.99693300934049E-02 
2034	 3.73772946435132E-02 
2035	 3.47847653931492E-02 
2036	 3.26530486499977E-02 
2037	 3.14527525778939E-02 
2038	 2.36176427306066E-02 
2039	 2.04862807715013E-02 
2040	 2.01830237058466E-02 
2041	 2.02957026710052E-02 
2042	 2.31703056268738E-02 
2043	 2.47481588571606E-02 
2044	 2.86152187971674E-02 
2045	 2.73569320499512E-02 
2046	 2.00745281743053E-02 
2047	 2.39767067623268E-02 
2048	 2.53059114475836E-02 
2049	 2.71128341231554E-02 
2050	 4.30235270408354E-02 
2051	 4.12335120503487E-02 
2052	 3.33310176569539E-02 
2053	 4.15291519751401E-02 
2054	 4.14244942541172E-02 
2055	 3.45301329089035E-02 
2056	 3.20891801953992E-02 
2057	 2.84477636200879E-02 
2058	 2.65958630537704E-02 
2059	 2.94050991647035E-02 
2060	 3.14916416501717E-02 
2061	 3.39313393309989E-02 
2062	 3.28036297534012E-02 
2063	 4.44162018872852E-02 
2064	 5.21856441018114E-02 
2065	 5.44876840406409E-02 
2066	 5.64786407995163E-02 
2067	 4.93068651272105E-02 
2068	 3.58350096797273E-02 
2069	 2.79834240372227E-02 
2070	 3.00355738283051E-02 
2071	 2.94573811596474E-02 
2072	 2.83567749423865E-02 
2073	 0.030989014744263 
2074	 3.85217205363593E-02 
2075	 3.91035004458087E-02 
2076	 3.91703836043278E-02 
2077	 3.80798852068607E-02 
2078	 3.08641602960823E-02 
2079	 2.93063722868243E-02 
2080	 2.91581979736426E-02 
2081	 3.22183652941312E-02 
2082	 3.63463392511207E-02 
2083	 4.20692093188807E-02 
2084	 0.045747045176597 
2085	 4.54513797808425E-02 
2086	 4.62116581243377E-02 
2087	 4.17713474300218E-02 
2088	 3.73481428246238E-02 
2089	 3.62126796051748E-02 
2090	 3.07113812553429E-02 
2091	 2.91581787285977E-02 
2092	 2.96285230594724E-02 
2093	 3.21518140246854E-02 
2094	 3.30219316976939E-02 
2095	 3.60995658871181E-02 
2096	 3.79458984056702E-02 
2097	 3.88386845247413E-02 
2098	 3.96487006355552E-02 
2099	 0.041197590497791 
2100	 4.16273829352859E-02 
2101	 4.23209587738735E-02 
2102	 4.02366621791906E-02 
2103	 3.64562513254294E-02 
2104	 3.32563944079153E-02 
2105	 3.35607232484096E-02 
2106	 3.38510129587857E-02 
2107	 3.41616221330124E-02 
2108	 3.84834485844626E-02 
2109	 4.14321306943448E-02 
2110	 4.26708543560174E-02 
2111	 4.69746858412095E-02 
2112	 0.048448339477092 
2113	 4.69696964761871E-02 
2114	 3.99541412207928E-02 
2115	 3.79932600292426E-02 
2116	 3.36272546874193E-02 
2117	 3.35821977730802E-02 
2118	 4.03788658994268E-02 
2119	 4.19781294144465E-02 
2120	 4.26319400722069E-02 
2121	 0.043127005251276 
2122	 4.29007254595831E-02 
2123	 0.042109860370609 
2124	 3.90682140218164E-02 
2125	 4.13243036807687E-02 
2126	 4.34065091822975E-02 
2127	 3.92896642546581E-02 
2128	 4.09011873730684E-02 
2129	 4.50910782541096E-02 
2130	 4.89775239080436E-02 
2131	 5.27470318745325E-02 
2132	 5.36423618875182E-02 
2133	 5.41925243742104E-02 
2134	 5.45058553969665E-02 
2135	 5.44746264522865E-02 
2136	 5.34118800329405E-02 
2137	 5.13766709401449E-02 
2138	 5.02487692336456E-02 
2139	 0.046605167372046 
2140	 4.53992159129433E-02 
2141	 4.79002848510593E-02 
2142	 4.74392512933258E-02 
2143	 0.044821999502783 
2144	 4.63623031047382E-02 
2145	 4.52666048191682E-02 
2146	 4.38176877570991E-02 
2147	 4.77188970196562E-02 
2148	 4.93180138699754E-02 
2149	 0.04569636865938 
2150	 4.29019121326987E-02 
2151	 3.91950970184437E-02 
2152	 3.76487760026354E-02 
2153	 4.29588076630344E-02 
2154	 4.65121539520321E-02 
2155	 4.78417867909795E-02 
2156	 4.69041812595587E-02 
2157	 4.45075027355643E-02 
2158	 3.82390897498352E-02 
2159	 3.69071772542293E-02 
2160	 3.52156739635406E-02 
2161	 3.64037319882065E-02 
2162	 0.040727225394363 
2163	 4.63343876375371E-02 
2164	 5.82726016527879E-02 
2165	 6.14206073302482E-02 
2166	 6.20368622043644E-02 
2167	 0.061123161388887 
2168	 5.07409169024135E-02 
2169	 4.65169453333263E-02 
2170	 4.44304012683482E-02 
2171	 4.59423173795204E-02 
2172	 4.64042098586137E-02 
2173	 4.73334100276918E-02 
2174	 4.78494030397364E-02 
2175	 0.050622158352321 
2176	 5.43608102864057E-02 
2177	 5.29369102982996E-02 
2178	 0.051608084477174 
2179	 4.96061588884116E-02 
2180	 4.50428583820531E-02 
2181	 4.41814449915222E-02 
2182	 4.29473605214333E-02 
2183	 4.25279526384525E-02 
2184	 5.33212177642644E-02 
2185	 6.42672591224614E-02 
2186	 6.53066195440051E-02 
2187	 6.24058810780171E-02 
2188	 6.25591539638824E-02 
2189	 5.26815875374516E-02 
2190	 5.06876141343336E-02 
2191	 5.67174234028937E-02 
2192	 6.10921702153599E-02 
2193	 6.56807809495714E-02 
2194	 6.75732326699575E-02 
2195	 7.35687308398397E-02 
2196	 0.073700755264127 
2197	 6.47295590389707E-02 
2198	 6.24270936850732E-02 
2199	 6.32821666917918E-02 
2200	 0.059182706472059 
2201	 5.70731510634241E-02 
2202	 5.63726594594287E-02 
2203	 0.051806568756103 
2204	 5.53731918436928E-02 
2205	 7.02346080754043E-02 
2206	 7.21026706989714E-02 
2207	 6.20537186039862E-02 
2208	 6.04832256205166E-02 
2209	 5.82804022220545E-02 
2210	 5.44570841069941E-02 
2211	 5.96138263672137E-02 
2212	 6.32185128685039E-02 
2213	 5.74045353959186E-02 
2214	 5.84684557620145E-02 
2215	 0.069237914111533 
2216	 7.27962079153978E-02 
2217	 6.84932756761047E-02 
2218	 5.61105724208331E-02 
2219	 5.08541233393403E-02 
2220	 3.93771277965242E-02 
2221	 3.71443403838107E-02 
2222	 5.06026975259985E-02 
2223	 5.02970690934855E-02 
2224	 3.80892800268218E-02 
2225	 3.39954876657208E-02 
2226	 2.95978838114482E-02 
2227	 0.027954593985875 
2228	 3.15597603864887E-02 
2229	 3.84268197909519E-02 
2230	 0.051800538745416 
2231	 5.51521821795378E-02 
2232	 5.38395040476287E-02 
2233	 5.72724716247128E-02 
2234	 5.80892500799196E-02 
2235	 5.64456538294521E-02 
2236	 6.04215283812968E-02 
2237	 6.53703876931418E-02 
2238	 0.061651364769103 
2239	 6.18605991443767E-02 
2240	 6.57563176563472E-02 
2241	 6.70749520093604E-02 
2242	 7.12729743828858E-02 
2243	 6.33917389081024E-02 
2244	 5.19849950015232E-02 
2245	 5.62041805483757E-02 
2246	 5.87170104330064E-02 
2247	 5.88347005599437E-02 
2248	 5.89936246509988E-02 
2249	 6.02685233342948E-02 
2250	 6.80878535739001E-02 
2251	 7.17061052408765E-02 
2252	 6.59927034701835E-02 
2253	 5.89173582008978E-02 
2254	 4.48526185072442E-02 
2255	 2.99022690136206E-02 
2256	 3.15951441825017E-02 
2257	 3.02117207392905E-02 
2258	 2.80624036382234E-02 
2259	 3.25310558275948E-02 
2260	 3.52653352322514E-02 
2261	 4.08296201812419E-02 
2262	 4.79265607801335E-02 
2263	 5.60047282229772E-02 
2264	 6.21677875483533E-02 
2265	 7.39407649246444E-02 
2266	 7.43238023538702E-02 
2267	 5.98171681185937E-02 
2268	 5.76271639121097E-02 
2269	 5.73302250274902E-02 
2270	 5.38884337743832E-02 
2271	 6.05162477901766E-02 
2272	 6.15413859642247E-02 
2273	 5.27395874376338E-02 
2274	 4.98055379099701E-02 
2275	 0.047164531275416 
2276	 4.68995212691639E-02 
2277	 4.99802489202759E-02 
2278	 5.06833928767996E-02 
2279	 5.35561149027437E-02 
2280	 5.65940965403564E-02 
2281	 5.80807235974518E-02 
2282	 5.90818001188962E-02 
2283	 5.86256774500708E-02 
2284	 5.81786169411942E-02 
2285	 6.13511996039828E-02 
2286	 6.18228245131932E-02 
2287	 5.87383301340342E-02 
2288	 5.20771968534728E-02 
2289	 3.88018960251077E-02 
2290	 3.37174805691861E-02 
2291	 3.72613743274992E-02 
2292	 0.04729532484888 
2293	 6.79989396652142E-02 
2294	 0.069676797101761 
2295	 5.75607589848988E-02 
2296	 4.70299012382039E-02 
2297	 0.027652098761277 
2298	 2.48130491514913E-02 
2299	 4.77247801179922E-02 
2300	 6.62613031076198E-02 
2301	 6.30022011586263E-02 
2302	 4.17448089855037E-02 
2303	 2.79515897570302E-02 
2304	 2.47670878878116E-02 
2305	 2.81453438847137E-02 
2306	 6.31027092129457E-02 
2307	 8.65058784299011E-02 
2308	 8.95187553235945E-02 
2309	 0.098378367668684 
2310	 8.15080001456479E-02 
2311	 6.61383581586904E-02 
2312	 5.60139622391626E-02 
2313	 2.68223101555969E-02 
2314	 1.43710764160845E-02 
2315	 2.74359648771056E-02 
2316	 3.89020745369235E-02 
2317	 4.74162481683038E-02 
2318	 8.04577363087396E-02 
2319	 7.90767608343184E-02 
2320	 2.95197772528496E-02 
2321	 3.81670337672777E-02 
2322	 5.42876615835393E-02 
2323	 2.33485970865199E-02 
2324	 2.28040897619739E-02 
2325	 2.88706327896047E-02 
2326	-8.20043450651975E-03 
2327	-3.92634723521735E-02 
2328	-2.77923246212467E-02 
2329	-6.45550606080936E-02 
2330	-0.103325902975761 
2331	-5.71051589170296E-02 
2332	-4.84582765727765E-02 
2333	-1.98479867801712E-02 
2334	 4.92461775172462E-02 
2335	 7.92707843051701E-02 
2336	 9.05258479682894E-02 
2337	 0.115394236853232 
2338	 0.16026417734068 
2339	 0.177770648478938 
2340	 0.191902915079456 
2341	 0.184165444320816 
2342	 0.134255230662444 
2343	 0.102946664413869 
2344	 0.067411814131102 
2345	 2.42601908948107E-02 
2346	 2.47222640618348E-02 
2347	 3.29407743065177E-02 
2348	 5.84371668891011E-02 
2349	 0.106135285549671 
2350	 0.143810437138788 
2351	 0.119699275247576 
2352	 8.16364101209158E-02 
2353	 0.143272928175759 
2354	 0.19294192619202 
2355	 0.191508912182836 
2356	 0.251692031433098 
2357	 0.190144964714981 
2358	 0.059452716748643 
2359	 7.30466258515784E-02 
2360	 0.11597470062538 
2361	 0.144853339499733 
2362	 0.199075608039759 
2363	 0.117734855527397 
2364	-0.013055236920244 
2365	-2.79879833709994E-02 
2366	-1.94153766783259E-02 
2367	 2.14125576183574E-02 
2368	 0.11918786974652 
2369	 0.125969321441248 
2370	 4.60198134598755E-02 
2371	 6.90930960165235E-02 
2372	 0.1496445483091 
2373	 0.162631039494081 
2374	 0.141009054550781 
2375	 7.56626848998349E-02 
2376	-1.86920296162292E-04 
2377	-2.51051910196288E-02 
2378	 0.109232385462113 
2379	 0.160805386779999 
2380	 0.115675252033185 
2381	 4.65609378509935E-02 
2382	-0.203683826973454 
2383	-0.165158632860276 
2384	-0.105959104972716 
2385	-0.108027050657724 
2386	 0.149193439357191 
2387	 0.423196014917379 
2388	 0.592663134266564 
2389	 0.811922164004072 
2390	 0.607926542065169 
2391	 0.379581973544989 
2392	 0.200936976008347 
2393	-0.277688209647365 
2394	-0.520490057568129 
2395	-0.615484521754763 
2396	-0.565276899688533 
2397	-0.310586690401781 
2398	-0.189097039531752 
2399	 4.3250157722612E-04 
2400	 0.300192966294134 
2401	 0.486727134080278 
2402	 0.515973555597585 
2403	 0.348963740581259 
2404	 0.436864998537917 
2405	 0.188800142297217 
2406	-0.172722423051746 
2407	-0.672797314193285 
2408	-2.21328091234151 
2409	-5.63731032804996 
2410	-9.1702390104563 
2411	-1.45680643024123 
2412	-1.1292002186831 
2413	-0.233877095388412 
2414	 1.17197542735156 
2415	 1.42018850302557 
2416	 1.10763537721983 
2417	 1.35625697158997 
2418	 0.312506961431742 
2419	-1.75476409787805 
2420	-13.2854281223373 
2421	-4.71420846665369 
2422	-1.81256583884434 
2423	-0.986765859445219 
2424	-9.26328582520561E-02 
2425	 0.721259804978721 
2426	 5.53289360372011 
2427	 0.884686701760495 
2428	 11.4983942329077 
2429	-4.85043144075238 
2430	-5.16553209251129 
2431	-1.94867181708728 
2432	 0.018207464451437 
2433	-17.1191693989041 
2434	-0.802338908813549 
2435	-7.84419604410382E-02 
2436	 0.797473280782002 
2437	 1.39831134712253 
2438	 1.19706607396056 
2439	 1.46995083579237 
2440	 1.37318140081454 
2441	 0.288417958777008 
2442	-3.78331283722928E-02 
2443	-0.457471432455767 
2444	-0.351954888503562 
2445	-0.237102122484736 
2446	-0.213802337708063 
2447	-1.68352617447165E-02 
2448	-0.109068078618852 
2449	-0.345741123880134 
2450	-0.353530863891098 
2451	-0.420454880050399 
2452	 0.198160798787166 
2453	 1.5355727646657E-03 
2454	 0.283126973698352 
2455	 0.295516082757064 
2456	 5.89099756881535E-02 
2457	 7.61789332586574E-02 
2458	 0.333291402751402 
2459	 0.644278171457394 
2460	 0.692511388716335 
2461	 0.381003974205033 
2462	-0.241816766272211 
2463	-2.38131125867122 
2464	-2.50026649971286 
2465	-0.777757836571129 
2466	 1.01270546538526 
2467	 0.956027371864222 
2468	 0.404261261304828 
2469	-0.276457393320482 
2470	-0.266969549154297 
2471	-0.321894828603763 
2472	-0.477683525266981 
2473	-0.349153925305152 
2474	-0.608314786173709 
2475	-1.05175202338633 
2476	-0.962265217727788 
2477	-3.67589333640193 
2478	 1.65319547301831 
2479	 0.933921885987426 
2480	 7.2452977357592 
2481	-1.58075110998146 
2482	 0.197145554898446 
2483	 0.478256149256812 
2484	 1.1748045572475 
2485	 1.92869044200513 
2486	 1.50654711309748 
2487	 1.33969905626408 
2488	 0.992214164306213 
2489	 0.914278372855704 
2490	 0.454043965159412 
2491	 0.30448220758275 
2492	 0.521745402231958 
2493	 1.03753948201513 
2494	 1.30202087072456 
2495	 0.750262609140924 
2496	 0.618095273698477 
2497	-0.175129817746756 
2498	-0.206780018675696 
2499	-2.40097605523059 
2500	-2.32947066453515 
