Wavelength	rt0704rt200005.asd
350	 5.03372161010115E-02 
351	 5.05470479307534E-02 
352	 5.07229487903293E-02 
353	 5.08230069390936E-02 
354	 5.09390644009883E-02 
355	 5.18273461481099E-02 
356	 5.18984107261845E-02 
357	 5.18812369030986E-02 
358	 5.28033569411612E-02 
359	 5.36984333399323E-02 
360	 5.39677688974324E-02 
361	 5.39184576029563E-02 
362	 5.44007969883578E-02 
363	 5.51914543938017E-02 
364	 5.57634029998918E-02 
365	 5.59461792376273E-02 
366	 0.056140582501513 
367	 5.66298449888931E-02 
368	 5.71981425776885E-02 
369	 5.75761406597007E-02 
370	 5.78254644923464E-02 
371	 5.84417269854647E-02 
372	 5.92199046458615E-02 
373	 5.96105546206283E-02 
374	 6.01120965328948E-02 
375	 6.03313881030341E-02 
376	 6.04888108396473E-02 
377	 6.17084868911521E-02 
378	 6.23435213815672E-02 
379	 6.23268067333924E-02 
380	 6.22002023371463E-02 
381	 0.063100986324337 
382	 6.34873955622429E-02 
383	 6.33498683346403E-02 
384	 6.34537948283774E-02 
385	 6.40523375024015E-02 
386	 6.44387837615662E-02 
387	 6.45559997958834E-02 
388	 0.065120886540166 
389	 6.52535982560505E-02 
390	 6.51453028739213E-02 
391	 6.51177360746461E-02 
392	 6.52662532330408E-02 
393	 6.53468960991442E-02 
394	 6.54132500123042E-02 
395	 6.55412064337387E-02 
396	 6.52545781796012E-02 
397	 0.06512608646487 
398	 6.52827433211109E-02 
399	 6.54156481152159E-02 
400	 6.52495484761117E-02 
401	 6.50040901434222E-02 
402	 6.48843974282568E-02 
403	 6.49293180781431E-02 
404	 6.46653163708614E-02 
405	 0.06428044753854 
406	 6.41190238285316E-02 
407	 0.063809402085801 
408	 6.35842897399777E-02 
409	 6.34396506073408E-02 
410	 6.31234433427769E-02 
411	 6.28908259851182E-02 
412	 6.24543716886713E-02 
413	 6.17941211862155E-02 
414	 6.17927516387392E-02 
415	 6.15379237118124E-02 
416	 6.11430796735338E-02 
417	 6.10169206937654E-02 
418	 6.05939352962382E-02 
419	 6.02396306786611E-02 
420	 6.01075875993236E-02 
421	 6.00486297536147E-02 
422	 5.98224482998031E-02 
423	 5.95682016536896E-02 
424	 5.94477582223247E-02 
425	 5.94411776502808E-02 
426	 5.94711258796644E-02 
427	 5.94508100161312E-02 
428	 5.93378460163696E-02 
429	 5.93897867745269E-02 
430	 5.94945787973776E-02 
431	 5.95674306191219E-02 
432	 0.059602345910453 
433	 5.97765921709554E-02 
434	 0.059921804553167 
435	 5.99395928829114E-02 
436	 6.01986912791472E-02 
437	 6.02637561482688E-02 
438	 6.02141290942082E-02 
439	 6.03619216846685E-02 
440	 6.03408870581318E-02 
441	 6.03195912844759E-02 
442	 6.04006369948158E-02 
443	 6.05103583452096E-02 
444	 6.05103930150846E-02 
445	 6.04348242841378E-02 
446	 6.03653613569293E-02 
447	 6.03300889322708E-02 
448	 6.03930895202935E-02 
449	 6.04503882580103E-02 
450	 6.02974346324907E-02 
451	 6.01079629982443E-02 
452	 5.99411575613421E-02 
453	 5.98213563816664E-02 
454	 5.97476715445876E-02 
455	 5.96505878632983E-02 
456	 5.94546043281216E-02 
457	 5.91485275568031E-02 
458	 5.90298260595476E-02 
459	 5.89025013522694E-02 
460	 5.86726537315075E-02 
461	 5.83805549783015E-02 
462	 5.80836565668451E-02 
463	 5.78252018283178E-02 
464	 5.76326728130756E-02 
465	 5.75277019329621E-02 
466	 5.73193652647006E-02 
467	 5.71014147643858E-02 
468	 5.70567456161761E-02 
469	 5.68556226067579E-02 
470	 5.67034801044745E-02 
471	 5.66345381125392E-02 
472	 5.63911596737439E-02 
473	 5.62415995341898E-02 
474	 5.62316817975957E-02 
475	 5.62720344439487E-02 
476	 5.60011380696072E-02 
477	 5.59551049524289E-02 
478	 0.05607262103337 
479	 5.59266754451777E-02 
480	 5.60271873956561E-02 
481	 5.60316916510636E-02 
482	 5.58052329048008E-02 
483	 5.58605638870589E-02 
484	 5.59000957362813E-02 
485	 5.59698833308614E-02 
486	 5.61625277048424E-02 
487	 5.61664948473702E-02 
488	 5.62034398235836E-02 
489	 5.63785595742383E-02 
490	 5.66485313847398E-02 
491	 5.68694562983973E-02 
492	 5.70146422445568E-02 
493	 5.71493820799382E-02 
494	 0.05752430822824 
495	 5.78532382538917E-02 
496	 5.80793613597324E-02 
497	 5.82861913748115E-02 
498	 5.86398716804062E-02 
499	 5.89913402197079E-02 
500	 5.93127793621534E-02 
501	 5.98230146450241E-02 
502	 6.01160078670284E-02 
503	 6.03122680927905E-02 
504	 6.06141533528379E-02 
505	 6.08625577825419E-02 
506	 6.11163824309758E-02 
507	 6.14431538359969E-02 
508	 0.061892697079281 
509	 6.22107007829251E-02 
510	 6.25120615344653E-02 
511	 6.28848636730044E-02 
512	 6.32083530881687E-02 
513	 6.35490016960372E-02 
514	 6.39180783737534E-02 
515	 6.43131126875135E-02 
516	 6.48213032706737E-02 
517	 6.52889142425251E-02 
518	 0.065727800154043 
519	 6.63749994399661E-02 
520	 6.69702029021462E-02 
521	 0.067575139545053 
522	 6.82549752170631E-02 
523	 6.87729643319678E-02 
524	 6.94883273292829E-02 
525	 7.03722871125304E-02 
526	 7.11448615212009E-02 
527	 7.20766816952392E-02 
528	 7.31069459220034E-02 
529	 7.41702853919824E-02 
530	 7.52845179496604E-02 
531	 7.65639340732075E-02 
532	 7.79660964916663E-02 
533	 7.93846338096783E-02 
534	 8.07869177941475E-02 
535	 8.22313315343129E-02 
536	 8.37916948912076E-02 
537	 8.55424796417663E-02 
538	 8.73386756092942E-02 
539	 8.91417399723513E-02 
540	 9.09723811307073E-02 
541	 0.092963549343391 
542	 9.48775046639987E-02 
543	 9.67145776749638E-02 
544	 9.86250394258895E-02 
545	 0.100531210643617 
546	 0.102440696476919 
547	 0.104339381851072 
548	 0.106165942526104 
549	 0.107912661788737 
550	 0.109574254685577 
551	 0.111165372489844 
552	 0.112752402359922 
553	 0.114319406640934 
554	 0.115875727644567 
555	 0.117454146482717 
556	 0.119009101015498 
557	 0.120572712039123 
558	 0.122171737006633 
559	 0.123812329714585 
560	 0.12549064168438 
561	 0.127191694795626 
562	 0.128903703633393 
563	 0.130608823896439 
564	 0.132250738728546 
565	 0.133805518720428 
566	 0.135328388860902 
567	 0.13672715771107 
568	 0.138029422868636 
569	 0.139268992922491 
570	 0.140273867124676 
571	 0.141183114322926 
572	 0.142034201966268 
573	 0.14273181383716 
574	 0.143419212966763 
575	 0.144087487583489 
576	 0.144705757299308 
577	 0.145310069985645 
578	 0.145899544665118 
579	 0.146424426974542 
580	 0.146820009355618 
581	 0.147178036720184 
582	 0.147482926367167 
583	 0.147680700943266 
584	 0.147656673705638 
585	 0.147639592749312 
586	 0.147598423224459 
587	 0.147432154699115 
588	 0.147251445248733 
589	 0.147232522180447 
590	 0.147307839407919 
591	 0.147167263959267 
592	 0.147110993543098 
593	 0.147090585079987 
594	 0.146989854446879 
595	 0.146691840037898 
596	 0.146449116238935 
597	 0.146177434571074 
598	 0.145645792689649 
599	 0.145138233785976 
600	 0.144742060157756 
601	 0.1444771563434 
602	 0.144299979071364 
603	 0.144162205761719 
604	 0.144061908960756 
605	 0.144011937170414 
606	 0.144009422495546 
607	 0.143938748267615 
608	 0.143804293450697 
609	 0.143735936260885 
610	 0.143659151763413 
611	 0.143532246742456 
612	 0.143338380925654 
613	 0.143102850344943 
614	 0.142906041846759 
615	 0.142793731938423 
616	 0.142761369832527 
617	 0.142601151839398 
618	 0.142365375853766 
619	 0.142159268018064 
620	 0.14213843839099 
621	 0.141939815581009 
622	 0.14170700759329 
623	 0.141657800598344 
624	 0.141493836261602 
625	 0.141282961130793 
626	 0.14111850686849 
627	 0.141097393638531 
628	 0.141057372474875 
629	 0.141088712292967 
630	 0.141203890054278 
631	 0.141091186767907 
632	 0.140926966233683 
633	 0.140706353221893 
634	 0.140331913703721 
635	 0.139669878243922 
636	 0.139115967964498 
637	 0.138658784329527 
638	 0.13762513490424 
639	 0.136861331790828 
640	 0.1361225783396 
641	 0.135023239591817 
642	 0.133953075496154 
643	 0.132786395065652 
644	 0.131431566140213 
645	 0.12985701032613 
646	 0.12833383684108 
647	 0.126883318806879 
648	 0.125533744068084 
649	 0.124318476499035 
650	 0.123256521325996 
651	 0.122439582299257 
652	 0.121996606830024 
653	 0.121785312211102 
654	 0.121669686771536 
655	 0.121537879745705 
656	 0.121318540537368 
657	 0.121152169187205 
658	 0.120964118036369 
659	 0.120614593642679 
660	 0.119940191897448 
661	 0.118894166879343 
662	 0.117586229505696 
663	 0.116246599860428 
664	 0.114914534015562 
665	 0.11355808505582 
666	 0.112114738733578 
667	 0.110510761379671 
668	 0.109152851397514 
669	 0.10803401028604 
670	 0.10704011682782 
671	 0.106288439838897 
672	 0.105605430741607 
673	 0.105076084455056 
674	 0.10501760415196 
675	 0.105109675875919 
676	 0.105456401058998 
677	 0.106174784828661 
678	 0.107206947027719 
679	 0.108587433663487 
680	 0.110375031442072 
681	 0.112630283235666 
682	 0.115346816815805 
683	 0.118461295484223 
684	 0.121870345748448 
685	 0.125796872337816 
686	 0.1306512399237 
687	 0.135445908010391 
688	 0.139079323492649 
689	 0.14296111437465 
690	 0.146570386578441 
691	 0.149790365804674 
692	 0.152712424246501 
693	 0.155428072676347 
694	 0.157774862796098 
695	 0.159563511052978 
696	 0.160796878265116 
697	 0.161779296052326 
698	 0.162591950451018 
699	 0.163129751699189 
700	 0.163354193188968 
701	 0.163429006495219 
702	 0.163340863012997 
703	 0.162924929932596 
704	 0.162146344770062 
705	 0.161184934542196 
706	 0.160223183808003 
707	 0.159332053340261 
708	 0.157994275642074 
709	 0.156273626218481 
710	 0.15447114082331 
711	 0.152754373091349 
712	 0.150722371546213 
713	 0.148349545884736 
714	 0.145982121802499 
715	 0.143720627684801 
716	 0.141231419395239 
717	 0.138443246944626 
718	 0.13574029678433 
719	 0.133155116995923 
720	 0.131040372344107 
721	 0.129086064796353 
722	 0.126874945214908 
723	 0.124266862395425 
724	 0.121733941029248 
725	 0.11952348906591 
726	 0.117107296379114 
727	 0.114579571310881 
728	 0.112059474801932 
729	 0.10921323507178 
730	 0.106309462191203 
731	 0.103776355878965 
732	 0.101717574732892 
733	 9.99989085701779E-02 
734	 9.84129768334137E-02 
735	 9.69500621999631E-02 
736	 9.58162876142691E-02 
737	 9.49926439840107E-02 
738	 9.43524000628762E-02 
739	 9.38176559275123E-02 
740	 9.34994175922864E-02 
741	 9.32035854589803E-02 
742	 0.09300211475582 
743	 9.30234944704477E-02 
744	 9.27013274653686E-02 
745	 9.25458275356164E-02 
746	 9.26386419336905E-02 
747	 9.23543084290802E-02 
748	 9.23542873552261E-02 
749	 9.23724464437665E-02 
750	 9.21153280421769E-02 
751	 9.19923213966635E-02 
752	 9.18270936380172E-02 
753	 9.16631968294649E-02 
754	 9.16257390788024E-02 
755	 0.091462689106409 
756	 9.13940777795088E-02 
757	 9.14324618681057E-02 
758	 9.11679701523228E-02 
759	 9.11798858988313E-02 
760	 9.11060436795423E-02 
761	 0.090379486657904 
762	 9.02006141509949E-02 
763	 9.04790143139831E-02 
764	 9.08307529639903E-02 
765	 0.090958544402875 
766	 9.10799293185984E-02 
767	 9.11342600830798E-02 
768	 9.11657217550974E-02 
769	 9.13169002863031E-02 
770	 9.14239517116486E-02 
771	 9.15695469522344E-02 
772	 9.17879492346959E-02 
773	 9.18476074898909E-02 
774	 0.09192782977942 
775	 9.20863552520075E-02 
776	 9.23107266557932E-02 
777	 9.25040636006349E-02 
778	 9.27838942746841E-02 
779	 9.30525361795266E-02 
780	 9.30259667083104E-02 
781	 9.33179599463513E-02 
782	 9.37396481424852E-02 
783	 9.40757262441811E-02 
784	 9.44075192975613E-02 
785	 9.47479546860515E-02 
786	 9.50287579184568E-02 
787	 9.52059722842337E-02 
788	 0.09553535714982 
789	 9.59227527531583E-02 
790	 9.63286490262399E-02 
791	 9.67825735429071E-02 
792	 9.73303192389866E-02 
793	 9.77435176179247E-02 
794	 9.80022804537483E-02 
795	 9.84540405764976E-02 
796	 9.87288569431084E-02 
797	 9.89778595865926E-02 
798	 9.93943231583369E-02 
799	 9.97465279314843E-02 
800	 0.100029704890041 
801	 0.10028963461376 
802	 0.100591181054871 
803	 0.100849366001623 
804	 0.101013277334558 
805	 0.101119714904923 
806	 0.101281064279799 
807	 0.101369162618294 
808	 0.101195317686317 
809	 0.100732576682314 
810	 0.100414843140975 
811	 0.099994553298061 
812	 9.95446953939533E-02 
813	 9.92010173616517E-02 
814	 9.85398082563794E-02 
815	 9.77994992594565E-02 
816	 0.097360165903492 
817	 9.74056364836881E-02 
818	 9.66877358959567E-02 
819	 9.58627283907343E-02 
820	 9.51306291208177E-02 
821	 9.39855838506926E-02 
822	 0.092833785326235 
823	 9.16840199664951E-02 
824	 9.04711714182888E-02 
825	 8.91088263085494E-02 
826	 0.087367354893092 
827	 8.54410130057389E-02 
828	 8.38202298834703E-02 
829	 8.24362666931757E-02 
830	 8.13473884345715E-02 
831	 8.03380800143251E-02 
832	 0.079129578751477 
833	 7.82258948930246E-02 
834	 7.77743017372317E-02 
835	 7.75323477066733E-02 
836	 7.68920656307808E-02 
837	 0.076411477379675 
838	 7.61811133099182E-02 
839	 7.60536959457354E-02 
840	 7.55226652794593E-02 
841	 7.53326866481578E-02 
842	 7.52934760511143E-02 
843	 7.49518572345933E-02 
844	 7.43212899254821E-02 
845	 7.41647356115269E-02 
846	 7.42665851027315E-02 
847	 7.38251121631504E-02 
848	 7.33580735449785E-02 
849	 7.32302949450301E-02 
850	 7.32731194989452E-02 
851	 7.27237091167806E-02 
852	 7.25080709546393E-02 
853	 7.23962240463249E-02 
854	 7.21237969889239E-02 
855	 7.18872894978691E-02 
856	 7.14673969549549E-02 
857	 7.12331650349049E-02 
858	 7.14273083882174E-02 
859	 7.13395416033739E-02 
860	 0.070929206026802 
861	 7.03999505396587E-02 
862	 7.00941023360757E-02 
863	 7.03390522224273E-02 
864	 7.02364843883095E-02 
865	 6.97099250865962E-02 
866	 6.95020865016724E-02 
867	 6.96569553407272E-02 
868	 6.96288193995903E-02 
869	 6.91203438317501E-02 
870	 6.82909341057857E-02 
871	 6.81812517602686E-02 
872	 6.81631440266805E-02 
873	 6.77544030299038E-02 
874	 6.77002447852134E-02 
875	 6.71860360933745E-02 
876	 6.67236787306696E-02 
877	 6.68315536040045E-02 
878	 6.65103482626336E-02 
879	 6.61552016629536E-02 
880	 6.58484532761102E-02 
881	 6.55494001505436E-02 
882	 6.54603415486597E-02 
883	 6.51034997249048E-02 
884	 0.064484994344771 
885	 6.40044963988318E-02 
886	 6.37466683834872E-02 
887	 0.063630921282788 
888	 6.35393723965745E-02 
889	 0.063354458690187 
890	 0.063071615056593 
891	 6.28082028315551E-02 
892	 6.25752116875416E-02 
893	 6.21256636833035E-02 
894	 6.11291337125458E-02 
895	 6.06393066776639E-02 
896	 6.13211063202082E-02 
897	 6.09478333113116E-02 
898	 6.02308166138601E-02 
899	 5.98623499243413E-02 
900	 6.00776546036419E-02 
901	 5.97387016435133E-02 
902	 5.94834832630672E-02 
903	 5.92315238784318E-02 
904	 5.87896123440213E-02 
905	 5.89063341518445E-02 
906	 0.058225676771154 
907	 5.68073338797343E-02 
908	 5.59309518826518E-02 
909	 5.59259143218638E-02 
910	 5.64247503508006E-02 
911	 5.67246600753665E-02 
912	 5.60177390864162E-02 
913	 5.37060126123061E-02 
914	 5.34938595319208E-02 
915	 5.50536976697711E-02 
916	 5.35588942592473E-02 
917	 5.33222472687592E-02 
918	 5.36769961867295E-02 
919	 0.053470222012346 
920	 5.19806634720063E-02 
921	 0.052499175508836 
922	 5.27487875303172E-02 
923	 5.15143079622084E-02 
924	 5.22725585103355E-02 
925	 4.93254834339062E-02 
926	 0.047208288159302 
927	 5.06898007518047E-02 
928	 5.03029847075921E-02 
929	 4.82355682149488E-02 
930	 4.72876350253368E-02 
931	 5.01193602322945E-02 
932	 4.77057563265362E-02 
933	 3.78448372716693E-02 
934	 3.28960523847758E-02 
935	 4.34335142489927E-02 
936	 4.64268199766101E-02 
937	 4.38420683051969E-02 
938	 0.039432895116612 
939	 3.68451506209148E-02 
940	 3.91327263281393E-02 
941	 3.84992681492846E-02 
942	 3.61623356254129E-02 
943	 3.70004616912701E-02 
944	 3.68413791865149E-02 
945	 3.58955336658836E-02 
946	 3.57558255845775E-02 
947	 0.037435949901688 
948	 3.59641934103461E-02 
949	 3.39179211618558E-02 
950	 3.59560831613268E-02 
951	 4.31499151674051E-02 
952	 3.14987107852833E-02 
953	 2.98019448017312E-02 
954	 3.72033842343316E-02 
955	 0.034096667282932 
956	 0.033255580670262 
957	 3.45772412122212E-02 
958	 3.54384368218072E-02 
959	 3.35126857147421E-02 
960	 3.48486761440863E-02 
961	 3.49208147889202E-02 
962	 3.36460230507564E-02 
963	 3.40930746129229E-02 
964	 3.47333508635163E-02 
965	 3.61178926365591E-02 
966	 3.79090395385924E-02 
967	 3.87236817017756E-02 
968	 3.37248176027992E-02 
969	 3.35388148928946E-02 
970	 3.71109757688618E-02 
971	 3.43236766949337E-02 
972	 3.30357733442511E-02 
973	 3.41386787215813E-02 
974	 3.46191670016692E-02 
975	 3.03119136813289E-02 
976	 3.32573740662222E-02 
977	 3.59712040348419E-02 
978	 3.56790556153657E-02 
979	 3.56399705846338E-02 
980	 3.49343413236781E-02 
981	 3.68230049804455E-02 
982	 3.90939593221848E-02 
983	 3.64601044969902E-02 
984	 3.40782573135808E-02 
985	 0.034242462376513 
986	 3.48615324299284E-02 
987	 3.22616106037899E-02 
988	 3.41735566957454E-02 
989	 3.64556962681659E-02 
990	 3.61748639941349E-02 
991	 3.32807387274479E-02 
992	 3.32156665906337E-02 
993	 3.51435321171581E-02 
994	 3.75104794725166E-02 
995	 3.85726826036286E-02 
996	 0.035659256181694 
997	 3.55148779924009E-02 
998	 3.69316145057615E-02 
999	 3.48424669524102E-02 
1000	 3.46502794577946E-02 
1001	 3.54547307636166E-02 
1002	 3.58659168639033E-02 
1003	 0.035969752730062 
1004	 3.58032922240528E-02 
1005	 3.58891866583223E-02 
1006	 3.62163732003679E-02 
1007	 3.63905776497421E-02 
1008	 0.036976501309782 
1009	 3.75263698492387E-02 
1010	 3.75990319035273E-02 
1011	 3.79719635883278E-02 
1012	 3.82945697754238E-02 
1013	 3.78211514871723E-02 
1014	 3.78121225696432E-02 
1015	 3.82421311083779E-02 
1016	 0.038335572768835 
1017	 3.80714482070398E-02 
1018	 3.81646643316147E-02 
1019	 3.83661727396628E-02 
1020	 3.83761542174503E-02 
1021	 3.83831787954604E-02 
1022	 3.86571738816904E-02 
1023	 3.84580664080867E-02 
1024	 3.86521593298256E-02 
1025	 3.88047199650474E-02 
1026	 3.87664325270509E-02 
1027	 3.90017942777821E-02 
1028	 3.93897783402654E-02 
1029	 3.94828591307709E-02 
1030	 0.039666538761671 
1031	 3.97374112807181E-02 
1032	 3.92948537881894E-02 
1033	 3.94886004058164E-02 
1034	 3.99291213547667E-02 
1035	 4.04799272289291E-02 
1036	 0.041686044234732 
1037	 4.23310834184266E-02 
1038	 4.27265769739275E-02 
1039	 0.043265973691271 
1040	 4.34823752437344E-02 
1041	 4.33035785672471E-02 
1042	 4.29788415093439E-02 
1043	 4.21479020483742E-02 
1044	 4.21488357713967E-02 
1045	 4.22033115846099E-02 
1046	 4.23629741506632E-02 
1047	 4.33081171657517E-02 
1048	 4.35958570795307E-02 
1049	 4.36196783739153E-02 
1050	 4.34725813480633E-02 
1051	 4.27012696252519E-02 
1052	 4.26466798759301E-02 
1053	 4.27553647964758E-02 
1054	 4.28876732998862E-02 
1055	 0.043741457663558 
1056	 4.42112354246957E-02 
1057	 0.044502761711135 
1058	 4.44519712216808E-02 
1059	 4.45575838530574E-02 
1060	 4.45894240387775E-02 
1061	 0.044700812815936 
1062	 0.044862757815097 
1063	 4.49074579992206E-02 
1064	 4.49591672578686E-02 
1065	 4.49477447307187E-02 
1066	 4.48155378721195E-02 
1067	 4.46984461186917E-02 
1068	 4.47627468323832E-02 
1069	 4.44879003998676E-02 
1070	 4.33532046567842E-02 
1071	 4.32157709072971E-02 
1072	 0.043746416278796 
1073	 4.39833076575859E-02 
1074	 4.39803119430897E-02 
1075	 4.44656122916165E-02 
1076	 0.044626137155921 
1077	 4.39877112270866E-02 
1078	 4.39396033506654E-02 
1079	 0.044464152613585 
1080	 4.47049209307619E-02 
1081	 4.50475816790247E-02 
1082	 0.044850189287781 
1083	 4.43633171889871E-02 
1084	 4.39677210248134E-02 
1085	 4.28380797186923E-02 
1086	 0.042279770529864 
1087	 4.21323632671471E-02 
1088	 4.21261811659403E-02 
1089	 4.26767566433215E-02 
1090	 0.042676541119091 
1091	 4.27822603201536E-02 
1092	 4.32192198182622E-02 
1093	 4.28931446296601E-02 
1094	 4.18486088717296E-02 
1095	 4.14856132024142E-02 
1096	 4.09887640300379E-02 
1097	 4.07137182538214E-02 
1098	 4.09816908516685E-02 
1099	 4.08676716027277E-02 
1100	 4.04365677337428E-02 
1101	 4.01756095697308E-02 
1102	 4.01084447236404E-02 
1103	 3.99408206826871E-02 
1104	 3.96639748998426E-02 
1105	 3.94864928990566E-02 
1106	 3.97118871877803E-02 
1107	 3.96520924303626E-02 
1108	 4.00712259095585E-02 
1109	 3.99531237616875E-02 
1110	 3.97806762821906E-02 
1111	 3.90091695157394E-02 
1112	 3.91184741278949E-02 
1113	 3.97776013178398E-02 
1114	 4.01185969045813E-02 
1115	 4.09562225059811E-02 
1116	 4.14939353674441E-02 
1117	 4.23737075576049E-02 
1118	 4.16968903408364E-02 
1119	 3.89981279883149E-02 
1120	 3.69508781440269E-02 
1121	 3.31748360194131E-02 
1122	 0.022841988099453 
1123	 2.17678498289755E-02 
1124	 3.32970673029742E-02 
1125	 4.01541493010709E-02 
1126	 0.04617342899723 
1127	 6.46487006239807E-02 
1128	 6.18978882782731E-02 
1129	 5.00264542371414E-02 
1130	 2.78091545498015E-02 
1131	 2.47926215691977E-02 
1132	 1.53583990712636E-02 
1133	 1.77710919199389E-02 
1134	 3.91816636342891E-02 
1135	 4.00077016770377E-02 
1136	 0.030491949978181 
1137	 2.93026431469449E-02 
1138	 2.48264549038219E-02 
1139	 2.54301581898742E-02 
1140	 3.14617583221681E-02 
1141	 3.53892149475767E-02 
1142	 3.77644453220046E-02 
1143	 3.68157516027489E-02 
1144	 0.035812152006579 
1145	 3.90275013700625E-02 
1146	 4.19050748619881E-02 
1147	 4.30569676238746E-02 
1148	 0.039272919650792 
1149	 3.50167000632209E-02 
1150	 3.35790104528919E-02 
1151	 3.05586325262609E-02 
1152	 2.97242208480823E-02 
1153	 3.19350326752078E-02 
1154	 3.22408468108119E-02 
1155	 3.11868001221324E-02 
1156	 3.25822248800558E-02 
1157	 3.21475147949949E-02 
1158	 3.15671116170285E-02 
1159	 3.08333382464273E-02 
1160	 0.02872858309971 
1161	 2.74576708137247E-02 
1162	 2.77291571096166E-02 
1163	 2.86069235823085E-02 
1164	 2.93126414570254E-02 
1165	 2.96510551432036E-02 
1166	 2.95531357207708E-02 
1167	 2.94472871702066E-02 
1168	 2.89350421951231E-02 
1169	 0.028080898520707 
1170	 2.79278693933517E-02 
1171	 0.027994908215009 
1172	 0.028172651621106 
1173	 2.80343691414729E-02 
1174	 2.82291258541506E-02 
1175	 2.81352536838068E-02 
1176	 2.74885316520484E-02 
1177	 2.71998277395962E-02 
1178	 2.75160173478754E-02 
1179	 2.77848642746976E-02 
1180	 2.83295860550496E-02 
1181	 2.84143964972676E-02 
1182	 2.76720046261742E-02 
1183	 2.75633634666469E-02 
1184	 2.78338569984604E-02 
1185	 2.82168136421768E-02 
1186	 2.88663618754485E-02 
1187	 2.90602386988667E-02 
1188	 2.88781919024084E-02 
1189	 0.02844698631465 
1190	 2.80348011294955E-02 
1191	 0.027874328803848 
1192	 2.78889994422601E-02 
1193	 2.80524804163685E-02 
1194	 2.79572983583787E-02 
1195	 2.77169356807111E-02 
1196	 2.81638826088073E-02 
1197	 2.82890392936935E-02 
1198	 2.80753384192737E-02 
1199	 2.85741360294457E-02 
1200	 2.86845261714628E-02 
1201	 2.85232327079534E-02 
1202	 2.87021804631285E-02 
1203	 2.83334291198951E-02 
1204	 2.78645441556455E-02 
1205	 2.78652696487332E-02 
1206	 0.027814037015983 
1207	 2.79519625163838E-02 
1208	 0.028305189308608 
1209	 2.84379646320216E-02 
1210	 2.87195518418071E-02 
1211	 2.89923599456625E-02 
1212	 2.88466389131969E-02 
1213	 2.87844512208805E-02 
1214	 2.89183709364488E-02 
1215	 2.90250808107068E-02 
1216	 0.029158664954191 
1217	 2.92974156212193E-02 
1218	 2.94659637903803E-02 
1219	 2.92911302319068E-02 
1220	 2.87000651334977E-02 
1221	 2.86322819558723E-02 
1222	 2.88221546439782E-02 
1223	 2.90098832191699E-02 
1224	 0.029502311236341 
1225	 3.00460780930613E-02 
1226	 3.01553299494485E-02 
1227	 2.94462546550535E-02 
1228	 2.90001335781465E-02 
1229	 2.92291398052014E-02 
1230	 2.88496709031621E-02 
1231	 2.85661104008378E-02 
1232	 2.91955956449831E-02 
1233	 2.91638070072806E-02 
1234	 2.89393250367092E-02 
1235	 2.90158744257991E-02 
1236	 2.92861656531503E-02 
1237	 2.93153877408477E-02 
1238	 2.92829937196183E-02 
1239	 2.95855309277181E-02 
1240	 2.93104743502815E-02 
1241	 2.89467184819063E-02 
1242	 0.028977592911591 
1243	 0.028975348679572 
1244	 0.028969425837001 
1245	 2.95512938916379E-02 
1246	 2.97398946813213E-02 
1247	 2.92500230003542E-02 
1248	 2.92417916796562E-02 
1249	 2.95636211019167E-02 
1250	 2.95281860401867E-02 
1251	 2.91005743313273E-02 
1252	 2.91354779693318E-02 
1253	 2.96341677708245E-02 
1254	 2.96132333740242E-02 
1255	 2.95873132353167E-02 
1256	 2.96541670072808E-02 
1257	 2.95354636942557E-02 
1258	 2.92815310414398E-02 
1259	 0.028974377108823 
1260	 2.91193048903608E-02 
1261	 2.92899517799951E-02 
1262	 2.94776276291741E-02 
1263	 2.99841269828488E-02 
1264	 3.06879020026789E-02 
1265	 3.04375831327399E-02 
1266	 2.99630442997467E-02 
1267	 2.95674171569132E-02 
1268	 0.029301381886887 
1269	 2.95710609580936E-02 
1270	 2.94684225234553E-02 
1271	 2.93206492197341E-02 
1272	 2.95701544364829E-02 
1273	 2.88300673404524E-02 
1274	 2.84362914362804E-02 
1275	 0.029181542176318 
1276	 2.93729618883924E-02 
1277	 2.94132099542982E-02 
1278	 2.98538960199561E-02 
1279	 2.97233141211214E-02 
1280	 2.87779318156515E-02 
1281	 2.84814652239264E-02 
1282	 2.87855794637426E-02 
1283	 2.88022043531822E-02 
1284	 2.88133871156218E-02 
1285	 2.88891609420754E-02 
1286	 2.88198811095972E-02 
1287	 2.88816273004809E-02 
1288	 2.91322094437497E-02 
1289	 2.92927354366583E-02 
1290	 2.95077469173712E-02 
1291	 0.029808002845865 
1292	 2.94885459871855E-02 
1293	 2.86989810695943E-02 
1294	 2.83912445813319E-02 
1295	 0.027853018789898 
1296	 0.027586887541175 
1297	 2.79854617503332E-02 
1298	 2.77598996302202E-02 
1299	 2.72216705193885E-02 
1300	 2.71814668972601E-02 
1301	 0.027191191918332 
1302	 2.70937616125869E-02 
1303	 2.74728793137755E-02 
1304	 2.79179857255395E-02 
1305	 0.027880094021732 
1306	 2.77982151190476E-02 
1307	 2.75144777339484E-02 
1308	 2.73628817087522E-02 
1309	 2.67422405163618E-02 
1310	 0.026948414476715 
1311	 2.81077891585886E-02 
1312	 2.82434681338157E-02 
1313	 2.85814156939901E-02 
1314	 2.83882698359422E-02 
1315	 2.66389663839912E-02 
1316	 0.026082956762302 
1317	 2.59497679268874E-02 
1318	 2.59509067653734E-02 
1319	 2.67592747027721E-02 
1320	 2.71460817917636E-02 
1321	 0.028144736393554 
1322	 2.77519327986958E-02 
1323	 2.54445622587547E-02 
1324	 2.47826874927669E-02 
1325	 2.54932353047493E-02 
1326	 2.57803703092621E-02 
1327	 2.68215599457651E-02 
1328	 2.81343200313045E-02 
1329	 2.78140883419911E-02 
1330	 0.026792497417846 
1331	 2.49967256261377E-02 
1332	 2.39732525653267E-02 
1333	 2.38304283584388E-02 
1334	 2.27604998738764E-02 
1335	 2.19027328035927E-02 
1336	 2.38751890022148E-02 
1337	 2.33548780857532E-02 
1338	 0.019018378391379 
1339	 0.018463371834191 
1340	 0.021475713760984 
1341	 2.19974498607051E-02 
1342	 2.04716478579254E-02 
1343	 2.18001132842709E-02 
1344	 2.80814599931285E-02 
1345	 2.80606855461049E-02 
1346	 2.23205942441545E-02 
1347	 2.19789950019488E-02 
1348	 1.59776745375522E-02 
1349	 9.49738118334088E-03 
1350	 1.85261175384018E-02 
1351	 3.02157578617518E-02 
1352	 4.04760613408441E-02 
1353	 3.84583522849794E-02 
1354	 2.86340194271631E-03 
1355	 4.77223086744041E-02 
1356	 0.032936019157194 
1357	-0.161355402079601 
1358	-0.20013235915268 
1359	-0.181185551609977 
1360	-0.220944468612868 
1361	-0.109580060130156 
1362	 8.17033983071148E-02 
1363	 8.18452417105823E-02 
1364	-8.64342215763808E-04 
1365	 9.30989935322422E-03 
1366	-0.347155159503237 
1367	-0.732625951570822 
1368	-0.78975263257127 
1369	-0.50581581779574 
1370	-0.461594195942325 
1371	-0.372951143118374 
1372	-0.272385986234504 
1373	 0.161933089152081 
1374	-9.96426819038009E-02 
1375	-22.353348597764 
1376	-6.49581237445574 
1377	-7.91657913287695E-02 
1378	-8.53480858967492E-02 
1379	 0.270506701313976 
1380	 0.353002160581552 
1381	-5.69089321890138E-02 
1382	-0.282872026705531 
1383	-0.183707951472762 
1384	-0.234087163718711 
1385	-2.92299306444845 
1386	 19.3310587061865 
1387	-1.46845601849167 
1388	-0.966532862496733 
1389	-1.80186507632774 
1390	-1.81950782437443 
1391	-1.40407900252398 
1392	-1.20969585526474 
1393	-1.19678173741905 
1394	-0.972603844275139 
1395	 1.08504320302382 
1396	-107.710209339211 
1397	-10.9963415390217 
1398	 1.46595077115161 
1399	 0.784299501410431 
1400	-26.0636017766749 
1401	-1.80136812894797 
1402	-2.34959393382697 
1403	-3.29459740720329 
1404	 5.11565227422245 
1405	 2.77963568114368 
1406	 0.655997719672384 
1407	 0.16450536981406 
1408	-0.896477268719393 
1409	-0.396038160109952 
1410	 0.336828479311552 
1411	 0.360159926877473 
1412	 0.579678747054074 
1413	 0.743393943432553 
1414	 0.625181362671201 
1415	-0.064294850431663 
1416	 0.191108772813038 
1417	 0.329601171677575 
1418	 0.240686504298533 
1419	 0.251753489255912 
1420	 0.69774878608006 
1421	 0.695216411422425 
1422	 0.441661661870618 
1423	 0.315807691720131 
1424	 0.199993873055754 
1425	 0.09165607838925 
1426	-8.81216364825256E-02 
1427	-0.105011401233404 
1428	 0.011795162849052 
1429	 2.18273645635127E-02 
1430	 3.58732744712702E-02 
1431	 2.72582041718379E-02 
1432	-7.92473366032768E-02 
1433	-0.115069770645517 
1434	-9.90063213482772E-02 
1435	-9.75919853338491E-02 
1436	-8.90523895637437E-02 
1437	-3.71737950062004E-02 
1438	-4.12999493621818E-02 
1439	-4.91289679405238E-02 
1440	-9.93975605143774E-03 
1441	-1.79140035090136E-02 
1442	 1.26864656820153E-02 
1443	 5.81865763266673E-02 
1444	 7.14071975653657E-02 
1445	 7.26227055110202E-02 
1446	 2.02030417895626E-02 
1447	-0.018084300489067 
1448	 4.27904019730515E-03 
1449	 7.57531600249117E-03 
1450	-2.49994042545108E-03 
1451	 1.17473144154733E-02 
1452	 1.93470276115533E-02 
1453	 1.56658002051915E-02 
1454	 1.79122789754031E-02 
1455	 3.29266502868017E-02 
1456	 3.69326075757287E-02 
1457	 3.51703983931718E-02 
1458	 2.87319327012368E-02 
1459	 2.00146115911764E-02 
1460	 1.56215949831946E-02 
1461	 3.54290288030891E-03 
1462	-3.92054266093903E-03 
1463	-3.43031705867029E-03 
1464	-2.36122202326283E-03 
1465	-8.85394322546893E-03 
1466	-4.54685028198906E-03 
1467	 1.94951774927847E-02 
1468	 2.28018990969056E-02 
1469	 1.44308650451072E-02 
1470	 1.87453125865876E-02 
1471	 2.58022614418389E-02 
1472	 2.08651330669999E-02 
1473	 0.01286837980999 
1474	 1.42833975197946E-02 
1475	 9.71452360099248E-03 
1476	 7.84827136987563E-03 
1477	 1.83744374722292E-02 
1478	 2.03178582229755E-02 
1479	 1.45362688099679E-02 
1480	 1.27732697326167E-02 
1481	 1.10064373562468E-02 
1482	 1.11479953521986E-02 
1483	 1.22401750743286E-02 
1484	 0.012338225703367 
1485	 1.67913892167638E-02 
1486	 1.59816078054575E-02 
1487	 8.87301968885428E-03 
1488	 8.09951379652998E-03 
1489	 9.10764798418765E-03 
1490	 8.94184779866302E-03 
1491	 1.16911162573233E-02 
1492	 0.012218923607358 
1493	 8.77025874715125E-03 
1494	 8.70292287240341E-03 
1495	 1.16285913154389E-02 
1496	 1.19512233836693E-02 
1497	 1.24079191299453E-02 
1498	 1.22944949376984E-02 
1499	 9.03034620069867E-03 
1500	 8.54425438392971E-03 
1501	 1.00523910191398E-02 
1502	 1.05792303768479E-02 
1503	 1.28247258571217E-02 
1504	 1.33411718554112E-02 
1505	 1.22108524604088E-02 
1506	 0.01072490452985 
1507	 1.24302593727713E-02 
1508	 1.29189215062424E-02 
1509	 1.20854138375103E-02 
1510	 0.013143833167738 
1511	 0.013125792758622 
1512	 1.18204693612927E-02 
1513	 0.012151256623166 
1514	 0.013045492543225 
1515	 1.38451816938676E-02 
1516	 1.45974796630729E-02 
1517	 1.43029037112183E-02 
1518	 1.44787789911962E-02 
1519	 1.49023579942338E-02 
1520	 1.38751969939677E-02 
1521	 1.36112779335836E-02 
1522	 1.42397285430891E-02 
1523	 0.013537331815504 
1524	 0.012557092302431 
1525	 1.25766811284724E-02 
1526	 1.29636993078477E-02 
1527	 1.31607906156284E-02 
1528	 1.31583660140915E-02 
1529	 1.35129402516363E-02 
1530	 0.013942085406806 
1531	 1.36687287999054E-02 
1532	 1.38259476411827E-02 
1533	 1.39791320161436E-02 
1534	 0.013468653204914 
1535	 1.39104356793601E-02 
1536	 1.48679716642252E-02 
1537	 1.52064869324217E-02 
1538	 0.0149335076002 
1539	 1.47019848204575E-02 
1540	 1.46496323066493E-02 
1541	 1.47365973112238E-02 
1542	 1.48859183099744E-02 
1543	 0.014577626572086 
1544	 1.46770299091292E-02 
1545	 1.52883969819996E-02 
1546	 0.015528749405142 
1547	 1.51721231899209E-02 
1548	 0.014830581117967 
1549	 0.015202327209953 
1550	 1.55464928190857E-02 
1551	 1.57007770803037E-02 
1552	 1.65168164552563E-02 
1553	 0.016731144323997 
1554	 1.59569746383273E-02 
1555	 1.59942428109669E-02 
1556	 1.62968503537839E-02 
1557	 1.60335254453301E-02 
1558	 1.56434156193375E-02 
1559	 0.015723333659283 
1560	 1.61171912766092E-02 
1561	 1.58265139124329E-02 
1562	 1.56085104030863E-02 
1563	 1.61430387041077E-02 
1564	 0.016263807383723 
1565	 1.64752885214025E-02 
1566	 1.71906091553236E-02 
1567	 0.017089147009394 
1568	 1.70326370819914E-02 
1569	 1.75185451647017E-02 
1570	 1.76609911139277E-02 
1571	 1.75745383649225E-02 
1572	 0.017376626205661 
1573	 1.70454730582029E-02 
1574	 1.71467000554306E-02 
1575	 1.78592456856251E-02 
1576	 1.79210172412626E-02 
1577	 1.73920816682973E-02 
1578	 0.017737206904761 
1579	 1.80334477881555E-02 
1580	 1.75682655248453E-02 
1581	 0.017759589443166 
1582	 1.83091675393172E-02 
1583	 1.82883393883345E-02 
1584	 1.82445127572496E-02 
1585	 1.85623596355652E-02 
1586	 1.86986762451294E-02 
1587	 0.018335889141076 
1588	 1.80360503702863E-02 
1589	 1.77408773121564E-02 
1590	 1.71034071565156E-02 
1591	 1.70099905854389E-02 
1592	 1.80482352600098E-02 
1593	 1.89071554104675E-02 
1594	 1.86220050092634E-02 
1595	 1.82248029833872E-02 
1596	 1.81512587716498E-02 
1597	 1.81623222999914E-02 
1598	 1.82574011328695E-02 
1599	 1.81570923729683E-02 
1600	 1.80825161240923E-02 
1601	 1.81127444550547E-02 
1602	 1.81675219695266E-02 
1603	 1.86555348947138E-02 
1604	 1.91256063079626E-02 
1605	 1.93258804650532E-02 
1606	 1.97364443534607E-02 
1607	 1.96490314828187E-02 
1608	 1.94105917249396E-02 
1609	 1.99104720465106E-02 
1610	 2.00803861386907E-02 
1611	 1.98634554537883E-02 
1612	 2.00151274037232E-02 
1613	 1.93927345832231E-02 
1614	 1.89432673836143E-02 
1615	 0.020144658884122 
1616	 2.07262050259242E-02 
1617	 2.02275738243988E-02 
1618	 1.97495122705425E-02 
1619	 1.91389004795276E-02 
1620	 1.89845089028955E-02 
1621	 1.96914198977485E-02 
1622	 1.99220339467116E-02 
1623	 1.93787487885058E-02 
1624	 1.91694779137708E-02 
1625	 1.88992311270207E-02 
1626	 1.87396622609015E-02 
1627	 1.86138697984913E-02 
1628	 1.82844291288012E-02 
1629	 1.87136585002741E-02 
1630	 1.87080056626264E-02 
1631	 1.85283376803245E-02 
1632	 1.90264494164734E-02 
1633	 1.84031128262308E-02 
1634	 1.79660702318649E-02 
1635	 1.85853679816367E-02 
1636	 1.83320724232685E-02 
1637	 1.83017781412947E-02 
1638	 1.94472549636987E-02 
1639	 1.98268772136075E-02 
1640	 1.96063756460422E-02 
1641	 1.94559902395283E-02 
1642	 1.87896332337775E-02 
1643	 1.88317405574875E-02 
1644	 1.98151573994437E-02 
1645	 0.020725873599613 
1646	 2.06532106623032E-02 
1647	 1.99754474052797E-02 
1648	 2.02406439156662E-02 
1649	 2.05663340527494E-02 
1650	 2.00174913268645E-02 
1651	 1.97051677813667E-02 
1652	 1.93520028171305E-02 
1653	 1.84481741652926E-02 
1654	 1.88293500371206E-02 
1655	 2.08307859720022E-02 
1656	 2.09834687077841E-02 
1657	 2.03430724273309E-02 
1658	 2.04243146068873E-02 
1659	 2.02390183208119E-02 
1660	 2.04490177119389E-02 
1661	 2.14004991788752E-02 
1662	 2.14281035403992E-02 
1663	 2.08346356703212E-02 
1664	 2.06998949116775E-02 
1665	 2.02723654487028E-02 
1666	 2.01527073859868E-02 
1667	 0.020603487187541 
1668	 2.05121508682726E-02 
1669	 2.07806307769871E-02 
1670	 2.00036172906928E-02 
1671	 1.88797641641268E-02 
1672	 1.88880835213232E-02 
1673	 1.91796667319431E-02 
1674	 1.97453260397722E-02 
1675	 2.03256702030524E-02 
1676	 0.020135477368553 
1677	 1.99155983736613E-02 
1678	 0.020593530413903 
1679	 2.08081022078907E-02 
1680	 1.96776471035144E-02 
1681	 1.88157585220237E-02 
1682	 1.87761038300748E-02 
1683	 1.88339981023786E-02 
1684	 1.95660337946811E-02 
1685	 2.01295627651331E-02 
1686	 2.00336087286485E-02 
1687	 0.020312446484636 
1688	 2.00301179738958E-02 
1689	 1.96692994022839E-02 
1690	 2.05039176878943E-02 
1691	 2.06750767010741E-02 
1692	 1.98839212464523E-02 
1693	 2.03350051897011E-02 
1694	 2.00158642015465E-02 
1695	 1.92784485207202E-02 
1696	 2.06128025264434E-02 
1697	 2.10998304741542E-02 
1698	 2.03143934197867E-02 
1699	 1.94089203478927E-02 
1700	 1.91764302822258E-02 
1701	 1.96641905083299E-02 
1702	 1.93066012388699E-02 
1703	 1.94593816814682E-02 
1704	 1.94865292921498E-02 
1705	 0.018568432444253 
1706	 1.88875980006576E-02 
1707	 1.92678644730777E-02 
1708	 1.84842977865348E-02 
1709	 1.78389663426478E-02 
1710	 1.80654100028706E-02 
1711	 1.82551040782888E-02 
1712	 1.80605439388131E-02 
1713	 1.96346680147836E-02 
1714	 1.99951905119899E-02 
1715	 0.019921503889787 
1716	 2.07767682007701E-02 
1717	 1.96058335049949E-02 
1718	 1.84843355779335E-02 
1719	 1.85302513918544E-02 
1720	 1.85420624140955E-02 
1721	 1.96030987390613E-02 
1722	 1.94687125655889E-02 
1723	 1.88484681738143E-02 
1724	 1.96723267438549E-02 
1725	 1.85715208095477E-02 
1726	 1.82243907365307E-02 
1727	 1.93685339782978E-02 
1728	 1.80372583719424E-02 
1729	 1.72226437340032E-02 
1730	 1.87438446415504E-02 
1731	 1.86780678973861E-02 
1732	 0.018117515858399 
1733	 1.97947825368837E-02 
1734	 1.97431402276502E-02 
1735	 1.84982326666346E-02 
1736	 1.94697537891708E-02 
1737	 0.019153955966219 
1738	 1.89596026339795E-02 
1739	 2.02135648976328E-02 
1740	 1.88574939196408E-02 
1741	 1.80178526399219E-02 
1742	 1.76419906146199E-02 
1743	 1.57794821435866E-02 
1744	 1.62960930875532E-02 
1745	 0.016475571176679 
1746	 1.65918150482867E-02 
1747	 1.67031394635966E-02 
1748	 1.54091954374856E-02 
1749	 1.52488052558946E-02 
1750	 1.59699367424095E-02 
1751	 1.62489784491429E-02 
1752	 1.75721481879163E-02 
1753	 1.79143186243753E-02 
1754	 1.68556031148151E-02 
1755	 1.59798922956984E-02 
1756	 1.43431573372096E-02 
1757	 1.42293137326894E-02 
1758	 1.56064852922139E-02 
1759	 1.65772356661116E-02 
1760	 0.017992136960182 
1761	 1.77967009440789E-02 
1762	 1.52060358541797E-02 
1763	 1.43634344417186E-02 
1764	 1.55147095850993E-02 
1765	 1.59201339102401E-02 
1766	 1.81609496652328E-02 
1767	 1.98957611254047E-02 
1768	 1.65617336830619E-02 
1769	 1.52829344392707E-02 
1770	 1.74488301668913E-02 
1771	 1.78698658939621E-02 
1772	 0.017930063836695 
1773	 1.78455691749064E-02 
1774	 1.62591383701726E-02 
1775	 0.015973479230209 
1776	 1.49676012419113E-02 
1777	 1.15474907922904E-02 
1778	 1.18590517426498E-02 
1779	 1.74010096115061E-02 
1780	 1.69129902953855E-02 
1781	 1.35712687331759E-02 
1782	 1.39833243915604E-02 
1783	 9.61042449052781E-03 
1784	 7.6014415049471E-03 
1785	 1.61222057536397E-02 
1786	 1.62033313472686E-02 
1787	 7.48348002776604E-03 
1788	 5.65709273164092E-03 
1789	 3.13346823241336E-03 
1790	 2.17022204534801E-03 
1791	 6.8621489443306E-03 
1792	 2.71792888065367E-03 
1793	 1.59933691971742E-02 
1794	 2.33813513060111E-02 
1795	 1.32676791063891E-02 
1796	 2.73242501044226E-02 
1797	 3.94234512767676E-02 
1798	 0.046420235055291 
1799	 6.68762534387397E-02 
1800	 4.66219492094565E-02 
1801	 2.31385644604045E-02 
1802	-4.71957480808181E-02 
1803	-7.35756842055641E-02 
1804	-5.52164137825722E-02 
1805	-0.038166097177375 
1806	 0.109687838741552 
1807	 0.217668488272427 
1808	 0.321353311476199 
1809	 0.41785656514697 
1810	 0.322005601586477 
1811	 0.152160300441887 
1812	-0.206606955136409 
1813	-0.204458287047498 
1814	 7.49561026329824E-02 
1815	-9.93407616130296E-03 
1816	-0.142031038932874 
1817	-2.76111083412261 
1818	 10.710702388623 
1819	 0.542627976129533 
1820	 4.10960526659836 
1821	 1.27279283779368 
1822	 1.10216967608407 
1823	 0.391999798898076 
1824	 0.319228172881487 
1825	 1.13371882223913 
1826	 2.80608569793599 
1827	-1.31576573659887 
1828	-0.628152048906172 
1829	 0.781319440351647 
1830	 2.82393619154896 
1831	 2.09763404061206 
1832	 0.788312498736598 
1833	 0.935761461484289 
1834	 0.845088293075199 
1835	 0.737213536472934 
1836	 0.716124141004898 
1837	 0.624958383071189 
1838	 0.302369685341998 
1839	 0.515907360519007 
1840	-2.24672840240522 
1841	-1.60614356941504 
1842	 2.34256416316053 
1843	 5.78906884322309 
1844	 0.950122355958584 
1845	 0.801798924718389 
1846	 0.131065234908858 
1847	-3.22720365901641E-02 
1848	-0.848710620660727 
1849	 4.48379294981436 
1850	 0.675688447301053 
1851	 0.374719887672812 
1852	 0.33589905974916 
1853	 0.481647370549257 
1854	 0.324790997066334 
1855	 0.1233598844302 
1856	 3.25921368848358E-02 
1857	-0.570311269897011 
1858	-1.04622524439016 
1859	-1.31341983451997 
1860	 6.22692038559067 
1861	 3.45276556384982 
1862	 0.715765690421836 
1863	 0.679091135622024 
1864	 0.586945908646556 
1865	 0.511160764076152 
1866	 0.58697321477956 
1867	 0.508866904107047 
1868	-9.37010201921134E-02 
1869	-0.163670683217963 
1870	 0.12394145035861 
1871	 0.216192938023027 
1872	 1.98965988420013E-02 
1873	 0.294666731888427 
1874	 1.1582770566834 
1875	 0.892733438726951 
1876	 0.486180417768373 
1877	-4.46580793114145 
1878	 8.54573614818362 
1879	 1.0211220493519 
1880	 0.671178370904104 
1881	 0.717104180787513 
1882	 0.431474818473437 
1883	 0.50214943172031 
1884	 2.05110100917708 
1885	 1.26795013930977 
1886	 2.00224576384063 
1887	 3.81792134727311 
1888	 4.1689818039953 
1889	 2.91431517328869 
1890	 1.5374115312812 
1891	 1.06612187958941 
1892	 0.196841379468623 
1893	-0.39265498714436 
1894	-1.90695861408992 
1895	 7.44542383477628 
1896	 1.23013378928186 
1897	 1.78631503948786 
1898	 2.29591386201173 
1899	 6.56242329280838E-02 
1900	 0.202387189333436 
1901	-12.6407316712075 
1902	-4.37352079126927 
1903	-2.930118381806 
1904	-1.7748972930164 
1905	-2.36506324617724 
1906	 0.205642942834372 
1907	 1.04016408776788 
1908	-0.434652434286232 
1909	-0.601863389674971 
1910	 0.304803721602341 
1911	 1.29119255607693 
1912	 0.584467210276887 
1913	 0.512667457409913 
1914	 0.763189845864044 
1915	 0.693446131987974 
1916	 0.510908158912508 
1917	-0.210228557380155 
1918	-39.8526960482123 
1919	 0.609869465972834 
1920	 0.993635789616957 
1921	-0.186231223171296 
1922	-0.171963354290239 
1923	-0.19563738034464 
1924	-0.156113843738973 
1925	-0.12867295389846 
1926	-0.174292414037238 
1927	-0.363149513090673 
1928	-1.04955896162805 
1929	-0.10130166040939 
1930	 0.208893522513592 
1931	-2.26879218889938E-02 
1932	 0.375959939270738 
1933	-2.15820107517056 
1934	 0.598758858952642 
1935	 2.22719757112478 
1936	-9.33127124453645 
1937	 10.80456035926 
1938	 1.98827541866284 
1939	 8.33862157242404 
1940	-4.50751483230795 
1941	-0.516841729939162 
1942	-0.22223383709632 
1943	-0.309430642387882 
1944	-5.10529701765122E-02 
1945	 0.12676514233487 
1946	 0.261455614066657 
1947	 0.21951622325665 
1948	 0.47126017889836 
1949	 0.827954072495678 
1950	 0.530819032669198 
1951	 0.32238265287427 
1952	 0.355817784005741 
1953	 0.390818959990928 
1954	-0.453048786065716 
1955	-2.18798579010857E-02 
1956	 0.335498469519349 
1957	 4.27613140669445E-02 
1958	-2.10579527947906E-03 
1959	-7.32581292374296E-02 
1960	-0.113618217129207 
1961	-7.01361054829188E-02 
1962	-1.51629778935392E-02 
1963	-0.01529658725983 
1964	 3.95250289151361E-02 
1965	 0.114270325227475 
1966	 0.118736566380093 
1967	 9.29398931727933E-02 
1968	 9.76697702696544E-02 
1969	 5.30592887784315E-02 
1970	 2.54202308251008E-02 
1971	 2.27260795250727E-02 
1972	-5.54142355557924E-03 
1973	-8.27750164747463E-04 
1974	-2.29449796962094E-03 
1975	-3.08474362546313E-03 
1976	-2.11896898060901E-03 
1977	-1.00532101527801E-02 
1978	-1.73852007137742E-02 
1979	-1.74783084583549E-02 
1980	-1.71570627878927E-02 
1981	-8.57320981011321E-03 
1982	-1.44636890508183E-03 
1983	 9.36774564928166E-03 
1984	 9.23119289642821E-03 
1985	 5.7798811215277E-03 
1986	 7.3907940437879E-03 
1987	-6.86307338607574E-03 
1988	-1.80616019411208E-02 
1989	-3.00047598172853E-02 
1990	-3.02049022356627E-02 
1991	-1.44723315668629E-02 
1992	-6.55633439755387E-03 
1993	 5.37174266981134E-04 
1994	 9.63744803707144E-04 
1995	-1.03940137129341E-02 
1996	-2.85726552777299E-02 
1997	-0.045828096389652 
1998	-0.058357206507731 
1999	-6.16418531146453E-02 
2000	-8.40850319109936E-02 
2001	-0.112740600397601 
2002	-0.125158153480865 
2003	-0.126275125656196 
2004	-0.11187560288598 
2005	-7.39047106824553E-02 
2006	-4.86252825097621E-02 
2007	-6.15766226559991E-02 
2008	-8.26310412909825E-02 
2009	-0.077163092857812 
2010	-5.73400300090595E-02 
2011	-4.03920788295163E-02 
2012	-1.08755460936709E-02 
2013	 1.90959280776885E-02 
2014	 3.16217373109595E-02 
2015	 8.53091323813244E-03 
2016	-1.21419943159104E-02 
2017	-9.18897215125798E-03 
2018	-0.01047695341645 
2019	-8.37931123216216E-03 
2020	-2.97709625170789E-03 
2021	-8.77054752928842E-03 
2022	-0.016625857397666 
2023	-0.017189334530421 
2024	-1.36689287460728E-02 
2025	-3.37380070190031E-03 
2026	-5.71566925104212E-05 
2027	 3.31123378300159E-03 
2028	 4.94996577092436E-03 
2029	 5.40772303920134E-03 
2030	 5.91474809476639E-03 
2031	 3.75262950841431E-03 
2032	 3.91698075110204E-03 
2033	 2.02830737825733E-03 
2034	-7.55572829950364E-04 
2035	 4.14857463339216E-03 
2036	 8.12491010504755E-03 
2037	 1.21092464127549E-02 
2038	 1.56290427734609E-02 
2039	 0.013307577998579 
2040	 2.68229335181218E-03 
2041	-4.38282834668861E-03 
2042	-1.65774870943146E-02 
2043	-1.65068898804095E-02 
2044	-1.14672358589292E-02 
2045	-1.11975680505258E-03 
2046	 9.04999064212847E-03 
2047	 3.54334250894174E-03 
2048	 2.40253170274855E-03 
2049	 3.50588384927779E-03 
2050	 7.54234602567693E-03 
2051	 6.3175417469686E-03 
2052	 4.97784817620306E-03 
2053	 4.41106166690273E-03 
2054	 8.73439044533315E-04 
2055	 1.38704041326474E-02 
2056	 2.05634890331259E-02 
2057	 2.55152256565381E-02 
2058	 2.88155759028489E-02 
2059	 2.86630997899522E-02 
2060	 3.36992457326065E-02 
2061	 4.62164948969276E-02 
2062	 3.97917570962771E-02 
2063	 3.54425477239149E-02 
2064	 2.96866665454412E-02 
2065	 8.25416495233555E-03 
2066	-3.9052688040441E-03 
2067	-8.16837784606072E-03 
2068	-1.51907079965391E-02 
2069	-0.023207426647012 
2070	-2.77664002850758E-02 
2071	-2.44733090703555E-02 
2072	-2.03322784342972E-02 
2073	-1.67351410413629E-02 
2074	-5.48314911655488E-03 
2075	-5.11005555084037E-04 
2076	-1.87888978438437E-03 
2077	-1.57312673674231E-03 
2078	-1.14863327369362E-03 
2079	-1.61694298441878E-03 
2080	-5.85357319220644E-03 
2081	-1.01239273018088E-03 
2082	 4.94901393989304E-04 
2083	 2.62709233164488E-04 
2084	-2.00026897630122E-03 
2085	-6.60906853095305E-03 
2086	-9.0756266270414E-03 
2087	-1.01658627759219E-02 
2088	-7.03484350968151E-03 
2089	-7.4481624172111E-03 
2090	-8.52202682993947E-03 
2091	-4.19221158063369E-03 
2092	-1.96219298266308E-03 
2093	 2.36343367676698E-03 
2094	 1.81054997150781E-03 
2095	-3.21796395330701E-03 
2096	-6.07111965959575E-03 
2097	-1.44499682604511E-02 
2098	-1.59999408869131E-02 
2099	-1.32423696222861E-02 
2100	-6.46884735692767E-03 
2101	-5.37564125481597E-04 
2102	 4.73992078713396E-03 
2103	 6.8713716262251E-03 
2104	 1.01342069587616E-02 
2105	 1.02550006938896E-02 
2106	 8.28198565226109E-03 
2107	 8.83688413652103E-03 
2108	 9.13669955357016E-03 
2109	 8.0393344332874E-03 
2110	 9.69778027070667E-03 
2111	 9.44009409935477E-03 
2112	 6.29068425316992E-03 
2113	 5.55303806143099E-03 
2114	 4.06307775233753E-03 
2115	 5.33845731225485E-03 
2116	 1.12755529937333E-02 
2117	 1.22429184612326E-02 
2118	 1.36582736180144E-02 
2119	 1.24713877875774E-02 
2120	 6.66133985686807E-03 
2121	 2.25693664859602E-03 
2122	-5.12013656801725E-04 
2123	 2.12051742718625E-03 
2124	 6.37876538654857E-03 
2125	 1.16124354693368E-02 
2126	 1.55963222343142E-02 
2127	 1.38836218634089E-02 
2128	 1.21740497859911E-02 
2129	 7.83060495821889E-03 
2130	 4.89792092153365E-03 
2131	 7.02487831437689E-03 
2132	 1.02256660354709E-02 
2133	 1.49639416817118E-02 
2134	 1.63984133328578E-02 
2135	 1.55541886047905E-02 
2136	 1.61535283584976E-02 
2137	 1.68907004978665E-02 
2138	 1.61973344854072E-02 
2139	 1.59144131059232E-02 
2140	 1.46879319449595E-02 
2141	 0.010032395413854 
2142	 7.30510861142789E-03 
2143	 5.13988549235673E-03 
2144	 4.94276235511165E-03 
2145	 1.81828003551929E-03 
2146	 1.33828122453082E-03 
2147	 3.11858763313443E-03 
2148	 7.82547241766139E-03 
2149	 1.49105054728524E-02 
2150	 1.77839643446301E-02 
2151	 1.16158567669449E-02 
2152	 1.78691967779434E-03 
2153	-2.49939879263729E-03 
2154	-7.50934825425333E-03 
2155	-1.00205620175944E-02 
2156	-2.95390569083187E-03 
2157	 2.00025290751102E-03 
2158	 8.71779260872597E-03 
2159	 1.02896579137106E-02 
2160	 0.0120160361495 
2161	 1.32164429840653E-02 
2162	 9.40171704226721E-03 
2163	 8.10084598313089E-03 
2164	 0.010907197701081 
2165	 9.68411474948859E-03 
2166	 5.03947144630403E-03 
2167	 1.32643864271274E-03 
2168	-7.23798417260942E-03 
2169	-8.94581047033878E-03 
2170	-8.64504617490847E-03 
2171	-3.31511546731565E-03 
2172	 2.87663160091434E-03 
2173	 1.08078417097695E-02 
2174	 1.50459800956958E-02 
2175	 1.12619854441728E-02 
2176	 7.24972125200492E-03 
2177	 5.89945424540087E-03 
2178	-2.36584779956395E-04 
2179	-4.6018254822133E-04 
2180	 4.11028857919331E-03 
2181	 6.58422535633459E-03 
2182	 1.18514306423664E-02 
2183	 0.013140369995022 
2184	 6.67041652594888E-03 
2185	 1.58197444903267E-03 
2186	 2.6673976042795E-05 
2187	-2.91047982288062E-03 
2188	-2.32159611468199E-03 
2189	 7.34520057586636E-03 
2190	 9.74256070594587E-03 
2191	 8.14071785558417E-03 
2192	 5.96287832989251E-03 
2193	-3.7080023672284E-04 
2194	-2.16028476973092E-03 
2195	-1.48140307611847E-03 
2196	 5.75812211079564E-04 
2197	 6.89629259087309E-03 
2198	 1.00589049638336E-02 
2199	 1.32432259010226E-02 
2200	 1.02715981448073E-02 
2201	 1.10684897745277E-02 
2202	 7.99048341159651E-03 
2203	 6.33290394930197E-03 
2204	 1.24475966644936E-02 
2205	 1.29924903904546E-02 
2206	 2.08006292515836E-02 
2207	 2.53581385927344E-02 
2208	 2.01615947921187E-02 
2209	 1.53629834591393E-02 
2210	 8.32038006183741E-03 
2211	 6.73646676973808E-03 
2212	 5.08076854698627E-03 
2213	 6.23477716144766E-03 
2214	 8.96237604586478E-03 
2215	 4.81641494213966E-03 
2216	-1.30215534983058E-03 
2217	-1.45105350451531E-03 
2218	 1.61290942468483E-03 
2219	 5.72176200925318E-03 
2220	 1.40203318673606E-02 
2221	 1.92002774595051E-02 
2222	 2.61839422103575E-02 
2223	 2.68844474644829E-02 
2224	 2.48569289577139E-02 
2225	 2.36321429731761E-02 
2226	 1.56289878374647E-02 
2227	 1.24082675069829E-02 
2228	 1.11347976614438E-02 
2229	 1.11561376866749E-02 
2230	 1.35916284886145E-02 
2231	 1.56626139061241E-02 
2232	 2.08432389710878E-02 
2233	 2.20997443919874E-02 
2234	 2.03781932913855E-02 
2235	 2.18108930755203E-02 
2236	 2.08821965512475E-02 
2237	 2.53771191055408E-02 
2238	 0.037093197420158 
2239	 3.78403231252508E-02 
2240	 3.40888722275208E-02 
2241	 3.05294120048836E-02 
2242	 0.013892832393841 
2243	 6.04073723747002E-03 
2244	 1.10029629750835E-02 
2245	 5.03764937893681E-03 
2246	 7.70412302339061E-03 
2247	 1.63069912771385E-02 
2248	 8.99505347060855E-03 
2249	 6.18745550271802E-03 
2250	 4.09864834366865E-03 
2251	 6.49548870900056E-04 
2252	 1.27246993801754E-03 
2253	-6.57449804708374E-03 
2254	-1.46103511225154E-02 
2255	-2.13265965647794E-02 
2256	-2.22520056834026E-02 
2257	-1.87536393155426E-02 
2258	-1.05267218479214E-02 
2259	 5.90340688202487E-03 
2260	 1.31471419046576E-02 
2261	 1.96514568574226E-02 
2262	 2.03316731981064E-02 
2263	 8.91418286876818E-03 
2264	 8.81588881655364E-03 
2265	 1.26025496314685E-02 
2266	 1.17167233318179E-02 
2267	 1.47977979087312E-02 
2268	 9.44652049535707E-03 
2269	-4.05887765390989E-03 
2270	-7.85824936731707E-03 
2271	-9.01386413599732E-03 
2272	-0.01096256235566 
2273	-1.68778709036736E-02 
2274	-1.53146414696862E-02 
2275	-3.30706703166774E-03 
2276	-1.3158998059859E-03 
2277	 4.09082269677237E-03 
2278	 4.36884652774704E-03 
2279	-1.31934657623721E-02 
2280	-2.03978368668036E-02 
2281	-2.22837041454619E-02 
2282	-1.94083702276317E-02 
2283	-2.37050384238669E-02 
2284	-0.019935313888574 
2285	-0.01774176016825 
2286	-0.020277902943728 
2287	-6.26429784289824E-03 
2288	 8.61409919177691E-03 
2289	 1.97227636273386E-02 
2290	 2.45144484145234E-02 
2291	 4.89202665796391E-03 
2292	-5.86509623043357E-03 
2293	 3.34897996411284E-03 
2294	 1.57133534254253E-02 
2295	 3.68853230323849E-02 
2296	 4.21083365765984E-02 
2297	 2.67565687753247E-02 
2298	 8.53595323090714E-03 
2299	 8.34394153818225E-03 
2300	 1.39247997137967E-02 
2301	 1.65932480037295E-02 
2302	 2.44671920247207E-02 
2303	 4.09740316529627E-03 
2304	-1.23563963941222E-02 
2305	-1.23184407526707E-02 
2306	-2.54181567752985E-02 
2307	-2.15065597087671E-02 
2308	 8.58245736016835E-04 
2309	 1.39785752328616E-02 
2310	 1.19024172824006E-02 
2311	 1.79040161237158E-02 
2312	 1.81188939709563E-02 
2313	 2.76128902348839E-04 
2314	 1.54187240388509E-02 
2315	 3.29854927484908E-02 
2316	 2.01426784420923E-02 
2317	 8.80676028275262E-03 
2318	 1.24362478504373E-02 
2319	 2.79770245148267E-02 
2320	 4.35721710719406E-02 
2321	 5.96641786847494E-02 
2322	 3.86970548709559E-02 
2323	-4.66420309162076E-04 
2324	-1.62813463281928E-02 
2325	-4.39670766061033E-02 
2326	-4.69697382215611E-02 
2327	-0.03633530941073 
2328	-6.86589415704001E-02 
2329	-7.60580511865005E-02 
2330	-5.59173201457719E-02 
2331	-0.045456546118382 
2332	-4.35101488069268E-02 
2333	-5.39250530287055E-02 
2334	-6.57799753502795E-02 
2335	-8.02194576015536E-02 
2336	-5.25059721427035E-02 
2337	-1.79396679469436E-02 
2338	-0.03587890427383 
2339	-2.70078736836479E-02 
2340	-2.35864887989727E-02 
2341	-4.35265509037911E-02 
2342	 1.41499096041988E-02 
2343	 3.06120010744446E-02 
2344	 3.64362442376376E-03 
2345	 1.36588091819669E-02 
2346	-2.06039834942269E-02 
2347	-5.27197737463418E-02 
2348	-0.087920655035471 
2349	-8.84049602466814E-02 
2350	-8.58859062995551E-03 
2351	 4.67860931251281E-02 
2352	 6.87905151353865E-02 
2353	 0.100275744639043 
2354	 5.91996132572682E-02 
2355	 2.69849481336224E-02 
2356	 4.79317266103015E-02 
2357	 6.28382535349239E-03 
2358	-4.32861663962953E-02 
2359	-0.08131318753669 
2360	-0.126201925115361 
2361	-0.153508918484259 
2362	-0.079348561014826 
2363	 4.40312040414834E-02 
2364	 0.06253484764515 
2365	 8.68136836372711E-02 
2366	 9.60109439967407E-02 
2367	 1.63729856676272E-02 
2368	-3.81859198413467E-02 
2369	-2.80001425898579E-02 
2370	-1.52699902963868E-02 
2371	-0.122760786981725 
2372	-0.241613656438189 
2373	-0.389671355087852 
2374	-0.638855213307434 
2375	-0.424495716638899 
2376	-0.18691446723031 
2377	-0.186946650958354 
2378	-0.108833214718638 
2379	-0.070382435826274 
2380	-3.95205196121394E-02 
2381	 6.76314763404516E-02 
2382	 0.269830172424297 
2383	 0.290637304654254 
2384	 0.195798990769389 
2385	 0.254930689680456 
2386	 0.297945779761779 
2387	 0.141719997583914 
2388	-8.03513024351876E-02 
2389	-0.398514254470797 
2390	-0.464662226367716 
2391	-6.71872047210342E-02 
2392	 6.29267590240793E-02 
2393	 0.06256402794114 
2394	 0.158292885953553 
2395	 6.32728254634268E-02 
2396	 7.62127300557342E-02 
2397	 0.172206068570585 
2398	 0.130504923430095 
2399	-9.66179811157641E-02 
2400	-0.19066409657266 
2401	-0.272890262955622 
2402	-0.351665227327702 
2403	-0.363091796030172 
2404	-0.447061846072968 
2405	-0.513898736826332 
2406	-0.48082455874624 
2407	-1.1306097088696 
2408	-2.78694370058324 
2409	-8.53215029728995 
2410	-19.8153060265121 
2411	-3.55758195990174 
2412	-2.98916391592484 
2413	-3.64520419743268 
2414	-3.69719858845582 
2415	-1.97774143094653 
2416	-1.10640396281199 
2417	-0.862786547004776 
2418	 0.23234992095288 
2419	 0.788115378898406 
2420	 7.29029737926317 
2421	 2.32298740805757 
2422	 1.22128504970972 
2423	 1.59832790645689 
2424	 2.73062078915904 
2425	 5.80574640738198 
2426	 61.2515026961022 
2427	-2.48808018125629 
2428	-10.1419849753438 
2429	-1.21462810086598 
2430	-3.99447930833693 
2431	-3.38007680624332 
2432	-4.41054273668718 
2433	 78.477171507305 
2434	 2.87572573612474 
2435	 1.97263490086859 
2436	 1.57218361003555 
2437	 2.00608974407802 
2438	 1.82698959770123 
2439	 1.68791538094775 
2440	 0.715212813870599 
2441	 0.112175253362666 
2442	 0.191010155213636 
2443	 0.221108709030535 
2444	 0.542061730469514 
2445	 0.707493573749716 
2446	 0.592711938738257 
2447	 0.613437881002762 
2448	 0.581329553438658 
2449	 0.036823407779813 
2450	-1.15452213407811E-02 
2451	 1.320636596889 
2452	 0.913785839825637 
2453	 0.51894362385476 
2454	-1.45123166455153 
2455	-1.27817226495064 
2456	-0.473721001378061 
2457	-0.044356429045687 
2458	 0.106929963197112 
2459	 0.135339316722254 
2460	-0.036028611230551 
2461	 0.225466249055409 
2462	 6.75046616955345E-02 
2463	-0.624530323663895 
2464	 0.509351292561396 
2465	-0.587097079939123 
2466	-8.17059400086608E-03 
2467	 1.27818433383013 
2468	 1.91971859564083 
2469	 1.7120828731772 
2470	 1.16896376981934 
2471	 1.08920706228279 
2472	 1.09970782033712 
2473	 1.11051770237384 
2474	 2.15757968174036 
2475	 3.76110148078833 
2476	 4.22146276729132 
2477	 11.2702493887157 
2478	-4.57151255076044 
2479	-1.8139761551362 
2480	-8.90110108634003 
2481	 2.44950470927311 
2482	 0.733726026899538 
2483	 0.697320565510442 
2484	 1.07061542977877 
2485	 1.00780751523218 
2486	 0.234589719326107 
2487	-2.20068424887869E-02 
2488	-0.148370060865853 
2489	-7.24282010224682E-02 
2490	 0.221134094544544 
2491	 0.111219821333066 
2492	-2.59646830846022E-03 
2493	-0.359754436591929 
2494	-0.284645954170557 
2495	 1.0373634282578 
2496	 2.73892718382246 
2497	 2.07899717730535 
2498	 1.76546215797577 
2499	 0.954782328678608 
2500	 2.07073457933103 
