Wavelength	rt0704rt200000.asd
350	 5.09267374740014E-02 
351	 5.07269965748655E-02 
352	 5.14590851654284E-02 
353	 5.20866365284397E-02 
354	 5.20585296844272E-02 
355	 5.27596954671062E-02 
356	 5.29366326350724E-02 
357	 5.30386252858324E-02 
358	 5.37346696231723E-02 
359	 5.42428624783374E-02 
360	 5.49252490117314E-02 
361	 5.55495240576493E-02 
362	 0.055621164155717 
363	 5.65987972204504E-02 
364	 5.68719656680182E-02 
365	 5.62624255535129E-02 
366	 5.72968631942671E-02 
367	 5.77597709309974E-02 
368	 0.057938956738704 
369	 5.84857286378545E-02 
370	 5.89200080320794E-02 
371	 5.92207537065031E-02 
372	 5.96159552147884E-02 
373	 6.03761966851385E-02 
374	 6.07975533405263E-02 
375	 6.11014515073058E-02 
376	 6.16188762203428E-02 
377	 6.26619423311664E-02 
378	 0.063282683859806 
379	 6.34307712328496E-02 
380	 6.33572201805542E-02 
381	 0.06338332172157 
382	 6.38436875184622E-02 
383	 6.44633362517704E-02 
384	 6.47386953331457E-02 
385	 6.49939737364813E-02 
386	 6.51539670256649E-02 
387	 6.53012002588956E-02 
388	 6.56983702958635E-02 
389	 6.58922325824572E-02 
390	 6.60146481458924E-02 
391	 0.066160872436665 
392	 6.59884384902474E-02 
393	 6.61842140076363E-02 
394	 6.63872983370837E-02 
395	 6.60747776869672E-02 
396	 6.60702980063517E-02 
397	 6.61063110477291E-02 
398	 6.60430720562411E-02 
399	 6.59176107570703E-02 
400	 6.58787467439241E-02 
401	 6.58020462581333E-02 
402	 6.55908398745016E-02 
403	 6.52705059922262E-02 
404	 6.51810447700426E-02 
405	 6.50669289864154E-02 
406	 6.45924417003893E-02 
407	 6.43601408227421E-02 
408	 6.41848563478344E-02 
409	 6.39390492698308E-02 
410	 0.06360838831471 
411	 6.32147054477154E-02 
412	 6.27125249453471E-02 
413	 6.22031787843524E-02 
414	 0.062190701466221 
415	 6.21791179580673E-02 
416	 6.19294488988361E-02 
417	 6.14058677730789E-02 
418	 6.10417426542571E-02 
419	 6.07467539553967E-02 
420	 6.05563374138636E-02 
421	 6.06622223478126E-02 
422	 6.03613021957637E-02 
423	 6.00071331528783E-02 
424	 5.99565859006161E-02 
425	 5.99325401603156E-02 
426	 5.98847355657001E-02 
427	 5.98774868954479E-02 
428	 5.99939346587714E-02 
429	 5.99875715824272E-02 
430	 0.059907568826166 
431	 5.98651767076304E-02 
432	 6.00008254339416E-02 
433	 6.01001602408381E-02 
434	 6.01755843832331E-02 
435	 6.02844494462554E-02 
436	 6.04809133082618E-02 
437	 6.04678155164066E-02 
438	 6.04009796331682E-02 
439	 6.06174643307993E-02 
440	 6.06528448406769E-02 
441	 6.06544575293054E-02 
442	 6.07156995014863E-02 
443	 6.07528471121314E-02 
444	 6.07298509428426E-02 
445	 6.06789383958735E-02 
446	 6.06465467913247E-02 
447	 6.06420571398951E-02 
448	 0.060653747137474 
449	 6.06367862312218E-02 
450	 6.05331069447107E-02 
451	 0.060418726576343 
452	 6.03633737788153E-02 
453	 6.03293053764658E-02 
454	 6.00532111145231E-02 
455	 5.98803533889495E-02 
456	 5.97268733549532E-02 
457	 5.94277676146379E-02 
458	 5.92770031367546E-02 
459	 5.91138510163881E-02 
460	 0.058892811520544 
461	 0.058703475225978 
462	 5.84408100120501E-02 
463	 5.82036066492022E-02 
464	 5.80475638559824E-02 
465	 5.78042114810393E-02 
466	 0.057509509353268 
467	 5.73131258145616E-02 
468	 5.73385054850364E-02 
469	 5.70557919859126E-02 
470	 5.68908944710348E-02 
471	 5.69243714602597E-02 
472	 5.66626923519146E-02 
473	 5.64020942950843E-02 
474	 5.63493878634095E-02 
475	 5.65074456786246E-02 
476	 5.62349547461517E-02 
477	 5.61377241500118E-02 
478	 0.056231307564556 
479	 5.61428004895975E-02 
480	 0.056115539752791 
481	 5.61337783100794E-02 
482	 0.056139791231071 
483	 5.60451972645667E-02 
484	 5.60832204959722E-02 
485	 5.62159218074369E-02 
486	 5.63059853929003E-02 
487	 5.63145828801994E-02 
488	 5.63272230282236E-02 
489	 5.64593867010625E-02 
490	 5.68269243158692E-02 
491	 5.70854992168339E-02 
492	 5.72662855406007E-02 
493	 5.74585823854429E-02 
494	 5.76762822929113E-02 
495	 5.80083476239564E-02 
496	 5.83435392869875E-02 
497	 0.058525238277581 
498	 5.89729649512107E-02 
499	 5.93329816342846E-02 
500	 5.95150688464042E-02 
501	 5.99609842463813E-02 
502	 6.02287338205054E-02 
503	 6.03907939516633E-02 
504	 6.06440257187182E-02 
505	 6.10431299203528E-02 
506	 6.13950864771164E-02 
507	 6.16762316663351E-02 
508	 6.19996176516498E-02 
509	 6.23210047625231E-02 
510	 6.26808731956214E-02 
511	 6.30755352513023E-02 
512	 6.33554332154666E-02 
513	 6.37903998513933E-02 
514	 6.42719088633757E-02 
515	 6.45849758282794E-02 
516	 6.50855986062545E-02 
517	 6.55761422101486E-02 
518	 6.59986577997012E-02 
519	 6.65266407184534E-02 
520	 6.71186875667863E-02 
521	 6.77255090285643E-02 
522	 6.83257224284923E-02 
523	 0.06897935059138 
524	 6.97329513791513E-02 
525	 0.070559282705438 
526	 7.13888266888588E-02 
527	 7.22903492945913E-02 
528	 7.33137108428379E-02 
529	 0.074443750207323 
530	 0.07555008562981 
531	 0.076764144082998 
532	 7.80960335742123E-02 
533	 7.94984639412267E-02 
534	 8.09062659477892E-02 
535	 0.082388265710484 
536	 0.083990562846954 
537	 8.57159573602843E-02 
538	 8.74359020516029E-02 
539	 8.91877721710473E-02 
540	 9.10344276266562E-02 
541	 9.29916327731066E-02 
542	 0.094872264799567 
543	 9.66862214610422E-02 
544	 9.85718492361032E-02 
545	 0.100514065281608 
546	 0.102405521518924 
547	 0.104211959968244 
548	 0.106075969927948 
549	 0.10785647659004 
550	 0.109557195031449 
551	 0.111231273391735 
552	 0.11286867040187 
553	 0.114482163769053 
554	 0.116087062928182 
555	 0.117688986917847 
556	 0.119208638704125 
557	 0.120750007071411 
558	 0.122378644131007 
559	 0.123940031342103 
560	 0.125555158869595 
561	 0.127222172928101 
562	 0.128872438811757 
563	 0.130500225121476 
564	 0.132050452754463 
565	 0.133499228732385 
566	 0.134890968830308 
567	 0.136271425634789 
568	 0.137598831334557 
569	 0.138801274998212 
570	 0.139907620365355 
571	 0.140872956614216 
572	 0.141714139403492 
573	 0.142510811748122 
574	 0.143295870598231 
575	 0.144053371056585 
576	 0.144747483026141 
577	 0.145343562200789 
578	 0.145907274167076 
579	 0.146451087495756 
580	 0.146945751154546 
581	 0.147308749690661 
582	 0.147617830602371 
583	 0.147876699614443 
584	 0.147904626644846 
585	 0.147912336076056 
586	 0.147870371586927 
587	 0.147679701174096 
588	 0.147402583981044 
589	 0.147196534980277 
590	 0.147163976340574 
591	 0.14729505320507 
592	 0.147198782304096 
593	 0.14710323100024 
594	 0.147155800406701 
595	 0.146830645604862 
596	 0.146623513916476 
597	 0.14647813101962 
598	 0.146071712834223 
599	 0.145694367959455 
600	 0.145334885945669 
601	 0.145001771277576 
602	 0.144800348508382 
603	 0.144630613686931 
604	 0.144472635591222 
605	 0.144355171751824 
606	 0.144429401335038 
607	 0.144374210262758 
608	 0.14416180762381 
609	 0.144081504227806 
610	 0.143934326220718 
611	 0.143726131792624 
612	 0.143508537808733 
613	 0.143351072617824 
614	 0.14312468646131 
615	 0.142872539513602 
616	 0.14272793015297 
617	 0.142653542634202 
618	 0.142473000408932 
619	 0.142189817667652 
620	 0.142127644906499 
621	 0.14193229911355 
622	 0.141709892818598 
623	 0.141633002856614 
624	 0.141429831236083 
625	 0.141199112221853 
626	 0.141060298680163 
627	 0.141122435507414 
628	 0.141061017214806 
629	 0.141011246162473 
630	 0.141054581481218 
631	 0.140885660476998 
632	 0.140693482594348 
633	 0.140544336351026 
634	 0.140390402757508 
635	 0.139807585438565 
636	 0.139181174036748 
637	 0.138659084368773 
638	 0.137929974380668 
639	 0.137197053198616 
640	 0.136381934998554 
641	 0.135399333372039 
642	 0.134444383253447 
643	 0.133282793976908 
644	 0.131893498283713 
645	 0.130444227968245 
646	 0.128896991763434 
647	 0.127345246760825 
648	 0.125962045219369 
649	 0.124937882901846 
650	 0.123758823259188 
651	 0.122714367857578 
652	 0.122321609862137 
653	 0.121972721498897 
654	 0.121765802922788 
655	 0.121672915763231 
656	 0.121427163064777 
657	 0.121057685990937 
658	 0.120651499405334 
659	 0.12019389572228 
660	 0.119399352329577 
661	 0.11833132163199 
662	 0.117048298835951 
663	 0.115640481978857 
664	 0.11421187550395 
665	 0.112768328252799 
666	 0.111291419441697 
667	 0.109782647816949 
668	 0.10838598265855 
669	 0.107220562792224 
670	 0.106343583825803 
671	 0.105554319163484 
672	 0.104896116305461 
673	 0.104485143377923 
674	 0.104478296014997 
675	 0.104568578706311 
676	 0.104929194057582 
677	 0.105712416828993 
678	 0.106774914985026 
679	 0.108223964930373 
680	 0.110095334908087 
681	 0.112387794871811 
682	 0.115091976413551 
683	 0.118187007965198 
684	 0.121650742495991 
685	 0.125855596317348 
686	 0.130710743617775 
687	 0.13543682391931 
688	 0.139229772259418 
689	 0.143103477520974 
690	 0.146832865961791 
691	 0.150304314081789 
692	 0.153457939401342 
693	 0.156592083274443 
694	 0.159264602941204 
695	 0.161205875540925 
696	 0.162777178140326 
697	 0.164009765565277 
698	 0.164944891809116 
699	 0.165518029343979 
700	 0.165913075853093 
701	 0.166116507070328 
702	 0.166178451536902 
703	 0.166163010410707 
704	 0.165600971854305 
705	 0.164721984538949 
706	 0.163789687829868 
707	 0.162841865029168 
708	 0.161610882202467 
709	 0.160123909385767 
710	 0.158509067701148 
711	 0.156709224771226 
712	 0.154623623257066 
713	 0.15231548924213 
714	 0.149961831180571 
715	 0.147531934571803 
716	 0.144748535963576 
717	 0.141710362308252 
718	 0.138946787881296 
719	 0.13644608867825 
720	 0.134416925262016 
721	 0.132475576739714 
722	 0.130307219341476 
723	 0.127697087183508 
724	 0.125072508539796 
725	 0.122730878019444 
726	 0.120072041562998 
727	 0.117373687029274 
728	 0.114862419951357 
729	 0.111924997092344 
730	 0.109100871801563 
731	 0.10670260090545 
732	 0.104609370780196 
733	 0.102756149152898 
734	 0.101132297446164 
735	 9.97473888169746E-02 
736	 9.85868979620333E-02 
737	 9.78428542000942E-02 
738	 9.72636790233767E-02 
739	 9.66717895358257E-02 
740	 9.63775513959504E-02 
741	 9.61032185318081E-02 
742	 9.58749220305957E-02 
743	 9.58201301746917E-02 
744	 0.095566963727284 
745	 0.095370837410504 
746	 9.53064909724265E-02 
747	 9.51242860524669E-02 
748	 9.50764350456669E-02 
749	 9.50657534621083E-02 
750	 0.094960859280723 
751	 9.48206631141187E-02 
752	 9.46401773703361E-02 
753	 9.45149817063824E-02 
754	 9.45419017832694E-02 
755	 0.094387454581998 
756	 9.42112098499414E-02 
757	 9.40925359392705E-02 
758	 9.38966733769105E-02 
759	 9.35889969888384E-02 
760	 9.31863418732267E-02 
761	 9.29203473666155E-02 
762	 0.092327711989324 
763	 9.23637328515928E-02 
764	 9.28495621832732E-02 
765	 9.32844654952123E-02 
766	 9.37050059733845E-02 
767	 9.38988571526704E-02 
768	 9.39430404726492E-02 
769	 0.094154904674381 
770	 9.43548395483179E-02 
771	 9.45029318444871E-02 
772	 9.46072250218956E-02 
773	 9.47275980915965E-02 
774	 9.48828393869007E-02 
775	 9.50875240109724E-02 
776	 9.53241004824433E-02 
777	 9.53923768249272E-02 
778	 9.56551926473648E-02 
779	 0.096113118727614 
780	 9.63772213726876E-02 
781	 9.65347900270103E-02 
782	 9.68340183851268E-02 
783	 0.097325261313624 
784	 9.75397907983741E-02 
785	 9.77693012591594E-02 
786	 9.79898861273209E-02 
787	 9.81559600112975E-02 
788	 9.87173321166302E-02 
789	 9.91598796123281E-02 
790	 9.94164199932812E-02 
791	 0.099843226651355 
792	 0.100610808653124 
793	 0.10109230630816 
794	 0.101147101726588 
795	 0.101560235301966 
796	 0.101898176712606 
797	 0.102155172343463 
798	 0.102460098678134 
799	 0.102955354058256 
800	 0.10331030676895 
801	 0.103528811126355 
802	 0.10380665533467 
803	 0.104043941470946 
804	 0.104353765799962 
805	 0.104640170397961 
806	 0.10459573662666 
807	 0.104649685223526 
808	 0.104534731754667 
809	 0.10407228446307 
810	 0.103700925899206 
811	 0.103255584093906 
812	 0.102700415737339 
813	 0.102009994012505 
814	 0.100928555280079 
815	 9.99079624721515E-02 
816	 9.95598691787255E-02 
817	 0.100106543315233 
818	 9.94379397990317E-02 
819	 9.85083160252558E-02 
820	 9.77797054052692E-02 
821	 9.68309373758843E-02 
822	 9.54598477002097E-02 
823	 9.39846399743225E-02 
824	 9.27232886588212E-02 
825	 9.15117862346317E-02 
826	 8.98500313333036E-02 
827	 8.79808786330604E-02 
828	 8.64353740875015E-02 
829	 8.44192074108042E-02 
830	 8.29300606173588E-02 
831	 8.19469984550256E-02 
832	 8.08088023044367E-02 
833	 8.02758802949427E-02 
834	 7.99312393115235E-02 
835	 7.94238934862153E-02 
836	 0.078685356356465 
837	 7.83910839349868E-02 
838	 7.82346466056221E-02 
839	 7.78665082883261E-02 
840	 7.73362882246098E-02 
841	 7.73678121313348E-02 
842	 7.74326708675112E-02 
843	 7.68354845549594E-02 
844	 7.63865702214561E-02 
845	 7.63947388203775E-02 
846	 7.64480002187269E-02 
847	 7.57962180913884E-02 
848	 7.52385345637548E-02 
849	 7.51190882048036E-02 
850	 7.51694092291129E-02 
851	 7.44873676475164E-02 
852	 7.39731398649189E-02 
853	 7.38549113076825E-02 
854	 7.40014860562552E-02 
855	 7.38951198417607E-02 
856	 7.33457785654534E-02 
857	 7.29059480464643E-02 
858	 7.30386776891549E-02 
859	 7.32051849720421E-02 
860	 7.28448406354689E-02 
861	 7.22969862004155E-02 
862	 7.22279568120487E-02 
863	 7.21509582357404E-02 
864	 7.19728261888912E-02 
865	 7.17217595021083E-02 
866	 7.14942560422657E-02 
867	 7.09959953559805E-02 
868	 0.07062928575849 
869	 7.05434051273732E-02 
870	 7.04466899767889E-02 
871	 0.070028813023844 
872	 6.95051845422161E-02 
873	 6.91558824796988E-02 
874	 6.91208589242239E-02 
875	 6.89168844668761E-02 
876	 6.84198754640183E-02 
877	 6.77941601241294E-02 
878	 6.76913736006252E-02 
879	 6.76559876777974E-02 
880	 6.74018591031265E-02 
881	 6.68502576023092E-02 
882	 6.64484576342529E-02 
883	 6.60667477352359E-02 
884	 6.56603992717963E-02 
885	 6.52790503634957E-02 
886	 6.49684017209996E-02 
887	 6.47532958630573E-02 
888	 6.45428891942822E-02 
889	 6.41622724611946E-02 
890	 6.41987895739528E-02 
891	 6.40628958317009E-02 
892	 6.33633146896625E-02 
893	 0.062545114773751 
894	 6.16160708000419E-02 
895	 6.11442393875329E-02 
896	 6.13655541185757E-02 
897	 6.08930074753708E-02 
898	 6.03788621280502E-02 
899	 6.01564183374225E-02 
900	 6.02007691595049E-02 
901	 5.98677038595467E-02 
902	 5.94086197203398E-02 
903	 5.89533290712627E-02 
904	 5.86223499325524E-02 
905	 5.89023218852472E-02 
906	 5.78715869402587E-02 
907	 5.61813404388592E-02 
908	 5.62668946122238E-02 
909	 5.65098104876942E-02 
910	 5.62945017587598E-02 
911	 5.56507392409904E-02 
912	 5.51099344638912E-02 
913	 5.45298228340991E-02 
914	 5.38669552979769E-02 
915	 5.34077054353859E-02 
916	 5.36036890054104E-02 
917	 0.053126776491454 
918	 0.052953502326914 
919	 5.31152946903034E-02 
920	 0.052174349971517 
921	 0.052237029835725 
922	 5.22637692417682E-02 
923	 0.051476601729154 
924	 5.09928901733699E-02 
925	 4.88441263034875E-02 
926	 4.68176603934801E-02 
927	 4.68526444472451E-02 
928	 4.57959472324187E-02 
929	 4.52386536198979E-02 
930	 0.043440349756566 
931	 3.88217252843715E-02 
932	 4.68451242348392E-02 
933	 4.48371129895477E-02 
934	 3.71333708738696E-02 
935	 4.13263114200218E-02 
936	 4.16147235430741E-02 
937	 3.95057522338401E-02 
938	 3.73513364109404E-02 
939	 3.66370216992402E-02 
940	 3.48663890432795E-02 
941	 0.037054738561885 
942	 3.79862510692507E-02 
943	 0.030488462208438 
944	 0.030181074115324 
945	 0.032977955136975 
946	 3.36318343478578E-02 
947	 2.98829281859594E-02 
948	 3.20854219628624E-02 
949	 3.05358472042343E-02 
950	 2.88566067496487E-02 
951	 3.56283961967081E-02 
952	 3.50519777621541E-02 
953	 3.23463291960234E-02 
954	 2.94469773070512E-02 
955	 2.63149508115212E-02 
956	 3.26796556283257E-02 
957	 3.43638170627337E-02 
958	 3.04070745733829E-02 
959	 2.95206226311516E-02 
960	 3.36341140994724E-02 
961	 3.28025811143437E-02 
962	 2.90796220428722E-02 
963	 3.13044669014019E-02 
964	 3.27350447358021E-02 
965	 3.43674428319582E-02 
966	 3.49814992625457E-02 
967	 3.23665502612652E-02 
968	 3.03500621569181E-02 
969	 3.24465213686774E-02 
970	 3.54501954468402E-02 
971	 3.25622444613139E-02 
972	 3.36268837421992E-02 
973	 3.50124957505339E-02 
974	 3.41300735331229E-02 
975	 3.14510843098005E-02 
976	 2.96984588313984E-02 
977	 3.17071536148515E-02 
978	 3.44983677314414E-02 
979	 3.23395311145523E-02 
980	 3.34153518320088E-02 
981	 3.46878358355122E-02 
982	 3.45144249356405E-02 
983	 3.33753314543538E-02 
984	 3.13660347010786E-02 
985	 3.21704315591159E-02 
986	 3.37985979656038E-02 
987	 3.14457859867625E-02 
988	 3.34524017298408E-02 
989	 3.61093966842759E-02 
990	 3.63437534413775E-02 
991	 3.35295477835652E-02 
992	 3.26338595566549E-02 
993	 3.36165938634281E-02 
994	 3.46702294180366E-02 
995	 3.37112312032092E-02 
996	 3.21058345089478E-02 
997	 3.41166756636439E-02 
998	 3.65074967600333E-02 
999	 3.36896754004824E-02 
1000	 3.44235772664018E-02 
1001	 3.54357197819954E-02 
1002	 3.55013169932093E-02 
1003	 3.57382480528611E-02 
1004	 3.64932994017573E-02 
1005	 3.65331833448516E-02 
1006	 3.60888863923815E-02 
1007	 3.59723489497564E-02 
1008	 3.57705304909301E-02 
1009	 3.55299062840812E-02 
1010	 3.59639712335619E-02 
1011	 3.66012075901754E-02 
1012	 3.63331319130356E-02 
1013	 3.58430591211882E-02 
1014	 3.57181790150685E-02 
1015	 3.52175442627987E-02 
1016	 3.52513941237623E-02 
1017	 0.035839777522123 
1018	 3.63863174589061E-02 
1019	 3.72477214228075E-02 
1020	 3.78075926154595E-02 
1021	 3.85323806121126E-02 
1022	 3.89214945863402E-02 
1023	 3.88875691828526E-02 
1024	 3.87018343836982E-02 
1025	 3.88306221564873E-02 
1026	 0.038733652527176 
1027	 3.82114755169938E-02 
1028	 3.73048990324115E-02 
1029	 3.68915065201353E-02 
1030	 3.60333417181813E-02 
1031	 3.58548077723413E-02 
1032	 3.62627418684966E-02 
1033	 3.68265135553862E-02 
1034	 3.77362259610681E-02 
1035	 3.84371981549979E-02 
1036	 3.96115902603894E-02 
1037	 4.02716879553504E-02 
1038	 4.02999786540971E-02 
1039	 4.09010195088444E-02 
1040	 4.07674342909199E-02 
1041	 4.08985560299297E-02 
1042	 4.11264552103094E-02 
1043	 0.041244633471062 
1044	 4.15759074750921E-02 
1045	 4.23615170961442E-02 
1046	 4.26443647103006E-02 
1047	 4.27921942834346E-02 
1048	 4.28722797698965E-02 
1049	 4.30230164564286E-02 
1050	 4.26134460106804E-02 
1051	 4.14789489814518E-02 
1052	 4.10048243554764E-02 
1053	 3.96914491202107E-02 
1054	 3.96774779904002E-02 
1055	 4.18648508093599E-02 
1056	 4.25470319335655E-02 
1057	 4.29066556442078E-02 
1058	 4.34292342681991E-02 
1059	 4.34244758060863E-02 
1060	 0.041851747234851 
1061	 4.19693955336917E-02 
1062	 4.31930323984026E-02 
1063	 4.35071575756734E-02 
1064	 4.40925171578438E-02 
1065	 4.42004238437776E-02 
1066	 4.36487716461186E-02 
1067	 4.32352201220233E-02 
1068	 4.26304329266487E-02 
1069	 4.22606383240436E-02 
1070	 4.15243951963799E-02 
1071	 4.13768860882222E-02 
1072	 4.22508139351357E-02 
1073	 4.22233748050942E-02 
1074	 4.25278239656181E-02 
1075	 4.33988050955136E-02 
1076	 0.043251028000412 
1077	 0.042397355684852 
1078	 0.041928619513639 
1079	 4.06650811026316E-02 
1080	 4.05780393917912E-02 
1081	 4.15613225097561E-02 
1082	 0.041872713729345 
1083	 4.26058520167564E-02 
1084	 4.28010834415836E-02 
1085	 4.22322446199107E-02 
1086	 4.19098263950341E-02 
1087	 4.15843061118724E-02 
1088	 4.13511052248274E-02 
1089	 4.09956841802774E-02 
1090	 4.09445495037612E-02 
1091	 4.08077694327802E-02 
1092	 4.06290746979233E-02 
1093	 4.05968609872161E-02 
1094	 4.07452663377999E-02 
1095	 4.04758867291655E-02 
1096	 4.00994940124102E-02 
1097	 3.98861496668064E-02 
1098	 3.95083501377329E-02 
1099	 3.92621378910745E-02 
1100	 3.89011057626102E-02 
1101	 3.90727755389753E-02 
1102	 4.00395801357491E-02 
1103	 3.98329997974584E-02 
1104	 3.89699489674174E-02 
1105	 3.92770074170193E-02 
1106	 3.76208788978618E-02 
1107	 3.76147740895563E-02 
1108	 0.039678612427005 
1109	 3.90054425663473E-02 
1110	 3.86068311123791E-02 
1111	 0.037865975961758 
1112	 3.64619522886158E-02 
1113	 3.17611283489184E-02 
1114	 3.18189363331125E-02 
1115	 3.64948877602062E-02 
1116	 3.66779558087918E-02 
1117	 3.92843702722975E-02 
1118	 4.02979857578069E-02 
1119	 3.14929267336264E-02 
1120	 2.63509197265004E-02 
1121	 2.36502061229228E-02 
1122	 2.53624770908895E-02 
1123	 3.03442253595476E-02 
1124	 2.23562274894977E-02 
1125	 1.73811616539324E-02 
1126	 2.56670066492249E-02 
1127	 3.05859350177387E-02 
1128	 3.07041766800412E-02 
1129	 0.028304274832627 
1130	 2.15241121754341E-02 
1131	 2.34120117430743E-02 
1132	 2.52582702856867E-02 
1133	 3.00669984173137E-02 
1134	 4.56484320626225E-02 
1135	 4.53301086831796E-02 
1136	 3.46186952811309E-02 
1137	 3.19674275900561E-02 
1138	 2.60287664960114E-02 
1139	 2.66268474371109E-02 
1140	 0.031652711866009 
1141	 0.0318665638739 
1142	 0.029648554616682 
1143	 2.59447895572976E-02 
1144	 0.02371786098529 
1145	 2.85774005709315E-02 
1146	 2.95012750335974E-02 
1147	 2.69154710140251E-02 
1148	 0.0315508672268 
1149	 3.32135608352492E-02 
1150	 3.20289780491383E-02 
1151	 3.38483599175533E-02 
1152	 3.23295475963646E-02 
1153	 2.31605408771984E-02 
1154	 2.21744899958168E-02 
1155	 2.45231518422849E-02 
1156	 2.55189424782524E-02 
1157	 2.58266568786196E-02 
1158	 0.028415132177516 
1159	 2.93446128346986E-02 
1160	 2.83400341715478E-02 
1161	 2.86245687189936E-02 
1162	 2.95172933680267E-02 
1163	 2.81841227012963E-02 
1164	 2.73039460127707E-02 
1165	 2.78126155737433E-02 
1166	 2.74456002967192E-02 
1167	 2.78321513627114E-02 
1168	 0.028741053228315 
1169	 2.84825327897431E-02 
1170	 2.80717109636021E-02 
1171	 2.77725207266403E-02 
1172	 2.71255214673284E-02 
1173	 2.67463035825999E-02 
1174	 2.64406391496873E-02 
1175	 2.67029996052878E-02 
1176	 2.67075453330575E-02 
1177	 2.66244744462583E-02 
1178	 0.02721376587552 
1179	 2.78324826105383E-02 
1180	 2.73303829363546E-02 
1181	 2.72306895671166E-02 
1182	 2.79807379518172E-02 
1183	 2.79739295686291E-02 
1184	 2.76281257620856E-02 
1185	 2.76633864297524E-02 
1186	 2.79727096916029E-02 
1187	 0.027884845630071 
1188	 2.81394268795202E-02 
1189	 2.87908043175779E-02 
1190	 2.82499327986014E-02 
1191	 2.78712937268949E-02 
1192	 2.79106296325688E-02 
1193	 2.83711398149297E-02 
1194	 2.83424449363084E-02 
1195	 2.81927013420834E-02 
1196	 0.02780861551037 
1197	 2.69461748339396E-02 
1198	 2.65904701485833E-02 
1199	 2.71342316495895E-02 
1200	 2.75718990967254E-02 
1201	 2.73870163093972E-02 
1202	 2.69369033467471E-02 
1203	 2.70223639131279E-02 
1204	 0.02743518406877 
1205	 2.71911549508997E-02 
1206	 2.73931128769568E-02 
1207	 2.76362726230189E-02 
1208	 2.69933807360155E-02 
1209	 2.68707763666156E-02 
1210	 2.70830998278588E-02 
1211	 2.70955614320088E-02 
1212	 2.71588659054338E-02 
1213	 2.71790330758451E-02 
1214	 2.73669106761912E-02 
1215	 2.77217322248337E-02 
1216	 2.80389727491064E-02 
1217	 2.80028175286682E-02 
1218	 2.80500009294575E-02 
1219	 2.81619012714873E-02 
1220	 2.78787629212972E-02 
1221	 2.74507712821545E-02 
1222	 0.027437880065887 
1223	 2.77138060050118E-02 
1224	 2.72838896116094E-02 
1225	 0.026873434707944 
1226	 2.71173140498062E-02 
1227	 2.68729360525261E-02 
1228	 2.68266027966645E-02 
1229	 2.74380570172095E-02 
1230	 2.76594225880358E-02 
1231	 2.72504160449622E-02 
1232	 2.70537234810105E-02 
1233	 0.027595157869322 
1234	 2.79937495207867E-02 
1235	 2.80904488184093E-02 
1236	 2.82403468914475E-02 
1237	 2.85401984096549E-02 
1238	 0.028666040259627 
1239	 2.85525705767547E-02 
1240	 2.83957301075357E-02 
1241	 0.028442976723757 
1242	 2.81233093271009E-02 
1243	 0.027602198426393 
1244	 2.80325010512251E-02 
1245	 2.85910609019409E-02 
1246	 2.82134153022488E-02 
1247	 2.79139621832451E-02 
1248	 2.83364922376031E-02 
1249	 2.84401745587576E-02 
1250	 2.78555301721366E-02 
1251	 2.79711255249943E-02 
1252	 2.83350352189125E-02 
1253	 2.77790385037515E-02 
1254	 2.78989193705276E-02 
1255	 2.85365802350638E-02 
1256	 2.84517961364479E-02 
1257	 2.72293067574027E-02 
1258	 2.70210016932287E-02 
1259	 2.70345310094065E-02 
1260	 2.71640608427344E-02 
1261	 2.80268704123595E-02 
1262	 2.81959307277189E-02 
1263	 2.81909975398621E-02 
1264	 2.80554175510911E-02 
1265	 2.77910590415552E-02 
1266	 2.75300530617158E-02 
1267	 2.75529868027043E-02 
1268	 2.78107705512654E-02 
1269	 2.77772935725511E-02 
1270	 2.77759088937467E-02 
1271	 2.81695801544165E-02 
1272	 2.81286461498486E-02 
1273	 2.74523358328586E-02 
1274	 2.72881639038696E-02 
1275	 2.76917659010737E-02 
1276	 2.74431985554003E-02 
1277	 2.72146876746531E-02 
1278	 2.73550597642306E-02 
1279	 2.71489374807796E-02 
1280	 2.69956411763059E-02 
1281	 2.70493559745921E-02 
1282	 2.78800373013081E-02 
1283	 2.78894688016963E-02 
1284	 2.71019848400176E-02 
1285	 2.70981912556587E-02 
1286	 0.027504515310388 
1287	 2.73773670385316E-02 
1288	 0.027207145007086 
1289	 2.72773523637164E-02 
1290	 2.72026969066788E-02 
1291	 2.70536825900819E-02 
1292	 2.66772764868954E-02 
1293	 2.66684213698746E-02 
1294	 0.027755210781349 
1295	 2.78679341074577E-02 
1296	 2.72094379955781E-02 
1297	 2.77308747817356E-02 
1298	 2.73846030943147E-02 
1299	 2.65554703888545E-02 
1300	 2.72662882070154E-02 
1301	 2.75183101925758E-02 
1302	 2.70764386702332E-02 
1303	 2.66219360301457E-02 
1304	 2.58812885508122E-02 
1305	 2.58065554869142E-02 
1306	 2.58649046401177E-02 
1307	 2.62114451337976E-02 
1308	 2.56659891971218E-02 
1309	 2.49025918153858E-02 
1310	 2.49914229110114E-02 
1311	 2.48574402718939E-02 
1312	 2.43247595240161E-02 
1313	 2.41200808403867E-02 
1314	 2.44600839364128E-02 
1315	 2.45018233750918E-02 
1316	 2.46042462257882E-02 
1317	 2.63443728690446E-02 
1318	 2.69221398741698E-02 
1319	 2.55721141677283E-02 
1320	 2.52080803499538E-02 
1321	 2.55027272908931E-02 
1322	 2.59650068081315E-02 
1323	 2.43292557907302E-02 
1324	 2.37912451628264E-02 
1325	 2.49037514627464E-02 
1326	 2.47185315417572E-02 
1327	 2.49659148907469E-02 
1328	 2.36052463839474E-02 
1329	 2.28377009361488E-02 
1330	 2.47365668225588E-02 
1331	 2.38908488701026E-02 
1332	 2.49584957635004E-02 
1333	 2.76701596788956E-02 
1334	 2.53969061645205E-02 
1335	 2.27820144845601E-02 
1336	 1.96801828666559E-02 
1337	 2.06267189019687E-02 
1338	 2.12103364463146E-02 
1339	 2.05564803681661E-02 
1340	 2.62789944298952E-02 
1341	 2.81845078881243E-02 
1342	 2.14490205711481E-02 
1343	 1.91114729483831E-02 
1344	 2.01387962043012E-02 
1345	 2.11788753233657E-02 
1346	 0.026639663365967 
1347	 2.59261377708029E-02 
1348	 2.05229835435934E-02 
1349	 1.81367655965686E-02 
1350	 1.12942777454751E-03 
1351	-2.20058872233623E-02 
1352	-0.03727550736722 
1353	-0.061067207327827 
1354	-0.106398598647041 
1355	-0.18891677497887 
1356	-0.214003908379764 
1357	-0.149264390225921 
1358	-0.15870733161457 
1359	-0.283133127322153 
1360	-0.258601124304521 
1361	-0.264609713443018 
1362	-0.235345393092368 
1363	 7.84798457767678E-02 
1364	 0.534480481715427 
1365	 1.12825457040612 
1366	 0.78642031931038 
1367	-3.23708301308006E-02 
1368	 0.202014896042197 
1369	 0.870047845449258 
1370	 0.589236105228447 
1371	 0.652785123666843 
1372	 0.659186525533563 
1373	-0.703891165973199 
1374	-0.85348419860153 
1375	 10.5712651208912 
1376	 6.13663455569739 
1377	 0.711410385583866 
1378	 0.545870458171627 
1379	 6.16655417509305E-02 
1380	-3.97989844181567E-02 
1381	-4.52565246748999E-02 
1382	-8.76056206910115E-02 
1383	 4.15530122342157E-03 
1384	 0.129118008358247 
1385	 2.91519806050881E-02 
1386	-3.3866528428426 
1387	 1.95091340369475 
1388	 1.36877835544921 
1389	 1.1045167267705 
1390	 1.25925891886354 
1391	 1.08415657534663 
1392	 0.780163519832475 
1393	 0.643994470496013 
1394	 0.406636929203298 
1395	 1.420391117298 
1396	-32.1975290037699 
1397	-0.262248732443034 
1398	 0.240788754209319 
1399	-0.263512876686152 
1400	-17.5553889386808 
1401	 2.61380311037317 
1402	 1.42568662330817 
1403	-4.0797142231657 
1404	 1.9504129288802 
1405	 0.834651808643904 
1406	 0.842780537750778 
1407	 0.767590170122541 
1408	-3.62603295210072E-02 
1409	-9.63495274194652E-02 
1410	 0.174603597376731 
1411	 0.281915330380886 
1412	 0.581050838425153 
1413	 0.495779168218533 
1414	 0.203275780069839 
1415	 0.753611440897691 
1416	 0.659216909788608 
1417	 0.297504143797084 
1418	-0.12614682640273 
1419	-1.93382206298727E-02 
1420	-4.73747067805989E-02 
1421	-0.145832311823714 
1422	 0.102273183507601 
1423	 0.145470056735683 
1424	-5.53208967214408E-02 
1425	-0.152656291664818 
1426	-0.146982316584223 
1427	-0.136703330035919 
1428	-0.184718521201533 
1429	-0.159067592579922 
1430	 1.11375615976805E-02 
1431	 5.46894583336628E-02 
1432	-2.45014869752863E-02 
1433	 8.60140618388705E-03 
1434	 0.119809585614778 
1435	 0.108003097007727 
1436	 4.84325265072619E-02 
1437	 0.130164322692344 
1438	 0.132591518214478 
1439	 3.92189343146512E-02 
1440	 8.64084318472293E-02 
1441	 0.18124152525073 
1442	 9.28094092397375E-02 
1443	-3.02022500957519E-04 
1444	 2.84621239180658E-02 
1445	 0.033016176382496 
1446	 3.24064041305385E-03 
1447	 8.48052535037251E-03 
1448	 2.75165779453811E-02 
1449	 1.73735882528518E-02 
1450	 1.78792713238981E-02 
1451	 0.034998353871011 
1452	 1.59967370858782E-02 
1453	-7.79203241601051E-03 
1454	-7.03935282779375E-03 
1455	 9.26077459362808E-03 
1456	 1.52185228618665E-02 
1457	 2.56987107336883E-02 
1458	 2.76793919399945E-02 
1459	 0.025703426359414 
1460	 2.06129104195199E-02 
1461	 6.45714680561369E-03 
1462	 8.65893201739321E-03 
1463	 2.16354502436437E-02 
1464	 2.13124538556709E-02 
1465	 1.93111086618361E-02 
1466	 2.58771722512862E-02 
1467	 3.28257744707835E-02 
1468	 2.40863074056738E-02 
1469	 1.46034791874612E-02 
1470	 1.54545205737075E-02 
1471	 5.13094129863283E-04 
1472	-4.94579145091039E-03 
1473	 9.41843623637928E-03 
1474	 1.89078205518374E-02 
1475	 2.16065107278194E-02 
1476	 2.24280223268352E-02 
1477	 3.48406141925472E-02 
1478	 3.46000538137223E-02 
1479	 1.57436338886501E-02 
1480	 1.25569016626536E-02 
1481	 1.77114009509539E-02 
1482	 1.72986748140579E-02 
1483	 1.66018630268243E-02 
1484	 1.92168647235123E-02 
1485	 2.36154635569238E-02 
1486	 2.14071135156534E-02 
1487	 1.83564373921411E-02 
1488	 1.77611239584735E-02 
1489	 1.37735689834779E-02 
1490	 1.25418168012506E-02 
1491	 1.47102005112359E-02 
1492	 1.54586714991675E-02 
1493	 1.55244488421803E-02 
1494	 1.54381392379234E-02 
1495	 1.53101733725263E-02 
1496	 1.57707954173682E-02 
1497	 1.57734696851696E-02 
1498	 1.62250555385462E-02 
1499	 1.78165207581655E-02 
1500	 1.85337814017991E-02 
1501	 1.94913273540246E-02 
1502	 1.94404558834933E-02 
1503	 1.76929581232198E-02 
1504	 1.76732256200384E-02 
1505	 1.85776345784285E-02 
1506	 1.81779861413517E-02 
1507	 1.74513545546434E-02 
1508	 1.80193363041026E-02 
1509	 1.84023126117986E-02 
1510	 1.79900247235507E-02 
1511	 1.86327397263353E-02 
1512	 1.87235818977189E-02 
1513	 1.83107243170543E-02 
1514	 1.84995481588531E-02 
1515	 1.76954206967234E-02 
1516	 1.80990811755269E-02 
1517	 1.84969700149529E-02 
1518	 1.73972889000538E-02 
1519	 1.75186690801684E-02 
1520	 1.79918529391232E-02 
1521	 1.77596606727653E-02 
1522	 1.73566865909402E-02 
1523	 1.71159023888419E-02 
1524	 0.016724324521604 
1525	 1.67719008708768E-02 
1526	 1.74870242955205E-02 
1527	 1.74448874795006E-02 
1528	 1.76721113550205E-02 
1529	 1.82796724818619E-02 
1530	 1.83550062566162E-02 
1531	 1.89101557695164E-02 
1532	 1.89477650422472E-02 
1533	 1.80103373869638E-02 
1534	 1.78332141146679E-02 
1535	 1.83772797043476E-02 
1536	 1.88115375528174E-02 
1537	 1.95430850468226E-02 
1538	 1.98333993399361E-02 
1539	 1.91040758998093E-02 
1540	 1.90059007575403E-02 
1541	 1.93418565846675E-02 
1542	 1.93978232046804E-02 
1543	 1.95623922740613E-02 
1544	 1.94742757472115E-02 
1545	 1.93995256497612E-02 
1546	 1.93391966182464E-02 
1547	 1.90511346517618E-02 
1548	 1.91333379755862E-02 
1549	 1.96547429977313E-02 
1550	 1.97502332060006E-02 
1551	 1.90030433250481E-02 
1552	 1.90436127502937E-02 
1553	 1.94853722282787E-02 
1554	 1.90548433622213E-02 
1555	 1.94471236554124E-02 
1556	 1.99830623238286E-02 
1557	 1.96267748604474E-02 
1558	 1.95198463657541E-02 
1559	 1.93719756652374E-02 
1560	 1.92867915668553E-02 
1561	 0.01983391769368 
1562	 2.08031136334494E-02 
1563	 2.14368752397547E-02 
1564	 2.11877184532454E-02 
1565	 2.04091302823724E-02 
1566	 1.93318201099039E-02 
1567	 1.93271327215178E-02 
1568	 1.99766793217568E-02 
1569	 1.99956841685336E-02 
1570	 2.03189740599984E-02 
1571	 2.01263459213608E-02 
1572	 1.99196965478907E-02 
1573	 2.08931532156188E-02 
1574	 2.15103612938789E-02 
1575	 2.11529991431067E-02 
1576	 2.07285419916883E-02 
1577	 0.020467142975682 
1578	 1.99315790897501E-02 
1579	 0.019533730230335 
1580	 1.96751650627911E-02 
1581	 2.01763517509173E-02 
1582	 2.04055784426321E-02 
1583	 2.04560690150857E-02 
1584	 2.13084372259659E-02 
1585	 2.15899032667841E-02 
1586	 2.03773884109755E-02 
1587	 0.020163379815715 
1588	 2.10823915476515E-02 
1589	 2.10719781838644E-02 
1590	 2.10855375295945E-02 
1591	 2.18907455169506E-02 
1592	 2.20636255229376E-02 
1593	 2.20042773234945E-02 
1594	 2.17925641573634E-02 
1595	 2.04737993990989E-02 
1596	 1.95152715394678E-02 
1597	 1.92642402634487E-02 
1598	 2.00505653548212E-02 
1599	 2.19072135403126E-02 
1600	 2.20967148288641E-02 
1601	 2.08041820960158E-02 
1602	 2.00780816438124E-02 
1603	 2.01712770024692E-02 
1604	 2.05418113823946E-02 
1605	 2.11175847361797E-02 
1606	 2.13284353486665E-02 
1607	 2.10010597623925E-02 
1608	 2.11727156281286E-02 
1609	 2.18156049996702E-02 
1610	 2.24683741672963E-02 
1611	 2.23906961616886E-02 
1612	 2.18944517987658E-02 
1613	 2.16872067860546E-02 
1614	 2.13102734872099E-02 
1615	 2.09885717179881E-02 
1616	 2.09830246953286E-02 
1617	 2.08618107137938E-02 
1618	 0.020736326541975 
1619	 2.09894091103978E-02 
1620	 2.11329252814545E-02 
1621	 2.11770548548066E-02 
1622	 0.021508899707107 
1623	 2.21416556217057E-02 
1624	 2.26473649066608E-02 
1625	 2.19153565824238E-02 
1626	 2.15070921585158E-02 
1627	 2.20867488963317E-02 
1628	 2.16867226198662E-02 
1629	 2.15654905741064E-02 
1630	 2.19185951153547E-02 
1631	 2.12369333217636E-02 
1632	 2.08397225417214E-02 
1633	 2.11556519130696E-02 
1634	 2.14585722384067E-02 
1635	 2.17762597605356E-02 
1636	 2.15862647650181E-02 
1637	 2.11203249271085E-02 
1638	 2.14168720052908E-02 
1639	 2.21722781551113E-02 
1640	 0.022673687627921 
1641	 2.23962395904913E-02 
1642	 2.15687752456713E-02 
1643	 0.0213739964238 
1644	 2.17506613183747E-02 
1645	 0.02223726326124 
1646	 2.22943341452901E-02 
1647	 2.19799267653687E-02 
1648	 2.18657390505291E-02 
1649	 2.12116585211129E-02 
1650	 2.08264973734548E-02 
1651	 2.11415799683191E-02 
1652	 2.07169306332018E-02 
1653	 2.12844352219977E-02 
1654	 2.16656902679032E-02 
1655	 2.07661896657172E-02 
1656	 2.07179139333754E-02 
1657	 2.19814750855662E-02 
1658	 2.23917699367329E-02 
1659	 2.26585849748698E-02 
1660	 2.25363366135431E-02 
1661	 2.14258849851173E-02 
1662	 2.15897004777919E-02 
1663	 2.25208610625581E-02 
1664	 2.28810339223141E-02 
1665	 2.34146251562464E-02 
1666	 2.31624248888579E-02 
1667	 2.23214298678812E-02 
1668	 2.24081291697779E-02 
1669	 2.18322609963165E-02 
1670	 2.20218151713032E-02 
1671	 2.25723691730455E-02 
1672	 2.23273908652128E-02 
1673	 2.24434018504608E-02 
1674	 2.28092105452444E-02 
1675	 2.26957299827702E-02 
1676	 2.30125940010199E-02 
1677	 0.023319779804199 
1678	 2.25921374144492E-02 
1679	 0.021359465357362 
1680	 2.05690205397678E-02 
1681	 2.11652536344494E-02 
1682	 2.21097315671313E-02 
1683	 2.17477663797061E-02 
1684	 2.19200299869105E-02 
1685	 2.24476217167982E-02 
1686	 0.022295084861622 
1687	 2.33644805026775E-02 
1688	 2.42703092008732E-02 
1689	 2.39947704799809E-02 
1690	 2.36442420577795E-02 
1691	 2.33271669926427E-02 
1692	 2.31777965097448E-02 
1693	 2.22989884165064E-02 
1694	 2.11457375807593E-02 
1695	 2.14169856202592E-02 
1696	 2.10961211249959E-02 
1697	 2.04075856303723E-02 
1698	 2.16457082927142E-02 
1699	 2.19044157154887E-02 
1700	 2.19372085435493E-02 
1701	 2.26368789829415E-02 
1702	 2.26245737347885E-02 
1703	 0.022729835999464 
1704	 2.24734292015309E-02 
1705	 2.28614978255845E-02 
1706	 2.32465471840567E-02 
1707	 2.23957872221639E-02 
1708	 2.23808024954875E-02 
1709	 2.28292020172849E-02 
1710	 2.17692297510704E-02 
1711	 2.19311811711666E-02 
1712	 2.33212979045733E-02 
1713	 0.022027134369974 
1714	 2.21543256232548E-02 
1715	 2.30685617616848E-02 
1716	 2.39463189470954E-02 
1717	 2.43906785992198E-02 
1718	 2.37981346052212E-02 
1719	 2.25434836265203E-02 
1720	 2.20377570992674E-02 
1721	 2.30445095561736E-02 
1722	 2.37131541509702E-02 
1723	 2.33303616825926E-02 
1724	 2.21533193144292E-02 
1725	 2.02443714742454E-02 
1726	 2.08864129188702E-02 
1727	 2.29862077967724E-02 
1728	 2.28374914782316E-02 
1729	 2.35572548904595E-02 
1730	 2.37511817210766E-02 
1731	 2.16778753424555E-02 
1732	 2.19530332968578E-02 
1733	 2.24475138406617E-02 
1734	 2.04213547433623E-02 
1735	 1.92551376732803E-02 
1736	 1.95246779773671E-02 
1737	 1.95762331312803E-02 
1738	 0.019840953835697 
1739	 2.11077771660643E-02 
1740	 2.21228129129208E-02 
1741	 2.12219790851093E-02 
1742	 2.09112303663301E-02 
1743	 2.17806284978457E-02 
1744	 0.021308040064848 
1745	 2.17456366875762E-02 
1746	 2.26415059178075E-02 
1747	 2.21646070834101E-02 
1748	 0.020432889414053 
1749	 0.020221763058055 
1750	 0.020319940646196 
1751	 2.05706415588355E-02 
1752	 2.27254225406718E-02 
1753	 2.23316339756083E-02 
1754	 1.94687126562099E-02 
1755	 1.91416450467921E-02 
1756	 1.90440430486038E-02 
1757	 1.66142529499204E-02 
1758	 0.017755747757426 
1759	 0.019421642019594 
1760	 0.019608846033346 
1761	 2.26078950845249E-02 
1762	 2.59129108932895E-02 
1763	 2.29467969399193E-02 
1764	 1.86931284652659E-02 
1765	 1.95322335909631E-02 
1766	 1.87814906579435E-02 
1767	 1.98666760999756E-02 
1768	 2.49019979732364E-02 
1769	 2.33342582193072E-02 
1770	 0.021088326546925 
1771	 2.09563815730829E-02 
1772	 0.017678057936559 
1773	 1.79621104139978E-02 
1774	 1.99597736090697E-02 
1775	 1.79660571594999E-02 
1776	 0.01721719620337 
1777	 1.42540641719756E-02 
1778	 1.32871168630187E-02 
1779	 1.55948661802744E-02 
1780	 1.69945495752437E-02 
1781	 2.04283579362548E-02 
1782	 0.019758225313169 
1783	 1.42699482992235E-02 
1784	 1.44163745022029E-02 
1785	 1.41071348789118E-02 
1786	 1.80737118818819E-02 
1787	 3.29570714054277E-02 
1788	 3.46169419045716E-02 
1789	 2.93642907558733E-02 
1790	 2.88805202771884E-02 
1791	 1.40717270184828E-02 
1792	 1.10286210399234E-02 
1793	 0.028240636145844 
1794	 0.03134025292982 
1795	 3.86625118797893E-02 
1796	 3.03737418498489E-02 
1797	-3.00651952223794E-03 
1798	-1.33511434852591E-02 
1799	-0.036514334016368 
1800	-5.99707759865687E-02 
1801	-5.77072793563252E-02 
1802	-3.10413834917566E-02 
1803	-3.76701583338444E-03 
1804	 0.112399968773297 
1805	 0.152258375401185 
1806	 8.59992662333991E-02 
1807	 5.44700034162393E-02 
1808	-0.19116123874537 
1809	-0.262114081626655 
1810	 0.208397317626535 
1811	 0.350016401823982 
1812	 0.54792178128426 
1813	 0.560646499822194 
1814	-8.95615615686537E-02 
1815	-0.318948917415537 
1816	-0.449027444851092 
1817	 7.60062691225343E-02 
1818	-3.58433515185205 
1819	 0.517009748906427 
1820	-0.983820418372253 
1821	-7.20901791169011E-02 
1822	-0.226982158252554 
1823	-0.247053454553887 
1824	-0.223071089344794 
1825	-1.27286173652713 
1826	-3.0786734436052 
1827	-1.32538751654484 
1828	-1.3904564285062 
1829	-2.89057672686922 
1830	-5.54633371691187 
1831	-1.78516771760082 
1832	-0.498509071981862 
1833	-0.296255950435181 
1834	-0.162709164190363 
1835	 0.247541176614138 
1836	 0.135783029824166 
1837	-0.706964612467266 
1838	-2.00720678980747 
1839	 18.6535591955318 
1840	-11.175326296567 
1841	-5.05337185216205 
1842	 11.3051322291134 
1843	 43.7308002286953 
1844	-2.45280344339363 
1845	-2.03563965830191 
1846	-1.26000523964164 
1847	-1.22385626655728 
1848	-2.03359596761265 
1849	 7.19788582194071 
1850	 1.46981361081915 
1851	 0.68610791446443 
1852	 0.806546101399805 
1853	 1.22513603083375 
1854	 1.33160435034003 
1855	 1.53625536741744 
1856	 1.70055767702437 
1857	 1.55951899770667 
1858	 1.66916486092192 
1859	 5.14527904710824 
1860	-10.7667137167958 
1861	 0.855912367403922 
1862	 0.451918641125254 
1863	-0.238925908010338 
1864	-0.170611269072206 
1865	-0.382886989959419 
1866	-1.5254141617863 
1867	-1.66842474714492 
1868	-1.25959402091977 
1869	-1.22255788705072 
1870	-0.766017202606619 
1871	-0.869880819929108 
1872	-1.80188313110782 
1873	-3.79658614271006 
1874	-16.0639360389099 
1875	 8.08408109221513 
1876	 4.05396385605797 
1877	 6.48272498982938 
1878	-8.4540355634381 
1879	-2.50866780660875 
1880	-1.68210941775167 
1881	-0.873337784467506 
1882	-0.416494453929229 
1883	-0.131958034762721 
1884	 0.460219163999804 
1885	 0.169344215279871 
1886	 0.493070017819543 
1887	 0.893965105451103 
1888	 0.355424472730618 
1889	-1.60488419712393E-02 
1890	-0.340778610971409 
1891	-0.315094790402715 
1892	-8.31913013020255E-02 
1893	 0.604110506332516 
1894	 1.37722057699754 
1895	-6.49264677424193 
1896	-0.640047863962988 
1897	 0.110460400641437 
1898	 2.27341616239347 
1899	 1.62997011205228 
1900	 2.342214444056 
1901	-17.1030268680453 
1902	-5.4909887136085 
1903	-4.13962061405059 
1904	-0.404341687442301 
1905	 0.287975888754783 
1906	 1.22622415207243 
1907	 2.44443012598381 
1908	 2.44573229118868 
1909	 4.25643792981859 
1910	 5.18985477564276 
1911	 12.3439255565038 
1912	-3.72777436667663 
1913	-2.74553635866204 
1914	-3.03297067678236 
1915	-2.90255280100477 
1916	-2.80844886780401 
1917	-4.58941739757578 
1918	-257.211484711605 
1919	 5.66643101982656 
1920	-78.0264090267041 
1921	-3.32286905779052 
1922	-0.901374092985333 
1923	-0.448922557257665 
1924	-0.307803938727386 
1925	-0.29170718584033 
1926	-0.405646829945445 
1927	-1.16688486462195 
1928	 16.8816692445865 
1929	 1.11124431352557 
1930	 0.654599755651015 
1931	 0.284283013512921 
1932	-2.09539439780359 
1933	 3.62031087083953 
1934	 0.725651397715457 
1935	-0.315337879669238 
1936	 9.84572481655287 
1937	-41.4350789305245 
1938	 4.58553216691032 
1939	 7.75271561053726 
1940	 1.04651887669041 
1941	 0.46063904890063 
1942	-0.101377752954061 
1943	-0.29557904954499 
1944	-0.768324662702428 
1945	-2.38534097194397 
1946	-3.36874916347514 
1947	-1.76002917360662 
1948	-2.02797087882078 
1949	-1.57605989393817 
1950	-1.07114586865097 
1951	-0.982513067169552 
1952	-0.923699874055276 
1953	-0.782715288092145 
1954	-0.335202355393889 
1955	-0.221665688663148 
1956	-4.03383479663436E-02 
1957	 1.07955499493156E-02 
1958	 0.174918293545605 
1959	 0.293828436631443 
1960	 0.214168768998018 
1961	 0.133574066942494 
1962	 2.84960596362772E-02 
1963	-3.57579379902835E-02 
1964	-5.57410472484662E-02 
1965	-8.51352854174382E-02 
1966	-0.101951280420441 
1967	-0.10584595642852 
1968	-0.15100400798364 
1969	-0.133735804323898 
1970	-8.92326778596631E-02 
1971	-8.64032272277271E-02 
1972	-3.54408130012742E-02 
1973	-6.30396219409168E-03 
1974	-3.15577130779881E-02 
1975	-1.44340982157402E-02 
1976	-1.16773873884026E-03 
1977	-1.96692453714264E-02 
1978	-1.52097398011159E-02 
1979	-1.44659480808564E-02 
1980	-1.13521147881994E-02 
1981	-1.75919722482309E-02 
1982	-1.19338647007642E-02 
1983	-2.22268233962678E-02 
1984	-3.02932878648029E-02 
1985	-2.81200579963499E-02 
1986	-3.75527879163941E-02 
1987	-3.69966836621008E-02 
1988	-1.76919704813872E-02 
1989	-1.44492531067055E-02 
1990	-2.47933939726806E-02 
1991	-2.99955557323296E-02 
1992	-3.99850307806806E-02 
1993	-0.047259003518175 
1994	-5.39083797211524E-02 
1995	-5.69709668000389E-02 
1996	-5.21266025401119E-02 
1997	-5.00220724017272E-02 
1998	-6.65153122075643E-02 
1999	-6.72185313579682E-02 
2000	-6.86285958422266E-02 
2001	-8.82919614751627E-02 
2002	-9.16716255065463E-02 
2003	-9.77372207415735E-02 
2004	-0.12704145354497 
2005	-0.143418688248305 
2006	-0.16149592989561 
2007	-0.179121313994243 
2008	-0.16979133110614 
2009	-0.151324948969097 
2010	-0.112338856302732 
2011	-8.05300099525052E-02 
2012	-3.87391929196561E-02 
2013	-1.22028276042079E-02 
2014	 1.51114300996409E-02 
2015	-1.4724673422893E-03 
2016	-2.82800767271646E-02 
2017	-4.07834946197568E-02 
2018	-3.57268183457585E-02 
2019	-2.51328682479001E-02 
2020	-3.25656781937503E-03 
2021	 2.14671731600898E-02 
2022	 1.80435587762459E-02 
2023	 0.02230880298368 
2024	 0.020191982179807 
2025	 8.28682203767457E-03 
2026	 5.19372592307472E-03 
2027	 8.71442047591829E-03 
2028	-1.6122374810206E-03 
2029	-8.52642246570549E-03 
2030	-2.93144195258441E-03 
2031	-4.18474347428413E-03 
2032	-5.14800621407943E-03 
2033	 1.9821078354041E-03 
2034	 5.65964436955734E-03 
2035	 1.58311607248614E-03 
2036	 3.59890296050298E-03 
2037	 1.30090117472191E-02 
2038	 1.41753923592462E-02 
2039	 1.21008830581532E-02 
2040	 9.13735969381056E-03 
2041	 8.12591021624567E-03 
2042	-7.70142828580924E-04 
2043	-1.56611521932518E-03 
2044	 5.87470760567454E-03 
2045	 1.03749506640233E-02 
2046	 1.04132880190659E-02 
2047	 9.95442272770991E-03 
2048	 8.0229098982006E-03 
2049	 7.75150176889303E-03 
2050	 1.36701654707356E-02 
2051	 2.02049189618008E-02 
2052	 1.63103432231566E-02 
2053	 8.22571576822551E-04 
2054	-1.51275083506618E-02 
2055	-2.61445034003355E-02 
2056	-0.031133211985264 
2057	-0.023353072782323 
2058	-2.01427908422959E-02 
2059	-0.01408983768437 
2060	-1.54461289693375E-02 
2061	-2.13166614614106E-02 
2062	-2.56556366355945E-02 
2063	-2.79414389277876E-02 
2064	-3.09994678004531E-02 
2065	-3.56109279260319E-02 
2066	-3.07747483914769E-02 
2067	-2.31552625299716E-02 
2068	-1.61932340918406E-02 
2069	-1.06953896144726E-02 
2070	-6.22929067648756E-03 
2071	-2.20355552194576E-03 
2072	-1.22983473275274E-03 
2073	 3.7021941333758E-05 
2074	 5.66328227242179E-03 
2075	 5.31080286463432E-03 
2076	-1.5020032467191E-03 
2077	-3.55187701779048E-03 
2078	-4.80858549051746E-03 
2079	-4.21426347476584E-03 
2080	-1.75007642022852E-03 
2081	 4.28972080889387E-04 
2082	 6.01009976996297E-04 
2083	-1.84660789583662E-03 
2084	-4.34578451112259E-03 
2085	-3.56196808545424E-03 
2086	 2.07399357370105E-03 
2087	 8.83371692313385E-03 
2088	 9.12834815778097E-03 
2089	 7.47693960379305E-03 
2090	 6.30975197456525E-03 
2091	 3.68732846886395E-03 
2092	 4.39770716604488E-03 
2093	 1.07856019780233E-02 
2094	 1.46082446111452E-02 
2095	 1.77165752486085E-02 
2096	 1.94302626774011E-02 
2097	 2.11556661049057E-02 
2098	 0.020311798268388 
2099	 1.55994037787526E-02 
2100	 1.63288915861793E-02 
2101	 1.44943398741935E-02 
2102	 1.29030702752585E-02 
2103	 1.07707930117165E-02 
2104	 8.43868711158451E-03 
2105	 7.93833362891916E-03 
2106	 6.43888887345063E-03 
2107	 5.24738101705563E-03 
2108	 5.57362434224492E-03 
2109	 5.39762009251175E-03 
2110	 5.08065081117787E-03 
2111	 5.76410268763853E-03 
2112	 7.41769630473478E-03 
2113	 8.39156876448779E-03 
2114	 8.96945616413349E-03 
2115	 9.63488550942908E-03 
2116	 1.00621701616712E-02 
2117	 1.04652680678606E-02 
2118	 1.28398349819525E-02 
2119	 1.17080934119502E-02 
2120	 9.0233231935849E-03 
2121	 4.60263816869134E-03 
2122	 2.32595239457861E-03 
2123	 4.65474142249577E-04 
2124	 8.6044379232656E-04 
2125	 2.59699234937937E-03 
2126	 1.27389750732785E-03 
2127	-2.44774387049839E-03 
2128	-3.7525683105931E-03 
2129	-2.01533051971855E-04 
2130	 4.34990188509279E-03 
2131	 9.14718779003318E-03 
2132	 1.38240362377278E-02 
2133	 1.66869643796466E-02 
2134	 1.61934069797896E-02 
2135	 1.04168610295164E-02 
2136	 9.9748774756823E-03 
2137	 8.80020839499082E-03 
2138	 8.36684828234362E-03 
2139	 1.29224017874579E-02 
2140	 1.46308035422568E-02 
2141	 1.45000358236274E-02 
2142	 1.49362321983262E-02 
2143	 1.57243931056875E-02 
2144	 1.47705555516661E-02 
2145	 0.015640507847961 
2146	 1.11704967335167E-02 
2147	 7.75893255499013E-03 
2148	 6.74513442492942E-03 
2149	 3.13964156133069E-03 
2150	 1.31146896215822E-03 
2151	 3.10764156224258E-03 
2152	 3.47798535407048E-03 
2153	 9.1150705582962E-03 
2154	 0.016295572511752 
2155	 1.39651974274125E-02 
2156	 1.37165035627821E-02 
2157	 1.34575986542892E-02 
2158	 8.95935937065237E-03 
2159	 5.4828320614959E-03 
2160	 3.20049807557176E-03 
2161	 3.85727346655844E-03 
2162	 3.23409046068968E-03 
2163	 6.13309966874947E-03 
2164	 1.71462940680656E-02 
2165	 2.06823324065142E-02 
2166	 2.09800661494194E-02 
2167	 2.04527396665235E-02 
2168	 1.61814901936263E-02 
2169	 1.52453132745241E-02 
2170	 1.51066136150063E-02 
2171	 1.49148129525255E-02 
2172	 1.50366724841283E-02 
2173	 1.49777875397273E-02 
2174	 1.32106727165552E-02 
2175	 1.56400598669834E-02 
2176	 2.13458711738326E-02 
2177	 2.19119633333107E-02 
2178	 1.97749390478692E-02 
2179	 1.37662869977728E-02 
2180	 5.71822025186652E-03 
2181	 3.40988422282839E-03 
2182	 5.12274927569777E-03 
2183	 6.4533278844977E-03 
2184	 4.65154965867488E-03 
2185	 2.39517720267116E-03 
2186	-4.55634710840631E-04 
2187	-8.38681736303382E-03 
2188	-9.11555394828687E-03 
2189	-6.20654996185039E-03 
2190	-2.33050386796624E-03 
2191	 7.54353479875589E-03 
2192	 1.26838539162529E-02 
2193	 1.94226920912987E-02 
2194	 2.04051275014038E-02 
2195	 1.26788345407369E-02 
2196	 1.33908858657061E-02 
2197	 1.71393849581298E-02 
2198	 1.53645883541233E-02 
2199	 1.42481091250503E-02 
2200	 1.46271928159024E-02 
2201	 7.49908214551047E-03 
2202	 3.86302123069231E-03 
2203	 1.23418849854683E-02 
2204	 1.58716727622715E-02 
2205	 1.33362132175712E-02 
2206	 1.54624506427773E-02 
2207	 1.43897321261932E-02 
2208	 1.37333859931908E-02 
2209	 1.45890245391717E-02 
2210	 1.27436544817408E-02 
2211	 9.70968195425335E-03 
2212	 5.85608185982181E-03 
2213	 6.02514397747729E-03 
2214	 7.76405246105422E-03 
2215	 5.87337278931957E-03 
2216	 5.61292862770501E-03 
2217	 5.9718634896989E-03 
2218	 5.11524166654979E-03 
2219	 5.82711067084172E-03 
2220	 1.24998723848399E-02 
2221	 1.09861666771499E-02 
2222	 4.62849491263494E-03 
2223	 2.54801156789086E-03 
2224	-4.3400661046692E-03 
2225	-8.03707338509405E-03 
2226	-7.48012347747315E-03 
2227	-4.88310776666909E-03 
2228	 1.68891601993862E-03 
2229	 3.48770726164815E-03 
2230	 6.41429147804349E-03 
2231	 7.63125368246648E-03 
2232	 1.49231512011047E-03 
2233	-1.78798119307061E-03 
2234	-1.82799234856308E-03 
2235	-3.1847226297856E-03 
2236	-1.38649756999564E-02 
2237	-1.38952565255617E-02 
2238	-4.19823929514682E-03 
2239	-5.89915159861044E-03 
2240	 1.66037122725212E-03 
2241	 1.46050637581312E-02 
2242	 9.99641650525202E-03 
2243	 9.57626304047911E-03 
2244	 6.42343701448241E-03 
2245	-1.89399119548843E-03 
2246	-1.27778064995358E-03 
2247	 5.99768772557192E-04 
2248	 6.19904481198861E-03 
2249	 8.02659375775292E-03 
2250	 3.25704210930259E-03 
2251	 6.01928802143945E-04 
2252	 4.40578687830501E-03 
2253	 5.9030325902878E-03 
2254	-1.02860300026843E-03 
2255	-4.19324778322513E-03 
2256	-1.60692844418341E-02 
2257	-2.19914555677043E-02 
2258	-5.76174202827811E-03 
2259	 2.71083469583302E-03 
2260	 7.44845413409229E-03 
2261	 1.44363439077883E-02 
2262	 1.48144764481532E-02 
2263	 2.53874387296813E-03 
2264	-1.39081051179985E-03 
2265	-5.89987980607923E-04 
2266	-2.44872259879565E-03 
2267	-5.25852577067543E-03 
2268	-8.47460577392914E-03 
2269	-1.44116518833348E-02 
2270	-1.83258389038379E-02 
2271	-2.50182862018367E-02 
2272	-2.33141520333454E-02 
2273	-6.01954298103741E-03 
2274	-5.22161075075088E-03 
2275	-1.50404052855384E-02 
2276	-1.38954593110684E-02 
2277	-1.50056417144732E-02 
2278	-1.73829255243727E-02 
2279	-1.59177847849211E-02 
2280	-1.18913142641558E-02 
2281	-4.5728410911966E-03 
2282	-9.50320358562878E-03 
2283	-1.21851523697568E-02 
2284	 1.65467711409226E-05 
2285	-7.14670300068895E-03 
2286	-0.016696520888085 
2287	-1.11527158087195E-02 
2288	-5.65008737165912E-03 
2289	 3.10336974811486E-03 
2290	 7.26852302028336E-03 
2291	 1.14307625347897E-03 
2292	 2.96848069082132E-03 
2293	 1.23365076162556E-02 
2294	 2.89722109977701E-02 
2295	 4.67993030287522E-02 
2296	 5.09358728336392E-02 
2297	 0.044340593402656 
2298	 3.51139755707503E-02 
2299	 4.02002391319667E-02 
2300	 4.29706405711173E-02 
2301	 5.04565836900605E-02 
2302	 0.06527270100988 
2303	 5.61548796845248E-02 
2304	 5.21633479607448E-02 
2305	 5.15677624337313E-02 
2306	 0.046279331402657 
2307	 3.72713194796486E-02 
2308	 1.64630293253279E-02 
2309	 7.99846147793517E-04 
2310	-7.56525415118768E-03 
2311	-5.43599537539197E-03 
2312	 9.14023714464685E-03 
2313	 2.73870078859002E-02 
2314	 2.21802144539055E-02 
2315	 1.47636478778638E-02 
2316	-2.63770150961386E-04 
2317	-0.034700521752266 
2318	-3.41670832814796E-02 
2319	-3.03726625534926E-02 
2320	-4.27534335657067E-02 
2321	-5.41753066333453E-02 
2322	-6.14412100283543E-02 
2323	-6.61615049016688E-02 
2324	-6.91019055345013E-02 
2325	-5.41906364496542E-02 
2326	-6.50247847701332E-02 
2327	-7.51402912416996E-02 
2328	-5.19786744415262E-02 
2329	-3.01767309813246E-02 
2330	-2.96625367025289E-03 
2331	-1.02755652912989E-02 
2332	-3.53383564004306E-02 
2333	-4.67466954702238E-02 
2334	-5.24151050003364E-02 
2335	-2.87778203310374E-02 
2336	-2.91077885519086E-02 
2337	-5.46149615302941E-02 
2338	-6.96120166681338E-02 
2339	-0.104372912935511 
2340	-9.86717622601996E-02 
2341	-9.51833583457715E-02 
2342	-0.14009260327304 
2343	-0.128433545143548 
2344	-0.125966172933125 
2345	-0.150797631843596 
2346	-7.97595306184714E-02 
2347	-1.95678412419712E-02 
2348	-2.07933389538276E-02 
2349	-8.85574356623436E-03 
2350	-2.37744895091048E-02 
2351	-4.24563385932035E-02 
2352	-4.57158229801291E-02 
2353	-0.081451615850619 
2354	-6.42403221869724E-02 
2355	-7.09654683021756E-02 
2356	-0.166740271639245 
2357	-0.199819469311502 
2358	-0.188878501294921 
2359	-0.194198311756977 
2360	-0.210793436259791 
2361	-0.183157422341429 
2362	-0.14056961466065 
2363	-0.1431622904687 
2364	-9.76860342120155E-02 
2365	-5.06047521467568E-02 
2366	-6.81187922992152E-02 
2367	-8.42099639190483E-02 
2368	-7.77963356111302E-02 
2369	-0.128588509631351 
2370	-0.183944833801619 
2371	-0.196636578970504 
2372	-0.280144226334815 
2373	-0.320267700449996 
2374	-0.357589676480353 
2375	-0.463841584925666 
2376	-0.472382990554317 
2377	-0.472700118775539 
2378	-0.475711251271607 
2379	-0.357121200982735 
2380	-0.169061217001975 
2381	-0.273791998582241 
2382	-0.476420465888978 
2383	-0.626996029581873 
2384	-0.930989820636424 
2385	-0.957836910913233 
2386	-1.0329455695118 
2387	-1.2567297451685 
2388	-1.41412175539487 
2389	-1.33277778054886 
2390	-0.835460175619357 
2391	-0.452640558911938 
2392	-0.236311986219099 
2393	-0.234609755007243 
2394	-0.335473681239747 
2395	-0.343050671345732 
2396	-0.374230860810269 
2397	-0.499883889023697 
2398	-0.562409673104225 
2399	-0.681529640731327 
2400	-0.946490612565046 
2401	-0.536803455146621 
2402	-0.123154568444001 
2403	-3.50049869432263E-02 
2404	 0.149236652001202 
2405	 0.32224903271991 
2406	 3.78584773390792E-02 
2407	-0.160150865252071 
2408	-0.932303560955226 
2409	-3.09357637086913 
2410	-0.518847564347185 
2411	 4.30584100623662E-02 
2412	-0.092451746011598 
2413	-0.302167495355145 
2414	-1.2492578743017 
2415	-0.937700389003963 
2416	-0.699049624130136 
2417	-1.25668953828214 
2418	-1.25533701301404 
2419	-1.03824571237297 
2420	-2.40928420073998 
2421	 0.23410268067984 
2422	-0.171668372670588 
2423	-1.06557777601545 
2424	-2.57047892948943 
2425	-4.02895979883999 
2426	-51.7052748258145 
2427	 1.21667227747623 
2428	 4.6740261218587 
2429	 0.239740067138515 
2430	 1.46215011067165 
2431	 0.800257369707282 
2432	 1.72089288004246 
2433	-46.5733113741547 
2434	-1.51921344449432 
2435	-0.74935365894748 
2436	-0.249097674349506 
2437	 0.220648998585079 
2438	 0.715140334101258 
2439	 1.09129327701889 
2440	 1.3731788359169 
2441	 1.49395384498667 
2442	 2.08296171194472 
2443	 1.61555630684985 
2444	 1.17866922281076 
2445	 0.970149021114075 
2446	 0.511820887841412 
2447	 0.557236087316484 
2448	 0.537356710786872 
2449	 0.667172543895463 
2450	 0.943786267547716 
2451	 0.813399242635715 
2452	 1.38396508229413 
2453	 2.56919012123829 
2454	 8.59192507826738 
2455	 2.88309530581734 
2456	 1.34890116992432 
2457	 0.598207634871676 
2458	 0.3124522342668 
2459	 0.302114132365835 
2460	 0.369889295789053 
2461	 0.336334785836787 
2462	 0.481664843851445 
2463	 1.51928601746536 
2464	 2.61954015660395 
2465	 11.0156669858005 
2466	 3.51526976631857 
2467	 1.86285085565537 
2468	 2.42655067649054 
2469	 2.6542683885377 
2470	 1.38159709484114 
2471	 1.41596286762519 
2472	 1.27924580088141 
2473	 0.98812850001319 
2474	 1.95861459201014 
2475	 3.03960125877316 
2476	 3.44852859001286 
2477	 9.26333727184664 
2478	-2.96372239675159 
2479	-0.798613576331744 
2480	-5.26796949553588 
2481	 4.22621121508373 
2482	 2.98610578221155 
2483	 1.21597615057723 
2484	 1.15227434181282 
2485	-0.202246057024057 
2486	-0.68972954874526 
2487	-2.11234107904421E-02 
2488	 0.338973451132013 
2489	 0.276698312574709 
2490	 0.30385309479996 
2491	 0.149504418957894 
2492	 8.74322016837392E-02 
2493	 0.607765798869988 
2494	 0.879013197048937 
2495	 1.32246627836088 
2496	 2.61382281032213 
2497	 2.19571406534186 
2498	 3.18892618784208 
2499	-10.9274874687017 
2500	-4.68504027801758 
