Wavelength	rt0704rt200001.asd
350	 4.93928820818229E-02 
351	 0.049019529546485 
352	 4.93556293112907E-02 
353	 4.98095988637392E-02 
354	 4.97891708151387E-02 
355	 4.96470035999904E-02 
356	 5.01330723574237E-02 
357	 5.09999244678129E-02 
358	 0.051688751970122 
359	 5.19187072732131E-02 
360	 5.22411498580138E-02 
361	 0.052754427412274 
362	 5.32317801422602E-02 
363	 0.05381899662955 
364	 0.054040294953179 
365	 5.39938484033907E-02 
366	 5.47258137480385E-02 
367	 5.56319416288968E-02 
368	 5.62075310860501E-02 
369	 5.62379372808489E-02 
370	 5.63578063682707E-02 
371	 5.68365562437341E-02 
372	 5.75223392317313E-02 
373	 5.80480150820654E-02 
374	 5.87461199087486E-02 
375	 5.88830150853758E-02 
376	 0.058812279219724 
377	 6.04230569654373E-02 
378	 6.07608345760398E-02 
379	 0.060664147267183 
380	 0.061291478604612 
381	 6.18078724814523E-02 
382	 6.20055218082358E-02 
383	 6.20953035554145E-02 
384	 6.24327221176014E-02 
385	 6.26613469123789E-02 
386	 6.28902829190345E-02 
387	 6.31747230941106E-02 
388	 6.34703838287589E-02 
389	 6.38950929003189E-02 
390	 6.40043002251009E-02 
391	 6.36775611274163E-02 
392	 6.37819879112463E-02 
393	 6.39869642568736E-02 
394	 6.39870364304347E-02 
395	 6.36728239666677E-02 
396	 6.38620714073265E-02 
397	 0.063951776316681 
398	 6.38014908266528E-02 
399	 6.37218915944365E-02 
400	 6.33607868129415E-02 
401	 6.31888364208518E-02 
402	 6.33717844936774E-02 
403	 6.31452188095667E-02 
404	 6.30078509928874E-02 
405	 6.28399793312355E-02 
406	 6.24065343584582E-02 
407	 6.21550192211907E-02 
408	 6.19533585280914E-02 
409	 6.17064287872639E-02 
410	 6.14006703215446E-02 
411	 6.11596699330892E-02 
412	 6.07441505470651E-02 
413	 6.01390774602835E-02 
414	 6.00260424079671E-02 
415	 5.99192859773794E-02 
416	 5.96039029915151E-02 
417	 5.90763988861081E-02 
418	 5.88757284265555E-02 
419	 0.058642535002186 
420	 5.83148984206966E-02 
421	 5.82070521578059E-02 
422	 5.80439914101299E-02 
423	 5.78565376126322E-02 
424	 5.77409025932932E-02 
425	 5.78165056017419E-02 
426	 5.77435139100467E-02 
427	 5.76012078931522E-02 
428	 5.76390748878417E-02 
429	 5.76940621493088E-02 
430	 5.76503080610779E-02 
431	 5.75888646609145E-02 
432	 5.78051749098335E-02 
433	 5.79309008682277E-02 
434	 5.80233870195258E-02 
435	 5.81819514276815E-02 
436	 5.83534110444723E-02 
437	 5.83546660415969E-02 
438	 5.82959681485915E-02 
439	 5.84085179494524E-02 
440	 0.058423960373689 
441	 0.058379795560123 
442	 5.83759843682346E-02 
443	 5.85600558455771E-02 
444	 5.85746310608235E-02 
445	 5.85158094554671E-02 
446	 5.85381539372458E-02 
447	 0.058478769148605 
448	 5.84860904853862E-02 
449	 5.85056800304981E-02 
450	 5.83502831235078E-02 
451	 5.81928605585965E-02 
452	 5.80997311281985E-02 
453	 5.80394529448066E-02 
454	 5.78067857425681E-02 
455	 5.76974038221107E-02 
456	 5.75776305881673E-02 
457	 5.72526275303187E-02 
458	 5.70816482666589E-02 
459	 5.69510802828414E-02 
460	 5.67708312916391E-02 
461	 5.65059617787246E-02 
462	 5.62474389516766E-02 
463	 5.60034019274941E-02 
464	 5.57812143415059E-02 
465	 5.56578978917685E-02 
466	 5.53878174461145E-02 
467	 5.51268191979932E-02 
468	 5.51459781634418E-02 
469	 5.49541029193246E-02 
470	 5.47351729152347E-02 
471	 5.45960728895346E-02 
472	 0.054454880277007 
473	 0.054332906463606 
474	 0.054264379424016 
475	 5.42390568264329E-02 
476	 5.40598276144495E-02 
477	 5.40369471491086E-02 
478	 5.41010221317339E-02 
479	 5.39613588908722E-02 
480	 5.40282774363649E-02 
481	 5.40716511990183E-02 
482	 5.39601261333983E-02 
483	 5.39236612045588E-02 
484	 0.054016419966377 
485	 5.41405521753367E-02 
486	 5.41711576472568E-02 
487	 0.054222111874786 
488	 5.43597203509783E-02 
489	 5.45487715769094E-02 
490	 5.46705673516707E-02 
491	 5.48943320679111E-02 
492	 5.51279099201997E-02 
493	 5.53096203036027E-02 
494	 5.56069226822376E-02 
495	 5.59234302028358E-02 
496	 5.62066736951746E-02 
497	 5.64409603785204E-02 
498	 5.67131975410636E-02 
499	 5.70448534568576E-02 
500	 5.74237912618322E-02 
501	 5.78035332354709E-02 
502	 5.80615029092392E-02 
503	 5.83115000417632E-02 
504	 5.86746836774124E-02 
505	 5.89995650977597E-02 
506	 5.92405761944742E-02 
507	 5.94911439282681E-02 
508	 5.99248393401323E-02 
509	 0.060211450932768 
510	 6.05579231456661E-02 
511	 6.10608963723949E-02 
512	 6.13553162031718E-02 
513	 6.16781957278778E-02 
514	 6.20688330076035E-02 
515	 6.24841112710305E-02 
516	 6.29279698211718E-02 
517	 6.33608029195599E-02 
518	 6.38194024436099E-02 
519	 6.44345417440323E-02 
520	 6.50699565954087E-02 
521	 6.56692003700673E-02 
522	 6.62364682732677E-02 
523	 6.68790908935951E-02 
524	 6.75956098214706E-02 
525	 6.84089067822236E-02 
526	 6.93462861310109E-02 
527	 0.07025888535509 
528	 7.12790577065364E-02 
529	 7.24361675559758E-02 
530	 7.34607482239781E-02 
531	 7.47584164451895E-02 
532	 7.62051514847894E-02 
533	 7.75309651769006E-02 
534	 7.89223864356342E-02 
535	 8.04439186756522E-02 
536	 8.20668610344482E-02 
537	 8.36644059161249E-02 
538	 8.55415729802055E-02 
539	 8.74253506038777E-02 
540	 8.91192544930916E-02 
541	 9.11759809409572E-02 
542	 9.31284559466999E-02 
543	 9.49370769064589E-02 
544	 0.09683066321067 
545	 9.86978912773922E-02 
546	 0.100595516579719 
547	 0.102525295560952 
548	 0.104360083387263 
549	 0.106137810147346 
550	 0.107858323898397 
551	 0.109519240860513 
552	 0.111125937969049 
553	 0.112756682627134 
554	 0.114403959492762 
555	 0.115952139147953 
556	 0.117482738862176 
557	 0.11902960012781 
558	 0.120597774247437 
559	 0.122195877220362 
560	 0.123813473263028 
561	 0.125445409908873 
562	 0.127092869488965 
563	 0.12866316628072 
564	 0.130233967835024 
565	 0.131802469096251 
566	 0.133160756247371 
567	 0.13453448895664 
568	 0.135886309411298 
569	 0.137098652963801 
570	 0.138244329358076 
571	 0.139260338796797 
572	 0.140144185840758 
573	 0.140958326871503 
574	 0.141675801519397 
575	 0.142358858555107 
576	 0.143032362528905 
577	 0.143540687164724 
578	 0.144128058104635 
579	 0.144771437779753 
580	 0.145281021148012 
581	 0.145608221302032 
582	 0.145907120980017 
583	 0.146216682270554 
584	 0.146315702094332 
585	 0.1462966591119 
586	 0.146195225161647 
587	 0.146021655300624 
588	 0.145706440694075 
589	 0.1456069300473 
590	 0.145705582128183 
591	 0.14556527476321 
592	 0.145511396220865 
593	 0.145462242343387 
594	 0.145316126124894 
595	 0.145156806981337 
596	 0.144922485335142 
597	 0.144574943572634 
598	 0.144112345758998 
599	 0.143697727425719 
600	 0.143367264308359 
601	 0.143122008206039 
602	 0.142937082349175 
603	 0.142831724255477 
604	 0.142734467906458 
605	 0.142590352719141 
606	 0.142577738441622 
607	 0.142552557492546 
608	 0.142472320749854 
609	 0.142412951872065 
610	 0.142305996953237 
611	 0.142175964008031 
612	 0.142033568423622 
613	 0.141783371556775 
614	 0.141552265793344 
615	 0.141382448250043 
616	 0.141262063670042 
617	 0.141169542947122 
618	 0.141012272754895 
619	 0.140795180682291 
620	 0.14069300399046 
621	 0.140564510410495 
622	 0.140397842819219 
623	 0.140234352871349 
624	 0.140163820122431 
625	 0.140043152409722 
626	 0.139866935695114 
627	 0.139768416052136 
628	 0.139659106914355 
629	 0.139660109543518 
630	 0.139798851851594 
631	 0.139795511285311 
632	 0.139614069425219 
633	 0.139360393763492 
634	 0.139156565605909 
635	 0.138624156225256 
636	 0.138004066182456 
637	 0.137388201368167 
638	 0.136558459489282 
639	 0.135734192995462 
640	 0.134873526315439 
641	 0.1339012748622 
642	 0.132917462048061 
643	 0.131713403787389 
644	 0.13030739883439 
645	 0.128909584340534 
646	 0.127355268439795 
647	 0.125846834729023 
648	 0.124563846295573 
649	 0.12332997633801 
650	 0.122230163868757 
651	 0.121390981724271 
652	 0.12095109349755 
653	 0.120652375002033 
654	 0.120482797957706 
655	 0.120386800961701 
656	 0.120220705463882 
657	 0.119968346185983 
658	 0.119675330205914 
659	 0.119303707147209 
660	 0.118575201244142 
661	 0.117539422626605 
662	 0.116281611935159 
663	 0.114927226600509 
664	 0.113428302334268 
665	 0.111899965675597 
666	 0.110426662582616 
667	 0.109058596210516 
668	 0.107641422742422 
669	 0.106352837468101 
670	 0.105411018467819 
671	 0.104596595288992 
672	 0.103975961447642 
673	 0.103615970329889 
674	 0.103566452117155 
675	 0.1036299660538 
676	 0.103985863639965 
677	 0.104776493724724 
678	 0.105873519110444 
679	 0.10725201771716 
680	 0.109014624734228 
681	 0.111303098593239 
682	 0.11405004877777 
683	 0.117223707342557 
684	 0.120750232000663 
685	 0.124889287384542 
686	 0.129735017443739 
687	 0.134443132353591 
688	 0.138141470075148 
689	 0.142064804384139 
690	 0.145749102506743 
691	 0.149027662286098 
692	 0.151896706479034 
693	 0.154679673705105 
694	 0.157085039005669 
695	 0.158894699255228 
696	 0.1603377236001 
697	 0.161395013435739 
698	 0.162176581597831 
699	 0.162675622726636 
700	 0.162729325251884 
701	 0.162798239877258 
702	 0.162811351592133 
703	 0.162296736310292 
704	 0.16159540763365 
705	 0.160750505097524 
706	 0.159777340780785 
707	 0.158647017922836 
708	 0.157395043223671 
709	 0.155928717733184 
710	 0.154159112669044 
711	 0.152216695334038 
712	 0.150085849656635 
713	 0.147833632515652 
714	 0.145561387814688 
715	 0.143133965171994 
716	 0.140435010133499 
717	 0.137699030545218 
718	 0.135009523326987 
719	 0.132289974353567 
720	 0.130072473047031 
721	 0.128179490162587 
722	 0.125859781936727 
723	 0.123116996012791 
724	 0.120529000552089 
725	 0.118283011778393 
726	 0.115572084821141 
727	 0.11285564761524 
728	 0.110471004329375 
729	 0.107452815497322 
730	 0.104501818712861 
731	 0.102067481961422 
732	 0.100061753380277 
733	 9.81041123639732E-02 
734	 9.64289971792977E-02 
735	 0.095122689504015 
736	 9.39876662687454E-02 
737	 9.31866055283306E-02 
738	 9.25576540623292E-02 
739	 9.19872499973925E-02 
740	 9.16849157577508E-02 
741	 9.13822937378418E-02 
742	 9.11481058135289E-02 
743	 9.11519145856144E-02 
744	 9.09214771620251E-02 
745	 9.07170279504841E-02 
746	 9.06360037594155E-02 
747	 9.04596123623858E-02 
748	 9.03851946413724E-02 
749	 9.02985894493659E-02 
750	 9.01152711297297E-02 
751	 9.01184662012899E-02 
752	 9.00056482772263E-02 
753	 8.98464070948995E-02 
754	 8.98613413958948E-02 
755	 0.08966238306526 
756	 8.96027332847966E-02 
757	 0.089699025359398 
758	 8.92837963664095E-02 
759	 8.91865832027347E-02 
760	 8.91561750092135E-02 
761	 8.84780364344067E-02 
762	 8.80837441012059E-02 
763	 8.82389418519669E-02 
764	 8.85939143442811E-02 
765	 8.87721456395435E-02 
766	 8.91089902424228E-02 
767	 8.92907992314269E-02 
768	 8.93478666028226E-02 
769	 8.96011143163643E-02 
770	 8.96878317280732E-02 
771	 8.98229541542038E-02 
772	 9.01354093223899E-02 
773	 9.02151161191984E-02 
774	 9.02576391734182E-02 
775	 9.04184572669584E-02 
776	 0.090759326846841 
777	 9.08687875190326E-02 
778	 9.10680668717809E-02 
779	 9.14292889655667E-02 
780	 9.17263895917485E-02 
781	 9.20002048994537E-02 
782	 9.22516051462859E-02 
783	 9.25148162285976E-02 
784	 0.092921105526739 
785	 9.32408730601973E-02 
786	 9.35050880249515E-02 
787	 9.38256540205399E-02 
788	 9.41770584978093E-02 
789	 9.44626235408899E-02 
790	 9.47878093338719E-02 
791	 9.53810380796807E-02 
792	 9.59118551752607E-02 
793	 9.62589234622246E-02 
794	 9.65213392710952E-02 
795	 9.70824879662449E-02 
796	 9.73745245997361E-02 
797	 9.76244276718285E-02 
798	 9.81067675441793E-02 
799	 9.83732760274015E-02 
800	 9.87137190607087E-02 
801	 9.91388353069381E-02 
802	 9.94944274424472E-02 
803	 9.97335126796176E-02 
804	 9.98639546381342E-02 
805	 9.99396222681122E-02 
806	 0.100047713386898 
807	 0.100313578835716 
808	 0.100216025145286 
809	 9.95318161552693E-02 
810	 9.91987602338564E-02 
811	 9.87446542436193E-02 
812	 9.81464446432152E-02 
813	 0.097542624910176 
814	 0.096850388904124 
815	 9.60588961688691E-02 
816	 9.56597735259512E-02 
817	 9.61324717789854E-02 
818	 9.53498218921283E-02 
819	 9.44323289360514E-02 
820	 9.38085506576877E-02 
821	 0.092787014548931 
822	 9.11365386587081E-02 
823	 8.95242861551804E-02 
824	 8.84518791190877E-02 
825	 8.74376174065274E-02 
826	 8.58702009266822E-02 
827	 8.38755255292782E-02 
828	 8.20487997931018E-02 
829	 8.04748584524878E-02 
830	 7.91581414533169E-02 
831	 7.79842670575656E-02 
832	 7.68607644256162E-02 
833	 7.61052946789033E-02 
834	 0.075740963659711 
835	 7.54176251445304E-02 
836	 7.44331901440392E-02 
837	 7.39929333182157E-02 
838	 7.39731131010286E-02 
839	 0.073942922452947 
840	 7.34760427834777E-02 
841	 7.30585283980862E-02 
842	 7.27914091102661E-02 
843	 7.25871426548672E-02 
844	 7.21816809696772E-02 
845	 7.20829057527168E-02 
846	 7.20925934439463E-02 
847	 7.16172009192423E-02 
848	 7.12738965944702E-02 
849	 7.10224605792581E-02 
850	 7.08071012105532E-02 
851	 7.06353123671121E-02 
852	 7.03157898406995E-02 
853	 0.070066096965024 
854	 6.99562393762697E-02 
855	 6.95625850043572E-02 
856	 6.91333198298291E-02 
857	 6.89796871884059E-02 
858	 0.069178798067398 
859	 6.89885948817161E-02 
860	 0.068668665216051 
861	 6.82780191193028E-02 
862	 6.78806234623608E-02 
863	 6.82478282205541E-02 
864	 6.81264623773509E-02 
865	 6.75003983158175E-02 
866	 6.74877111204114E-02 
867	 0.067140740855517 
868	 6.68717014192097E-02 
869	 6.66629239572597E-02 
870	 6.57715035732045E-02 
871	 6.56363459151794E-02 
872	 6.57111286977259E-02 
873	 6.54758817995543E-02 
874	 6.55197797240377E-02 
875	 6.49370153151915E-02 
876	 6.42105345835075E-02 
877	 0.064001001577547 
878	 6.39313986375396E-02 
879	 6.36588094359248E-02 
880	 6.32459794227838E-02 
881	 6.29496414550512E-02 
882	 6.28145514781229E-02 
883	 6.23820389548857E-02 
884	 6.17414713085987E-02 
885	 6.13892557203557E-02 
886	 6.13028440705525E-02 
887	 0.06103549178479 
888	 6.06000210246355E-02 
889	 6.05382515870512E-02 
890	 6.02487680273618E-02 
891	 0.060073533407513 
892	 5.99549119455196E-02 
893	 5.87239863511989E-02 
894	 0.058559078366163 
895	 5.90018395380062E-02 
896	 5.89710412249425E-02 
897	 5.85957668104858E-02 
898	 5.79285680405192E-02 
899	 5.74047967961324E-02 
900	 5.72307477664841E-02 
901	 5.64878643087747E-02 
902	 5.62608428087619E-02 
903	 5.62833700030882E-02 
904	 5.59533914747301E-02 
905	 5.57658830709126E-02 
906	 0.054714084471711 
907	 5.35410469241662E-02 
908	 5.39710164534667E-02 
909	 5.34478823694909E-02 
910	 5.27134495201752E-02 
911	 5.22554345508796E-02 
912	 0.051955450824915 
913	 5.12992638950456E-02 
914	 5.11009973118547E-02 
915	 5.12371562453718E-02 
916	 5.05464241933849E-02 
917	 0.050598305490665 
918	 5.11371774978811E-02 
919	 5.13361256334983E-02 
920	 5.01140415649015E-02 
921	 4.94297032470906E-02 
922	 4.85582351509435E-02 
923	 4.74039717964117E-02 
924	 0.048421126688308 
925	 4.71159838094584E-02 
926	 4.53997368030902E-02 
927	 4.58865429913785E-02 
928	 4.45489840538706E-02 
929	 4.25628429972193E-02 
930	 4.29726771062835E-02 
931	 4.82671493176678E-02 
932	 4.37848659811194E-02 
933	 4.07113499911009E-02 
934	 3.86770856630166E-02 
935	 3.32106232371654E-02 
936	 0.038567461691594 
937	 3.68374727386721E-02 
938	 3.24042798517293E-02 
939	 0.033845366873161 
940	 3.77645925820407E-02 
941	 4.04252480588208E-02 
942	 3.95826762460196E-02 
943	 3.47708744166219E-02 
944	 3.11548650352273E-02 
945	 3.11203804157665E-02 
946	 0.032872715331423 
947	 3.25688244644066E-02 
948	 2.92723844713228E-02 
949	 3.19874328081279E-02 
950	 3.81373873811866E-02 
951	 3.82730038863831E-02 
952	 2.95155564103468E-02 
953	 2.54049287875285E-02 
954	 0.028949513162216 
955	 3.38554333467755E-02 
956	 0.032014485463242 
957	 2.90924356405142E-02 
958	 2.89967841577551E-02 
959	 3.22717958151446E-02 
960	 3.39539458621414E-02 
961	 2.96124459780244E-02 
962	 2.54679839632224E-02 
963	 3.10637801406146E-02 
964	 3.39450401238907E-02 
965	 3.30392716764492E-02 
966	 3.12276016883855E-02 
967	 0.032245300943922 
968	 3.15454922629428E-02 
969	 3.40564169534306E-02 
970	 3.67755108832334E-02 
971	 3.18180436068345E-02 
972	 3.20814540159545E-02 
973	 0.034038979434577 
974	 3.43179439608639E-02 
975	 0.032170959724011 
976	 3.02903879953612E-02 
977	 3.21581418976833E-02 
978	 3.49409469419151E-02 
979	 3.23795032438105E-02 
980	 3.06546374093863E-02 
981	 3.31656258189641E-02 
982	 3.64899759457369E-02 
983	 3.39443227403753E-02 
984	 3.15581435902096E-02 
985	 3.20781051223171E-02 
986	 3.35282306407476E-02 
987	 3.17571469370373E-02 
988	 3.14593949804091E-02 
989	 3.40674798293772E-02 
990	 3.61794285205102E-02 
991	 3.28319695302871E-02 
992	 3.04060109000912E-02 
993	 3.24376656886713E-02 
994	 3.51723918032638E-02 
995	 3.23628905614783E-02 
996	 3.29830917437264E-02 
997	 3.43984028489533E-02 
998	 3.41940799508048E-02 
999	 0.031910466953859 
1000	 3.30804713915933E-02 
1001	 3.34859373582653E-02 
1002	 3.37532211871118E-02 
1003	 3.38719954275564E-02 
1004	 3.42642064292399E-02 
1005	 3.43681926484082E-02 
1006	 3.41260925501294E-02 
1007	 3.39688175784063E-02 
1008	 3.40233425659448E-02 
1009	 3.39831271211356E-02 
1010	 3.44796181106671E-02 
1011	 3.50099420871159E-02 
1012	 3.55576319005793E-02 
1013	 3.60611730772264E-02 
1014	 3.59981975828089E-02 
1015	 3.52827790044176E-02 
1016	 3.51259624913913E-02 
1017	 3.45499465368678E-02 
1018	 3.45742422526758E-02 
1019	 3.54876776992746E-02 
1020	 3.58792100501645E-02 
1021	 3.60620958874557E-02 
1022	 3.64982791239492E-02 
1023	 3.71850865110326E-02 
1024	 3.70814898918059E-02 
1025	 0.037042967220788 
1026	 3.69580049944628E-02 
1027	 3.66700845166414E-02 
1028	 3.56492465800774E-02 
1029	 3.57283923089558E-02 
1030	 3.62600386165123E-02 
1031	 3.67060083534612E-02 
1032	 3.79883270560571E-02 
1033	 3.82799977016545E-02 
1034	 3.77594910209507E-02 
1035	 3.78955438345838E-02 
1036	 3.79616062463957E-02 
1037	 3.80607040784663E-02 
1038	 3.86924144945064E-02 
1039	 3.90998045083828E-02 
1040	 3.84535456977889E-02 
1041	 3.84459514534074E-02 
1042	 3.84140016764103E-02 
1043	 3.80926843085593E-02 
1044	 3.84958576171862E-02 
1045	 3.94902808492004E-02 
1046	 4.01330282705095E-02 
1047	 4.14389751138189E-02 
1048	 4.17063656282808E-02 
1049	 4.11749711291529E-02 
1050	 4.11276050983735E-02 
1051	 0.040719909562549 
1052	 4.05074780520825E-02 
1053	 4.06282079174387E-02 
1054	 4.06435796098855E-02 
1055	 4.03223894923919E-02 
1056	 0.040372118142321 
1057	 4.06264922218378E-02 
1058	 4.13220718625279E-02 
1059	 0.041472916324303 
1060	 4.18003941227513E-02 
1061	 4.15503166671071E-02 
1062	 4.04521051637718E-02 
1063	 4.01731987947353E-02 
1064	 3.98743468325534E-02 
1065	 3.98867582688569E-02 
1066	 4.06254064815611E-02 
1067	 4.09032845684193E-02 
1068	 4.09412753650919E-02 
1069	 4.12184666261025E-02 
1070	 0.041692596419833 
1071	 4.18409651927151E-02 
1072	 4.19361633020389E-02 
1073	 4.21792376591836E-02 
1074	 4.18657912480806E-02 
1075	 4.08410874347002E-02 
1076	 4.07091081707429E-02 
1077	 0.040809627095637 
1078	 4.06663341049778E-02 
1079	 4.08763856797285E-02 
1080	 4.07429693489687E-02 
1081	 4.00684585860179E-02 
1082	 3.98325887954853E-02 
1083	 3.98875245142404E-02 
1084	 3.98538319274878E-02 
1085	 3.97448308014729E-02 
1086	 3.97462945831914E-02 
1087	 4.03117022968979E-02 
1088	 4.01570590386628E-02 
1089	 3.94517018255403E-02 
1090	 3.89004011587833E-02 
1091	 3.86189114924089E-02 
1092	 3.77876838711806E-02 
1093	 3.76809045120881E-02 
1094	 3.88680380688801E-02 
1095	 3.87280284343624E-02 
1096	 3.75174602524081E-02 
1097	 3.73606687047422E-02 
1098	 3.73143436176337E-02 
1099	 3.73692222819203E-02 
1100	 3.85613898053699E-02 
1101	 3.89871677465956E-02 
1102	 3.82968552276081E-02 
1103	 3.83098807436347E-02 
1104	 3.85096718255719E-02 
1105	 3.92803724562689E-02 
1106	 3.93789719397594E-02 
1107	 3.90053604934543E-02 
1108	 3.86006269150333E-02 
1109	 3.73496149217972E-02 
1110	 3.67449957495165E-02 
1111	 3.76247420139147E-02 
1112	 3.71631031004943E-02 
1113	 3.50086271905087E-02 
1114	 3.38824274269175E-02 
1115	 3.20094673388292E-02 
1116	 3.08854510891838E-02 
1117	 3.27967245900239E-02 
1118	 3.17998297656985E-02 
1119	 2.80472362459259E-02 
1120	 2.63750112282979E-02 
1121	 2.15702208838962E-02 
1122	 2.12267059774688E-02 
1123	 2.61948684884213E-02 
1124	 2.69929164529646E-02 
1125	 2.17727112204564E-02 
1126	 1.05988522490176E-02 
1127	 1.22128036447478E-02 
1128	 2.02385588280238E-02 
1129	 2.44484162200262E-02 
1130	 3.60277128299488E-02 
1131	 3.72007447641999E-02 
1132	 0.02815153436148 
1133	 2.82237236593905E-02 
1134	 3.08432530525756E-02 
1135	 2.94490793959063E-02 
1136	 3.11385633122708E-02 
1137	 3.17513964370272E-02 
1138	 3.02903666398839E-02 
1139	 2.51219405601309E-02 
1140	 2.25547277002833E-02 
1141	 2.21375339647586E-02 
1142	 2.32524710463363E-02 
1143	 0.026463799249989 
1144	 3.48735145958539E-02 
1145	 3.69550285227097E-02 
1146	 3.00873369445388E-02 
1147	 2.71727548513319E-02 
1148	 2.40673325678357E-02 
1149	 2.22269999271716E-02 
1150	 2.33820986930898E-02 
1151	 2.92653726444787E-02 
1152	 0.029330518658224 
1153	 2.82377137229787E-02 
1154	 0.028250197865541 
1155	 2.72218910519666E-02 
1156	 2.64696251321514E-02 
1157	 2.84808373773168E-02 
1158	 3.06264872566492E-02 
1159	 3.01342966417915E-02 
1160	 2.94279380052372E-02 
1161	 2.87259491739231E-02 
1162	 2.75663070284161E-02 
1163	 2.70858461493629E-02 
1164	 2.72355838936661E-02 
1165	 2.76224218084165E-02 
1166	 2.77818523336191E-02 
1167	 0.027311855784552 
1168	 2.71357038376122E-02 
1169	 2.73882655194089E-02 
1170	 2.71374536575406E-02 
1171	 2.71711244893656E-02 
1172	 2.78508596115579E-02 
1173	 2.81813921417256E-02 
1174	 2.83508631454575E-02 
1175	 2.84136825549904E-02 
1176	 2.83901356747003E-02 
1177	 2.81870325505411E-02 
1178	 2.81739240425662E-02 
1179	 2.84471304684765E-02 
1180	 2.81005266719079E-02 
1181	 2.73973191245093E-02 
1182	 2.73116153222285E-02 
1183	 2.70889648336647E-02 
1184	 2.72413178011529E-02 
1185	 2.80369254478284E-02 
1186	 2.79982569974498E-02 
1187	 2.76063059107859E-02 
1188	 2.74445057284394E-02 
1189	 2.74046790897146E-02 
1190	 2.81460306205138E-02 
1191	 0.028506086168995 
1192	 2.84633457184841E-02 
1193	 2.80400201061493E-02 
1194	 2.84208194081563E-02 
1195	 2.81217699839821E-02 
1196	 2.73351259479992E-02 
1197	 2.80109234499866E-02 
1198	 2.81810525368907E-02 
1199	 2.72243655138392E-02 
1200	 2.75226966393927E-02 
1201	 0.028286681408316 
1202	 0.027985865940933 
1203	 2.80499061436072E-02 
1204	 0.028885149607067 
1205	 2.88127331829095E-02 
1206	 2.83608974863226E-02 
1207	 0.028588685320239 
1208	 2.85811050193187E-02 
1209	 2.82197238516056E-02 
1210	 2.85100817989205E-02 
1211	 2.89130646310099E-02 
1212	 0.028291609029409 
1213	 2.77338246727479E-02 
1214	 2.77006120654637E-02 
1215	 2.78416477829876E-02 
1216	 2.76242988168948E-02 
1217	 2.75850288257571E-02 
1218	 2.79742699006705E-02 
1219	 2.78826178344963E-02 
1220	 2.75404787879687E-02 
1221	 0.027902127280082 
1222	 2.80461581051134E-02 
1223	 2.77016195890368E-02 
1224	 2.78648779971992E-02 
1225	 2.79747509403947E-02 
1226	 2.79491252209829E-02 
1227	 2.83658144266641E-02 
1228	 2.83857699883442E-02 
1229	 2.78663171345295E-02 
1230	 2.81018313474558E-02 
1231	 2.85852475623053E-02 
1232	 2.83568105217079E-02 
1233	 2.83785745228635E-02 
1234	 2.84505384442744E-02 
1235	 2.83504023590113E-02 
1236	 2.76128757555134E-02 
1237	 2.76069178443927E-02 
1238	 2.80927494981986E-02 
1239	 2.82585261510806E-02 
1240	 2.83738847220103E-02 
1241	 2.84293381299343E-02 
1242	 2.84923801189795E-02 
1243	 2.85097809636258E-02 
1244	 2.80947761263563E-02 
1245	 2.80040623954029E-02 
1246	 2.81725389292538E-02 
1247	 2.79219104510239E-02 
1248	 2.81476320115428E-02 
1249	 2.88263204950067E-02 
1250	 2.87714725009495E-02 
1251	 2.82190417799301E-02 
1252	 0.02833547101843 
1253	 2.86556214315272E-02 
1254	 2.82374963063493E-02 
1255	 2.82382395753483E-02 
1256	 2.85194465697028E-02 
1257	 2.87738383336592E-02 
1258	 2.87045356261648E-02 
1259	 2.89395353630309E-02 
1260	 0.029172620808012 
1261	 0.029173767418754 
1262	 2.89316314207095E-02 
1263	 2.87049445923282E-02 
1264	 2.86535198711139E-02 
1265	 2.80484485758391E-02 
1266	 2.72142155236739E-02 
1267	 2.76177631163779E-02 
1268	 2.81869758266719E-02 
1269	 2.84294547901375E-02 
1270	 2.89318921785723E-02 
1271	 2.89258093474828E-02 
1272	 2.87493284156157E-02 
1273	 2.84006545043384E-02 
1274	 2.80013351086174E-02 
1275	 2.79477011188249E-02 
1276	 2.78770870895851E-02 
1277	 2.79785254859893E-02 
1278	 2.83505447760624E-02 
1279	 2.84211841487171E-02 
1280	 2.79444320388516E-02 
1281	 2.78839198724281E-02 
1282	 2.80816437981218E-02 
1283	 2.82592880339714E-02 
1284	 2.86395725547318E-02 
1285	 2.87856969380208E-02 
1286	 2.88804545814994E-02 
1287	 2.88472959557271E-02 
1288	 2.85971574555109E-02 
1289	 2.83592894544563E-02 
1290	 2.81305846258061E-02 
1291	 2.76898757966736E-02 
1292	 2.75464886126118E-02 
1293	 2.79855509517337E-02 
1294	 2.84571815595987E-02 
1295	 2.88346583151742E-02 
1296	 2.87310697259901E-02 
1297	 2.84712883757934E-02 
1298	 0.02874839767405 
1299	 2.86542350539212E-02 
1300	 2.80953143482516E-02 
1301	 2.77740122797539E-02 
1302	 2.75540795878023E-02 
1303	 2.73934768479925E-02 
1304	 2.76437107386842E-02 
1305	 2.79664392558912E-02 
1306	 2.78788318540174E-02 
1307	 2.70107362124706E-02 
1308	 2.67589061032244E-02 
1309	 0.02657610741125 
1310	 2.65484928025896E-02 
1311	 2.72577586525837E-02 
1312	 2.68883960559053E-02 
1313	 2.55689380864994E-02 
1314	 2.53810754551604E-02 
1315	 2.51480996625029E-02 
1316	 2.47278853684813E-02 
1317	 2.50548592628759E-02 
1318	 2.57017856560738E-02 
1319	 2.64959856859942E-02 
1320	 2.66373183754647E-02 
1321	 2.77179121966943E-02 
1322	 0.026887598775587 
1323	 2.59999190277712E-02 
1324	 2.56924348372029E-02 
1325	 2.46402084701474E-02 
1326	 2.44748115112767E-02 
1327	 2.52978220664794E-02 
1328	 2.49074367112525E-02 
1329	 2.45653838919295E-02 
1330	 2.63768239187902E-02 
1331	 0.027650233345962 
1332	 2.63721676524224E-02 
1333	 2.44366047838347E-02 
1334	 2.60144214780385E-02 
1335	 2.67522073598757E-02 
1336	 2.65619318590262E-02 
1337	 2.58622091556068E-02 
1338	 2.57054181971982E-02 
1339	 2.63906478580106E-02 
1340	 2.65761611961072E-02 
1341	 0.026117227984231 
1342	 2.69010657562244E-02 
1343	 2.75639747144033E-02 
1344	 2.59243032859681E-02 
1345	 2.51258393744762E-02 
1346	 2.76389018572205E-02 
1347	 3.11117483328837E-02 
1348	 3.30409332281832E-02 
1349	 3.57149045934663E-02 
1350	 4.65990707458999E-02 
1351	 6.05281225687346E-02 
1352	 7.46971291036809E-02 
1353	 8.35255376428934E-02 
1354	 6.61461251661925E-02 
1355	 0.097580725509293 
1356	 0.103382365162885 
1357	 7.27963399655304E-02 
1358	-5.54359761188567E-02 
1359	-0.183352576214754 
1360	-8.65477354655606E-02 
1361	-7.04977211242739E-02 
1362	 0.28000721349526 
1363	 0.616604704158571 
1364	 0.254745786247931 
1365	 0.383469953134836 
1366	 1.46354584037148 
1367	 0.598068762899162 
1368	 0.505156332025909 
1369	 0.673548868659577 
1370	 0.328612562567042 
1371	-0.42063869700776 
1372	-0.404670124792997 
1373	 1.69858725106428E-02 
1374	-0.118106496620492 
1375	-4.34967335888436 
1376	 1.47391991332544 
1377	 0.495071555141353 
1378	 0.264310248741445 
1379	 0.13012032779589 
1380	 0.136304995111885 
1381	-0.220462896467237 
1382	-0.304881904809191 
1383	 0.653638735843322 
1384	 1.42667367057108 
1385	 4.03189346317064 
1386	-18.9596193692118 
1387	 1.15836955319827 
1388	 0.9364323496921 
1389	 2.35470862951952 
1390	 2.05989876655984 
1391	 0.830787149623636 
1392	 1.06195664043637 
1393	 1.79116879941638 
1394	 1.54661916887867 
1395	 1.90942253284531 
1396	-76.7533417484101 
1397	-5.8901998723472 
1398	 0.766971545918393 
1399	 1.32648183204538 
1400	 63.8700283763461 
1401	-3.35684106253058 
1402	-2.52834286177777 
1403	-0.945301949816937 
1404	 5.89771210308351E-02 
1405	-0.399293727492139 
1406	-0.368290210941837 
1407	-0.444899926912543 
1408	-1.23080458368044 
1409	-0.841536565203124 
1410	-0.185777662938885 
1411	-0.272999080368703 
1412	-0.606552322623477 
1413	-0.407993304495546 
1414	-0.237783935833484 
1415	-0.221947043116205 
1416	 0.390523853955795 
1417	 0.264031679529974 
1418	-0.589867490549538 
1419	-0.623917341902553 
1420	-0.319702239524182 
1421	-0.241931061109063 
1422	-9.19310535784332E-02 
1423	-4.05089263960964E-02 
1424	-0.118470500143065 
1425	-0.104572766232263 
1426	-6.63320768018012E-02 
1427	-2.11130229570392E-02 
1428	 6.06670941192394E-02 
1429	 7.15856501805738E-02 
1430	 6.64960711352421E-02 
1431	 7.16064435394665E-02 
1432	 3.94308224945051E-02 
1433	 2.58126733569224E-02 
1434	 3.28686181085242E-02 
1435	 4.30368856019411E-02 
1436	 1.75037453217636E-02 
1437	 8.26692859641646E-02 
1438	 0.121844728380786 
1439	 7.72230725948836E-02 
1440	 5.91108491265666E-02 
1441	 1.09172860121446E-02 
1442	-8.64251421721191E-02 
1443	-7.54702540929513E-02 
1444	-4.66901884651996E-02 
1445	-4.66283900733744E-02 
1446	-2.81299180673487E-02 
1447	-2.06316271573774E-02 
1448	-1.72121991951124E-02 
1449	-2.63503170748834E-02 
1450	-1.11939085935196E-02 
1451	 1.01465065622008E-02 
1452	 7.98363574914001E-03 
1453	 4.90998547327244E-03 
1454	 9.22513613573415E-03 
1455	 1.51084752676568E-02 
1456	 1.45506831325257E-02 
1457	 1.69378221251924E-02 
1458	 1.44450541063047E-02 
1459	 5.12692907739981E-05 
1460	-2.16264186764119E-03 
1461	 4.33539478971672E-03 
1462	 4.72470783295737E-03 
1463	 4.69666486433076E-03 
1464	 7.94973846918343E-03 
1465	 1.13494643653673E-02 
1466	 9.76549786780797E-03 
1467	 6.13149325275274E-03 
1468	 9.77996875965558E-03 
1469	 1.95768289545825E-02 
1470	 1.48349896387772E-02 
1471	 3.95947504711674E-03 
1472	 4.48199297650275E-03 
1473	-3.01606731021791E-03 
1474	-3.84412769194578E-03 
1475	 1.03697621234471E-02 
1476	 1.65360219576472E-02 
1477	 1.79900501865751E-02 
1478	 1.72600410344941E-02 
1479	 1.86913612944837E-02 
1480	 1.68364611480802E-02 
1481	 6.54304496135691E-03 
1482	 4.03301095452495E-03 
1483	 4.98363477389489E-03 
1484	 6.13553642963425E-03 
1485	 9.07354816196836E-03 
1486	 1.17646632937053E-02 
1487	 1.52537892103707E-02 
1488	 1.66319590860338E-02 
1489	 0.017237815223512 
1490	 1.78841987886645E-02 
1491	 1.68196510693427E-02 
1492	 1.76510411856576E-02 
1493	 2.11777130094127E-02 
1494	 2.12721085032368E-02 
1495	 2.00867767535936E-02 
1496	 1.96063593460348E-02 
1497	 0.017303548511471 
1498	 1.63660361480576E-02 
1499	 1.62067894928818E-02 
1500	 0.016744908275016 
1501	 1.89149825454003E-02 
1502	 1.94376932126648E-02 
1503	 1.96631928041675E-02 
1504	 1.97563600680578E-02 
1505	 1.89230755856641E-02 
1506	 1.75249218700204E-02 
1507	 1.80721590048481E-02 
1508	 1.92861886760341E-02 
1509	 2.02147984170963E-02 
1510	 2.07965277583759E-02 
1511	 2.07142630311286E-02 
1512	 2.05744665767518E-02 
1513	 2.00140111531545E-02 
1514	 1.96530082614259E-02 
1515	 1.96886289894163E-02 
1516	 1.94924184086933E-02 
1517	 1.99568688359781E-02 
1518	 2.03134853232763E-02 
1519	 1.89740658652308E-02 
1520	 1.84209046556972E-02 
1521	 1.94102850950208E-02 
1522	 1.93868047750129E-02 
1523	 1.97806701923778E-02 
1524	 2.03938571683338E-02 
1525	 1.97665875999013E-02 
1526	 1.90431507913086E-02 
1527	 1.84626916493202E-02 
1528	 1.88480008115213E-02 
1529	 0.019046556707235 
1530	 1.85924984557453E-02 
1531	 1.92864987714793E-02 
1532	 1.94896325315549E-02 
1533	 1.89586904042395E-02 
1534	 1.94538580477582E-02 
1535	 2.00642997638232E-02 
1536	 2.06012297507822E-02 
1537	 2.12796171490692E-02 
1538	 2.12086541289602E-02 
1539	 2.05626466623072E-02 
1540	 2.00353974681097E-02 
1541	 2.00351400385596E-02 
1542	 2.04705021289782E-02 
1543	 2.05545699599417E-02 
1544	 2.01695157031162E-02 
1545	 2.00739864696462E-02 
1546	 0.019717772539419 
1547	 0.019565094311015 
1548	 2.02966057394279E-02 
1549	 2.01208482409121E-02 
1550	 1.97390273408541E-02 
1551	 2.01929289077376E-02 
1552	 2.01092143102039E-02 
1553	 1.97966312877078E-02 
1554	 1.99441826010165E-02 
1555	 2.03485973863509E-02 
1556	 2.06230563039512E-02 
1557	 2.02585785723439E-02 
1558	 2.02789171603049E-02 
1559	 2.04163081802474E-02 
1560	 1.99179233815498E-02 
1561	 2.04834849796506E-02 
1562	 2.12392616347648E-02 
1563	 2.15029183894114E-02 
1564	 2.20569075317508E-02 
1565	 2.19430373585616E-02 
1566	 2.17802669944582E-02 
1567	 2.17395705995078E-02 
1568	 2.12182354324217E-02 
1569	 2.07413202940983E-02 
1570	 2.04402124511833E-02 
1571	 1.99984134914762E-02 
1572	 2.01442297836023E-02 
1573	 2.12378257755482E-02 
1574	 2.15406383128175E-02 
1575	 2.19207596822477E-02 
1576	 2.31227407857017E-02 
1577	 2.28692764519944E-02 
1578	 2.20811590826286E-02 
1579	 2.18182759802187E-02 
1580	 2.07194347464739E-02 
1581	 2.01819238711597E-02 
1582	 2.09749829033173E-02 
1583	 2.12040507710103E-02 
1584	 2.08003353762522E-02 
1585	 2.02912427213553E-02 
1586	 1.99127490753998E-02 
1587	 2.05700720479199E-02 
1588	 2.14611396199882E-02 
1589	 0.021829438957683 
1590	 2.24844794203185E-02 
1591	 2.30125984433983E-02 
1592	 2.30982031102102E-02 
1593	 2.24020163264343E-02 
1594	 2.16284707375454E-02 
1595	 2.15617967614572E-02 
1596	 2.06106916654186E-02 
1597	 2.02810422183605E-02 
1598	 2.13280766588908E-02 
1599	 2.14970322640122E-02 
1600	 2.16424550877342E-02 
1601	 2.20281887343753E-02 
1602	 2.16327895843157E-02 
1603	 2.15918246689976E-02 
1604	 2.17021027142657E-02 
1605	 2.15620674660325E-02 
1606	 2.16833452824841E-02 
1607	 2.10744555284671E-02 
1608	 2.02074109801633E-02 
1609	 0.020544600906758 
1610	 2.15939354901244E-02 
1611	 2.20215690731379E-02 
1612	 2.20175717207977E-02 
1613	 2.23592881152227E-02 
1614	 2.28622359944656E-02 
1615	 0.022598952476014 
1616	 2.19566417438387E-02 
1617	 2.18817567789801E-02 
1618	 2.12502404690545E-02 
1619	 2.04732046432256E-02 
1620	 2.05601270045325E-02 
1621	 2.08001353531975E-02 
1622	 2.08367223845886E-02 
1623	 2.09087371678322E-02 
1624	 2.11609933205955E-02 
1625	 2.11915947406967E-02 
1626	 2.12142221876698E-02 
1627	 2.13845166128083E-02 
1628	 2.14896582719817E-02 
1629	 0.022001128589813 
1630	 2.26736459494118E-02 
1631	 2.25945932645397E-02 
1632	 2.26673847759661E-02 
1633	 0.023086527144983 
1634	 2.23515032176332E-02 
1635	 2.18818119427633E-02 
1636	 2.27146800004105E-02 
1637	 2.30469186660807E-02 
1638	 2.22876510193192E-02 
1639	 2.13947352996381E-02 
1640	 2.14176889300435E-02 
1641	 0.022130548614658 
1642	 2.23198801588238E-02 
1643	 2.21023045912978E-02 
1644	 2.21941769185262E-02 
1645	 2.20418335457967E-02 
1646	 2.14483104980908E-02 
1647	 2.12031659885733E-02 
1648	 2.16436232563215E-02 
1649	 2.20066875900736E-02 
1650	 2.18161763269579E-02 
1651	 2.21998247118015E-02 
1652	 2.29045733766873E-02 
1653	 2.22997240552114E-02 
1654	 2.19332913513245E-02 
1655	 2.15126105978627E-02 
1656	 2.15668882207423E-02 
1657	 0.021892928422747 
1658	 2.18174603581307E-02 
1659	 2.21856420848295E-02 
1660	 0.022379514145915 
1661	 2.18874034186249E-02 
1662	 2.15446032234901E-02 
1663	 2.10432277872914E-02 
1664	 2.11358545264443E-02 
1665	 2.18537255457186E-02 
1666	 2.19894125340919E-02 
1667	 2.24307183094679E-02 
1668	 2.17360097872802E-02 
1669	 2.13200465452109E-02 
1670	 2.17505782297858E-02 
1671	 0.021812834427334 
1672	 2.20109577758795E-02 
1673	 2.22779036748193E-02 
1674	 2.16936968439859E-02 
1675	 2.16712017861765E-02 
1676	 2.25998747059319E-02 
1677	 2.26174613708476E-02 
1678	 2.20689584626487E-02 
1679	 2.16366462942036E-02 
1680	 2.16152484687289E-02 
1681	 2.17233103246167E-02 
1682	 2.15538028544485E-02 
1683	 2.16782600056221E-02 
1684	 2.13635978027963E-02 
1685	 2.09995092417524E-02 
1686	 2.17848175303034E-02 
1687	 2.25352519053642E-02 
1688	 2.22992696831297E-02 
1689	 2.18878312850012E-02 
1690	 2.18381484026767E-02 
1691	 2.19452357076767E-02 
1692	 2.17415048682188E-02 
1693	 2.21475869664333E-02 
1694	 2.25242849474565E-02 
1695	 2.19000570482915E-02 
1696	 2.24430965306324E-02 
1697	 2.25463356107926E-02 
1698	 2.09946366067281E-02 
1699	 2.10946514124988E-02 
1700	 2.16145516915286E-02 
1701	 2.08991903210047E-02 
1702	 2.16999340971321E-02 
1703	 2.25789352478542E-02 
1704	 0.021912430122879 
1705	 2.26756540276799E-02 
1706	 2.33863614689068E-02 
1707	 2.20739148005266E-02 
1708	 2.21502723534967E-02 
1709	 2.28969012469391E-02 
1710	 2.24479129895738E-02 
1711	 2.27559011329188E-02 
1712	 2.29825536744017E-02 
1713	 2.31212647655122E-02 
1714	 2.30455294384188E-02 
1715	 2.39306043304745E-02 
1716	 2.41354595362814E-02 
1717	 2.22780259052966E-02 
1718	 0.022327741317015 
1719	 2.28440217017599E-02 
1720	 2.16351381653337E-02 
1721	 2.21998443771064E-02 
1722	 2.30968093756955E-02 
1723	 2.23075230184546E-02 
1724	 2.21984720049793E-02 
1725	 2.12332618883456E-02 
1726	 2.00817548350319E-02 
1727	 2.11717320022718E-02 
1728	 2.15799923340688E-02 
1729	 2.15374444174846E-02 
1730	 2.17271986702787E-02 
1731	 2.07658365338754E-02 
1732	 2.04692503159986E-02 
1733	 2.08434409180903E-02 
1734	 2.04367146910562E-02 
1735	 2.07925297916085E-02 
1736	 2.19227380419681E-02 
1737	 2.20147381972389E-02 
1738	 2.27143555344829E-02 
1739	 2.25044741781071E-02 
1740	 2.01283774355942E-02 
1741	 0.020041401762732 
1742	 2.14858310664383E-02 
1743	 2.21966938946606E-02 
1744	 2.43783270608005E-02 
1745	 2.55067936026047E-02 
1746	 2.29511547868018E-02 
1747	 2.27162337392579E-02 
1748	 2.14007627068393E-02 
1749	 2.07668583628291E-02 
1750	 2.28710606655455E-02 
1751	 2.32153698896976E-02 
1752	 2.17742559337385E-02 
1753	 2.26325541053086E-02 
1754	 2.51242312215142E-02 
1755	 2.49428032422458E-02 
1756	 2.44193818599126E-02 
1757	 2.39520964818214E-02 
1758	 2.19890678761413E-02 
1759	 2.34283491556519E-02 
1760	 2.38918982611978E-02 
1761	 2.06647925570776E-02 
1762	 0.021247228914657 
1763	 2.28173226983123E-02 
1764	 2.23540808058395E-02 
1765	 2.36015314099492E-02 
1766	 2.42213611484031E-02 
1767	 2.29115187688851E-02 
1768	 2.33760898224332E-02 
1769	 2.54812673043655E-02 
1770	 2.44349920666883E-02 
1771	 2.25045481133512E-02 
1772	 2.27757719810202E-02 
1773	 2.07438099269154E-02 
1774	 1.91412369532759E-02 
1775	 0.018562537170967 
1776	 1.81509235459155E-02 
1777	 2.30515476660754E-02 
1778	 2.66426811915586E-02 
1779	 2.88783846263939E-02 
1780	 2.96742710775231E-02 
1781	 0.027691773123767 
1782	 2.52046326920735E-02 
1783	 2.13988612805369E-02 
1784	 2.13562318691023E-02 
1785	 2.46078776755584E-02 
1786	 2.50227426162874E-02 
1787	 2.18462273064325E-02 
1788	 2.41096073160439E-02 
1789	 3.15217312260366E-02 
1790	 2.62283031808836E-02 
1791	 3.32685799918295E-02 
1792	 3.88968395471094E-02 
1793	 2.67847806847801E-02 
1794	 2.91791518383579E-02 
1795	 3.66056222782808E-02 
1796	 2.57993389527405E-02 
1797	 1.56873587411916E-02 
1798	 2.92432834677461E-03 
1799	-1.45179176035711E-02 
1800	-2.06178027561362E-02 
1801	-4.14790334247784E-03 
1802	 9.06605687514344E-02 
1803	 0.142140691540539 
1804	 0.201492996057831 
1805	 0.219094436461816 
1806	 7.81611346144058E-02 
1807	 2.55820687456714E-02 
1808	-6.46106661031745E-02 
1809	-0.149263342984508 
1810	 6.74997993470721E-02 
1811	 0.20283270968906 
1812	 0.307362905807883 
1813	 0.379125343272982 
1814	 0.43207349180997 
1815	 0.41292239633553 
1816	 0.019828607832724 
1817	-0.942556003459058 
1818	 3.74748347135461 
1819	 3.82718450306681 
1820	-3.34442720671757 
1821	-0.33273199992493 
1822	-0.123101322690682 
1823	 0.277788961969021 
1824	 0.404190699863208 
1825	 0.344226215340654 
1826	 1.06689315343004 
1827	-0.864069296119971 
1828	-0.444956249244303 
1829	-1.20112017136812 
1830	-1.72566386114793 
1831	 6.08084706723369 
1832	 1.40447415169029 
1833	 0.280395089347534 
1834	-0.113972403502955 
1835	-0.153180935937866 
1836	-0.278872797577872 
1837	-1.94983239157212 
1838	-3.62628441587312 
1839	 11.0166105187278 
1840	 0.944421087225026 
1841	 0.848739662188099 
1842	-4.86366335434612 
1843	-30.0725468437489 
1844	 2.12229073525593 
1845	 1.66581370257949 
1846	 1.30538438181928 
1847	 1.26585209155444 
1848	 0.970677098138338 
1849	 0.397064817511397 
1850	-0.268012406353572 
1851	-0.328696968956179 
1852	-0.207784740260641 
1853	-0.572451450372932 
1854	-0.562858487901974 
1855	 4.59610908106598E-02 
1856	 0.126723265208516 
1857	-7.51299442990513E-02 
1858	-0.46744974147305 
1859	-4.73482826108923 
1860	 21.4016416171859 
1861	 5.24251056652595 
1862	 1.42478695051041 
1863	 0.391985327933301 
1864	-3.57983217125093E-03 
1865	-0.026158467156482 
1866	 0.707738082099263 
1867	 0.737032845043255 
1868	 0.393164834347081 
1869	 0.373128727306103 
1870	 0.464737363945751 
1871	-0.125749402226555 
1872	-0.562691784538596 
1873	-0.695080775962962 
1874	-6.32117444615843 
1875	 6.39806344776383 
1876	 3.05904003887481 
1877	-0.656860002441108 
1878	 1.50819917024366 
1879	-6.20681405742378E-02 
1880	-4.34603036800558E-02 
1881	-0.220130432661685 
1882	-0.729122557426169 
1883	-0.579568729496625 
1884	 1.37762404535968 
1885	 1.92103670970654 
1886	 2.87745353601307 
1887	 3.54071635274927 
1888	 1.17669117937155 
1889	-0.85966263293987 
1890	-2.48674744724377 
1891	-3.61832185616693 
1892	-3.19921489461773 
1893	-0.941531881799322 
1894	-0.920004046266298 
1895	 0.576625990645496 
1896	-2.62824158565241E-02 
1897	 0.317682313612402 
1898	-0.104240468700655 
1899	-0.660231273245925 
1900	-0.961504855163469 
1901	 8.5635834599626 
1902	 2.50597093120298 
1903	 0.743424128736658 
1904	-0.736108034709981 
1905	-1.83363063761402 
1906	-3.14544904863831 
1907	-4.24181718429481 
1908	 1.51562901389565 
1909	-2.41396651582009 
1910	-3.4530667521487 
1911	-6.71659781310612 
1912	 0.582627204189989 
1913	-0.0123444255439 
1914	-5.69786077805452E-02 
1915	-0.244752386149751 
1916	-0.270039979416242 
1917	-0.195812667636975 
1918	 2.27995127636643 
1919	 0.5734988741875 
1920	 1.5891841003525 
1921	 1.88128011361556 
1922	 1.02673392167894 
1923	 0.639193812867883 
1924	 0.519084544718874 
1925	 0.252292242581011 
1926	 9.62587608019195E-02 
1927	-0.455351597027293 
1928	 10.6831480065653 
1929	 0.82064290949417 
1930	 0.620369818442302 
1931	 0.80080465242286 
1932	 2.37004537226432 
1933	-2.08938746301521 
1934	 4.59614407037631E-02 
1935	 1.37841001689488 
1936	-5.40419338799243 
1937	 30.0116699810125 
1938	-4.50020455938498 
1939	-8.41521981868858 
1940	-0.205970372826819 
1941	-0.028908720825889 
1942	 0.387735060943295 
1943	 0.55723200010222 
1944	 0.933022241504998 
1945	 2.14707752182016 
1946	 0.526877038239016 
1947	-1.83710287595609 
1948	-3.00981994294788 
1949	-2.11899192406206 
1950	-1.54893979983521 
1951	-1.58687246349104 
1952	-1.60591461297588 
1953	-1.35915460076849 
1954	-1.65025103439937 
1955	-1.54707890460602 
1956	-0.442196886812786 
1957	 0.34698192313667 
1958	 0.586740379599094 
1959	 0.748194988219929 
1960	 0.500333658215252 
1961	 0.278122402229964 
1962	 0.169654284808299 
1963	 0.022449656335443 
1964	-1.74856095244911E-02 
1965	-8.69881731073664E-02 
1966	-0.100871543555206 
1967	-0.100262965772523 
1968	-8.16735785351037E-02 
1969	-7.29324280840294E-02 
1970	-0.017722037300959 
1971	-2.14684507729035E-02 
1972	-5.43009335922569E-02 
1973	-7.60999356024231E-03 
1974	 9.39024133412164E-03 
1975	-1.49494506537038E-02 
1976	-1.04675583979531E-02 
1977	-1.06916474871767E-02 
1978	-0.020627878252952 
1979	-0.013807384068434 
1980	 2.25494554703388E-02 
1981	 0.051491429411268 
1982	 0.051763383980714 
1983	 5.20453324757859E-02 
1984	 3.72592405814137E-02 
1985	 1.32586889220227E-02 
1986	-1.26735946271933E-03 
1987	-3.71183727608093E-03 
1988	-1.28832057668934E-04 
1989	 1.25062754478827E-02 
1990	 3.40892683476378E-02 
1991	 1.65509771257528E-02 
1992	 2.25148976478206E-03 
1993	 1.02353897981754E-02 
1994	 9.74228102300868E-03 
1995	 2.40151381408967E-03 
1996	 1.04771248358109E-02 
1997	 8.54689418317541E-03 
1998	 3.45790606517445E-03 
1999	-1.55763961256523E-02 
2000	-6.28908728229251E-02 
2001	-8.75008061753886E-02 
2002	-0.127031442504835 
2003	-0.144980517461086 
2004	-0.114997979129778 
2005	-0.113501142665259 
2006	-8.95848649851336E-02 
2007	-3.83846588253057E-02 
2008	-5.75713884323911E-03 
2009	 1.06490945403505E-02 
2010	 3.20443695438917E-02 
2011	 3.99199807792706E-02 
2012	 2.16430172277629E-02 
2013	 1.34352477693047E-02 
2014	 9.04120130284684E-03 
2015	 3.66290000832366E-02 
2016	 0.059713779342479 
2017	 5.71078776165702E-02 
2018	 4.95205185392252E-02 
2019	 4.44545488066702E-02 
2020	 2.91600199735258E-02 
2021	 6.68971548131846E-03 
2022	 9.08442049069081E-03 
2023	 7.94153093939093E-03 
2024	 5.67360912539692E-03 
2025	 2.81779045633109E-03 
2026	 5.76630041103409E-03 
2027	 1.09747313408426E-02 
2028	 1.38525794243328E-02 
2029	 8.53524134706777E-03 
2030	 1.50347760145993E-02 
2031	 1.66437601482247E-02 
2032	 1.86471212144469E-02 
2033	 2.65151136407239E-02 
2034	 2.08513180714768E-02 
2035	 1.78269558462055E-02 
2036	 1.56816275788058E-02 
2037	 1.68691789633648E-02 
2038	 2.97086608412293E-02 
2039	 3.05061880366429E-02 
2040	 2.58250785395619E-02 
2041	 2.24740030706239E-02 
2042	 8.63956645733539E-03 
2043	 3.16301379274777E-03 
2044	 3.50144002659802E-03 
2045	 4.96871404318357E-03 
2046	 1.1284682465249E-03 
2047	 1.52979236363844E-03 
2048	 5.18454060515612E-03 
2049	 1.19979930251676E-02 
2050	 0.017013052926064 
2051	 2.49493372661914E-02 
2052	 0.024558033036925 
2053	 1.46077259620791E-02 
2054	 1.69517044396279E-02 
2055	 1.72979916042323E-02 
2056	 1.47242510801514E-02 
2057	 1.36623990272762E-02 
2058	 1.09747779400088E-02 
2059	 2.12448555273935E-03 
2060	-1.2581431019239E-03 
2061	-6.75329372526498E-04 
2062	-5.54957795953583E-03 
2063	-2.56916414813742E-03 
2064	 4.20760331973572E-03 
2065	 5.99319794394993E-04 
2066	 5.38369505356644E-03 
2067	 1.37697473158433E-02 
2068	 1.44888909574483E-02 
2069	 1.94104150004063E-02 
2070	 2.23103120762556E-02 
2071	 2.12488900019287E-02 
2072	 2.04558368414018E-02 
2073	 2.00796322705642E-02 
2074	 2.06976973279748E-02 
2075	 2.50297212970622E-02 
2076	 3.34122820604857E-02 
2077	 3.20094274219738E-02 
2078	 2.68492687556635E-02 
2079	 2.64964852368298E-02 
2080	 2.31629057141219E-02 
2081	 2.02244802558691E-02 
2082	 2.28951671150891E-02 
2083	 2.23995802178757E-02 
2084	 1.61745742082241E-02 
2085	 1.56507595543931E-02 
2086	 1.97550485519297E-02 
2087	 2.60326849796438E-02 
2088	 3.14460851013079E-02 
2089	 3.09266864585476E-02 
2090	 2.84222985820425E-02 
2091	 2.72334420953134E-02 
2092	 2.56064863390188E-02 
2093	 2.46691380057868E-02 
2094	 2.11392535407444E-02 
2095	 1.52517789650703E-02 
2096	 1.17436165194193E-02 
2097	 5.21089372069255E-03 
2098	 6.17032088262238E-03 
2099	 1.41962898899943E-02 
2100	 1.67393262895645E-02 
2101	 2.03865538056838E-02 
2102	 2.37686386735234E-02 
2103	 2.35815831149546E-02 
2104	 2.54193593687301E-02 
2105	 0.027817046156052 
2106	 2.72717935662049E-02 
2107	 2.40290778590832E-02 
2108	 1.87233316699912E-02 
2109	 1.78745605496279E-02 
2110	 0.017177266722504 
2111	 1.52325905929396E-02 
2112	 1.65831691209375E-02 
2113	 1.88080978440201E-02 
2114	 2.36358697655769E-02 
2115	 2.50993314240754E-02 
2116	 0.028524146017248 
2117	 0.027312658925959 
2118	 1.76883374281708E-02 
2119	 1.33973261758137E-02 
2120	 0.010463354046211 
2121	 8.08669183173535E-03 
2122	 6.84022097963792E-03 
2123	 4.80854205329412E-03 
2124	 1.92705308449023E-03 
2125	 3.39122671364368E-03 
2126	 7.00828313528956E-03 
2127	 1.32599914947053E-02 
2128	 1.46083884673777E-02 
2129	 1.38051149714496E-02 
2130	 1.56793350779186E-02 
2131	 1.57780217712323E-02 
2132	 2.09707986590149E-02 
2133	 2.76776307597225E-02 
2134	 2.93665257807193E-02 
2135	 2.77278185903442E-02 
2136	 2.63084920353233E-02 
2137	 2.08095668876946E-02 
2138	 1.92245960815541E-02 
2139	 2.02080186169693E-02 
2140	 1.91032094508046E-02 
2141	 1.76987840838225E-02 
2142	 1.71349440924167E-02 
2143	 1.52521073370823E-02 
2144	 1.48690837794396E-02 
2145	 1.67465558648342E-02 
2146	 1.73245889380864E-02 
2147	 1.65087649825573E-02 
2148	 1.49467204867988E-02 
2149	 1.53967583706021E-02 
2150	 1.66426652228029E-02 
2151	 1.87161585375767E-02 
2152	 1.88296671804681E-02 
2153	 0.015515165504166 
2154	 1.71138607900395E-02 
2155	 2.16848579214709E-02 
2156	 2.70068739914255E-02 
2157	 2.69567126869717E-02 
2158	 2.30241138452435E-02 
2159	 2.40411389246681E-02 
2160	 2.25735710102943E-02 
2161	 2.34371903171956E-02 
2162	 3.14870697641678E-02 
2163	 3.27289669997896E-02 
2164	 0.028113238062591 
2165	 2.76071261022742E-02 
2166	 3.03807737315216E-02 
2167	 3.00283633806686E-02 
2168	 2.89076530535722E-02 
2169	 2.71104418410748E-02 
2170	 2.19034966334228E-02 
2171	 1.73757117906644E-02 
2172	 1.81925929995263E-02 
2173	 1.49147330920705E-02 
2174	 1.61747149794453E-02 
2175	 2.00554071869046E-02 
2176	 2.19835647006983E-02 
2177	 2.38249201715378E-02 
2178	 0.024425363893864 
2179	 2.36582691832807E-02 
2180	 1.95634695706294E-02 
2181	 2.07398586557837E-02 
2182	 2.08299133992215E-02 
2183	 2.18154933911118E-02 
2184	 3.49695281296495E-02 
2185	 4.23802666762887E-02 
2186	 4.14577965314781E-02 
2187	 3.39585248114124E-02 
2188	 3.08452791359327E-02 
2189	 1.95866460170451E-02 
2190	 1.40978612353458E-02 
2191	 1.81208024079773E-02 
2192	 0.017280579007728 
2193	 9.45752749665176E-03 
2194	 6.93329981957895E-03 
2195	 9.4591117400502E-03 
2196	 6.71341571336324E-03 
2197	 2.84738463967854E-04 
2198	-1.57425738905961E-03 
2199	-5.42476734328315E-03 
2200	-1.63365779134363E-03 
2201	 6.06102563196496E-03 
2202	 0.011428719481399 
2203	 0.017554429608418 
2204	 2.22026550738986E-02 
2205	 2.44636419958348E-02 
2206	 3.56284813682568E-02 
2207	 3.85492214139638E-02 
2208	 3.31341201318955E-02 
2209	 2.79082389068151E-02 
2210	 1.87431778922208E-02 
2211	 1.46496658500818E-02 
2212	 9.02208505404777E-03 
2213	 9.52503850563087E-03 
2214	 9.74373161881782E-03 
2215	 3.93055719359711E-03 
2216	 6.96809326975869E-03 
2217	 7.16290037939643E-03 
2218	 4.62388559111951E-03 
2219	 5.14768160900136E-03 
2220	 6.59050937285871E-03 
2221	 9.90824541891753E-03 
2222	 1.66819823828202E-02 
2223	 1.86598943120201E-02 
2224	 2.08971733104209E-02 
2225	 2.07478789069469E-02 
2226	 1.52489515210218E-02 
2227	 1.32411265098296E-02 
2228	 1.27524928508774E-02 
2229	 1.49530473610962E-02 
2230	 1.89098490042307E-02 
2231	 1.99737804781616E-02 
2232	 2.52126166486635E-02 
2233	 2.45063493363714E-02 
2234	 1.78110296631739E-02 
2235	 1.14778946856078E-02 
2236	 1.40524302781813E-02 
2237	 7.77439936186578E-03 
2238	 4.6136124206517E-03 
2239	 1.61415692613908E-02 
2240	 1.90970535655209E-02 
2241	 2.09037548913448E-02 
2242	 0.031102009678409 
2243	 0.035608538905095 
2244	 3.13376328242642E-02 
2245	 2.64916225309808E-02 
2246	 0.020606935093817 
2247	 0.011453790460745 
2248	 8.06893974855731E-03 
2249	 1.36200290249756E-02 
2250	 2.15227717521714E-02 
2251	 2.55489832881022E-02 
2252	 2.95787643938085E-02 
2253	 0.028699902180694 
2254	 2.23374613113548E-02 
2255	 0.020672930168992 
2256	 2.41239956638966E-02 
2257	 3.05639840773511E-02 
2258	 2.61457999448762E-02 
2259	 1.79581537215016E-02 
2260	 1.36299309755657E-02 
2261	-1.11471194849368E-03 
2262	-3.0148852536805E-03 
2263	 7.98333016646661E-03 
2264	 1.47492325664962E-02 
2265	 2.97033866282457E-02 
2266	 3.69984015227157E-02 
2267	 4.14719512106628E-02 
2268	 3.97027902570596E-02 
2269	 2.11703441331687E-02 
2270	 1.91853975998512E-02 
2271	 3.28120158102389E-02 
2272	 3.12672996093158E-02 
2273	 0.029705845430661 
2274	 2.81118321238696E-02 
2275	 9.07650134146423E-03 
2276	-1.44067405384863E-03 
2277	-2.78788951686079E-03 
2278	-3.6615279273894E-03 
2279	-6.89339103811621E-03 
2280	-3.84461581602919E-03 
2281	 9.44173525017437E-03 
2282	 1.73207048886073E-02 
2283	 2.10955010398112E-02 
2284	 2.27911972829217E-02 
2285	 1.54100200709083E-02 
2286	 1.87048220230632E-02 
2287	 2.02787400881511E-02 
2288	 0.013407249444515 
2289	 2.30808546421199E-02 
2290	 2.24355978986284E-02 
2291	 1.01456768892995E-02 
2292	 1.97463401572627E-02 
2293	 2.69494709891424E-02 
2294	 2.59650873998853E-02 
2295	 3.22118554605996E-02 
2296	 2.37763272860579E-02 
2297	 2.16897718110161E-03 
2298	-1.4798124831978E-03 
2299	 1.73993015432128E-02 
2300	 2.93830928266161E-02 
2301	 3.19732428332151E-02 
2302	 3.44805404918814E-02 
2303	 5.15214401381254E-03 
2304	-9.57164547988651E-03 
2305	 1.24274820833228E-02 
2306	 2.07956919431476E-02 
2307	 1.79974153385316E-02 
2308	 5.53754751593643E-03 
2309	-1.24619596523965E-02 
2310	-3.42323794309859E-02 
2311	-4.42141984287827E-02 
2312	-2.20213668826658E-02 
2313	 1.37863401416746E-03 
2314	 1.35123503411477E-02 
2315	 1.31914018780328E-02 
2316	 7.23273838089127E-03 
2317	-5.61737158572452E-03 
2318	-2.84648685058526E-02 
2319	-2.15341126163943E-02 
2320	 1.00103451167189E-02 
2321	 1.15246093608778E-02 
2322	-1.54459908747553E-03 
2323	 0.012565994514506 
2324	 9.25748405534825E-03 
2325	 2.4689725517965E-03 
2326	 3.93199344585288E-02 
2327	 4.19914937921579E-02 
2328	 2.05048579527277E-02 
2329	 2.07204570140807E-02 
2330	 2.5023956221798E-03 
2331	-6.13589710516149E-03 
2332	-1.96138243811614E-02 
2333	-3.42575777966387E-02 
2334	-3.83532444960646E-02 
2335	-4.90378087535356E-02 
2336	-2.09988643971801E-02 
2337	 7.24743729069538E-03 
2338	 2.42365681507238E-02 
2339	 2.60262169531506E-02 
2340	 1.62782982755082E-03 
2341	-4.48845849193967E-03 
2342	-8.65202528275455E-03 
2343	 3.21285539956413E-02 
2344	 5.28369369622875E-02 
2345	-6.90536673837592E-04 
2346	-1.81830542080938E-02 
2347	-3.15307550721201E-02 
2348	 8.88073108345355E-03 
2349	 0.072543530165498 
2350	 0.167951320051818 
2351	 0.253754410646642 
2352	 0.201816263668571 
2353	 0.210875084892533 
2354	 0.188867121635297 
2355	 0.133003033128264 
2356	 0.237723753707523 
2357	 0.20825103968034 
2358	 0.16780161651338 
2359	 0.23487652317507 
2360	 0.190439078207045 
2361	 0.178992881567661 
2362	 0.212043935486307 
2363	 0.125777092054224 
2364	 0.02538046595324 
2365	 5.77648437490777E-02 
2366	 0.149815138579876 
2367	 0.200612719184093 
2368	 0.21806549893745 
2369	 0.157614182867307 
2370	 4.07681776775644E-02 
2371	-4.8883384005164E-03 
2372	 0.084719583400116 
2373	 0.265540116959755 
2374	 0.214996366109162 
2375	-1.03993881122151E-02 
2376	-0.145276516886562 
2377	-0.255180732380458 
2378	-0.076694459720226 
2379	 0.162209328546075 
2380	 0.109803947159025 
2381	-2.61065680721615E-02 
2382	-0.335524537384288 
2383	-0.487560943064637 
2384	-0.463689705181709 
2385	-0.394105536413785 
2386	-0.335423803109014 
2387	-0.586350414921524 
2388	-0.627020654761301 
2389	-0.513012146491033 
2390	-0.456741819739566 
2391	-0.193668744642439 
2392	 7.77287594906069E-02 
2393	 0.427715632645739 
2394	 0.721745235704856 
2395	 0.730618155378376 
2396	 0.480823516875682 
2397	 0.382611511375889 
2398	 0.417587429467175 
2399	 0.470316001151823 
2400	 0.513199562288406 
2401	 0.145947929516635 
2402	-0.105830552338176 
2403	-0.224682916256123 
2404	-0.257620958058264 
2405	-9.31144791905645E-02 
2406	 0.12104265248146 
2407	-0.119700410453017 
2408	 7.31893355655057E-03 
2409	 1.41714707659828 
2410	 1.92455371489722 
2411	 0.393554770100535 
2412	 0.999462171997448 
2413	 1.29549048506864 
2414	 0.793584410068686 
2415	 0.764382267586367 
2416	 9.41730980549183E-02 
2417	-1.20563360934029 
2418	-2.50065892505499 
2419	-2.48619872630716 
2420	-7.85148894710944 
2421	-0.360642372650014 
2422	 0.253715695422181 
2423	-0.103328934459184 
2424	-0.613289853982461 
2425	 0.818924670927465 
2426	-6.19313638622267 
2427	-0.13103275392819 
2428	-6.91368091508541 
2429	 1.9779790142083 
2430	 1.59485781958301 
2431	 0.148093547453346 
2432	-0.874016841101654 
2433	 24.1649550378578 
2434	 0.938628252050538 
2435	 0.449800674174928 
2436	 0.870354819789848 
2437	 1.39272869992623 
2438	 1.64559533916383 
2439	 2.24735296880669 
2440	 0.617456092231014 
2441	 6.57920037027489E-02 
2442	 0.106303664945407 
2443	 4.12511950059071E-02 
2444	 0.150698877681758 
2445	 0.272601031077533 
2446	 0.334011659044232 
2447	 0.320617161596992 
2448	 0.41243811152938 
2449	 0.73030643275238 
2450	 0.743822136856415 
2451	 0.491634248305696 
2452	 0.375343223385867 
2453	 0.252515022134977 
2454	 0.152982246467465 
2455	-0.376448652488069 
2456	-0.270630393922234 
2457	-1.29758833686233E-02 
2458	 0.173856547294086 
2459	 0.326187194048216 
2460	 0.170976252955793 
2461	-0.420905880306673 
2462	-1.03112868460035 
2463	-1.21928075417858 
2464	-0.79629506858044 
2465	-0.620156742149018 
2466	-0.306452529774458 
2467	-0.850957358928041 
2468	-0.613808676412592 
2469	-0.049701488111911 
2470	-1.75885390121616E-02 
2471	-0.157992460484444 
2472	-0.331434139486844 
2473	-0.430047792311572 
2474	-0.586249196330828 
2475	 5.60364334044974E-02 
2476	 0.505738727814033 
2477	 0.858817913601783 
2478	-0.190249626777045 
2479	 0.681628230109976 
2480	 2.73077039310127 
2481	 0.79613770221798 
2482	 0.300371941272154 
2483	 0.110723976766517 
2484	-0.883205168297294 
2485	-2.50885732825099 
2486	-1.43652087326045 
2487	-1.22894472069791 
2488	-0.622736073241134 
2489	-0.384295148131773 
2490	-0.286666053936558 
2491	-6.36907059133322E-02 
2492	-6.02099321094876E-02 
2493	 0.510183070388478 
2494	 1.01541437545498 
2495	 0.946040515675068 
2496	 1.27666195724739 
2497	 0.543327267534323 
2498	 0.150221368120146 
2499	-1.2027151577685 
2500	-2.64746640197767 
