Wavelength	rt0704rt00005.asd
350	 0.049460738336258 
351	 5.02694429565134E-02 
352	 5.07312174181973E-02 
353	 5.09787676757642E-02 
354	 5.11737877056136E-02 
355	 5.12388737070657E-02 
356	 0.051258456216266 
357	 5.16920557085538E-02 
358	 5.26850384035066E-02 
359	 5.25997882215651E-02 
360	 5.30517816160588E-02 
361	 5.40663703748747E-02 
362	 5.45752120663936E-02 
363	 5.49622884773906E-02 
364	 5.50516330228223E-02 
365	 5.50895579907033E-02 
366	 5.60519378271079E-02 
367	 5.64096346282426E-02 
368	 5.65188257503254E-02 
369	 5.70286564850796E-02 
370	 5.77702631398915E-02 
371	 5.80844238620986E-02 
372	 5.81752784649846E-02 
373	 5.87351588021999E-02 
374	 5.97552299785423E-02 
375	 6.02917923122355E-02 
376	 6.03322621760522E-02 
377	 6.12285994982993E-02 
378	 6.18051574019792E-02 
379	 6.18171500519281E-02 
380	 6.15931095271147E-02 
381	 6.25074782903391E-02 
382	 0.062930450884572 
383	 6.29670896556476E-02 
384	 6.34795508639709E-02 
385	 6.40824135461596E-02 
386	 6.42510224001895E-02 
387	 0.064185892654907 
388	 6.48310934304291E-02 
389	 6.49160718310039E-02 
390	 6.47489118859257E-02 
391	 6.47326190612846E-02 
392	 6.46379481290989E-02 
393	 6.50639349283595E-02 
394	 6.54638732182273E-02 
395	 6.51495626639086E-02 
396	 6.50293628026831E-02 
397	 6.50163558220295E-02 
398	 6.50142277200322E-02 
399	 6.49753425739798E-02 
400	 6.47997452547264E-02 
401	 6.46836186111885E-02 
402	 0.064665918832518 
403	 6.43187000678965E-02 
404	 0.06412953992692 
405	 6.39905451319337E-02 
406	 6.36418738206162E-02 
407	 6.33353789826432E-02 
408	 6.29813305952463E-02 
409	 6.26721560611936E-02 
410	 6.26631724445328E-02 
411	 0.062339308630146 
412	 6.17896653848472E-02 
413	 6.12746518223187E-02 
414	 6.11548965542567E-02 
415	 6.08807573240894E-02 
416	 6.05426410749942E-02 
417	 6.04041250652722E-02 
418	 0.060034716396415 
419	 5.96967460355201E-02 
420	 5.95275134782967E-02 
421	 5.94673593417382E-02 
422	 5.91252536787491E-02 
423	 5.89042600881427E-02 
424	 5.90573898944105E-02 
425	 5.89575606559675E-02 
426	 5.87527490514444E-02 
427	 5.86431393025611E-02 
428	 5.87812636932241E-02 
429	 5.87258229978418E-02 
430	 0.058666316964321 
431	 5.87280828476625E-02 
432	 5.88857456735477E-02 
433	 5.89527919591244E-02 
434	 5.90349873215898E-02 
435	 0.05922965642433 
436	 5.94242282981392E-02 
437	 5.94675299555878E-02 
438	 0.059429701499235 
439	 5.94845325101735E-02 
440	 0.059510446255086 
441	 0.059524702666683 
442	 5.95519944839098E-02 
443	 5.96087606342953E-02 
444	 0.059611981611778 
445	 5.96205407750594E-02 
446	 5.96823676689281E-02 
447	 5.96392532212088E-02 
448	 5.96269413922138E-02 
449	 5.95767850526497E-02 
450	 5.93070633101154E-02 
451	 5.92562685114408E-02 
452	 5.92234412891777E-02 
453	 5.90762181678005E-02 
454	 5.90312598005301E-02 
455	 5.88553180215868E-02 
456	 5.85950244539016E-02 
457	 5.83740505699629E-02 
458	 5.81182371317683E-02 
459	 5.79244351117386E-02 
460	 5.77836366394964E-02 
461	 0.057576992857055 
462	 5.73254905904554E-02 
463	 5.70342089462123E-02 
464	 0.056751105529935 
465	 5.66576517085577E-02 
466	 0.056479996280576 
467	 5.63015518813304E-02 
468	 5.63081003006546E-02 
469	 5.60240572890036E-02 
470	 5.57470917882244E-02 
471	 5.56412738173222E-02 
472	 5.55961865052461E-02 
473	 5.53510957577406E-02 
474	 5.52023425503708E-02 
475	 5.53594096863766E-02 
476	 5.51451761052121E-02 
477	 0.055150964021462 
478	 5.52831945655304E-02 
479	 5.50416749962346E-02 
480	 5.50725772235259E-02 
481	 5.51411179222468E-02 
482	 5.50578247279298E-02 
483	 5.49536198984494E-02 
484	 5.49537307730142E-02 
485	 0.055061556184508 
486	 5.52074489956028E-02 
487	 5.52769280044838E-02 
488	 5.53689622466467E-02 
489	 5.55072082827094E-02 
490	 5.56338695378761E-02 
491	 5.58017503236478E-02 
492	 5.59773435026803E-02 
493	 5.61640181143232E-02 
494	 5.65293526377346E-02 
495	 5.68366439707697E-02 
496	 5.70541338967909E-02 
497	 5.72698209307996E-02 
498	 5.75848904935857E-02 
499	 5.79112497799965E-02 
500	 5.82090079302777E-02 
501	 5.85473573359124E-02 
502	 5.88287608527466E-02 
503	 5.90859150743425E-02 
504	 5.93722155300113E-02 
505	 5.96516818149235E-02 
506	 0.059954932736129 
507	 0.060234104158914 
508	 6.04006663626198E-02 
509	 6.07467079336256E-02 
510	 6.11491356147152E-02 
511	 6.14711005285083E-02 
512	 6.16887692889592E-02 
513	 6.20217693970153E-02 
514	 6.24423795043576E-02 
515	 6.28221064785606E-02 
516	 6.32262353369421E-02 
517	 0.063670407025597 
518	 6.41343488621798E-02 
519	 6.45616053817271E-02 
520	 6.50770130330365E-02 
521	 6.56260305708408E-02 
522	 0.066162121392055 
523	 6.68058706518469E-02 
524	 6.74693197439161E-02 
525	 6.81762594095964E-02 
526	 6.90222224910071E-02 
527	 6.99161367519173E-02 
528	 7.08982706168869E-02 
529	 0.071949572243593 
530	 7.28795402787439E-02 
531	 7.40558877510478E-02 
532	 7.53728227114887E-02 
533	 0.07660428746471 
534	 0.078006740598601 
535	 7.95028983175017E-02 
536	 8.10468914568953E-02 
537	 8.26476027797232E-02 
538	 8.43749313995908E-02 
539	 8.61620216953744E-02 
540	 8.79551368695893E-02 
541	 8.98760664251021E-02 
542	 9.17506902450149E-02 
543	 9.35728592176453E-02 
544	 9.54460006697763E-02 
545	 9.73321312813399E-02 
546	 9.92070135310138E-02 
547	 0.101059819187649 
548	 0.102924239612995 
549	 0.104634713513126 
550	 0.106251422903587 
551	 0.107900409999836 
552	 0.109537970116303 
553	 0.111090356636155 
554	 0.112588314814411 
555	 0.114167923587324 
556	 0.115637434687609 
557	 0.117169897687712 
558	 0.118879629299311 
559	 0.120455157630223 
560	 0.122098854438385 
561	 0.123851835180256 
562	 0.125658186942668 
563	 0.127481379210263 
564	 0.129192081343714 
565	 0.130742451776268 
566	 0.132260870394229 
567	 0.133712622036591 
568	 0.135103828267181 
569	 0.136419043693584 
570	 0.137508539388657 
571	 0.138457453085842 
572	 0.139335077579349 
573	 0.140167846744932 
574	 0.140933494518711 
575	 0.141617978661773 
576	 0.14223136192018 
577	 0.142865792068676 
578	 0.143489125680195 
579	 0.14406414962486 
580	 0.144553578695456 
581	 0.144950130135513 
582	 0.14530281769164 
583	 0.145596527945826 
584	 0.145681045726831 
585	 0.145648654696562 
586	 0.145538291822689 
587	 0.145379128624974 
588	 0.145219711386328 
589	 0.145230013056849 
590	 0.145371896946394 
591	 0.145392564941739 
592	 0.145378203761288 
593	 0.145413031708526 
594	 0.145483685804744 
595	 0.145271891151571 
596	 0.145098389353411 
597	 0.144936986841712 
598	 0.144597873048246 
599	 0.14431129731784 
600	 0.144039634372567 
601	 0.143765354532488 
602	 0.143557421632153 
603	 0.143428891061024 
604	 0.143354962116196 
605	 0.143307200373794 
606	 0.143341102366122 
607	 0.143228015356131 
608	 0.142990535654252 
609	 0.142914353650295 
610	 0.142825938423592 
611	 0.142631592917081 
612	 0.142340937515616 
613	 0.1422192753479 
614	 0.142084606366806 
615	 0.141868638172695 
616	 0.141600579875396 
617	 0.141541507327433 
618	 0.14143193403281 
619	 0.141158998837687 
620	 0.140935474971303 
621	 0.140725755153873 
622	 0.140545420034158 
623	 0.140417122909433 
624	 0.140359150727837 
625	 0.140210632024705 
626	 0.140024732300904 
627	 0.140049324724063 
628	 0.139943660313489 
629	 0.139851821816296 
630	 0.139888623913139 
631	 0.139869926096096 
632	 0.139681035313207 
633	 0.139411321311054 
634	 0.139195150299831 
635	 0.138654557998064 
636	 0.138005415531704 
637	 0.137338017088461 
638	 0.136466968784858 
639	 0.135634101496602 
640	 0.134735034542323 
641	 0.133647972944355 
642	 0.132592808235659 
643	 0.131328818551714 
644	 0.129846218429082 
645	 0.128335636253178 
646	 0.126673794386992 
647	 0.125082681561218 
648	 0.123737760966313 
649	 0.122407681059091 
650	 0.121225618471955 
651	 0.120340758956136 
652	 0.119902905058243 
653	 0.119649261170848 
654	 0.119444718247147 
655	 0.119259906968473 
656	 0.119196294297685 
657	 0.119119150046714 
658	 0.118895604544995 
659	 0.118434016493848 
660	 0.117763869109856 
661	 0.116819625452979 
662	 0.115554862585731 
663	 0.114007782652219 
664	 0.112637453543449 
665	 0.111310413650657 
666	 0.109855114241424 
667	 0.108196085984465 
668	 0.106857351493341 
669	 0.10573116775405 
670	 0.104596701950733 
671	 0.103800412493589 
672	 0.103239821173203 
673	 0.102911170926032 
674	 0.102913400991797 
675	 0.103012173774782 
676	 0.103374030163358 
677	 0.10414894022323 
678	 0.10524861120918 
679	 0.106668622603171 
680	 0.108494596907778 
681	 0.110837710897349 
682	 0.113654769433552 
683	 0.11691422269741 
684	 0.120532837393238 
685	 0.124758667561308 
686	 0.129931693650091 
687	 0.135135281957449 
688	 0.139249258945192 
689	 0.143338104333931 
690	 0.147399127152386 
691	 0.151269573595183 
692	 0.154689097658821 
693	 0.158107957141932 
694	 0.161241843285021 
695	 0.163710123230719 
696	 0.165439090279754 
697	 0.167006860430408 
698	 0.168468765055393 
699	 0.169570438513093 
700	 0.170367506093063 
701	 0.171076842519329 
702	 0.171596249896153 
703	 0.17162209773123 
704	 0.171348096698113 
705	 0.170761713571961 
706	 0.169955267086087 
707	 0.16929709323198 
708	 0.168257815880287 
709	 0.166858907129478 
710	 0.165316912709381 
711	 0.163635701697341 
712	 0.161656861475534 
713	 0.159410649899961 
714	 0.157077252549724 
715	 0.154705368504959 
716	 0.151966926742313 
717	 0.148909366870299 
718	 0.146318838204843 
719	 0.143493321622655 
720	 0.141041986683655 
721	 0.139055295891049 
722	 0.136766451694713 
723	 0.134047197798007 
724	 0.131284727908479 
725	 0.128487927930292 
726	 0.125916202322722 
727	 0.123183423231269 
728	 0.119998289556397 
729	 0.116607411491337 
730	 0.113392876431352 
731	 0.110587912332135 
732	 0.108029115412867 
733	 0.105818291900392 
734	 0.103871379603608 
735	 0.102205432018725 
736	 0.100924217978465 
737	 9.99212395336629E-02 
738	 9.91382200814184E-02 
739	 9.85534279400226E-02 
740	 9.81736449161926E-02 
741	 9.78161019227101E-02 
742	 9.75637069679289E-02 
743	 9.75519903703061E-02 
744	 9.71909985768399E-02 
745	 9.69890770591881E-02 
746	 9.70461390080899E-02 
747	 9.67774863075748E-02 
748	 0.096706360188113 
749	 9.66368509815039E-02 
750	 9.63809465709716E-02 
751	 9.63910284220335E-02 
752	 9.62821386999735E-02 
753	 9.61028392653064E-02 
754	 9.60890466166874E-02 
755	 9.58607465435826E-02 
756	 9.57987633986954E-02 
757	 9.59231887126801E-02 
758	 9.55427684611541E-02 
759	 9.57137303121902E-02 
760	 9.58869868691934E-02 
761	 9.48990027409147E-02 
762	 9.48432357328662E-02 
763	 9.48752787143631E-02 
764	 9.49613213450761E-02 
765	 9.52385067691177E-02 
766	 9.54956031816656E-02 
767	 9.56800088108202E-02 
768	 9.58053830885397E-02 
769	 9.59233594817114E-02 
770	 9.60788544913279E-02 
771	 0.096277249764904 
772	 9.64926518266808E-02 
773	 9.66490673720718E-02 
774	 9.67724679311277E-02 
775	 9.69438441795525E-02 
776	 0.097243015229041 
777	 9.75800932782499E-02 
778	 9.78909984668348E-02 
779	 0.098200243480021 
780	 9.86073111552253E-02 
781	 9.88650502650081E-02 
782	 9.91582580865143E-02 
783	 9.96002511188901E-02 
784	 9.99594867950466E-02 
785	 0.100402505045277 
786	 0.100783719991215 
787	 0.100985404591496 
788	 0.101672355222296 
789	 0.102257244776133 
790	 0.102599808091441 
791	 0.103015564167923 
792	 0.103769909548151 
793	 0.104273934130496 
794	 0.104415834360756 
795	 0.105013096788497 
796	 0.105474716538482 
797	 0.105851190125492 
798	 0.106311367226399 
799	 0.106699829485204 
800	 0.107148781122505 
801	 0.107547048223567 
802	 0.107724775516995 
803	 0.108119435365085 
804	 0.108385026031084 
805	 0.108470548181736 
806	 0.108689900716695 
807	 0.108824101678766 
808	 0.108666970116875 
809	 0.108197670721441 
810	 0.107893701628059 
811	 0.107430771006746 
812	 0.106709978260674 
813	 0.10581033217405 
814	 0.105243850764951 
815	 0.104624573135135 
816	 0.104077070536172 
817	 0.104000245730857 
818	 0.103257597729513 
819	 0.102384431710342 
820	 0.101572146531672 
821	 0.100470103206853 
822	 9.89072083737065E-02 
823	 0.097116572625121 
824	 9.54557193918484E-02 
825	 9.40460034079008E-02 
826	 9.23188411875097E-02 
827	 9.00988894515543E-02 
828	 8.76571766130569E-02 
829	 8.54973388892003E-02 
830	 8.41983580022321E-02 
831	 0.083282160195181 
832	 8.17426602842458E-02 
833	 0.080419818574517 
834	 7.97631020002139E-02 
835	 7.95258281644568E-02 
836	 0.078743460495273 
837	 7.82299051967136E-02 
838	 7.78592223882928E-02 
839	 7.73986579351515E-02 
840	 0.0768281614115 
841	 7.65107150021291E-02 
842	 7.62996606357726E-02 
843	 7.59195956991244E-02 
844	 7.54464432795802E-02 
845	 7.52460326889666E-02 
846	 7.51763069975349E-02 
847	 7.48082053329126E-02 
848	 7.45694085855035E-02 
849	 7.41793151776595E-02 
850	 7.36650636874539E-02 
851	 7.34900941867548E-02 
852	 7.28540906812596E-02 
853	 7.24186488057216E-02 
854	 7.25411532511798E-02 
855	 7.22915826080429E-02 
856	 7.20862755394302E-02 
857	 7.19100767962564E-02 
858	 7.16407676110749E-02 
859	 7.11503908580356E-02 
860	 7.09371680948697E-02 
861	 7.08035110205795E-02 
862	 7.03631404744685E-02 
863	 7.05096947213657E-02 
864	 7.03862778298171E-02 
865	 6.98997339644257E-02 
866	 6.97067726396981E-02 
867	 6.93910201029499E-02 
868	 6.90600575288907E-02 
869	 6.86707015867075E-02 
870	 6.79352174994753E-02 
871	 6.79160632552318E-02 
872	 6.79344166119336E-02 
873	 6.74299462670957E-02 
874	 6.69845251785703E-02 
875	 6.65965789936097E-02 
876	 6.63281190923574E-02 
877	 6.61081478175708E-02 
878	 6.53796375106706E-02 
879	 6.49420952683863E-02 
880	 6.47154454378104E-02 
881	 6.42614387791467E-02 
882	 6.38635139120921E-02 
883	 6.33899886879637E-02 
884	 6.29253788776836E-02 
885	 6.26754895038227E-02 
886	 6.22915914220645E-02 
887	 6.19427760714361E-02 
888	 0.061730432166521 
889	 6.15925134460152E-02 
890	 6.12152143750676E-02 
891	 6.07690322608748E-02 
892	 6.02844708573055E-02 
893	 5.93333505847642E-02 
894	 5.88144181644972E-02 
895	 5.92284215934961E-02 
896	 6.01079174115673E-02 
897	 5.85398192594799E-02 
898	 5.73819968925462E-02 
899	 5.71195648282371E-02 
900	 5.72032069551296E-02 
901	 5.75239352529184E-02 
902	 5.69715509464009E-02 
903	 5.60456628824742E-02 
904	 5.56864413887974E-02 
905	 5.58873116356268E-02 
906	 5.53569646355506E-02 
907	 5.43365114201517E-02 
908	 5.40755585174877E-02 
909	 0.052963441071558 
910	 5.24395355755249E-02 
911	 5.26921859385495E-02 
912	 5.25324673133486E-02 
913	 0.051833194307403 
914	 5.09553164661969E-02 
915	 5.01775350935581E-02 
916	 4.95634348228728E-02 
917	 0.049734900441889 
918	 4.97910032707291E-02 
919	 4.93945217957734E-02 
920	 4.91442819791406E-02 
921	 4.90279406870314E-02 
922	 4.81169582826849E-02 
923	 4.65773961124089E-02 
924	 4.73755889487985E-02 
925	 4.59906692864611E-02 
926	 4.37335863560236E-02 
927	 4.34067529231324E-02 
928	 4.52818938969411E-02 
929	 4.55817574837999E-02 
930	 4.25950868645907E-02 
931	 3.77141430926582E-02 
932	 4.04369505329668E-02 
933	 0.043660743480112 
934	 4.06851516614339E-02 
935	 3.33945883723028E-02 
936	 4.09903981711618E-02 
937	 3.91116205832835E-02 
938	 3.27969676929651E-02 
939	 3.28256006085645E-02 
940	 3.48305553237362E-02 
941	 3.29162310762611E-02 
942	 3.15506276053221E-02 
943	 3.68338627688883E-02 
944	 2.92798028755268E-02 
945	 2.69512364937946E-02 
946	 3.12025717431004E-02 
947	 3.22670459930998E-02 
948	 3.18157967472977E-02 
949	 2.98774427561292E-02 
950	 3.00584587090692E-02 
951	 3.55022428922399E-02 
952	 0.035393186841808 
953	 3.40174480433122E-02 
954	 0.031077509530554 
955	 2.47126817799399E-02 
956	 2.75826604461304E-02 
957	 3.06571376002381E-02 
958	 3.09369777475047E-02 
959	 3.09477297918546E-02 
960	 3.24568237754646E-02 
961	 0.030380892761292 
962	 2.79044982458174E-02 
963	 3.16814222328356E-02 
964	 3.26466023709483E-02 
965	 3.16321950048625E-02 
966	 3.08414470837612E-02 
967	 3.19076119229157E-02 
968	 3.00684342211424E-02 
969	 0.029821131568463 
970	 3.14005102407752E-02 
971	 3.12764854842664E-02 
972	 3.09284962036153E-02 
973	 3.20718528907094E-02 
974	 3.35819821281764E-02 
975	 3.19892535372834E-02 
976	 2.81887351639493E-02 
977	 2.92252496846814E-02 
978	 3.28538078800872E-02 
979	 3.07194039483436E-02 
980	 3.20561930343377E-02 
981	 3.36842236339549E-02 
982	 3.31829294453166E-02 
983	 3.04174862828479E-02 
984	 2.90054285780673E-02 
985	 2.88095228995632E-02 
986	 2.99133036136688E-02 
987	 3.22622913670497E-02 
988	 3.14824848280826E-02 
989	 3.32312833836849E-02 
990	 3.50480779830929E-02 
991	 3.02298488033966E-02 
992	 2.90036490190305E-02 
993	 3.20794374421658E-02 
994	 3.49039016419174E-02 
995	 0.032029853073253 
996	 3.07919593707766E-02 
997	 3.15693171938822E-02 
998	 3.29257503411765E-02 
999	 3.28882664301589E-02 
1000	 3.18612731521893E-02 
1001	 3.55647172921855E-02 
1002	 3.55971050836943E-02 
1003	 3.55041561707803E-02 
1004	 3.45021696532152E-02 
1005	 3.38391573218302E-02 
1006	 3.29930260707623E-02 
1007	 3.29219043185473E-02 
1008	 3.27408108385837E-02 
1009	 0.033157334898781 
1010	 3.47453719969149E-02 
1011	 3.55572149003857E-02 
1012	 3.59158528509257E-02 
1013	 3.63359738015637E-02 
1014	 3.62636413719446E-02 
1015	 3.52495934805325E-02 
1016	 3.49481857736924E-02 
1017	 3.45231126491857E-02 
1018	 3.44560367503599E-02 
1019	 3.46135815452781E-02 
1020	 3.48853222068501E-02 
1021	 3.52511532279724E-02 
1022	 3.64365975506899E-02 
1023	 3.65245474179784E-02 
1024	 3.66793040769197E-02 
1025	 3.67842080614311E-02 
1026	 3.62507677779445E-02 
1027	 0.036369642287202 
1028	 0.036899476195627 
1029	 3.71349334539614E-02 
1030	 0.037533824324627 
1031	 3.77196427586626E-02 
1032	 3.76022306299582E-02 
1033	 0.037823122480023 
1034	 3.82989268678739E-02 
1035	 3.83706624506218E-02 
1036	 3.81382486607789E-02 
1037	 3.83947541218484E-02 
1038	 3.90895811828952E-02 
1039	 3.89223829219359E-02 
1040	 3.92607657104258E-02 
1041	 3.95112362636581E-02 
1042	 3.92117165468151E-02 
1043	 3.80177726748259E-02 
1044	 3.77498925964938E-02 
1045	 3.75391177268138E-02 
1046	 3.75905007501685E-02 
1047	 3.78984669586803E-02 
1048	 3.84498536297094E-02 
1049	 3.95854954916708E-02 
1050	 4.00875520079479E-02 
1051	 4.07157520377029E-02 
1052	 4.10746921979035E-02 
1053	 4.07583545025477E-02 
1054	 4.07265098746174E-02 
1055	 4.07847575322399E-02 
1056	 4.08273146903119E-02 
1057	 4.08725261279112E-02 
1058	 4.09816144866344E-02 
1059	 4.08389003302914E-02 
1060	 4.02342693926665E-02 
1061	 4.06362896721645E-02 
1062	 4.16520580782401E-02 
1063	 4.19384135223391E-02 
1064	 4.28356587988851E-02 
1065	 4.29436504787788E-02 
1066	 4.16182021381299E-02 
1067	 4.13327153014503E-02 
1068	 4.15701286102891E-02 
1069	 4.15396595430544E-02 
1070	 4.18568336806453E-02 
1071	 4.18716995749322E-02 
1072	 4.14223752971516E-02 
1073	 4.11508073847156E-02 
1074	 4.11062859255222E-02 
1075	 4.10984952458665E-02 
1076	 4.12553499826723E-02 
1077	 4.17598385951179E-02 
1078	 4.20203857016568E-02 
1079	 4.26830689992193E-02 
1080	 4.23011897634925E-02 
1081	 4.11202448424956E-02 
1082	 4.05148048718076E-02 
1083	 3.88642537744447E-02 
1084	 3.84921955222416E-02 
1085	 3.97304872876411E-02 
1086	 3.99547843861685E-02 
1087	 0.040362018522499 
1088	 4.05067003094207E-02 
1089	 3.99451872947894E-02 
1090	 3.92430267028099E-02 
1091	 3.92121763531227E-02 
1092	 3.95336165276099E-02 
1093	 3.95483912946906E-02 
1094	 3.99875255618898E-02 
1095	 3.98849880149337E-02 
1096	 0.039285846284752 
1097	 0.039017663034755 
1098	 3.86395232954344E-02 
1099	 3.82979471139944E-02 
1100	 0.037704191334928 
1101	 3.76354701572221E-02 
1102	 3.83400295446173E-02 
1103	 3.84571571168726E-02 
1104	 3.87056094892629E-02 
1105	 3.87788132564108E-02 
1106	 3.84698063956004E-02 
1107	 3.82368879987505E-02 
1108	 0.037125901431916 
1109	 3.63892005015733E-02 
1110	 3.63790974030893E-02 
1111	 3.57729769373369E-02 
1112	 3.61106520791449E-02 
1113	 3.99088953697177E-02 
1114	 4.12160775844374E-02 
1115	 4.11200712016931E-02 
1116	 4.17022110866799E-02 
1117	 4.11586394482458E-02 
1118	 3.92313588513371E-02 
1119	 3.32949822677213E-02 
1120	 3.11462249252662E-02 
1121	 2.87127305680807E-02 
1122	 3.13577003204584E-02 
1123	 4.90004974933018E-02 
1124	 5.32591332131042E-02 
1125	 3.92279595972449E-02 
1126	 4.38299985494597E-02 
1127	 3.96701139267331E-02 
1128	 3.35922059268133E-02 
1129	 2.99380464826227E-02 
1130	 2.64878663751534E-02 
1131	 2.57729854697022E-02 
1132	 2.77958909532724E-02 
1133	 3.15419563777468E-02 
1134	 4.21751683652991E-02 
1135	 4.36298233949305E-02 
1136	 3.85586230166949E-02 
1137	 0.034807344430978 
1138	 2.55136376035103E-02 
1139	 0.029026244475218 
1140	 3.02745024398063E-02 
1141	 2.83043499480702E-02 
1142	 0.029986751925397 
1143	 2.71957936219841E-02 
1144	 2.44227425525552E-02 
1145	 2.78006917285107E-02 
1146	 3.22569437146247E-02 
1147	 3.37923507509115E-02 
1148	 3.17350456310714E-02 
1149	 0.030268701770464 
1150	 2.94907458105023E-02 
1151	 2.66923134776352E-02 
1152	 2.54144590869433E-02 
1153	 2.62112682417685E-02 
1154	 2.73424097296441E-02 
1155	 2.79526147071962E-02 
1156	 2.86308749568517E-02 
1157	 3.12589278111471E-02 
1158	 3.11415168556489E-02 
1159	 2.94755324768845E-02 
1160	 2.91975907565965E-02 
1161	 2.79085299710411E-02 
1162	 2.67153370645111E-02 
1163	 2.83314295612132E-02 
1164	 3.02544164643116E-02 
1165	 3.05422817055112E-02 
1166	 3.02289488917181E-02 
1167	 2.99231521451511E-02 
1168	 2.93447922105021E-02 
1169	 2.92213147691436E-02 
1170	 2.95700923807883E-02 
1171	 2.94991755797929E-02 
1172	 2.86572791845537E-02 
1173	 2.82988317344664E-02 
1174	 2.81532283998574E-02 
1175	 2.77815671810312E-02 
1176	 2.77123937574361E-02 
1177	 2.77897836673889E-02 
1178	 2.78557187074081E-02 
1179	 2.82803943937756E-02 
1180	 0.028702808327284 
1181	 2.84806546000915E-02 
1182	 2.78545478113634E-02 
1183	 2.75073036874724E-02 
1184	 2.75029322824533E-02 
1185	 2.76425835066979E-02 
1186	 2.78529304656141E-02 
1187	 2.78966032761395E-02 
1188	 2.78050140973124E-02 
1189	 0.027743172636437 
1190	 2.76150571195169E-02 
1191	 2.76851397432047E-02 
1192	 2.76485303890334E-02 
1193	 2.77051079633814E-02 
1194	 0.027170320471503 
1195	 2.72825756739182E-02 
1196	 2.77912017614575E-02 
1197	 2.77818191995819E-02 
1198	 2.82376571186285E-02 
1199	 2.83324587072779E-02 
1200	 0.027871578728972 
1201	 2.81750711527245E-02 
1202	 2.84442675203132E-02 
1203	 2.82400340613967E-02 
1204	 0.02849541347652 
1205	 2.90722480423462E-02 
1206	 2.90904874157231E-02 
1207	 0.029236897063566 
1208	 2.95570425062481E-02 
1209	 2.90553407286912E-02 
1210	 2.90341469201656E-02 
1211	 2.93956035107132E-02 
1212	 2.89645216769432E-02 
1213	 2.84662783384887E-02 
1214	 0.028148201977401 
1215	 2.77346973850752E-02 
1216	 2.72450145229776E-02 
1217	 2.73709520406642E-02 
1218	 2.80063266804494E-02 
1219	 2.84914317574463E-02 
1220	 2.85653216169213E-02 
1221	 0.027987955609729 
1222	 0.027571969886195 
1223	 2.77765577893302E-02 
1224	 2.77257974461777E-02 
1225	 2.76861214625329E-02 
1226	 2.82148520098328E-02 
1227	 2.85950271016732E-02 
1228	 2.83953230007988E-02 
1229	 2.85078803824363E-02 
1230	 2.88231121427084E-02 
1231	 2.86558058739526E-02 
1232	 2.86078912162148E-02 
1233	 2.88671824664876E-02 
1234	 2.88606725163261E-02 
1235	 2.88922597511917E-02 
1236	 2.87253670291569E-02 
1237	 0.02879474000827 
1238	 2.91749409826148E-02 
1239	 0.02909742324382 
1240	 2.88242481759616E-02 
1241	 2.87293274106776E-02 
1242	 0.028410325950222 
1243	 2.81083580422336E-02 
1244	 2.82320730462743E-02 
1245	 2.83567136756766E-02 
1246	 2.82335063503912E-02 
1247	 2.86914894520755E-02 
1248	 2.91023189094737E-02 
1249	 2.84886565524547E-02 
1250	 2.81143914472172E-02 
1251	 0.028372770759963 
1252	 2.84157095816477E-02 
1253	 2.83315392933204E-02 
1254	 2.86305196752003E-02 
1255	 2.86778016983229E-02 
1256	 2.85418347413567E-02 
1257	 2.80851894158604E-02 
1258	 2.80732911176608E-02 
1259	 2.80202422421152E-02 
1260	 2.80745941767536E-02 
1261	 2.86018496483832E-02 
1262	 2.88404645179496E-02 
1263	 2.89693020481131E-02 
1264	 2.91662351410591E-02 
1265	 2.91705415186746E-02 
1266	 2.89400685504438E-02 
1267	 2.86509976183102E-02 
1268	 2.84919061640737E-02 
1269	 2.90486212041397E-02 
1270	 2.94800354707502E-02 
1271	 2.94006805260628E-02 
1272	 2.92362617035754E-02 
1273	 2.86188297274144E-02 
1274	 2.78750922751557E-02 
1275	 2.80083572897408E-02 
1276	 2.82736417011468E-02 
1277	 2.81901900317073E-02 
1278	 2.83910673122305E-02 
1279	 2.86224756827524E-02 
1280	 2.85545080646682E-02 
1281	 2.84979088915397E-02 
1282	 2.83613298283018E-02 
1283	 0.028385406295913 
1284	 0.028250868267045 
1285	 2.83667881787592E-02 
1286	 2.90493799464764E-02 
1287	 2.89600158446504E-02 
1288	 0.028362607060468 
1289	 2.82819156123344E-02 
1290	 2.81374549767273E-02 
1291	 2.78471345400539E-02 
1292	 2.78412597380128E-02 
1293	 0.028272402372934 
1294	 2.85679853445641E-02 
1295	 2.81238074413897E-02 
1296	 2.79412845038951E-02 
1297	 2.80515468093892E-02 
1298	 2.79110956051301E-02 
1299	 0.027603183883068 
1300	 2.76169642606899E-02 
1301	 2.81302808742048E-02 
1302	 2.80704704786917E-02 
1303	 2.76594496748307E-02 
1304	 2.77786437931852E-02 
1305	 2.80780995972987E-02 
1306	 2.80898781656124E-02 
1307	 2.81905535824491E-02 
1308	 0.028220513344567 
1309	 2.78490385324458E-02 
1310	 2.76219984790872E-02 
1311	 2.77335377325483E-02 
1312	 2.76824674625457E-02 
1313	 2.71083827897654E-02 
1314	 2.71640947864816E-02 
1315	 0.027993600884562 
1316	 2.78012568331286E-02 
1317	 2.71969933493051E-02 
1318	 2.74239476472556E-02 
1319	 2.72772428894306E-02 
1320	 2.69449744835569E-02 
1321	 2.73549830228778E-02 
1322	 2.79505460863679E-02 
1323	 2.68932006595968E-02 
1324	 2.67403852240158E-02 
1325	 2.70149900749941E-02 
1326	 2.51224739202439E-02 
1327	 0.024253080596859 
1328	 2.53761343346835E-02 
1329	 2.58704293783839E-02 
1330	 2.69305873908948E-02 
1331	 2.71058846192705E-02 
1332	 2.53179319410058E-02 
1333	 0.026679779823072 
1334	 2.94588878260411E-02 
1335	 2.90932872380327E-02 
1336	 2.70435005807029E-02 
1337	 2.66728869095655E-02 
1338	 2.41033164451258E-02 
1339	 0.023244564708541 
1340	 2.58449280478078E-02 
1341	 2.70436200806321E-02 
1342	 2.63049690351782E-02 
1343	 2.60753022166001E-02 
1344	 2.72157237151546E-02 
1345	 0.029341670387131 
1346	 3.46553840101878E-02 
1347	 3.63837356564496E-02 
1348	 3.19241442113412E-02 
1349	 3.35001545032194E-02 
1350	 3.32127671580149E-02 
1351	 3.65558048184804E-02 
1352	 8.29213303663933E-02 
1353	 0.119240558469682 
1354	 0.120612843362274 
1355	 7.76538972504212E-02 
1356	 8.71054578976799E-02 
1357	 0.158592169048535 
1358	 0.175194655209266 
1359	 0.107063393255319 
1360	 0.27606110309327 
1361	 0.461939469328312 
1362	 0.438566955483944 
1363	 0.389806062976041 
1364	 0.160966519423984 
1365	-3.67374716139387E-02 
1366	 2.55763439594755E-02 
1367	 0.159932706325919 
1368	 0.219699822177757 
1369	-0.222511407861601 
1370	-0.301963921722162 
1371	-0.109978320772761 
1372	 5.62514897695542E-02 
1373	 0.398108138271243 
1374	 0.460640525491027 
1375	 7.9229059139925 
1376	 4.69855870258407 
1377	 0.59846527575092 
1378	 0.35310466545807 
1379	 7.77623624847354E-02 
1380	 0.113341303663745 
1381	 0.148270438916659 
1382	 4.55313368816845E-02 
1383	 0.049963162187881 
1384	 0.384248187560953 
1385	 0.87968517674522 
1386	-7.07495175270988 
1387	 4.9696546620998 
1388	 3.52745672413507 
1389	 1.14074896399783 
1390	 0.389605461665341 
1391	-1.47793568520274E-03 
1392	-0.1096270974921 
1393	 0.273598054020378 
1394	 1.41953309209398 
1395	 1.51224071824929 
1396	-41.1805906310392 
1397	 1.86352384087295 
1398	-0.206846160373963 
1399	-0.155977643451031 
1400	-26.4227878738035 
1401	-0.565006741746101 
1402	-2.20109063187611 
1403	-1.54385456033983 
1404	-0.455630404532064 
1405	-8.22763735247955E-02 
1406	 1.48703766146782E-02 
1407	 2.68427961513847E-02 
1408	 0.502514496893778 
1409	 0.525314366682276 
1410	 0.201875147999433 
1411	 0.270473575430479 
1412	 0.731461900605906 
1413	 0.720960574192612 
1414	 0.787594565260342 
1415	 0.912807319763802 
1416	 0.20988402998969 
1417	 0.238094691129489 
1418	 0.673575758743813 
1419	 0.706405646836946 
1420	 0.777728578912378 
1421	 0.529473313948751 
1422	 3.60204860969465E-02 
1423	-0.050381681390299 
1424	-0.183180944568092 
1425	-0.153674510524249 
1426	 0.163536374214312 
1427	 0.177366209136769 
1428	 3.19042704950463E-02 
1429	 2.15623773658371E-02 
1430	 3.72443068096072E-03 
1431	-2.36565282809057E-02 
1432	 1.70416113554333E-03 
1433	 3.23066246619819E-02 
1434	 6.16282396211627E-02 
1435	 5.85873205633707E-02 
1436	 4.42922161612503E-02 
1437	 0.080008802962718 
1438	 0.132555978518935 
1439	 8.24488197436985E-02 
1440	 3.15427385457548E-02 
1441	 5.77027187291981E-02 
1442	 6.35678211371233E-02 
1443	 2.83690733682072E-02 
1444	-3.08892158788516E-03 
1445	 6.69141293802916E-03 
1446	 1.31936162288263E-02 
1447	-9.01934459051544E-03 
1448	 1.64925509632059E-03 
1449	 1.25859104686146E-02 
1450	 3.15663902749021E-03 
1451	 4.60722396242732E-03 
1452	 8.28667839299933E-03 
1453	 1.98752360479179E-02 
1454	 1.75488875050467E-02 
1455	 3.01554422290622E-03 
1456	 2.7395391634817E-03 
1457	 6.61446119364969E-03 
1458	 5.49359876649212E-03 
1459	 7.5228934593683E-03 
1460	 1.28026091229244E-02 
1461	 1.95226094440717E-02 
1462	 0.014621347095065 
1463	 1.79357129721914E-03 
1464	 5.55839230916382E-03 
1465	 1.18302274584581E-02 
1466	 7.41984032350992E-03 
1467	 1.12098408406741E-02 
1468	 1.81326485185115E-02 
1469	 1.25650428678504E-02 
1470	 1.00621941686047E-02 
1471	 2.13964011592943E-02 
1472	 2.74067726102393E-02 
1473	 1.90434138981138E-02 
1474	 1.95087557415338E-02 
1475	 3.74393707554176E-02 
1476	 3.79350912050496E-02 
1477	 0.024418792897574 
1478	 2.16839507136561E-02 
1479	 2.16320524772147E-02 
1480	 1.72454232520782E-02 
1481	 1.01910218084416E-02 
1482	 1.18892189776951E-02 
1483	 1.75078179617948E-02 
1484	 1.60240870407013E-02 
1485	 1.64725903991415E-02 
1486	 1.73069892883719E-02 
1487	 1.30254598435894E-02 
1488	 1.14129913886899E-02 
1489	 1.45042027565737E-02 
1490	 1.39569488405607E-02 
1491	 1.01133589824513E-02 
1492	 9.50383640185662E-03 
1493	 1.01200761820576E-02 
1494	 1.02474190424987E-02 
1495	 1.12505933291407E-02 
1496	 1.08690159396601E-02 
1497	 9.21890244888026E-03 
1498	 9.07297036588296E-03 
1499	 1.00841719957968E-02 
1500	 9.41401765124983E-03 
1501	 7.77709897523758E-03 
1502	 7.6814151750677E-03 
1503	 6.69118816620905E-03 
1504	 6.48461601681856E-03 
1505	 8.39085285307938E-03 
1506	 9.42179158514265E-03 
1507	 8.75441615951877E-03 
1508	 9.63282484672935E-03 
1509	 9.60396477416838E-03 
1510	 8.74672393511424E-03 
1511	 8.45207929006023E-03 
1512	 8.5371506448975E-03 
1513	 8.52962758343102E-03 
1514	 8.42946704721976E-03 
1515	 9.48726365697841E-03 
1516	 1.12618096595776E-02 
1517	 1.14080654796876E-02 
1518	 0.011468520989063 
1519	 0.01235381476961 
1520	 0.01215484930111 
1521	 0.012354312193193 
1522	 1.33492568863393E-02 
1523	 1.30983586647545E-02 
1524	 1.17659909615518E-02 
1525	 1.13033841741534E-02 
1526	 1.19190341407607E-02 
1527	 1.20580069162505E-02 
1528	 1.23286652644056E-02 
1529	 1.30201868203086E-02 
1530	 1.23563349854652E-02 
1531	 1.17179254351545E-02 
1532	 1.25014890093856E-02 
1533	 1.33023590615075E-02 
1534	 1.40472033143235E-02 
1535	 0.014195257927528 
1536	 0.013544013231448 
1537	 1.30824918599709E-02 
1538	 1.31943615924279E-02 
1539	 1.45350012664116E-02 
1540	 1.52313177338682E-02 
1541	 1.40931675654378E-02 
1542	 1.38188657426479E-02 
1543	 0.014058113792724 
1544	 0.013789829704504 
1545	 1.42150588100238E-02 
1546	 1.41686336262626E-02 
1547	 1.36775487057296E-02 
1548	 1.36422890829541E-02 
1549	 1.38130728830079E-02 
1550	 1.41404321342955E-02 
1551	 1.39777263496769E-02 
1552	 0.014047031839679 
1553	 1.46125646411384E-02 
1554	 1.49335285871913E-02 
1555	 1.55261043858715E-02 
1556	 1.61124672324991E-02 
1557	 0.015984169961353 
1558	 1.58367894684186E-02 
1559	 1.58812627445171E-02 
1560	 1.56428891629838E-02 
1561	 1.55441752178211E-02 
1562	 1.61672718687057E-02 
1563	 1.65566250515359E-02 
1564	 1.55221417527096E-02 
1565	 1.49575756582296E-02 
1566	 1.54692256643457E-02 
1567	 1.56966916913638E-02 
1568	 1.63984418137946E-02 
1569	 0.016799479391463 
1570	 1.63291800840449E-02 
1571	 1.63623766170226E-02 
1572	 1.68621919476975E-02 
1573	 1.68432412585181E-02 
1574	 1.64237653268659E-02 
1575	 1.65174564406144E-02 
1576	 1.67699634917742E-02 
1577	 1.70079518133461E-02 
1578	 0.017303307697467 
1579	 1.73946462976696E-02 
1580	 1.74619899157625E-02 
1581	 0.018010330539983 
1582	 1.87945841041707E-02 
1583	 1.84355404706006E-02 
1584	 1.77971962200058E-02 
1585	 0.017940282071104 
1586	 1.78329239723633E-02 
1587	 1.78890531240571E-02 
1588	 1.82681012321008E-02 
1589	 1.79309245805655E-02 
1590	 1.76758182425198E-02 
1591	 1.80920307404119E-02 
1592	 1.84704092123007E-02 
1593	 1.85428352190183E-02 
1594	 1.86041074506643E-02 
1595	 1.88832042429598E-02 
1596	 1.87576410011472E-02 
1597	 0.018135213413031 
1598	 1.80752274442084E-02 
1599	 1.88164036407916E-02 
1600	 1.87776697565306E-02 
1601	 1.80544599482827E-02 
1602	 1.84026642660319E-02 
1603	 1.88368354042587E-02 
1604	 1.82977546841293E-02 
1605	 0.018358373473943 
1606	 1.90428653524078E-02 
1607	 1.83075267939817E-02 
1608	 1.76024655718424E-02 
1609	 1.87085294804085E-02 
1610	 1.93086208633434E-02 
1611	 1.87653113061532E-02 
1612	 1.86305817492059E-02 
1613	 1.84655149728424E-02 
1614	 1.81428355523697E-02 
1615	 1.82869973400358E-02 
1616	 1.81897979133083E-02 
1617	 1.82424237652081E-02 
1618	 1.85851654896037E-02 
1619	 1.85893479780649E-02 
1620	 1.87209819424439E-02 
1621	 1.90054706534927E-02 
1622	 1.94387830570864E-02 
1623	 0.01930981727035 
1624	 1.90269253701843E-02 
1625	 0.019447855714738 
1626	 1.90905043999784E-02 
1627	 1.85271050179735E-02 
1628	 1.89475047849007E-02 
1629	 1.95657809023322E-02 
1630	 1.96742653035692E-02 
1631	 1.89650731978528E-02 
1632	 0.01915888651538 
1633	 1.99372417793927E-02 
1634	 0.019358388183685 
1635	 1.92340384305623E-02 
1636	 1.95323528381316E-02 
1637	 1.86591589930383E-02 
1638	 1.80042067586139E-02 
1639	 1.84134929247195E-02 
1640	 1.87241378199162E-02 
1641	 0.018695054086711 
1642	 1.84917222026017E-02 
1643	 1.80951700470507E-02 
1644	 1.85242579100234E-02 
1645	 1.92220355564229E-02 
1646	 1.91834482808265E-02 
1647	 1.91063840882641E-02 
1648	 1.90787048660251E-02 
1649	 1.94199134284369E-02 
1650	 2.01042923656302E-02 
1651	 2.05269578243115E-02 
1652	 2.05933914875436E-02 
1653	 2.05530906489047E-02 
1654	 0.020433786243387 
1655	 2.04197561102862E-02 
1656	 2.03750756021308E-02 
1657	 2.00236267232323E-02 
1658	 1.95100579156251E-02 
1659	 1.86986450071285E-02 
1660	 1.86987749377454E-02 
1661	 1.88749568943673E-02 
1662	 1.89781042046567E-02 
1663	 1.99707783063176E-02 
1664	 2.02046660441926E-02 
1665	 2.01739817503531E-02 
1666	 1.98738019359266E-02 
1667	 1.84774708202708E-02 
1668	 1.85928926349181E-02 
1669	 1.92500880872105E-02 
1670	 1.88537951285882E-02 
1671	 1.85960643066176E-02 
1672	 0.019182867992156 
1673	 1.92812409352825E-02 
1674	 1.87627029574813E-02 
1675	 1.88170298434811E-02 
1676	 1.94504301643668E-02 
1677	 1.92265734533557E-02 
1678	 0.019115522673028 
1679	 1.98239817066155E-02 
1680	 1.95453960594629E-02 
1681	 1.94679239405533E-02 
1682	 1.99415722671912E-02 
1683	 2.00705409468234E-02 
1684	 2.06235816979194E-02 
1685	 2.06843538074953E-02 
1686	 2.02597710159467E-02 
1687	 2.05451913585253E-02 
1688	 2.07877247455345E-02 
1689	 2.02817571373609E-02 
1690	 1.98940351478946E-02 
1691	 2.00009295628863E-02 
1692	 1.96331470073534E-02 
1693	 2.00535363271172E-02 
1694	 2.04417958667287E-02 
1695	 1.89656315974764E-02 
1696	 1.84779527979078E-02 
1697	 1.85952147097644E-02 
1698	 0.018459705512034 
1699	 1.89416417387712E-02 
1700	 1.92922123750252E-02 
1701	 1.88738124368743E-02 
1702	 0.017983963186086 
1703	 1.84958557986012E-02 
1704	 1.91670720856873E-02 
1705	 1.86749287020564E-02 
1706	 0.018582731555625 
1707	 0.018858340089861 
1708	 1.85569239512025E-02 
1709	 1.75076274201093E-02 
1710	 1.71263960658301E-02 
1711	 1.78917972484676E-02 
1712	 1.81312174888958E-02 
1713	 1.71797901329077E-02 
1714	 1.79422567392609E-02 
1715	 1.82433063226823E-02 
1716	 0.018180242814756 
1717	 2.07572273429449E-02 
1718	 2.08148142659983E-02 
1719	 1.93171323256853E-02 
1720	 1.97788585895549E-02 
1721	 1.97026925988248E-02 
1722	 1.91168275891084E-02 
1723	 2.08542236598166E-02 
1724	 2.17522719351243E-02 
1725	 1.99989936581153E-02 
1726	 1.86140403904822E-02 
1727	 1.79294794108243E-02 
1728	 1.77343452565913E-02 
1729	 1.79593553928678E-02 
1730	 1.79890195550895E-02 
1731	 1.77987659744409E-02 
1732	 1.75613799031152E-02 
1733	 0.018376988696263 
1734	 0.019503073816419 
1735	 1.83224679163161E-02 
1736	 1.60398560067843E-02 
1737	 1.50525908943576E-02 
1738	 1.55323937167521E-02 
1739	 1.73285028002554E-02 
1740	 1.91905358594824E-02 
1741	 1.83519324638425E-02 
1742	 1.59167620194644E-02 
1743	 1.47977521130485E-02 
1744	 1.44063706613318E-02 
1745	 1.60541211547959E-02 
1746	 1.65338497936232E-02 
1747	 1.70214489801024E-02 
1748	 0.018513335765544 
1749	 1.85156131822037E-02 
1750	 1.69468894942206E-02 
1751	 1.72927034947649E-02 
1752	 0.018308916589516 
1753	 1.84389692258196E-02 
1754	 2.05878564177085E-02 
1755	 2.08014879055914E-02 
1756	 1.62982660404422E-02 
1757	 1.68441977608175E-02 
1758	 1.97186197885762E-02 
1759	 2.03663448677244E-02 
1760	 2.22999247700682E-02 
1761	 2.09663032800317E-02 
1762	 1.66718633080725E-02 
1763	 1.65352676752839E-02 
1764	 1.76988529311546E-02 
1765	 1.90958453937568E-02 
1766	 2.05939649319503E-02 
1767	 1.85237702393475E-02 
1768	 1.69806723134148E-02 
1769	 1.74747158235634E-02 
1770	 0.017177777097812 
1771	 1.87558247246559E-02 
1772	 1.93887083585163E-02 
1773	 1.81667285280856E-02 
1774	 1.90819430043775E-02 
1775	 1.88353843258143E-02 
1776	 1.99487085655645E-02 
1777	 2.31002093662074E-02 
1778	 2.31627846028921E-02 
1779	 2.07916886620496E-02 
1780	 2.20688091461143E-02 
1781	 2.48384260571451E-02 
1782	 0.023743025915177 
1783	 2.25783661124522E-02 
1784	 2.26835858004986E-02 
1785	 1.86539404903067E-02 
1786	 1.76210142807023E-02 
1787	 2.37168375769796E-02 
1788	 2.50170071816846E-02 
1789	 2.06201456213942E-02 
1790	 1.47777991454624E-02 
1791	 1.65644955040808E-02 
1792	 2.25698647903764E-02 
1793	 2.65813823678819E-02 
1794	 3.75221954238978E-02 
1795	 4.46862041607293E-02 
1796	 4.14192281893881E-02 
1797	 4.55615257501416E-02 
1798	 4.17842460859917E-02 
1799	 2.78824259332519E-02 
1800	 5.94824266656736E-03 
1801	-1.11128490410437E-02 
1802	 4.14329877002147E-03 
1803	-4.45910179931949E-03 
1804	-3.62753596903206E-02 
1805	-4.39365880163228E-02 
1806	-6.99140491842624E-02 
1807	-0.069436127422238 
1808	 7.82411228622051E-02 
1809	 0.153470365086789 
1810	 9.50618823731566E-02 
1811	 8.20379538917793E-02 
1812	-0.135429324545691 
1813	-8.01048128104783E-02 
1814	 0.315052363790416 
1815	 0.371880022356812 
1816	 0.280357230747934 
1817	-0.809694993983902 
1818	 4.26496739294464 
1819	 4.15730079452222 
1820	-1.78673864593127 
1821	-8.88509978576101E-02 
1822	 0.02655361814448 
1823	 0.194151129562842 
1824	 0.279781214368451 
1825	 0.369555819790578 
1826	 1.46970965699797 
1827	-1.76845759544118 
1828	-1.07812857598425 
1829	-1.78275595029394 
1830	-1.22470038439577 
1831	 0.294543472269513 
1832	 0.329540987423724 
1833	 5.72345162785322E-02 
1834	 0.217817705254097 
1835	-0.295069007867294 
1836	-0.316894574134819 
1837	 0.848190419820118 
1838	 2.24574131184908 
1839	-9.43738874643285 
1840	 4.99904230242503 
1841	 2.64886643799839 
1842	-2.21785756671999 
1843	-14.2471083123121 
1844	 2.75634460103798 
1845	 2.45003870908615 
1846	 1.43519451676083 
1847	 1.61058740721318 
1848	 2.4972779652054 
1849	-5.19294941234353 
1850	-1.50410250330817 
1851	-1.24799911398058 
1852	-1.00448960040089 
1853	-0.857658627228814 
1854	-0.779225473502067 
1855	-0.770326603184321 
1856	-0.593207648652222 
1857	-5.82251967014941E-02 
1858	 0.104123318328645 
1859	 1.2970942622263 
1860	-4.00331357494763 
1861	 1.14980228183087 
1862	 0.474544894184995 
1863	-0.351202426820673 
1864	-0.699038142777325 
1865	-0.674297793831048 
1866	-0.501343170649702 
1867	-0.385271283220648 
1868	 0.11968973565932 
1869	 0.355977705949458 
1870	 0.21300731967231 
1871	 0.110108212988547 
1872	 0.592166743421266 
1873	 2.93682215399861 
1874	 14.6817547536606 
1875	-9.9615382784961 
1876	-4.33914386959401 
1877	 2.17685002317452 
1878	-6.80794584054285 
1879	-1.75186217736529 
1880	-1.17821306116928 
1881	-0.203822011106367 
1882	 0.512759864832355 
1883	 0.541906622053186 
1884	 1.64508427838224 
1885	 0.734841208492595 
1886	 0.794758632556806 
1887	 3.20992259514086 
1888	 4.8834335269796 
1889	 3.63571569467407 
1890	 1.77032926151315 
1891	 1.7032277842345 
1892	 0.249310371136367 
1893	-0.619065311896345 
1894	-0.28575971401013 
1895	 2.47039805672702 
1896	 0.736127829793804 
1897	 0.713223756846677 
1898	-1.54294895717302 
1899	-2.090470908964 
1900	-2.94730656497151 
1901	 19.9559450127202 
1902	 6.71868073805854 
1903	 4.34471150586429 
1904	 0.725329118728577 
1905	 0.600640057123524 
1906	-1.25189882939821 
1907	-3.80620273141513 
1908	 5.98426237940964 
1909	 3.03904389931929 
1910	-0.24959240546338 
1911	-3.41880159203837 
1912	 0.682784790151577 
1913	 1.22726242083474 
1914	 1.60356660026662 
1915	 1.59147528942136 
1916	 1.85309787305317 
1917	 3.27379891595588 
1918	 157.452314741243 
1919	-2.66406299782532 
1920	 34.5094251573966 
1921	 1.38862389410304 
1922	 0.484161944108281 
1923	 0.417651533692989 
1924	 0.34040825958982 
1925	 0.311680444978555 
1926	 0.462780600649782 
1927	 1.02140779433655 
1928	-17.8723337107259 
1929	-1.79851095039765 
1930	-1.42808007603229 
1931	-2.12169732292826 
1932	-12.7135839080604 
1933	 10.763264842328 
1934	 3.32861309745232 
1935	 4.75487189123932 
1936	-27.8965354376067 
1937	 60.7769592882716 
1938	-5.52788770202972 
1939	-10.8586416354402 
1940	 3.74415386959818 
1941	 0.79461545523349 
1942	 0.344710105195439 
1943	 0.117733897211835 
1944	-2.59645929666254E-02 
1945	-1.23417096832238 
1946	-3.05224367900605 
1947	-1.0191671630891 
1948	-1.48481117632455 
1949	-1.63429154728066 
1950	-1.66252774629167 
1951	-1.62933809992548 
1952	-1.58287871885984 
1953	-1.41568684996189 
1954	-0.568285924545877 
1955	 0.396904654412273 
1956	 0.279845836751619 
1957	-1.09101770846447E-02 
1958	-0.116021246030024 
1959	-0.216791652792228 
1960	-0.181579991473012 
1961	-5.91291416242389E-02 
1962	 0.081248157206247 
1963	 0.169081410390216 
1964	 0.162329156910677 
1965	 0.119356026080786 
1966	 9.98707122172179E-02 
1967	 7.74648886433466E-02 
1968	 0.109418257293745 
1969	 0.120081107297632 
1970	 8.68447266765703E-02 
1971	 4.75963381810896E-02 
1972	-1.46217559909082E-03 
1973	-4.51337754667161E-02 
1974	-4.50677146065515E-02 
1975	-2.51504961840023E-02 
1976	-8.98576043486064E-03 
1977	-9.3536948777941E-04 
1978	-9.11327163298498E-03 
1979	-9.93899032546758E-03 
1980	-9.54356456439605E-03 
1981	-2.10430462990852E-03 
1982	 5.60649047102803E-05 
1983	 7.23076435682095E-03 
1984	 2.48769093084039E-02 
1985	 1.53069904362596E-02 
1986	-4.94678395910944E-03 
1987	 4.57255401069713E-03 
1988	 3.5683476206084E-03 
1989	-1.70434358690018E-03 
1990	 1.39397602363721E-02 
1991	 1.45702458301535E-02 
1992	 7.79483577500828E-03 
1993	 1.80063288910126E-02 
1994	 2.49037458821711E-02 
1995	 3.35047789327261E-02 
1996	 0.031669299993294 
1997	 3.28290792691124E-02 
1998	 1.99328018267607E-02 
1999	-3.34324625204991E-03 
2000	-1.30469764783281E-02 
2001	-1.71128416518764E-02 
2002	 6.1403463562802E-03 
2003	 2.09744695854656E-02 
2004	 3.68527440699868E-02 
2005	 7.42244851271192E-02 
2006	 7.63285465150074E-02 
2007	 5.86296614939092E-02 
2008	 3.64861016439202E-02 
2009	 2.51814223829836E-02 
2010	 9.33504579603349E-04 
2011	-8.16967750990872E-03 
2012	-8.52019877929209E-04 
2013	 2.91098586508966E-03 
2014	 2.6792944901804E-03 
2015	 2.39327103661459E-02 
2016	 0.031202348863656 
2017	 4.62572861123314E-02 
2018	 4.20554211809167E-02 
2019	 1.77287679590996E-02 
2020	 2.24827447189835E-02 
2021	 0.026138743704006 
2022	 2.67493271493053E-02 
2023	 3.27936075769486E-02 
2024	 2.78176755273582E-02 
2025	 0.010621991475284 
2026	 1.61508543602797E-03 
2027	-6.76455143726947E-03 
2028	-1.65326406750109E-02 
2029	-2.04855242942085E-02 
2030	-2.52421231350355E-02 
2031	-2.03499089717598E-02 
2032	-1.21579700771845E-02 
2033	 1.81262693362611E-04 
2034	 1.15289097214702E-02 
2035	 1.27734995372433E-02 
2036	 1.65119332302157E-02 
2037	 1.84817453367035E-02 
2038	 1.80908098607055E-02 
2039	 1.59031899414851E-02 
2040	 0.011216404495763 
2041	 1.00166164985501E-02 
2042	 5.09459068717528E-03 
2043	 3.48936698271555E-03 
2044	 6.48205286035551E-03 
2045	 1.30498905333799E-02 
2046	 7.39215384741476E-03 
2047	 8.83366058421588E-03 
2048	 1.09144151371558E-02 
2049	 0.010018858571967 
2050	 1.63428820689157E-02 
2051	 1.98856628169283E-02 
2052	 1.74252178750136E-02 
2053	 6.7463972805612E-03 
2054	 6.72650875932434E-03 
2055	 1.22257727012154E-02 
2056	 1.27580694578761E-02 
2057	 0.020488359162268 
2058	 2.34062290101119E-02 
2059	 1.61494743141108E-02 
2060	 1.27602184768799E-02 
2061	 1.24237129566334E-02 
2062	 8.69616861920551E-03 
2063	 6.65775707431499E-03 
2064	 1.06155147268283E-02 
2065	 0.014955626258991 
2066	 2.09506464626756E-02 
2067	 1.56572343965331E-02 
2068	 7.01936834940442E-03 
2069	 7.20028350895664E-03 
2070	 7.73096911071115E-03 
2071	 9.90587553707948E-03 
2072	 1.92722457880348E-02 
2073	 2.10602095070563E-02 
2074	 1.62014732751714E-02 
2075	 1.28725283696165E-02 
2076	 9.61993168684212E-03 
2077	 0.005424080690112 
2078	-1.45869226358869E-03 
2079	-4.20179218657545E-03 
2080	-4.04529091928731E-03 
2081	-8.2059125925002E-03 
2082	-8.59607148176012E-03 
2083	-9.59547405092627E-03 
2084	-1.00359532725226E-02 
2085	-2.51711501945478E-03 
2086	 1.74696614138998E-03 
2087	 9.75138925822752E-03 
2088	 1.60441453820424E-02 
2089	 1.86939163350296E-02 
2090	 2.16371952576002E-02 
2091	 1.92063176363172E-02 
2092	 1.87515520930808E-02 
2093	 1.80227603269062E-02 
2094	 1.63401288386508E-02 
2095	 1.34058685213422E-02 
2096	 1.10634986737207E-02 
2097	 8.15707374635307E-03 
2098	 6.39815666835515E-03 
2099	 3.91226091770639E-03 
2100	 5.85838978916593E-03 
2101	 5.43704085290235E-03 
2102	 9.4884613758411E-04 
2103	-1.20381498001201E-03 
2104	-1.44197562490573E-03 
2105	 5.20516525954895E-03 
2106	 9.39235225480018E-03 
2107	 1.12795523931639E-02 
2108	 1.67636675155213E-02 
2109	 1.95586673420096E-02 
2110	 1.87435001206876E-02 
2111	 1.92310871562058E-02 
2112	 0.021491076643674 
2113	 1.99575188749832E-02 
2114	 1.52984752105104E-02 
2115	 1.24063365800647E-02 
2116	 7.14693694654369E-03 
2117	 5.03415156745305E-03 
2118	 4.87713917724299E-03 
2119	 5.96129639857568E-03 
2120	 1.11243114856085E-02 
2121	 9.7676202705228E-03 
2122	 1.09213099618825E-02 
2123	 1.12338239363358E-02 
2124	 1.33225821391025E-02 
2125	 1.46948913957445E-02 
2126	 1.22145118778826E-02 
2127	 1.53678000276029E-02 
2128	 1.58441485593053E-02 
2129	 1.45882807698965E-02 
2130	 1.75166934649565E-02 
2131	 1.70118271392146E-02 
2132	 1.54127693889618E-02 
2133	 1.32434643063707E-02 
2134	 1.17874098548709E-02 
2135	 1.01085340706511E-02 
2136	 9.90012980812527E-03 
2137	 1.11705043737665E-02 
2138	 1.14160017386749E-02 
2139	 1.22347910363148E-02 
2140	 1.16344712283938E-02 
2141	 8.33539402470744E-03 
2142	 7.59922971914919E-03 
2143	 8.83589286156458E-03 
2144	 8.22551888454776E-03 
2145	 4.89812752317492E-03 
2146	 2.90012058128793E-03 
2147	 1.65016728870031E-03 
2148	 8.23181005044203E-04 
2149	 3.7231641282401E-03 
2150	 8.46786662047026E-03 
2151	 9.33523770320374E-03 
2152	 9.58909129962251E-03 
2153	 1.51422874536123E-02 
2154	 1.66585840419207E-02 
2155	 1.07426584762484E-02 
2156	 9.18869000368176E-03 
2157	 7.40930395860665E-03 
2158	-1.04368156074639E-03 
2159	-1.0732601283534E-03 
2160	 8.74050971758871E-03 
2161	 8.57982931092856E-03 
2162	 5.34646274696878E-03 
2163	 5.11709571548121E-03 
2164	 2.1289262630935E-03 
2165	 1.90535787516871E-04 
2166	-6.41044975128504E-04 
2167	 1.35604777431205E-03 
2168	 4.86795662161632E-03 
2169	 8.17196994991192E-03 
2170	 1.76932070810889E-02 
2171	 1.80024410427539E-02 
2172	 1.65973897231014E-02 
2173	 0.014111916627691 
2174	 1.05145918397591E-02 
2175	 1.20875098029367E-02 
2176	 1.36790202348713E-02 
2177	 1.65271931991294E-02 
2178	 1.81768825945292E-02 
2179	 2.08970346870259E-02 
2180	 1.93516614678312E-02 
2181	 1.53503392065212E-02 
2182	 1.74605840619393E-02 
2183	 1.82079576362367E-02 
2184	 1.98569648933929E-02 
2185	 0.0243787786155 
2186	 2.38818280385895E-02 
2187	 1.52926284887489E-02 
2188	 1.45475570566156E-02 
2189	 1.71226012607931E-02 
2190	 1.64186074047312E-02 
2191	 1.88074110345709E-02 
2192	 1.76750880638389E-02 
2193	 9.6625221925643E-03 
2194	 7.75924817785474E-03 
2195	 8.32499820977409E-03 
2196	 0.01218777133569 
2197	 2.45646054429049E-02 
2198	 2.70457014029299E-02 
2199	 2.79756777524061E-02 
2200	 2.26671980460885E-02 
2201	 1.31213052025517E-02 
2202	 7.59857653263587E-03 
2203	 1.00531044161884E-02 
2204	 1.93296217390762E-02 
2205	 2.55728471178256E-02 
2206	 3.29618564513392E-02 
2207	 4.22839569596887E-02 
2208	 4.21538127640445E-02 
2209	 4.31815997343883E-02 
2210	 0.036147813025317 
2211	 2.44330260059395E-02 
2212	 2.20285016436033E-02 
2213	 1.42693566615532E-02 
2214	 1.33859587753303E-02 
2215	 2.06182707166081E-02 
2216	 1.52986880113701E-02 
2217	 1.01162457210542E-02 
2218	 3.37757718165372E-03 
2219	 7.32829454973578E-04 
2220	-4.77289650654675E-03 
2221	-8.99198011552436E-03 
2222	-0.010137981623531 
2223	-7.96322956021848E-03 
2224	-4.64925893351369E-03 
2225	 1.36672153163594E-04 
2226	 1.00021239622918E-02 
2227	 1.57133189029288E-02 
2228	 1.93605138886834E-02 
2229	 2.13764435653787E-02 
2230	 2.58707345175455E-02 
2231	 2.62472627786492E-02 
2232	 1.83377064232496E-02 
2233	 1.42356762981642E-02 
2234	 7.74528749602007E-03 
2235	 8.0437584037794E-03 
2236	 9.57938731131301E-03 
2237	 1.11848337488318E-02 
2238	 1.32509957595775E-02 
2239	 8.56764509265236E-03 
2240	 3.46727621399879E-03 
2241	 5.47640530093899E-03 
2242	 2.92447988683578E-03 
2243	 9.08408387356216E-03 
2244	 1.48360131150561E-02 
2245	 1.40493358969787E-02 
2246	 2.72333459865381E-02 
2247	 2.70694797921367E-02 
2248	 1.87712789181333E-02 
2249	 0.016235523617506 
2250	 1.00486210513203E-02 
2251	 5.89587855328943E-03 
2252	 6.41666910959289E-03 
2253	 4.38702750524448E-03 
2254	-6.43628232791833E-03 
2255	-5.02436006189452E-03 
2256	 6.08756074012742E-03 
2257	 1.11002021519456E-02 
2258	 1.06725878206049E-02 
2259	 9.9449292764639E-03 
2260	 7.87442028324835E-03 
2261	-4.4246005032057E-03 
2262	-1.91297746521522E-03 
2263	 9.49056496114827E-03 
2264	 1.12089423179542E-02 
2265	 1.63243040432007E-02 
2266	 1.71763505628992E-02 
2267	 1.02940532169188E-02 
2268	 0.012389436066003 
2269	 1.90202550855245E-02 
2270	 2.03051321894488E-02 
2271	 2.63664995193567E-02 
2272	 2.64915817829893E-02 
2273	 1.64881598878263E-02 
2274	 1.42320255097651E-02 
2275	 9.9918702806324E-03 
2276	 7.17190404076459E-03 
2277	 1.18120477506187E-02 
2278	 1.17813720335957E-02 
2279	 1.41402320241607E-02 
2280	 1.44813792622187E-02 
2281	 1.09317841815632E-02 
2282	 3.01732639424882E-03 
2283	 9.17495642390733E-03 
2284	 4.63257302357892E-03 
2285	-2.01120571360633E-03 
2286	 9.10875348379771E-03 
2287	 0.026387341338813 
2288	 3.22119595495037E-02 
2289	 4.26027239814946E-02 
2290	 4.91601173467802E-02 
2291	 4.31590726964859E-02 
2292	 4.25953942797839E-02 
2293	 2.97521442881484E-02 
2294	 2.18193349065618E-02 
2295	 6.2247455181853E-03 
2296	-1.35711673088863E-02 
2297	 1.44538098527874E-02 
2298	 3.26962542464281E-02 
2299	 2.76895653244152E-02 
2300	 3.47347171919343E-02 
2301	 2.80297962980361E-02 
2302	 1.29766466366577E-02 
2303	 1.78173973725434E-02 
2304	 2.72209315399296E-02 
2305	 2.36028256057359E-02 
2306	 2.34216517937729E-02 
2307	 0.024510187398948 
2308	 2.03578934659222E-02 
2309	 2.67815326533675E-02 
2310	 4.88871481780674E-02 
2311	 0.071938744508805 
2312	 8.93578984198687E-02 
2313	 9.10878234170701E-02 
2314	 7.79992643452237E-02 
2315	 4.89343487910678E-02 
2316	 2.70425581107724E-02 
2317	 1.83686266029443E-02 
2318	 0.010365066082088 
2319	 2.44275838739939E-02 
2320	 2.53259433470705E-02 
2321	 9.33365658395682E-03 
2322	-5.90561028324254E-04 
2323	-5.85236951269431E-03 
2324	 9.80560087749345E-03 
2325	 3.62378942418177E-02 
2326	 5.27729785169853E-02 
2327	 6.08139243868319E-02 
2328	 6.27651010649747E-02 
2329	 8.49156333682061E-02 
2330	 0.113127669110012 
2331	 0.112831247070208 
2332	 0.118990434699253 
2333	 0.110397564696346 
2334	 8.90510004165004E-02 
2335	 6.94299059477564E-02 
2336	 3.35499441194095E-02 
2337	-2.31491047032751E-02 
2338	-8.06876239658087E-02 
2339	-9.84830880357046E-02 
2340	-8.91283974628777E-02 
2341	-5.74531413737455E-02 
2342	-2.55788548385734E-02 
2343	-1.6614659787182E-03 
2344	 2.67303295927082E-02 
2345	 6.22928561852865E-02 
2346	 4.84960309757982E-02 
2347	 2.72211973464182E-02 
2348	 5.27739396155345E-02 
2349	 0.064366782073784 
2350	 0.157964559959911 
2351	 0.191648037009869 
2352	 0.151623189209335 
2353	 0.15926537525832 
2354	 8.58017842055937E-02 
2355	 7.04544435547371E-02 
2356	 9.06427435109387E-02 
2357	 1.38462379781677E-02 
2358	-3.42138092323169E-02 
2359	-0.101120037098558 
2360	-0.199168980388809 
2361	-0.3044166538732 
2362	-0.283602654777874 
2363	-0.134631321500475 
2364	-0.020393204868257 
2365	 3.61839636530592E-02 
2366	 2.14350002557172E-02 
2367	-6.38247346220452E-02 
2368	-0.136059471025241 
2369	-0.188173173461022 
2370	-0.208331173378675 
2371	-0.136898905890328 
2372	-0.100755032109665 
2373	-8.37123027701221E-02 
2374	 6.52502694969849E-02 
2375	 0.146729915802299 
2376	 0.111274642648522 
2377	 0.102053784556183 
2378	 0.199084182169224 
2379	 0.273021309637094 
2380	 0.317722137153445 
2381	 0.436307525510308 
2382	 0.344453117507188 
2383	-0.162440175869848 
2384	-0.36356289033378 
2385	-0.297277301809054 
2386	-0.497504311863611 
2387	-0.691575076520187 
2388	-0.760259073809065 
2389	-0.561362755204913 
2390	-0.289872442112635 
2391	-0.109797946855992 
2392	 2.80420021215655E-02 
2393	-4.80326701941292E-02 
2394	 4.61719557238924E-02 
2395	 0.174132521680048 
2396	 0.10463960249319 
2397	 5.02974223114773E-02 
2398	-5.65170562410338E-02 
2399	-0.121325464230094 
2400	-0.212108831157136 
2401	 1.20988037007025E-02 
2402	 8.43750463064663E-02 
2403	 0.118181155126814 
2404	 0.163928829780351 
2405	-0.11188420663514 
2406	-0.178081903783946 
2407	-0.39553263883693 
2408	-0.518995616902646 
2409	 0.946766508010914 
2410	-1.03856694687352E-02 
2411	-0.169220742810501 
2412	 0.32738196146651 
2413	 0.781064019498489 
2414	 1.76830051875939 
2415	 1.50580306400746 
2416	 0.608897364609826 
2417	 0.443797231162626 
2418	-0.235604823727641 
2419	-7.93818532443491E-02 
2420	 4.55196166677201 
2421	 2.22856727997573 
2422	 1.7687242662395 
2423	 2.76695744291087 
2424	 8.59476811321486 
2425	 16.155285550522 
2426	 149.687368635189 
2427	-5.07118213023354 
2428	-16.0291613255124 
2429	 2.63438225461938 
2430	-0.325310593075856 
2431	-1.70903305315283 
2432	-1.57402910185316 
2433	 21.5766560115941 
2434	 1.01929005253403 
2435	 1.05070444289838 
2436	 0.922190614095589 
2437	 0.957537265299721 
2438	 0.719483248148309 
2439	-0.370680409050143 
2440	-0.591340290736338 
2441	 0.321163639085165 
2442	 0.845974162137201 
2443	 0.76680992996279 
2444	 0.645172020214543 
2445	 0.546457010433789 
2446	 0.233981314043475 
2447	 7.90251059603952E-02 
2448	 4.99388966867363E-02 
2449	-6.83112241115185E-02 
2450	 0.11915789689013 
2451	 1.10753488344734 
2452	 0.425690882095085 
2453	 1.21542284480272 
2454	 3.88172463184974 
2455	 0.855010391201351 
2456	 0.77201846113926 
2457	 0.582351798548386 
2458	 0.30258174439071 
2459	 0.424507273372598 
2460	 0.729916944962512 
2461	 0.404356509432638 
2462	-0.193825505428943 
2463	-0.707609677952846 
2464	-1.69267750258939 
2465	-6.97631173283422 
2466	-9.91096582588024E-02 
2467	 0.366220722290337 
2468	 0.126895041880782 
2469	 0.567262210835444 
2470	 0.843143840854926 
2471	 0.755476412363813 
2472	 0.692365438768795 
2473	 0.49338360231567 
2474	 0.411269876084627 
2475	 0.744510706504029 
2476	 0.729495134909629 
2477	 2.32216169636919 
2478	-0.917828013332263 
2479	 0.326845283321592 
2480	 0.363623294883576 
2481	 1.23972604296411 
2482	 0.58479408787253 
2483	 0.155230780017024 
2484	-8.47443272260516E-02 
2485	-0.030253360726274 
2486	-0.510832688811653 
2487	-0.757613257112518 
2488	-0.240327380695167 
2489	-0.354199841533676 
2490	-0.214642036467617 
2491	 3.79209278808569E-02 
2492	 7.73222349644145E-02 
2493	 0.26692102643341 
2494	 0.376798118464751 
2495	-4.44885551500301E-02 
2496	-1.25126444528471 
2497	-1.35175059094565 
2498	-0.95597214478565 
2499	 0.737360520379976 
2500	-8.85026509095559E-02 
