Wavelength	rt0704rt00006.asd
350	 4.90079555103798E-02 
351	 4.96798602347205E-02 
352	 0.05022884097474 
353	 5.02654811297304E-02 
354	 4.99466162566118E-02 
355	 0.050461283224454 
356	 5.11016752666823E-02 
357	 5.15690757872242E-02 
358	 5.18289388393822E-02 
359	 5.23648173932121E-02 
360	 5.30453468917896E-02 
361	 0.053667613975906 
362	 5.40598999681587E-02 
363	 5.47456001435593E-02 
364	 5.49793698375275E-02 
365	 5.47437407238648E-02 
366	 0.05532403316847 
367	 5.60030249102054E-02 
368	 0.056406309314724 
369	 5.64803510675546E-02 
370	 5.69498730369607E-02 
371	 5.76106457264572E-02 
372	 5.82016807561818E-02 
373	 5.84833348288824E-02 
374	 5.86944712710341E-02 
375	 5.89539058122104E-02 
376	 0.059422137454735 
377	 0.060314930160278 
378	 6.08000414567155E-02 
379	 6.12213496541705E-02 
380	 6.18800448952031E-02 
381	 6.20177642051673E-02 
382	 6.18809574299022E-02 
383	 6.20529316116411E-02 
384	 6.29870776791453E-02 
385	 6.31255621461146E-02 
386	 6.33367771639573E-02 
387	 6.39821642138236E-02 
388	 6.46105714402738E-02 
389	 6.44965837279081E-02 
390	 6.40954174392673E-02 
391	 0.063959553902416 
392	 6.42359329625485E-02 
393	 6.46905506708659E-02 
394	 6.49004784402766E-02 
395	 6.45924794605201E-02 
396	 6.44645011990436E-02 
397	 6.44429615236432E-02 
398	 6.44443241592697E-02 
399	 0.064423606210339 
400	 6.43140201539858E-02 
401	 6.42394010295466E-02 
402	 6.41941059457127E-02 
403	 0.06379709840518 
404	 6.35034260273027E-02 
405	 6.32869881554097E-02 
406	 6.30008996930685E-02 
407	 0.062952913812078 
408	 6.27506492097673E-02 
409	 6.23633740364902E-02 
410	 0.062139249546468 
411	 6.19667517418198E-02 
412	 6.15692784810462E-02 
413	 6.09195430585111E-02 
414	 6.06279624425136E-02 
415	 6.04936763080075E-02 
416	 0.060354598475604 
417	 6.00677846298986E-02 
418	 5.95432654398358E-02 
419	 5.92716098362673E-02 
420	 5.92810567407005E-02 
421	 5.90762870911409E-02 
422	 5.87878535131059E-02 
423	 0.058556240115261 
424	 5.84666185794602E-02 
425	 5.84386238344575E-02 
426	 5.83764046970875E-02 
427	 5.83606008074708E-02 
428	 5.84983570618182E-02 
429	 5.84149681543887E-02 
430	 5.82968032097827E-02 
431	 5.82804788825243E-02 
432	 5.83738485229934E-02 
433	 0.058529661262866 
434	 5.86817598338566E-02 
435	 5.87983347631845E-02 
436	 5.89542060882197E-02 
437	 5.90990475169377E-02 
438	 5.91870734267359E-02 
439	 5.91818649109715E-02 
440	 5.90834164740974E-02 
441	 5.90544173355765E-02 
442	 5.91459238030832E-02 
443	 0.059228155546059 
444	 5.92213349363911E-02 
445	 5.92053934520232E-02 
446	 5.92632420123268E-02 
447	 5.92937512992789E-02 
448	 5.92986263957749E-02 
449	 5.92562704768192E-02 
450	 5.91331612548753E-02 
451	 5.89595750094435E-02 
452	 5.88375304117849E-02 
453	 5.87926034261759E-02 
454	 5.86805661012344E-02 
455	 5.85982328056016E-02 
456	 5.84128837725353E-02 
457	 5.80130319455481E-02 
458	 5.78195995952967E-02 
459	 5.76393639776121E-02 
460	 5.74020029380204E-02 
461	 5.71934957155842E-02 
462	 0.057021709610532 
463	 5.68253966122245E-02 
464	 5.65845271342023E-02 
465	 5.64468604086263E-02 
466	 5.61881549613173E-02 
467	 5.59286563553758E-02 
468	 5.58872085803278E-02 
469	 5.56283376634822E-02 
470	 5.54698340679323E-02 
471	 5.54739310999939E-02 
472	 5.52741114031634E-02 
473	 5.51185737228197E-02 
474	 5.50503159581486E-02 
475	 5.50301267449357E-02 
476	 5.49148670629047E-02 
477	 5.49046332072534E-02 
478	 5.49321956078448E-02 
479	 5.47802634286574E-02 
480	 5.47693972105648E-02 
481	 5.47750400287532E-02 
482	 5.47266480348395E-02 
483	 5.47924063935808E-02 
484	 5.47903645083059E-02 
485	 5.48237045950165E-02 
486	 5.50178818418342E-02 
487	 5.50232780535196E-02 
488	 5.51111676850295E-02 
489	 5.53002188530833E-02 
490	 5.53510635949487E-02 
491	 5.55654543941442E-02 
492	 0.055794675115147 
493	 5.59331202848281E-02 
494	 5.62334164101563E-02 
495	 5.66320382515129E-02 
496	 5.69957302076442E-02 
497	 5.71892132003863E-02 
498	 0.057409479257108 
499	 5.77024032244435E-02 
500	 5.80739271242809E-02 
501	 5.85015842145204E-02 
502	 0.058776795388752 
503	 5.89705879645774E-02 
504	 5.92138976831483E-02 
505	 5.94883788948353E-02 
506	 5.97436113335696E-02 
507	 6.00255893280749E-02 
508	 6.04349210291543E-02 
509	 6.06750192754351E-02 
510	 6.09337760190414E-02 
511	 6.13326212532889E-02 
512	 6.16585303542514E-02 
513	 6.19780964574677E-02 
514	 6.23576479850616E-02 
515	 6.28358338719646E-02 
516	 6.32315134264992E-02 
517	 6.36758403261549E-02 
518	 6.41845002838521E-02 
519	 0.064600555394102 
520	 6.51927674787531E-02 
521	 6.58190396807013E-02 
522	 6.63370127356672E-02 
523	 6.69122115542193E-02 
524	 6.76231917370342E-02 
525	 0.068422579555101 
526	 6.91907147842223E-02 
527	 7.00808569863539E-02 
528	 7.10808184981503E-02 
529	 7.21328619138877E-02 
530	 0.073123754781236 
531	 7.43727303852204E-02 
532	 7.57484733573577E-02 
533	 7.70046669371558E-02 
534	 7.83611662787307E-02 
535	 7.98347209318467E-02 
536	 8.14159186508401E-02 
537	 8.30758697295913E-02 
538	 8.48059800318131E-02 
539	 8.65637518335341E-02 
540	 8.83432867325046E-02 
541	 9.02896744665563E-02 
542	 9.22185891543949E-02 
543	 9.40709270252119E-02 
544	 9.58943051789269E-02 
545	 0.097854954601793 
546	 9.98122319013416E-02 
547	 0.101671371691403 
548	 0.103517493463415 
549	 0.105272430741944 
550	 0.106959875309567 
551	 0.108629527882379 
552	 0.110229317091254 
553	 0.11179873961355 
554	 0.113360203964019 
555	 0.114900348467316 
556	 0.116359442623832 
557	 0.117858250707467 
558	 0.119493381454986 
559	 0.121201536548069 
560	 0.122909750136305 
561	 0.124617856726492 
562	 0.126382491422086 
563	 0.12819436198981 
564	 0.12990277572828 
565	 0.131459293378133 
566	 0.133059664715031 
567	 0.134487837678751 
568	 0.135831151511982 
569	 0.137212113432255 
570	 0.13831975125662 
571	 0.139241436569442 
572	 0.14008506910727 
573	 0.14094010795465 
574	 0.141657524119361 
575	 0.14234130525811 
576	 0.143075320187221 
577	 0.143713606187406 
578	 0.144226002230762 
579	 0.144739386843789 
580	 0.145421203218277 
581	 0.145823458339876 
582	 0.146053733972645 
583	 0.146240119654225 
584	 0.146421946596715 
585	 0.146447522651675 
586	 0.146312228586929 
587	 0.146082682743484 
588	 0.145880095297743 
589	 0.145782410786176 
590	 0.14580256676371 
591	 0.145876306028183 
592	 0.145904532322871 
593	 0.145935109814528 
594	 0.145961049092237 
595	 0.145695159363116 
596	 0.145503026061229 
597	 0.145354362439833 
598	 0.145024404253402 
599	 0.144719290758023 
600	 0.144410603449874 
601	 0.144115727091436 
602	 0.143976676304344 
603	 0.143911501059963 
604	 0.143858591838502 
605	 0.143785216357965 
606	 0.143796350725504 
607	 0.14367290404919 
608	 0.143463339439988 
609	 0.143490702089669 
610	 0.143425652243917 
611	 0.143245794344083 
612	 0.143000475284058 
613	 0.142739260152581 
614	 0.142475477067796 
615	 0.142299651706514 
616	 0.142299533462269 
617	 0.142169249933073 
618	 0.141919027762773 
619	 0.141636018056998 
620	 0.141471938169985 
621	 0.141300765551724 
622	 0.14111996312152 
623	 0.14096494138677 
624	 0.140860817272372 
625	 0.140720363008515 
626	 0.140559821028306 
627	 0.140496930441587 
628	 0.140479304229102 
629	 0.140481751537325 
630	 0.140460388336171 
631	 0.140310102708453 
632	 0.14013502055181 
633	 0.139975916699875 
634	 0.13980049608587 
635	 0.139327438709129 
636	 0.138639788868892 
637	 0.137832284996263 
638	 0.1369425451606 
639	 0.136024401599275 
640	 0.135048004308363 
641	 0.133978026249538 
642	 0.132856788727634 
643	 0.131517536850095 
644	 0.129965351156492 
645	 0.128363931186039 
646	 0.126770283481041 
647	 0.125173419651613 
648	 0.12367007182822 
649	 0.122515249268091 
650	 0.121334454771491 
651	 0.120368653407149 
652	 0.12002014022331 
653	 0.119699072449217 
654	 0.119587940485985 
655	 0.119643497549897 
656	 0.119425591531278 
657	 0.11933403951906 
658	 0.119219893750063 
659	 0.118862972098044 
660	 0.11818944683016 
661	 0.117160568023756 
662	 0.115810858083996 
663	 0.114273466735995 
664	 0.112840368272231 
665	 0.111381881105107 
666	 0.109814968492151 
667	 0.108280939682995 
668	 0.106870136547097 
669	 0.105628286142768 
670	 0.104588746354331 
671	 0.103805996968724 
672	 0.103172781108925 
673	 0.102727570467239 
674	 0.102642987398526 
675	 0.102717207228564 
676	 0.103070537148861 
677	 0.103823944610898 
678	 0.104951726731512 
679	 0.106382422368153 
680	 0.108234227480134 
681	 0.110667150130876 
682	 0.113454579359541 
683	 0.116739356110294 
684	 0.12046644890657 
685	 0.124680010704582 
686	 0.129893720618675 
687	 0.135112463369763 
688	 0.139175188509815 
689	 0.143529035054921 
690	 0.14761624862083 
691	 0.151300736554037 
692	 0.154677373489102 
693	 0.157977571461414 
694	 0.16096254022361 
695	 0.163327140567701 
696	 0.16505127747849 
697	 0.166394758227352 
698	 0.16751424753323 
699	 0.16839543047014 
700	 0.169143012983049 
701	 0.169603192905077 
702	 0.169758401971418 
703	 0.169703348996249 
704	 0.169280933784882 
705	 0.168597429935724 
706	 0.167792196825752 
707	 0.166957379867508 
708	 0.165768036368708 
709	 0.164273098937263 
710	 0.16264175850132 
711	 0.160777010882917 
712	 0.158653505487285 
713	 0.156358534637713 
714	 0.154029484896044 
715	 0.151468984691246 
716	 0.148513203722154 
717	 0.145461146039755 
718	 0.142827233478338 
719	 0.140101623027175 
720	 0.137770405324076 
721	 0.135781619560789 
722	 0.133423684965393 
723	 0.130601186091952 
724	 0.127828323576022 
725	 0.125303258541457 
726	 0.122616904407476 
727	 0.119742595680636 
728	 0.116752400842806 
729	 0.113625944320952 
730	 0.110393092978492 
731	 0.107545292177809 
732	 0.105290524144135 
733	 0.103226932897343 
734	 0.101341230543658 
735	 9.97207869786308E-02 
736	 9.85056862286465E-02 
737	 9.76195533974348E-02 
738	 9.68681919755275E-02 
739	 9.61715926106499E-02 
740	 9.58040666231759E-02 
741	 9.55292944598551E-02 
742	 9.53262580867232E-02 
743	 9.52485976431717E-02 
744	 9.50274641969173E-02 
745	 9.48618119801622E-02 
746	 9.47915723652919E-02 
747	 9.45820158796493E-02 
748	 9.45589864641663E-02 
749	 9.44697746702582E-02 
750	 9.41388966738621E-02 
751	 9.41380455083698E-02 
752	 9.40446232979905E-02 
753	 9.38762752959988E-02 
754	 9.38532405410994E-02 
755	 9.36817542582406E-02 
756	 9.36264325690304E-02 
757	 9.36818484157957E-02 
758	 9.32838359300923E-02 
759	 9.30417580938887E-02 
760	 0.09301594129295 
761	 9.28260397509338E-02 
762	 9.25120771959796E-02 
763	 9.23096257987001E-02 
764	 9.24192460596218E-02 
765	 9.28288557696652E-02 
766	 0.093206726503108 
767	 9.33850698729399E-02 
768	 9.34426990334877E-02 
769	 9.36478707037327E-02 
770	 0.093860424085499 
771	 9.40917942580803E-02 
772	 9.43367627348907E-02 
773	 9.44695840570371E-02 
774	 9.46110453568274E-02 
775	 9.48051780380927E-02 
776	 9.50507783525641E-02 
777	 9.52808277488998E-02 
778	 9.56056266654461E-02 
779	 9.59877270591153E-02 
780	 9.62462955770404E-02 
781	 9.65727653568281E-02 
782	 9.69403119816829E-02 
783	 9.72887040061449E-02 
784	 9.75660254001374E-02 
785	 9.79706986480801E-02 
786	 9.83995396216489E-02 
787	 9.87128322169672E-02 
788	 9.92535368819667E-02 
789	 9.97787695496364E-02 
790	 0.100184441131736 
791	 0.100551949920974 
792	 0.101235780572889 
793	 0.101687809189298 
794	 0.101823571575416 
795	 0.102479952921688 
796	 0.10298745357311 
797	 0.103376276946754 
798	 0.103811522116079 
799	 0.104121840142218 
800	 0.104310054145178 
801	 0.104582010414389 
802	 0.105159145093206 
803	 0.105500621937157 
804	 0.105780344638229 
805	 0.106004779662084 
806	 0.105944843392434 
807	 0.105885754784588 
808	 0.105744354174865 
809	 0.105424772794915 
810	 0.104993634812007 
811	 0.104496523564449 
812	 0.103902019648905 
813	 0.103122245296365 
814	 0.101922679382638 
815	 0.101321074456479 
816	 0.101343218465049 
817	 0.101034788470917 
818	 0.100075726865918 
819	 9.94569944456084E-02 
820	 9.91023737049641E-02 
821	 9.75976330295002E-02 
822	 9.59361133565925E-02 
823	 9.44244251087948E-02 
824	 9.30679884716829E-02 
825	 9.15394536066986E-02 
826	 8.97302635853566E-02 
827	 0.087593379311595 
828	 8.53806945764915E-02 
829	 8.35509988784161E-02 
830	 8.21472922412573E-02 
831	 8.08611824073194E-02 
832	 0.07934667301302 
833	 0.078545044505576 
834	 7.80988772506081E-02 
835	 7.75346432406507E-02 
836	 7.64898256874607E-02 
837	 7.61133151864046E-02 
838	 7.62026072908737E-02 
839	 7.61872135504687E-02 
840	 7.53216472159074E-02 
841	 7.48611644662686E-02 
842	 7.47203625012949E-02 
843	 7.43814686138724E-02 
844	 7.38228776243135E-02 
845	 7.36939041597636E-02 
846	 7.37191564506281E-02 
847	 7.31111891992917E-02 
848	 0.072668787672328 
849	 7.24520449891645E-02 
850	 7.23160692208761E-02 
851	 7.19776531160878E-02 
852	 7.15511431575777E-02 
853	 7.12653598534573E-02 
854	 7.11516558673316E-02 
855	 7.07811180173494E-02 
856	 0.070333967981182 
857	 7.01841237044164E-02 
858	 7.04289280793093E-02 
859	 7.00605571203551E-02 
860	 0.069569570699582 
861	 6.90941387596711E-02 
862	 6.86607278244803E-02 
863	 6.88146368165396E-02 
864	 6.89076261315972E-02 
865	 6.85756825903404E-02 
866	 6.79276875335801E-02 
867	 6.80330910981073E-02 
868	 0.068046958045206 
869	 0.06749725579668 
870	 6.67646706712282E-02 
871	 6.64913733863429E-02 
872	 6.62105031517609E-02 
873	 6.56876456752685E-02 
874	 6.58239618513913E-02 
875	 6.54820159905449E-02 
876	 6.47170350240747E-02 
877	 0.064029403165789 
878	 6.39983346908542E-02 
879	 6.37337437595471E-02 
880	 6.32853613342161E-02 
881	 6.30838922686319E-02 
882	 6.28195064660067E-02 
883	 6.23921284267908E-02 
884	 6.20252392847677E-02 
885	 6.20402984106056E-02 
886	 6.14888310155358E-02 
887	 6.09802320426058E-02 
888	 6.06702609668029E-02 
889	 6.00560648231207E-02 
890	 6.00440236738081E-02 
891	 5.97864955877841E-02 
892	 5.89489809047372E-02 
893	 5.88485397430344E-02 
894	 5.82795869660418E-02 
895	 5.78892392886696E-02 
896	 5.82542955392576E-02 
897	 5.77158907916866E-02 
898	 5.68443131027224E-02 
899	 5.62538977792747E-02 
900	 5.61543763321091E-02 
901	 5.54264059812655E-02 
902	 5.54938413150221E-02 
903	 5.55570471914448E-02 
904	 5.45222972222322E-02 
905	 5.41482504344169E-02 
906	 5.34556188762783E-02 
907	 5.26503739422598E-02 
908	 5.27097313609425E-02 
909	 5.24178448335111E-02 
910	 5.23027140858194E-02 
911	 5.23759729722092E-02 
912	 0.051963869203194 
913	 4.97842169257565E-02 
914	 4.91942950497681E-02 
915	 5.00691141500164E-02 
916	 4.82981065455305E-02 
917	 4.86286534079448E-02 
918	 4.91443488032379E-02 
919	 4.84864665624077E-02 
920	 4.72210213246118E-02 
921	 4.74241253147195E-02 
922	 4.76585523534889E-02 
923	 4.66938077662104E-02 
924	 4.52653604554496E-02 
925	 0.044156640690135 
926	 4.32243512348861E-02 
927	 4.22307537231205E-02 
928	 4.20236102753027E-02 
929	 4.21641255060879E-02 
930	 4.30165638344825E-02 
931	 4.45573303637587E-02 
932	 4.13640909332429E-02 
933	 3.85784208146165E-02 
934	 3.90804239581374E-02 
935	 0.041551867665584 
936	 4.31560125523246E-02 
937	 3.54424737500746E-02 
938	 2.92990303500095E-02 
939	 3.40234856754491E-02 
940	 3.16827879579186E-02 
941	 3.29261017840692E-02 
942	 3.51739261894785E-02 
943	 3.06704958998562E-02 
944	 0.02496247092857 
945	 2.94046582127623E-02 
946	 3.41894051013684E-02 
947	 2.34571108706685E-02 
948	 1.86832119110268E-02 
949	 2.23452256310666E-02 
950	 0.029816108056441 
951	 3.34459452888635E-02 
952	 3.18027224714355E-02 
953	 3.29085209042478E-02 
954	 0.034595349831197 
955	 2.99877193330994E-02 
956	 3.05376895681112E-02 
957	 2.95677995136339E-02 
958	 2.88603480627832E-02 
959	 3.38441870111964E-02 
960	 0.028908292078134 
961	 2.63043706140384E-02 
962	 2.81208904118042E-02 
963	 2.85283164874477E-02 
964	 3.08188189302734E-02 
965	 3.25942830696893E-02 
966	 3.38464118462917E-02 
967	 3.54190726222157E-02 
968	 2.89021858322493E-02 
969	 2.72731872787938E-02 
970	 0.031204366412663 
971	 3.07923843298634E-02 
972	 3.07357625307639E-02 
973	 2.97052897536023E-02 
974	 2.89516929279114E-02 
975	 3.16375503029652E-02 
976	 3.09736507071152E-02 
977	 3.01358066737654E-02 
978	 3.05511534790563E-02 
979	 3.08798781846449E-02 
980	 2.92284725592993E-02 
981	 2.95108078886444E-02 
982	 3.12443409986939E-02 
983	 3.07791223096905E-02 
984	 3.04991921840827E-02 
985	 0.030358771992483 
986	 3.01099429458379E-02 
987	 2.97064792163051E-02 
988	 3.03311597174268E-02 
989	 3.22525528458676E-02 
990	 3.34491214478612E-02 
991	 3.11893640093786E-02 
992	 2.79892386019012E-02 
993	 2.87293335717383E-02 
994	 0.031685798953828 
995	 3.13425301397433E-02 
996	 2.94860359855402E-02 
997	 3.00726526563501E-02 
998	 3.25076733611624E-02 
999	 3.32249406418676E-02 
1000	 3.03724867908465E-02 
1001	 3.38386111476753E-02 
1002	 3.38041675484233E-02 
1003	 3.39420105815455E-02 
1004	 3.39572964874902E-02 
1005	 3.41456933302325E-02 
1006	 3.46871190988813E-02 
1007	 3.50015264163343E-02 
1008	 3.56051997955985E-02 
1009	 0.035369173328626 
1010	 3.48625302700338E-02 
1011	 3.58264362545686E-02 
1012	 3.64369223754497E-02 
1013	 3.59360899853925E-02 
1014	 3.55682551089124E-02 
1015	 0.034460287218251 
1016	 3.42466547342504E-02 
1017	 3.44073367615697E-02 
1018	 3.44547606820143E-02 
1019	 3.50936926109901E-02 
1020	 0.035386564167181 
1021	 0.035332421188172 
1022	 3.51751136199336E-02 
1023	 3.55777601521934E-02 
1024	 3.58715614583564E-02 
1025	 3.56043248953426E-02 
1026	 3.52756844904201E-02 
1027	 3.51055905118693E-02 
1028	 3.44166547347025E-02 
1029	 3.46403877053601E-02 
1030	 3.56056838721056E-02 
1031	 3.61183103674667E-02 
1032	 3.71842675241917E-02 
1033	 3.74968926771389E-02 
1034	 0.037153215244083 
1035	 3.70445670281209E-02 
1036	 3.63593800859759E-02 
1037	 3.62320509187774E-02 
1038	 3.63650372868799E-02 
1039	 3.69430725961088E-02 
1040	 3.67573792099469E-02 
1041	 3.70964052522246E-02 
1042	 3.74084235936963E-02 
1043	 3.75827622800477E-02 
1044	 3.76481498869566E-02 
1045	 0.037983405295111 
1046	 3.81364063819445E-02 
1047	 0.037729652213167 
1048	 3.79105654599496E-02 
1049	 3.88120681931338E-02 
1050	 3.90649073471101E-02 
1051	 3.89667075045848E-02 
1052	 3.90867163748886E-02 
1053	 3.90165959752066E-02 
1054	 3.90137829189571E-02 
1055	 3.94721822119118E-02 
1056	 3.95701697434906E-02 
1057	 0.03947979440484 
1058	 3.89243952827659E-02 
1059	 3.90495910707105E-02 
1060	 3.92566880709502E-02 
1061	 3.95363885735598E-02 
1062	 4.05403712358342E-02 
1063	 4.06648399042008E-02 
1064	 4.00231633655859E-02 
1065	 4.00697750251217E-02 
1066	 4.02617684405308E-02 
1067	 4.02219748191308E-02 
1068	 4.04081644263354E-02 
1069	 4.05314221498468E-02 
1070	 4.04038082394718E-02 
1071	 4.02039460668758E-02 
1072	 3.99513627714065E-02 
1073	 3.99650889792924E-02 
1074	 3.98583877186398E-02 
1075	 0.039515333711475 
1076	 3.93751071380688E-02 
1077	 3.93279478818507E-02 
1078	 3.94514347211795E-02 
1079	 3.97333579820822E-02 
1080	 3.98384418017353E-02 
1081	 4.04276641614852E-02 
1082	 4.03016836403548E-02 
1083	 3.91949619881102E-02 
1084	 3.88062546137113E-02 
1085	 3.84208540114704E-02 
1086	 3.82119751817787E-02 
1087	 3.89083727129498E-02 
1088	 0.038985726828618 
1089	 0.038970344881024 
1090	 3.79692966445167E-02 
1091	 3.78711506498337E-02 
1092	 3.76214580837892E-02 
1093	 3.78059367048662E-02 
1094	 3.90695691208542E-02 
1095	 3.92474962808969E-02 
1096	 3.89816573485813E-02 
1097	 3.86896965395339E-02 
1098	 3.73977953007396E-02 
1099	 3.70666271758623E-02 
1100	 3.74957977830789E-02 
1101	 3.75343175711551E-02 
1102	 0.038274122511009 
1103	 3.82025758688629E-02 
1104	 0.037551004523398 
1105	 3.60704168990716E-02 
1106	 3.50582198108019E-02 
1107	 3.50154478263489E-02 
1108	 3.45424139543901E-02 
1109	 3.42355023209957E-02 
1110	 3.44120008168145E-02 
1111	 3.42871465546115E-02 
1112	 3.49844209108775E-02 
1113	 3.84554301418995E-02 
1114	 3.91634832582369E-02 
1115	 0.037617607747237 
1116	 3.76579953188101E-02 
1117	 3.64950445843351E-02 
1118	 3.55771772321127E-02 
1119	 3.66317008045991E-02 
1120	 3.77239962568568E-02 
1121	 4.04459803567235E-02 
1122	 3.54137405693892E-02 
1123	 3.40451348057143E-02 
1124	 3.56704324348483E-02 
1125	 2.41042389560841E-02 
1126	 2.33319674657607E-02 
1127	 0.034500126534316 
1128	 3.69496943115179E-02 
1129	 3.58502850326559E-02 
1130	 0.039018628119092 
1131	 0.034214694392625 
1132	 1.47535296915047E-02 
1133	 1.40019687467579E-02 
1134	 2.17928572245561E-02 
1135	 0.021113404130734 
1136	 2.31133131639266E-02 
1137	 2.47964005102392E-02 
1138	 2.26522275538475E-02 
1139	 2.11780119923971E-02 
1140	 2.20518322033022E-02 
1141	 2.52223340612483E-02 
1142	 2.69868633288277E-02 
1143	 2.37122160423826E-02 
1144	 1.90573135601511E-02 
1145	 1.86914449955016E-02 
1146	 2.33767950237976E-02 
1147	 2.61450213064253E-02 
1148	 2.71208610861692E-02 
1149	 2.84012610005101E-02 
1150	 2.91576105077624E-02 
1151	 2.62978562859643E-02 
1152	 2.62278686963617E-02 
1153	 2.82607653602647E-02 
1154	 2.79914800446729E-02 
1155	 2.62155349690516E-02 
1156	 2.61427877393092E-02 
1157	 2.68383746773193E-02 
1158	 2.82349481091623E-02 
1159	 2.95898749804953E-02 
1160	 2.87773053022845E-02 
1161	 2.67503801020236E-02 
1162	 2.58704910119505E-02 
1163	 2.52185201171357E-02 
1164	 2.51479783246906E-02 
1165	 2.60466943481495E-02 
1166	 2.65368488572291E-02 
1167	 2.73790279715803E-02 
1168	 2.79178167419623E-02 
1169	 2.74007572700969E-02 
1170	 2.74292205001597E-02 
1171	 2.72044614625163E-02 
1172	 2.60745323718855E-02 
1173	 0.026008644940266 
1174	 2.67007270887794E-02 
1175	 0.026785005861325 
1176	 2.66258527260346E-02 
1177	 2.62706645577801E-02 
1178	 2.56810724793453E-02 
1179	 0.026083329131392 
1180	 2.69831330213158E-02 
1181	 2.74228096941289E-02 
1182	 2.75867073077236E-02 
1183	 2.76214033522222E-02 
1184	 2.69647620219353E-02 
1185	 2.68751864479447E-02 
1186	 2.78781043380903E-02 
1187	 2.80189842120507E-02 
1188	 0.027502615577375 
1189	 2.69310222873591E-02 
1190	 2.64890328678891E-02 
1191	 2.68707961493063E-02 
1192	 2.69303369461099E-02 
1193	 2.74221641892274E-02 
1194	 2.77353667987341E-02 
1195	 2.76245999143209E-02 
1196	 2.71009735920883E-02 
1197	 2.69211571013772E-02 
1198	 2.72126783730968E-02 
1199	 2.77717922466507E-02 
1200	 2.81468893468143E-02 
1201	 2.78496356840073E-02 
1202	 2.74702612745725E-02 
1203	 2.71157500543879E-02 
1204	 2.68451633565776E-02 
1205	 2.73504016481344E-02 
1206	 2.75734247255092E-02 
1207	 2.72755935637895E-02 
1208	 2.70003659101878E-02 
1209	 2.66818511228868E-02 
1210	 0.026907975650628 
1211	 2.73337663645349E-02 
1212	 2.75693587543289E-02 
1213	 2.72690756136456E-02 
1214	 2.70268754149268E-02 
1215	 2.64904629271647E-02 
1216	 2.68068914076748E-02 
1217	 2.71159410370959E-02 
1218	 2.68210956262957E-02 
1219	 2.68389231531225E-02 
1220	 0.027212296976182 
1221	 2.71100067224963E-02 
1222	 0.027096591402449 
1223	 2.72549387807169E-02 
1224	 2.69450163973559E-02 
1225	 0.026905755315542 
1226	 2.73470514359465E-02 
1227	 2.76032096908111E-02 
1228	 2.75812807285493E-02 
1229	 0.027464570691306 
1230	 2.73784299153748E-02 
1231	 2.75197492241309E-02 
1232	 2.76594592744446E-02 
1233	 2.75712599679557E-02 
1234	 2.73122229364438E-02 
1235	 2.72001044190023E-02 
1236	 2.71175933999057E-02 
1237	 2.71844836548154E-02 
1238	 2.73401876916611E-02 
1239	 2.76164733115449E-02 
1240	 2.78512455295993E-02 
1241	 2.77862698377991E-02 
1242	 0.027545992980946 
1243	 2.70704201108917E-02 
1244	 2.72099083040599E-02 
1245	 2.75500932631235E-02 
1246	 2.73834254324034E-02 
1247	 2.75894540539948E-02 
1248	 2.81512499623964E-02 
1249	 2.80991152576364E-02 
1250	 2.79836237958217E-02 
1251	 2.86724515663495E-02 
1252	 2.89150520759565E-02 
1253	 0.028121246648201 
1254	 2.75792766488656E-02 
1255	 2.78497209547263E-02 
1256	 2.78970655634589E-02 
1257	 2.76342116444133E-02 
1258	 2.75900952280815E-02 
1259	 2.79900174057103E-02 
1260	 2.80199800715575E-02 
1261	 2.77564572333184E-02 
1262	 2.75617631911483E-02 
1263	 2.75244416451449E-02 
1264	 2.72232316445518E-02 
1265	 2.70313935846762E-02 
1266	 2.73785496082299E-02 
1267	 2.70356887412439E-02 
1268	 2.67317138696543E-02 
1269	 2.69707684366828E-02 
1270	 2.69502360356031E-02 
1271	 2.76141920371166E-02 
1272	 2.83345147055697E-02 
1273	 2.78844315838792E-02 
1274	 2.73254419966391E-02 
1275	 2.71908579115505E-02 
1276	 0.027166341885838 
1277	 2.70607513765382E-02 
1278	 2.68670832391194E-02 
1279	 2.71125881597231E-02 
1280	 2.72894294203831E-02 
1281	 2.72261799597988E-02 
1282	 2.69597550511225E-02 
1283	 2.69691055748237E-02 
1284	 2.71230497057812E-02 
1285	 2.70745650006705E-02 
1286	 2.68191689376496E-02 
1287	 2.71971990543203E-02 
1288	 2.78180716251483E-02 
1289	 2.76682370176553E-02 
1290	 2.73863845818942E-02 
1291	 2.80359546276483E-02 
1292	 2.72647054925272E-02 
1293	 2.67128672324071E-02 
1294	 2.69712959479088E-02 
1295	 2.69452309651753E-02 
1296	 2.68861152557621E-02 
1297	 2.68031476035421E-02 
1298	 2.68346444260518E-02 
1299	 2.65835587670445E-02 
1300	 2.59479865781762E-02 
1301	 0.025879803189856 
1302	 2.62467239360224E-02 
1303	 2.63004328705609E-02 
1304	 2.66563551695699E-02 
1305	 2.68397499978399E-02 
1306	 2.66022369049177E-02 
1307	 2.56438134527398E-02 
1308	 2.56259550569004E-02 
1309	 2.58885795416553E-02 
1310	 2.58679917189396E-02 
1311	 2.60809080039917E-02 
1312	 2.64591094589035E-02 
1313	 2.70317106523908E-02 
1314	 0.026549301361219 
1315	 2.55992263673321E-02 
1316	 2.53164557224658E-02 
1317	 2.40453922530179E-02 
1318	 2.38583400894508E-02 
1319	 2.55064410714967E-02 
1320	 0.026020137809798 
1321	 0.026341423553846 
1322	 2.61095372185823E-02 
1323	 2.43935134469349E-02 
1324	 2.44346758328672E-02 
1325	 2.55207040560062E-02 
1326	 2.52518825293803E-02 
1327	 2.62920394795667E-02 
1328	 2.72425819919474E-02 
1329	 2.43579286312142E-02 
1330	 2.08956584294421E-02 
1331	 2.02467564233192E-02 
1332	 2.05844195482618E-02 
1333	 2.18314289994273E-02 
1334	 2.54176443641632E-02 
1335	 2.67239964967411E-02 
1336	 2.55249915519575E-02 
1337	 2.41858605853119E-02 
1338	 2.11416841468982E-02 
1339	 2.07396072196634E-02 
1340	 2.08458316142141E-02 
1341	 2.05888070492796E-02 
1342	 2.37221179910845E-02 
1343	 2.49768354979979E-02 
1344	 2.02925733098648E-02 
1345	 2.15821272477317E-02 
1346	 0.035010742155838 
1347	 3.85321983606192E-02 
1348	 3.38435779704789E-02 
1349	 3.85538427381243E-02 
1350	 3.54790638137715E-02 
1351	 2.91858548830823E-02 
1352	 4.20068773974842E-02 
1353	 6.30878642043074E-02 
1354	 9.69550359710565E-02 
1355	 7.28720487355187E-02 
1356	-1.10674159689909E-04 
1357	-2.31200526662729E-02 
1358	-0.164563525756997 
1359	-0.326895149847859 
1360	-0.179482021710257 
1361	-8.12176298140974E-02 
1362	-0.104956389446453 
1363	-0.08781390166515 
1364	-0.02676207943871 
1365	 0.222852966244535 
1366	-3.40341690569498E-02 
1367	-0.282749432964207 
1368	-0.340031685708148 
1369	-0.697951097182442 
1370	-0.585415316842513 
1371	 6.08420572203684E-02 
1372	 0.243240852623803 
1373	 0.288046174994239 
1374	 0.431830330335596 
1375	 13.2620634901255 
1376	 3.92220663412586 
1377	-0.102020851853582 
1378	-0.179961487605347 
1379	-0.254649663982752 
1380	-0.288037900201151 
1381	-0.242258701831994 
1382	-0.149742654817124 
1383	 0.216687422780319 
1384	 0.356350372971975 
1385	 0.724809289512741 
1386	-8.43861346678896 
1387	 1.76999202999414 
1388	 0.518377451475513 
1389	-0.723586987992016 
1390	-0.539714178746453 
1391	-0.133801574192654 
1392	-0.331865857403512 
1393	-0.436716354628012 
1394	-1.10814292048268 
1395	-1.94985609373936 
1396	 154.326330831915 
1397	 44.1396434531501 
1398	-3.99392711111884 
1399	-2.8695734547091 
1400	-169.067370558896 
1401	 7.45868941935312 
1402	 2.66011097836686 
1403	 4.40253183049098 
1404	-2.78378798797863 
1405	-0.995417618159189 
1406	 0.318473874810512 
1407	 0.589517845912665 
1408	 1.27566873204189 
1409	 1.00277046368958 
1410	 0.47857634402064 
1411	 0.445443280935733 
1412	 0.314150291723342 
1413	 0.327880374302055 
1414	 1.59102228238696 
1415	 1.72681341095638 
1416	 0.231001024994285 
1417	 0.225410000570747 
1418	 0.466957137657184 
1419	 0.253778190580361 
1420	-0.083393321450046 
1421	-0.087929761004948 
1422	-0.130325048220748 
1423	-0.185675637872873 
1424	-0.125020817894958 
1425	-2.68536288172879E-02 
1426	-2.48038197475707E-02 
1427	-8.88746128458551E-03 
1428	 0.130489793450727 
1429	 0.136344642028106 
1430	 1.53510834374607E-02 
1431	-1.09460589669965E-02 
1432	-5.64999820487646E-02 
1433	-5.29583457628389E-02 
1434	 0.101731539965256 
1435	 0.147757414637757 
1436	 0.163910059665098 
1437	 0.159437887426457 
1438	 9.84455737550804E-02 
1439	 5.50996375555926E-02 
1440	 7.72656717446518E-02 
1441	 0.129516675094927 
1442	 0.112706330512576 
1443	 8.29911390148633E-02 
1444	 7.14774791174294E-02 
1445	 4.42935956377577E-02 
1446	 6.47409926443164E-02 
1447	 7.98685435096243E-02 
1448	 4.62968864604889E-02 
1449	 1.79162648378115E-02 
1450	 7.98934413832705E-03 
1451	 8.25438958616603E-03 
1452	 1.04573791258467E-02 
1453	 5.45980013889266E-03 
1454	 3.60217034207478E-03 
1455	-5.46147735363461E-03 
1456	-9.40123694216586E-03 
1457	-7.54783093567485E-03 
1458	-6.6222154836518E-03 
1459	-8.9749642814109E-03 
1460	-1.08022165816935E-02 
1461	-9.9605071666775E-03 
1462	-7.17813531973033E-03 
1463	-8.90537564773424E-03 
1464	-3.50599256646543E-03 
1465	 1.54803696002998E-02 
1466	 2.23738219612034E-02 
1467	 2.81550786614956E-02 
1468	 2.70711720852789E-02 
1469	 1.36170129331929E-02 
1470	 6.35432327344971E-03 
1471	-6.71524633994187E-03 
1472	-7.9672715166364E-03 
1473	 1.15261722754003E-03 
1474	 2.48684074254471E-03 
1475	 5.40625624033443E-03 
1476	 8.21603593115044E-03 
1477	 0.011668537723521 
1478	 7.37074465509049E-03 
1479	-1.41522938403825E-03 
1480	-4.01522878404006E-03 
1481	-1.30061943232983E-02 
1482	-1.22523183760136E-02 
1483	-1.10585203126812E-04 
1484	 3.43757542457993E-03 
1485	 4.03580189348193E-03 
1486	 6.03134522867554E-03 
1487	 7.66980381998995E-03 
1488	 7.57833407314599E-03 
1489	 6.83304755400103E-03 
1490	 7.69814096381155E-03 
1491	 9.61058484411732E-03 
1492	 8.22291893032286E-03 
1493	 4.97306901783691E-03 
1494	 4.89390998845679E-03 
1495	 4.60411368726974E-03 
1496	 4.1462045055294E-03 
1497	 4.56126965796728E-03 
1498	 6.46469238432999E-03 
1499	 9.29024957010711E-03 
1500	 1.00698341002559E-02 
1501	 1.19751571237335E-02 
1502	 1.24309060864947E-02 
1503	 1.03455889219869E-02 
1504	 9.1895493100691E-03 
1505	 7.83042448253802E-03 
1506	 7.3467376231302E-03 
1507	 9.34381917549895E-03 
1508	 9.32686291031951E-03 
1509	 8.55276854559657E-03 
1510	 9.28594437950865E-03 
1511	 9.30042151395656E-03 
1512	 8.96317746392927E-03 
1513	 9.44517975164377E-03 
1514	 0.010036152423312 
1515	 1.01715268661341E-02 
1516	 9.86358830534849E-03 
1517	 9.91289537046421E-03 
1518	 1.06919416253648E-02 
1519	 1.04057252724535E-02 
1520	 9.76604009033283E-03 
1521	 1.03224820475606E-02 
1522	 1.11379995098763E-02 
1523	 1.13346029598564E-02 
1524	 1.12421305389652E-02 
1525	 1.17803074187782E-02 
1526	 0.011854195291287 
1527	 1.09714527868202E-02 
1528	 1.03855983790972E-02 
1529	 1.02443552143133E-02 
1530	 1.07859174898981E-02 
1531	 1.10970739828874E-02 
1532	 1.13088958968363E-02 
1533	 1.19108807358475E-02 
1534	 1.08828978094931E-02 
1535	 1.01766850909911E-02 
1536	 1.14005601189377E-02 
1537	 1.23535453973872E-02 
1538	 1.24218911176816E-02 
1539	 1.23971320161494E-02 
1540	 1.28106417089061E-02 
1541	 1.28385528234172E-02 
1542	 1.23741474035127E-02 
1543	 1.25106971054259E-02 
1544	 1.33384815153304E-02 
1545	 1.37924532350086E-02 
1546	 1.37854811576959E-02 
1547	 0.01401001647517 
1548	 1.36186115656659E-02 
1549	 1.27270427503686E-02 
1550	 1.27239989751572E-02 
1551	 1.34737397095028E-02 
1552	 1.41736031783583E-02 
1553	 1.43719393591199E-02 
1554	 1.40868104762958E-02 
1555	 1.37594108620852E-02 
1556	 1.40577203789203E-02 
1557	 1.47286301075285E-02 
1558	 1.45526851040273E-02 
1559	 1.41135006404502E-02 
1560	 1.44983782395344E-02 
1561	 1.48999690884667E-02 
1562	 1.54477249164428E-02 
1563	 1.62427739248685E-02 
1564	 1.59695902268814E-02 
1565	 1.58584217258475E-02 
1566	 1.57508404484233E-02 
1567	 1.47265878135185E-02 
1568	 1.45644557616281E-02 
1569	 1.49618537695063E-02 
1570	 1.52654031538969E-02 
1571	 1.54412443690867E-02 
1572	 1.53191297952084E-02 
1573	 1.48732953311322E-02 
1574	 1.52958222330952E-02 
1575	 1.63242340191347E-02 
1576	 1.58920731751992E-02 
1577	 1.57982988176302E-02 
1578	 1.61710076910095E-02 
1579	 1.58254592992354E-02 
1580	 1.61560364919253E-02 
1581	 1.66152392637661E-02 
1582	 1.62656959927834E-02 
1583	 1.60545325155257E-02 
1584	 1.65878959145458E-02 
1585	 0.016892763113333 
1586	 1.65908848309306E-02 
1587	 1.64047872624247E-02 
1588	 1.66995326829194E-02 
1589	 1.73799640791414E-02 
1590	 1.72317155243069E-02 
1591	 1.65386987791391E-02 
1592	 1.69145563610984E-02 
1593	 1.73812860792876E-02 
1594	 1.69210033403882E-02 
1595	 0.016757050802301 
1596	 1.65366117431254E-02 
1597	 1.57672541799443E-02 
1598	 1.62849962050531E-02 
1599	 1.72561104390982E-02 
1600	 1.70798601398823E-02 
1601	 1.66446956118617E-02 
1602	 1.64388320988095E-02 
1603	 1.67495859865296E-02 
1604	 1.71170685099197E-02 
1605	 0.017325868856294 
1606	 1.80107387358252E-02 
1607	 1.82717527970558E-02 
1608	 0.018246619247275 
1609	 1.88110391138358E-02 
1610	 1.86941933972505E-02 
1611	 1.78091124570395E-02 
1612	 1.71959092241624E-02 
1613	 1.62263031415691E-02 
1614	 0.016121927607713 
1615	 1.71352224852279E-02 
1616	 1.71492202161524E-02 
1617	 1.74063504810538E-02 
1618	 1.78960343046224E-02 
1619	 1.71697493364369E-02 
1620	 1.72645521980251E-02 
1621	 1.87173083328087E-02 
1622	 0.018857588542376 
1623	 1.81304127065429E-02 
1624	 1.85545122725171E-02 
1625	 1.84421723404199E-02 
1626	 1.78658617885007E-02 
1627	 1.79776340116142E-02 
1628	 1.80612565125594E-02 
1629	 1.84179265811115E-02 
1630	 1.86739572535729E-02 
1631	 1.88944420845372E-02 
1632	 1.90031577353423E-02 
1633	 1.88979748956552E-02 
1634	 1.87572094002151E-02 
1635	 1.81291175838383E-02 
1636	 1.80347492544934E-02 
1637	 1.81067219551283E-02 
1638	 1.75989352877904E-02 
1639	 1.75500039881362E-02 
1640	 1.78773368261744E-02 
1641	 1.80372515552862E-02 
1642	 1.84027991426929E-02 
1643	 1.90907882443006E-02 
1644	 1.92963944957469E-02 
1645	 1.96235586304337E-02 
1646	 1.98327361697847E-02 
1647	 1.86116146120667E-02 
1648	 1.78009254287675E-02 
1649	 1.74424109066092E-02 
1650	 1.67582691296079E-02 
1651	 1.77561186259983E-02 
1652	 1.94865052542492E-02 
1653	 1.89273955539862E-02 
1654	 1.89704967656209E-02 
1655	 1.85833832275523E-02 
1656	 1.86980733897716E-02 
1657	 1.97293998444033E-02 
1658	 2.00753246807583E-02 
1659	 2.03931595551048E-02 
1660	 2.02863320791474E-02 
1661	 1.94568203983249E-02 
1662	 1.94116024754787E-02 
1663	 1.95849830445188E-02 
1664	 1.92925033632139E-02 
1665	 1.90297245145398E-02 
1666	 1.90511517170075E-02 
1667	 1.88859184277588E-02 
1668	 1.85006198488816E-02 
1669	 1.84264845416428E-02 
1670	 1.80604169419658E-02 
1671	 1.83386980734361E-02 
1672	 1.88098293872549E-02 
1673	 1.86351941209046E-02 
1674	 1.90568922052227E-02 
1675	 1.92783467531655E-02 
1676	 1.95275739666712E-02 
1677	 1.98358601811562E-02 
1678	 1.90344013948138E-02 
1679	 1.90782906618992E-02 
1680	 1.90622339960701E-02 
1681	 1.90141007658062E-02 
1682	 2.08630003524488E-02 
1683	 2.12530853651496E-02 
1684	 1.93170928203348E-02 
1685	 1.90785817120845E-02 
1686	 2.00130718643564E-02 
1687	 1.96727006939641E-02 
1688	 1.96955504569524E-02 
1689	 0.020149680559056 
1690	 1.87318532555928E-02 
1691	 1.76478007236831E-02 
1692	 1.91400518065312E-02 
1693	 1.95834237447909E-02 
1694	 0.018266752705947 
1695	 1.82088376898144E-02 
1696	 1.89690919335618E-02 
1697	 1.90789316376119E-02 
1698	 1.87354960842033E-02 
1699	 1.81663512164481E-02 
1700	 1.66753133644913E-02 
1701	 1.66472671042713E-02 
1702	 1.92155683726373E-02 
1703	 2.02418330949406E-02 
1704	 1.98422865485839E-02 
1705	 1.93121397060542E-02 
1706	 1.81017880680459E-02 
1707	 1.84605233794615E-02 
1708	 1.99982311434982E-02 
1709	 2.00845748523422E-02 
1710	 1.92588048810976E-02 
1711	 1.90521925544291E-02 
1712	 1.93442919130035E-02 
1713	 1.99784323580503E-02 
1714	 1.91845123515424E-02 
1715	 1.62476777671269E-02 
1716	 0.016092928157228 
1717	 1.69300664832233E-02 
1718	 1.87904590968524E-02 
1719	 1.95540009251547E-02 
1720	 0.019690020423708 
1721	 1.95994742421655E-02 
1722	 1.83268841645753E-02 
1723	 1.92710467931192E-02 
1724	 1.99439736896144E-02 
1725	 1.75698060721444E-02 
1726	 1.73502306436994E-02 
1727	 1.74241359794844E-02 
1728	 1.66470295819686E-02 
1729	 1.88682945932716E-02 
1730	 2.00257547312753E-02 
1731	 1.90399556828201E-02 
1732	 1.86473727934495E-02 
1733	 1.78405252128026E-02 
1734	 1.80889967396451E-02 
1735	 1.85973532712275E-02 
1736	 1.82104067216088E-02 
1737	 1.87667070744285E-02 
1738	 1.94176487931692E-02 
1739	 0.019977506677907 
1740	 2.05324139593338E-02 
1741	 1.94685824875418E-02 
1742	 1.70238581922014E-02 
1743	 1.48205566601001E-02 
1744	 1.41344407542419E-02 
1745	 1.49837132830859E-02 
1746	 1.71389087570417E-02 
1747	 1.80689104417475E-02 
1748	 1.72507386498761E-02 
1749	 1.71289636174709E-02 
1750	 1.78803042197213E-02 
1751	 1.72971555073292E-02 
1752	 1.59171144940211E-02 
1753	 1.65423697168447E-02 
1754	 1.68726381143301E-02 
1755	 1.66849839605716E-02 
1756	 1.80939286297784E-02 
1757	 1.83667391198287E-02 
1758	 1.90218263204248E-02 
1759	 2.07840914145356E-02 
1760	 2.08851171595529E-02 
1761	 1.76416699175934E-02 
1762	 1.55293197034814E-02 
1763	 1.63087435359774E-02 
1764	 1.81335353953615E-02 
1765	 1.92990467865619E-02 
1766	 1.85207788774762E-02 
1767	 1.82433050919947E-02 
1768	 1.71145213019955E-02 
1769	 1.82081817682845E-02 
1770	 2.36385107377582E-02 
1771	 2.31664994222501E-02 
1772	 1.99193963762361E-02 
1773	 1.94294345881009E-02 
1774	 1.63100521040623E-02 
1775	 2.07898234328718E-02 
1776	 2.33905725793392E-02 
1777	 2.61820123926624E-02 
1778	 2.67523410538787E-02 
1779	 2.28839719702641E-02 
1780	 0.020625506989182 
1781	 1.77482292388013E-02 
1782	 1.63290960018665E-02 
1783	 1.80516033230529E-02 
1784	 1.81504509368726E-02 
1785	 1.66246776990307E-02 
1786	 1.59926998477179E-02 
1787	 1.50691506570934E-02 
1788	 1.58726130273618E-02 
1789	 1.89234281909547E-02 
1790	 1.69140922750999E-02 
1791	 1.86413670998393E-02 
1792	 1.64216441818486E-02 
1793	 1.48769126481046E-02 
1794	 2.14954118281115E-02 
1795	 1.85994596423052E-02 
1796	-2.10217701540317E-03 
1797	-5.39436176359758E-03 
1798	-3.22672671408082E-03 
1799	-1.08977396480776E-02 
1800	 3.49362836189801E-02 
1801	 0.05610183209464 
1802	 3.76953729123085E-02 
1803	 4.91825656733659E-02 
1804	 7.30443087665308E-02 
1805	 6.68583732480733E-02 
1806	 5.36944854895391E-02 
1807	 4.72283597142315E-02 
1808	-0.103233850889012 
1809	-0.151631402248582 
1810	 0.12446474428627 
1811	 0.286314475658809 
1812	 0.428484175910555 
1813	 0.529927419473237 
1814	 0.457936593535277 
1815	 0.470692074910378 
1816	 0.436081237654564 
1817	 0.275061036719586 
1818	-3.14543414025233 
1819	-1.73222271318423 
1820	 3.99767929247848E-03 
1821	-0.676139610912652 
1822	-0.55966692330118 
1823	-0.102222465760763 
1824	 1.44971467995988E-02 
1825	 0.760515576054368 
1826	 2.67472127256573 
1827	-0.143780510778127 
1828	 0.101590746555935 
1829	 0.789721843708474 
1830	 0.168155632862459 
1831	 0.537846670113071 
1832	 0.242346832973122 
1833	 0.556492998235568 
1834	 0.468109153104066 
1835	 0.344724694038646 
1836	 0.254091249710805 
1837	-0.5525548755832 
1838	-1.54702378831361 
1839	 11.0555340915553 
1840	-2.79676230154395 
1841	-0.156368401063441 
1842	-1.36223630946456 
1843	-13.4233562784171 
1844	 1.61126232214125 
1845	 1.62494473769351 
1846	 1.04170874311954 
1847	 1.12385876828975 
1848	 1.66860382419037 
1849	-5.26812063912563 
1850	-1.05361066380288 
1851	-0.803002527502042 
1852	-0.556403454809568 
1853	-5.14093922249857E-02 
1854	 0.167362762593215 
1855	 0.282220521961817 
1856	 0.540401208883123 
1857	 0.968425210976083 
1858	 1.55757823664918 
1859	 6.58573256710083 
1860	-26.4076209227881 
1861	-6.95175130157546 
1862	-2.5685911235645 
1863	-1.4909399147946 
1864	-0.746010773546901 
1865	-0.53510076412794 
1866	-0.425822866545804 
1867	-0.299643987352875 
1868	-0.267212814762072 
1869	-0.320893286341078 
1870	-0.514094878029872 
1871	-0.429422894548444 
1872	-0.240040975290473 
1873	-0.65965499949268 
1874	-4.58293256895783 
1875	 0.214456570094794 
1876	-9.53355625984344E-03 
1877	 4.35801171506598 
1878	-3.08020714191349 
1879	 1.96468286931936 
1880	 1.64827748039371 
1881	 0.988447342706819 
1882	 0.988572559143647 
1883	 1.31130053495289 
1884	 1.72940361110552 
1885	 1.14638549223391 
1886	 1.40575379910711 
1887	 0.906246796492133 
1888	-2.10602557412241 
1889	-2.3404999973358 
1890	-0.363068434684563 
1891	-0.404021318419599 
1892	-0.892427929981139 
1893	 0.76440910388227 
1894	 0.408502464389415 
1895	 0.409099937857445 
1896	-1.17289410150639 
1897	-1.91588242075785 
1898	-2.65166968577985 
1899	-1.76694639909175 
1900	-2.20814878122128 
1901	 9.31994970383325 
1902	 2.35134684260771 
1903	 2.39684227799227 
1904	 0.158718196611242 
1905	-0.477696714524379 
1906	-0.813378255962774 
1907	-0.21996931514282 
1908	-1.47819437160952 
1909	-0.477977779863095 
1910	-1.90359066552844 
1911	-2.38379628680986 
1912	-0.24598367890903 
1913	-0.569418423853925 
1914	-0.944001114592572 
1915	-1.23536951686365 
1916	-1.60215563631956 
1917	-1.96388141007127 
1918	-73.0801118213809 
1919	 0.946689647261921 
1920	-18.820482063387 
1921	-0.994452538933918 
1922	-9.13194362094282E-02 
1923	 5.58602868636276E-02 
1924	 9.49339653869948E-02 
1925	 0.230128901295855 
1926	 0.316386506801126 
1927	 4.77096436241648E-02 
1928	 3.47329236284914 
1929	-0.480628512872416 
1930	-0.704329843889007 
1931	-1.07758481733393 
1932	-4.26438658375308 
1933	-2.60383792219151 
1934	-0.863676484264535 
1935	 0.483528570824516 
1936	-7.6496874390667 
1937	 49.910118409456 
1938	-7.8021074357404 
1939	-18.9917973156298 
1940	 3.97188944797075 
1941	 1.63326133820014 
1942	 1.56651930013958 
1943	 0.997182881243786 
1944	 0.548181959389841 
1945	-7.09229792803919E-02 
1946	-2.44984499649803 
1947	-1.94155639227099 
1948	-0.65682156495881 
1949	 0.368695396878524 
1950	 0.110946576232745 
1951	 0.171066727172601 
1952	 0.166419270285933 
1953	-0.266151428881117 
1954	-0.766299763745302 
1955	-0.470492212585029 
1956	-0.359502182696582 
1957	-0.258213481432833 
1958	-0.218531372866386 
1959	-7.25326162952461E-02 
1960	 0.14532729037678 
1961	 0.13084151659016 
1962	 5.27098919543069E-02 
1963	-2.87785112156404E-02 
1964	-8.80910142893731E-02 
1965	-5.46547371915899E-02 
1966	-5.79264355629827E-02 
1967	-3.72481447988776E-02 
1968	-0.053706099594235 
1969	-7.46314805841456E-02 
1970	-8.58951598935779E-02 
1971	-5.26492792660378E-02 
1972	-2.59594840339987E-02 
1973	-3.95348560217663E-03 
1974	 7.56659049914724E-03 
1975	 1.03788062474284E-02 
1976	 0.021527858590517 
1977	 0.01786242801569 
1978	 2.03684619768457E-02 
1979	 1.16705073558302E-02 
1980	-9.96308736591122E-03 
1981	-2.80685608478284E-02 
1982	-0.023562706553719 
1983	-2.36510465489816E-02 
1984	-1.47392926991431E-02 
1985	-1.09877609295827E-02 
1986	-9.7784032451624E-03 
1987	-1.89912265810317E-02 
1988	-3.49369733524491E-02 
1989	-3.66582329376611E-02 
1990	-3.96132105940383E-02 
1991	-2.81901803028567E-02 
1992	-3.08926375366639E-02 
1993	-3.82627132696708E-02 
1994	-2.68578472679697E-02 
1995	-4.79179021657157E-03 
1996	 4.38922245611794E-03 
1997	 0.038835153357232 
1998	 6.92913172111096E-02 
1999	 6.69471262661379E-02 
2000	 5.05774089489356E-02 
2001	 3.10220851177472E-02 
2002	 4.11156501114057E-02 
2003	 3.55782912145403E-02 
2004	 0.013383062133512 
2005	 1.01379958902749E-02 
2006	 6.94152240839262E-03 
2007	 1.30380518072556E-02 
2008	 1.68469446924392E-02 
2009	 2.31350078329124E-02 
2010	 4.43757885776422E-02 
2011	 4.07432173448022E-02 
2012	 1.85590848159757E-02 
2013	 1.78895154008115E-02 
2014	 1.87858478480855E-02 
2015	-1.54124421291237E-02 
2016	-2.81350108444862E-02 
2017	-3.09194325396261E-02 
2018	-2.44410999586493E-02 
2019	-0.005414764538496 
2020	-3.8513798772896E-03 
2021	-3.8882046150989E-03 
2022	-7.8635931962183E-03 
2023	-2.21989239945706E-02 
2024	-2.44409213667149E-02 
2025	-0.013804436270463 
2026	-1.04904782666997E-02 
2027	-1.00056593626728E-02 
2028	-7.75458147922766E-03 
2029	-1.02961897364234E-03 
2030	 4.98083215488546E-03 
2031	 9.68211935520067E-03 
2032	 1.58563388922449E-02 
2033	 1.74453400009028E-02 
2034	 0.014898127516041 
2035	 1.15862458728338E-02 
2036	 1.06172150320672E-02 
2037	 1.00429767570081E-02 
2038	 8.94864381274417E-03 
2039	 7.41759873502592E-03 
2040	 1.50989065274894E-03 
2041	 4.18529074399858E-03 
2042	 1.08686490764949E-02 
2043	 1.76280937833976E-02 
2044	 3.24495044233146E-02 
2045	 0.045043749932944 
2046	 4.36727427149934E-02 
2047	 4.08445400049271E-02 
2048	 3.10855449056449E-02 
2049	 0.02469675423709 
2050	 2.51312483676445E-02 
2051	 2.65096581798529E-02 
2052	 0.033712474919827 
2053	 3.14307992189133E-02 
2054	 2.77855411896082E-02 
2055	 2.75771078680135E-02 
2056	 2.68757730185133E-02 
2057	 2.73069925050822E-02 
2058	 2.68036887780896E-02 
2059	 0.02223461428702 
2060	 2.47398400446171E-02 
2061	 3.30217051871083E-02 
2062	 3.28378558256999E-02 
2063	 3.08469922664173E-02 
2064	 0.029019902169964 
2065	 1.19708922983381E-02 
2066	 3.08707190880349E-03 
2067	 6.13882266818707E-03 
2068	 1.15359600543308E-02 
2069	 1.08423289876349E-02 
2070	 3.06704322874823E-03 
2071	 2.44123580701522E-03 
2072	 0.002388112827568 
2073	 2.41676200650447E-04 
2074	 2.94248879081316E-03 
2075	 1.7690622444285E-03 
2076	-6.80885049633589E-03 
2077	-9.76910616204638E-03 
2078	-7.76516017080221E-03 
2079	-7.21797521715058E-03 
2080	-6.11472108379536E-03 
2081	-7.07507507013288E-03 
2082	-8.25882070297229E-03 
2083	-7.64175220537587E-03 
2084	-0.007195899407319 
2085	-4.17303351592395E-03 
2086	 1.60584529192101E-03 
2087	 3.84951936004445E-03 
2088	 3.70304977848509E-03 
2089	 7.35866197831507E-04 
2090	-2.4676803788417E-03 
2091	-8.76461965182316E-04 
2092	-1.06163228120403E-04 
2093	 3.76723915678207E-03 
2094	 5.52666136960156E-03 
2095	 6.81505026665567E-03 
2096	 3.96980477532471E-03 
2097	-3.33298562926429E-03 
2098	-3.80877554829517E-03 
2099	-4.72407176067101E-03 
2100	-2.62332103615441E-03 
2101	 6.48926856443805E-03 
2102	 1.22208017879604E-02 
2103	 1.15089469111982E-02 
2104	 9.43324433790603E-03 
2105	 0.004450322789604 
2106	-1.23820119039699E-03 
2107	 9.65707480925714E-04 
2108	 5.7389738398924E-03 
2109	 1.06437512638241E-02 
2110	 1.49946071806413E-02 
2111	 1.27037693676097E-02 
2112	 7.83650553013553E-03 
2113	 5.10399477751536E-03 
2114	 2.18213853354263E-03 
2115	 6.86088629833771E-05 
2116	-2.77885576866867E-03 
2117	-2.62081911110038E-03 
2118	 9.66837437626997E-04 
2119	 1.5116461120594E-03 
2120	 2.7410700205819E-03 
2121	 4.31595217527947E-03 
2122	 6.34847716174447E-04 
2123	-3.87736838144855E-03 
2124	-6.73882939855537E-03 
2125	-6.94641987058464E-03 
2126	-5.71961209946873E-03 
2127	-5.77704788081906E-03 
2128	-5.95404562185216E-03 
2129	-6.67959804179287E-03 
2130	-4.74096165687681E-03 
2131	-2.8242619996675E-03 
2132	 1.50690728290951E-03 
2133	 8.09983709468996E-03 
2134	 1.00791137581771E-02 
2135	 1.03215152163606E-02 
2136	 9.23968704333265E-03 
2137	 2.32086441420403E-03 
2138	 2.2724284826773E-03 
2139	 6.39142808322884E-03 
2140	 6.28245997796791E-03 
2141	 6.1817844802592E-03 
2142	 8.06239596900502E-03 
2143	 9.57553776996248E-03 
2144	 8.4975146803467E-03 
2145	 8.5928417738286E-03 
2146	 9.75974073626105E-03 
2147	 7.22984340016042E-03 
2148	 5.84444009711579E-03 
2149	 5.88781872054008E-03 
2150	 4.47747431739584E-03 
2151	 3.86199556492591E-03 
2152	-1.35050410860239E-04 
2153	-3.82794635250464E-03 
2154	-3.78805948510424E-03 
2155	-7.66130427247195E-03 
2156	-8.43126597748246E-03 
2157	-7.03500993222371E-03 
2158	 1.15478090436439E-03 
2159	 2.82818448788435E-03 
2160	 1.41652699451077E-03 
2161	 1.01100180708734E-03 
2162	-4.01455641411619E-04 
2163	-3.45693277719371E-03 
2164	-7.18869265495954E-03 
2165	-7.7113461243342E-03 
2166	-1.02787375404846E-02 
2167	-9.45894163973686E-03 
2168	-3.93985266108342E-03 
2169	-8.19871375589955E-04 
2170	 1.53700428715314E-03 
2171	 6.60219446680255E-03 
2172	 1.19078785545187E-02 
2173	 1.47732835217407E-02 
2174	 1.43587020853904E-02 
2175	 1.56073354691606E-02 
2176	 0.014911437057117 
2177	 1.47853467462037E-02 
2178	 1.79891951785636E-02 
2179	 1.70515040569024E-02 
2180	 1.65163114345734E-02 
2181	 1.56635002650134E-02 
2182	 1.46832101040417E-02 
2183	 1.85216801939043E-02 
2184	 0.018136543168947 
2185	 1.36830189376597E-02 
2186	 1.44406213322098E-02 
2187	 1.52353737296378E-02 
2188	 1.71026779581567E-02 
2189	 2.69633810839077E-02 
2190	 2.93211367311058E-02 
2191	 2.77326839652793E-02 
2192	 2.48863210729612E-02 
2193	 1.46474728652032E-02 
2194	 1.28165089449332E-02 
2195	 1.38545264655129E-02 
2196	 1.41026829505197E-02 
2197	 2.56365742808219E-02 
2198	 2.31941764540924E-02 
2199	 7.22301977912794E-03 
2200	-9.63445900873271E-04 
2201	-1.93588409467245E-04 
2202	-2.95259354968963E-04 
2203	 1.02776398773013E-02 
2204	 2.12375910167829E-02 
2205	 1.75836894034798E-02 
2206	 1.00721837540849E-02 
2207	 4.12241193766056E-03 
2208	 3.78384943314233E-03 
2209	 1.33922592898448E-02 
2210	 2.20753756895581E-02 
2211	 2.58904751124306E-02 
2212	 2.66624545912341E-02 
2213	 1.81233183759848E-02 
2214	 8.49854880906332E-03 
2215	 4.91422758850475E-03 
2216	 1.46538158349092E-03 
2217	 1.08634367063432E-03 
2218	 4.35396225956955E-03 
2219	 8.10883675245109E-03 
2220	 1.55907900059998E-02 
2221	 1.85346741790388E-02 
2222	 1.96663232970312E-02 
2223	 2.02079015202557E-02 
2224	 1.90667127795014E-02 
2225	 1.78983508830054E-02 
2226	 1.82007585820313E-02 
2227	 1.52330011389849E-02 
2228	 5.83934776611992E-03 
2229	 4.83313922461526E-03 
2230	 6.62227500590839E-03 
2231	 8.91545306022508E-03 
2232	 0.019464113129862 
2233	 2.06158943411757E-02 
2234	 1.57537059907781E-02 
2235	 1.39514017968404E-02 
2236	 6.85310426990348E-03 
2237	-3.82146824920219E-04 
2238	 2.86245383404272E-03 
2239	-2.53556996356877E-03 
2240	-1.04897842484845E-02 
2241	-5.45124298169654E-03 
2242	-7.32470846863901E-03 
2243	-7.02191055347912E-03 
2244	-5.25082617209532E-04 
2245	 5.2843963582672E-04 
2246	-4.12854119286347E-03 
2247	-6.78393809114614E-03 
2248	-3.82264185558352E-03 
2249	-4.76792692045744E-03 
2250	-3.11877060099979E-03 
2251	-3.78455845955143E-03 
2252	-2.71595204503851E-03 
2253	-1.87185362705041E-03 
2254	-3.60182265467946E-03 
2255	 3.93160289422322E-03 
2256	 4.74124257688784E-03 
2257	 4.9649742880443E-03 
2258	 4.90465936855814E-03 
2259	 9.43542536781874E-05 
2260	 4.31339008460118E-04 
2261	-3.26855025299342E-04 
2262	 1.68394900767954E-04 
2263	 1.05400572391297E-02 
2264	 8.78851025770484E-03 
2265	-3.76600613052993E-03 
2266	-4.1076803361882E-03 
2267	-4.28366329975086E-03 
2268	-5.80362526315472E-03 
2269	 5.11677166178442E-04 
2270	 2.06921230469186E-03 
2271	-5.14721972650088E-03 
2272	-1.78907047243411E-03 
2273	 9.93124271235262E-03 
2274	 1.47610539242276E-02 
2275	 2.32775469024966E-02 
2276	 2.44372854599459E-02 
2277	 1.64768679724124E-02 
2278	 1.70200300601787E-02 
2279	 1.96656635164327E-02 
2280	 1.67502681971792E-02 
2281	 1.37474947193145E-02 
2282	 9.50336511608555E-03 
2283	 0.013816749392193 
2284	 1.69519114426166E-02 
2285	 2.92259666047254E-02 
2286	 3.07504219895343E-02 
2287	 9.52054202937407E-03 
2288	-2.26443127157972E-03 
2289	-1.21690506585114E-02 
2290	-0.013581135766102 
2291	-2.04504193191515E-03 
2292	 1.23864876308144E-03 
2293	-0.017921642954717 
2294	-2.90998605110416E-02 
2295	-2.38938494447293E-02 
2296	-3.17891780728839E-02 
2297	-2.80700084580667E-02 
2298	-1.72661008147757E-02 
2299	-2.72883993436447E-02 
2300	-3.32704706000386E-02 
2301	-2.01275896581182E-02 
2302	-9.31592852724934E-03 
2303	 1.40155294943622E-03 
2304	 1.36450407848247E-02 
2305	 2.32252040518197E-02 
2306	 3.87487142212456E-02 
2307	 0.030806248523508 
2308	 1.00060743427568E-02 
2309	-6.19701845753848E-03 
2310	-3.34296803533597E-02 
2311	-5.18521266042929E-02 
2312	-5.69835108261196E-02 
2313	-5.87159666412915E-02 
2314	-5.37744743270825E-02 
2315	-5.03829139328249E-02 
2316	-4.84207311270282E-02 
2317	-4.50633668003272E-02 
2318	-4.38380706532254E-02 
2319	-2.58514988276843E-02 
2320	-7.04553418541224E-03 
2321	-2.02828680814507E-03 
2322	 5.81943328705377E-03 
2323	 6.12811445397848E-03 
2324	 1.39753615296646E-03 
2325	 2.89073323235486E-02 
2326	 4.60606218590947E-02 
2327	 4.08151686848575E-02 
2328	 6.35180209870563E-02 
2329	 6.67320994380974E-02 
2330	 5.78421507394048E-02 
2331	 4.60907211317969E-02 
2332	-1.17749547264509E-02 
2333	-0.044972916737319 
2334	-4.42263948161049E-02 
2335	-5.18001057294142E-02 
2336	-1.50558946140302E-02 
2337	 6.24831837815507E-03 
2338	-2.88540481602175E-02 
2339	-3.10348873282515E-02 
2340	 6.2845587009155E-03 
2341	 4.97892740616184E-02 
2342	 0.102769703472366 
2343	 0.104503494497826 
2344	 4.41915262598219E-02 
2345	-2.69924764896705E-02 
2346	-6.89158216918653E-02 
2347	-9.60339861655116E-02 
2348	-0.126429784593525 
2349	-0.117248378915952 
2350	-0.105561698715675 
2351	-0.101577760084674 
2352	-4.16064062307028E-02 
2353	 6.53734249386015E-02 
2354	 7.49525228586827E-02 
2355	 7.14233455955236E-02 
2356	 0.127554855736787 
2357	 8.43955173097562E-02 
2358	 0.076860663523552 
2359	 0.162091324695447 
2360	 0.219650525631317 
2361	 0.259549578198499 
2362	 0.254804215547957 
2363	 0.155433973847732 
2364	 0.012198621312285 
2365	-0.108005516869001 
2366	-0.174538103764692 
2367	-0.146771425840949 
2368	-0.116243890246439 
2369	-0.103753210992899 
2370	-9.96162344698342E-02 
2371	-0.100100369796271 
2372	-8.68306550460574E-02 
2373	-5.47564030656861E-02 
2374	-5.89530285694232E-02 
2375	-0.122742790605851 
2376	-0.086662359582689 
2377	 3.27800605820352E-02 
2378	 0.10159036181162 
2379	 0.13701216895301 
2380	 8.78536773179811E-02 
2381	-1.59609911158956E-02 
2382	-8.72797614159797E-03 
2383	 0.146995812543853 
2384	 0.235310535295284 
2385	 9.57631983906983E-02 
2386	 3.17378294568157E-02 
2387	 0.100354920070305 
2388	 2.67809171234185E-02 
2389	-8.63092142418822E-02 
2390	-0.295042321067892 
2391	-0.422239911747469 
2392	-0.439273428162679 
2393	-0.460856986962059 
2394	-0.322250479900951 
2395	-0.188960697183524 
2396	-0.199272084995056 
2397	-9.92070403724039E-02 
2398	 0.183835444795697 
2399	 7.39318956491242E-02 
2400	-0.614840419927378 
2401	-0.949801538606813 
2402	-1.21435806007728 
2403	-1.23952374921128 
2404	-0.583802999678181 
2405	-0.498959026699569 
2406	-0.679113936763127 
2407	-1.05556207032551 
2408	-1.23377899673125 
2409	 0.404193580132286 
2410	 6.23915633606599 
2411	 0.746197652075376 
2412	 0.528975943541391 
2413	 0.54395909590234 
2414	 0.584553549691958 
2415	 0.401585302074596 
2416	 0.186531436828515 
2417	 7.84812110134451E-02 
2418	-1.10836512629698 
2419	-1.97356149318875 
2420	-10.5929260174034 
2421	-4.43660982401566 
2422	-1.89564438060504 
2423	-2.15135124475317 
2424	-6.57025008176538 
2425	-9.75246389947256 
2426	-87.922061812146 
2427	 3.04272051599317 
2428	 14.7337144924285 
2429	-3.69392178497669 
2430	-2.44215323967222 
2431	-1.60024523248398 
2432	-0.702365751897592 
2433	 16.0301111780441 
2434	 1.93398545335642 
2435	 1.42064162178635 
2436	 0.849581842696195 
2437	 0.711367946119028 
2438	 0.360925354797104 
2439	 0.257748139243611 
2440	 0.446700821620364 
2441	 0.276150776675469 
2442	 0.403268476108312 
2443	 0.258532989259797 
2444	 0.192326037271219 
2445	 0.445128289814209 
2446	 0.332555722875043 
2447	 0.520511377121325 
2448	 0.720967845398976 
2449	 1.10717273738348 
2450	 1.33110651599157 
2451	 1.01615887002537 
2452	 0.633017054895359 
2453	 0.654976262431871 
2454	 0.627102407475762 
2455	 6.44396458514103E-02 
2456	-2.00649205396777E-02 
2457	 0.120395617674498 
2458	 0.26018082891892 
2459	 0.418595310462884 
2460	 0.704358936774691 
2461	 0.623701245222788 
2462	 0.749784662918563 
2463	 0.765889726194212 
2464	 0.237370994718833 
2465	-0.543723774254046 
2466	-2.17773133989268E-02 
2467	 0.39247969741579 
2468	 1.88109282939223E-02 
2469	-0.246843861296351 
2470	-3.62940205211466E-02 
2471	 0.179608025501626 
2472	 0.566987438277141 
2473	 0.731503776323908 
2474	 1.02658040796276 
2475	 0.942921020966085 
2476	 0.277068806168747 
2477	 1.30541194121009 
2478	-0.773178471700366 
2479	-0.631969223068753 
2480	-5.11968134293171 
2481	 2.69317881264527 
2482	 2.27145204559326 
2483	 1.55070616208293 
2484	 3.0993917632209 
2485	 4.11802883512941 
2486	 2.19899401045313 
2487	 1.71763284222039 
2488	 1.21203369789594 
2489	 0.476896362176841 
2490	 1.69349860207428E-02 
2491	-2.76514061090191E-02 
2492	-2.46631470924141E-02 
2493	 0.39411671950011 
2494	 0.304435172007925 
2495	-0.939288803286924 
2496	-2.27390300117456 
2497	-2.13040359795304 
2498	-1.88237912029046 
2499	-0.330099534949594 
2500	-1.06439550560007 
