Wavelength	rt0704dirt00005.asd
350	 0.14215757041729 
351	 0.142348472271317 
352	 0.142739276786894 
353	 0.142800181037538 
354	 0.142446454776115 
355	 0.142850288547638 
356	 0.142918323885476 
357	 0.142998242515668 
358	 0.143617310759543 
359	 0.144113449883235 
360	 0.144347613863531 
361	 0.144482214214718 
362	 0.14483109234822 
363	 0.145146368272793 
364	 0.145315476513479 
365	 0.145426615032399 
366	 0.145837451970505 
367	 0.146219822849126 
368	 0.146574235713205 
369	 0.146894708370348 
370	 0.14677622556598 
371	 0.147130668173583 
372	 0.147757707361684 
373	 0.147929137727194 
374	 0.148710067496921 
375	 0.149088761964975 
376	 0.149009046399113 
377	 0.149960578328551 
378	 0.150524713921241 
379	 0.150655268161659 
380	 0.150750272109955 
381	 0.151457669402105 
382	 0.15236682393016 
383	 0.152986793525452 
384	 0.153011210897122 
385	 0.153559162024151 
386	 0.154220781004933 
387	 0.154675658848986 
388	 0.154884163944386 
389	 0.155421577330002 
390	 0.15585980010914 
391	 0.155964948206147 
392	 0.15645071017087 
393	 0.157000275187779 
394	 0.157464364722536 
395	 0.157792291160198 
396	 0.158083380023473 
397	 0.158287007276548 
398	 0.158573336286947 
399	 0.159247059496058 
400	 0.159216729084394 
401	 0.159228850669157 
402	 0.159772235474136 
403	 0.160174580258902 
404	 0.160342472339688 
405	 0.16043676699523 
406	 0.160689203027574 
407	 0.161017771283006 
408	 0.161326204015109 
409	 0.161565317114404 
410	 0.161739377634038 
411	 0.161986806398404 
412	 0.162122397886987 
413	 0.1621121855037 
414	 0.162425287670136 
415	 0.162744323124581 
416	 0.163060148089489 
417	 0.163443254315506 
418	 0.163648917919634 
419	 0.163901850478781 
420	 0.164312913448807 
421	 0.164825886041087 
422	 0.164986565813 
423	 0.165241309797944 
424	 0.165902111125903 
425	 0.16637443035104 
426	 0.166849297730893 
427	 0.167397928547049 
428	 0.168019071292249 
429	 0.1686103475814 
430	 0.169145732871671 
431	 0.16968654233525 
432	 0.170381755216442 
433	 0.171008830208119 
434	 0.171579139344947 
435	 0.172177747413395 
436	 0.172972398759 
437	 0.173547640929875 
438	 0.173956635665428 
439	 0.174492497708139 
440	 0.175052790400055 
441	 0.17562148021936 
442	 0.176176138902053 
443	 0.176673970653725 
444	 0.177220502515884 
445	 0.177702655036335 
446	 0.178034158721076 
447	 0.178467545388834 
448	 0.178928441123151 
449	 0.179330696245138 
450	 0.179602723627968 
451	 0.179899885648268 
452	 0.180141896610493 
453	 0.180299336920536 
454	 0.180514543735974 
455	 0.180748452060312 
456	 0.180881305008476 
457	 0.1808370285703 
458	 0.180933008771367 
459	 0.181018715390053 
460	 0.181049484660703 
461	 0.181109163343889 
462	 0.18118127550455 
463	 0.181187865537522 
464	 0.181120331383948 
465	 0.181193955312799 
466	 0.181261733728038 
467	 0.181318868966418 
468	 0.181399932747946 
469	 0.181271060839409 
470	 0.181329475820871 
471	 0.181592038247508 
472	 0.181499555742565 
473	 0.181544615904947 
474	 0.181786634008497 
475	 0.182084778728944 
476	 0.181980546292274 
477	 0.182216348833073 
478	 0.182693488119923 
479	 0.182793403395421 
480	 0.183107654711384 
481	 0.183479621114569 
482	 0.183767388509983 
483	 0.184051040338091 
484	 0.184383932838267 
485	 0.184762692935333 
486	 0.185146167786553 
487	 0.18544048485758 
488	 0.185818067177714 
489	 0.186315453560567 
490	 0.186826228061994 
491	 0.187283639897193 
492	 0.187726787412664 
493	 0.188232377095659 
494	 0.188938271528598 
495	 0.189581206542773 
496	 0.19008030188574 
497	 0.190492496731172 
498	 0.19111809643505 
499	 0.191721441798966 
500	 0.192207599577721 
501	 0.192789684247187 
502	 0.193284645715811 
503	 0.193746219209231 
504	 0.194304154296158 
505	 0.195085132702901 
506	 0.195988832903115 
507	 0.196877675278095 
508	 0.197614870677113 
509	 0.198427294622633 
510	 0.199373916707131 
511	 0.200383226510821 
512	 0.201152328124857 
513	 0.201944863930014 
514	 0.202808640520066 
515	 0.203691593549246 
516	 0.204572783468509 
517	 0.205457118923491 
518	 0.206332147987743 
519	 0.207164507518956 
520	 0.208107568590862 
521	 0.209018038368776 
522	 0.209802301398763 
523	 0.210755557100439 
524	 0.211750818394294 
525	 0.212721572856019 
526	 0.21365869272587 
527	 0.214613613631897 
528	 0.215623170161306 
529	 0.216692414891711 
530	 0.217771870894966 
531	 0.218991311409464 
532	 0.220245495090718 
533	 0.221376148460765 
534	 0.222517666303223 
535	 0.223699128977586 
536	 0.224890408719923 
537	 0.225998505900825 
538	 0.227113799373878 
539	 0.228244291543593 
540	 0.229404759269889 
541	 0.230717792201016 
542	 0.231924093378261 
543	 0.233050278280585 
544	 0.234294188621749 
545	 0.235537649230764 
546	 0.236797210410643 
547	 0.238082046860743 
548	 0.239372938942832 
549	 0.240559787111765 
550	 0.241654491334392 
551	 0.242722651210825 
552	 0.243807911162205 
553	 0.244902598536153 
554	 0.245955878613186 
555	 0.246869632798459 
556	 0.247752497010299 
557	 0.248652240206115 
558	 0.249579480302141 
559	 0.250519735908879 
560	 0.251410959671274 
561	 0.252258646578809 
562	 0.253115564587997 
563	 0.253988996428234 
564	 0.254719222392316 
565	 0.25524457872604 
566	 0.255729545495435 
567	 0.256148265385369 
568	 0.256573283918862 
569	 0.257089157189577 
570	 0.257673437326707 
571	 0.258224519697746 
572	 0.258701576381139 
573	 0.259134737235373 
574	 0.25955651287463 
575	 0.260051057006239 
576	 0.260652719384793 
577	 0.261226529672644 
578	 0.261806537922256 
579	 0.26238220080237 
580	 0.26291779943657 
581	 0.263412430630231 
582	 0.263759369429494 
583	 0.263935655194114 
584	 0.264105260073574 
585	 0.26392576500934 
586	 0.263313231439403 
587	 0.262379813905916 
588	 0.261733229499891 
589	 0.261604854713328 
590	 0.2620017739899 
591	 0.262703316637649 
592	 0.263173629704799 
593	 0.263588474059704 
594	 0.264183230863114 
595	 0.264907121861532 
596	 0.265656671311238 
597	 0.266397101838979 
598	 0.267123397747008 
599	 0.267735790111764 
600	 0.268312482675524 
601	 0.268831738292547 
602	 0.269062894780919 
603	 0.269199432528089 
604	 0.269215768043286 
605	 0.269065566539543 
606	 0.268974374358376 
607	 0.268767910828095 
608	 0.268466958132066 
609	 0.268303303030206 
610	 0.268067168808513 
611	 0.267781042232154 
612	 0.267511401654651 
613	 0.2673207010086 
614	 0.267037513731349 
615	 0.266750429178578 
616	 0.266662709320046 
617	 0.266533891757814 
618	 0.266347207253424 
619	 0.266163436217052 
620	 0.266138122077873 
621	 0.265985851020951 
622	 0.265768407412268 
623	 0.265619109425622 
624	 0.265446418817698 
625	 0.264972381798203 
626	 0.264368092776865 
627	 0.264220703108776 
628	 0.264146487250328 
629	 0.264266695550154 
630	 0.264588055622534 
631	 0.264582312480871 
632	 0.2646611441021 
633	 0.264852661066433 
634	 0.264989507405795 
635	 0.264906601027169 
636	 0.264793058041278 
637	 0.264737310890574 
638	 0.264629631127999 
639	 0.264615817155965 
640	 0.26455805487263 
641	 0.264318310236407 
642	 0.264147796751773 
643	 0.263646616349782 
644	 0.262653044875741 
645	 0.261248564801536 
646	 0.259975633059934 
647	 0.259191775513032 
648	 0.258962489012941 
649	 0.258862326790049 
650	 0.258280940547566 
651	 0.257615965145203 
652	 0.25750136578633 
653	 0.256956739032832 
654	 0.256312853282585 
655	 0.255811728246606 
656	 0.255495395299719 
657	 0.255124637675277 
658	 0.254763741123679 
659	 0.254444286845946 
660	 0.253942983078615 
661	 0.253269053014619 
662	 0.25241495839146 
663	 0.251421631687127 
664	 0.25067777982521 
665	 0.250049610322378 
666	 0.249399655962648 
667	 0.248739194535837 
668	 0.248023082444005 
669	 0.247411036082981 
670	 0.247071866863888 
671	 0.246847294344595 
672	 0.24662842040238 
673	 0.246486047705835 
674	 0.246638224193368 
675	 0.246768645052098 
676	 0.247038261581533 
677	 0.247566605002119 
678	 0.248134285740484 
679	 0.248845216408497 
680	 0.24978540232149 
681	 0.251011496749856 
682	 0.252409375995259 
683	 0.254102188006471 
684	 0.255849462371727 
685	 0.257032462009758 
686	 0.258778383920814 
687	 0.261376091412981 
688	 0.264468661222625 
689	 0.267933553671322 
690	 0.271108137886349 
691	 0.273922931615705 
692	 0.276772781123298 
693	 0.28075932722629 
694	 0.285643610336236 
695	 0.290639534737027 
696	 0.295406956518554 
697	 0.299130470537733 
698	 0.302568836608126 
699	 0.306484730006167 
700	 0.310699289250298 
701	 0.315430217142528 
702	 0.32019436121836 
703	 0.324299270274016 
704	 0.327874223108279 
705	 0.331306509643393 
706	 0.33475647559929 
707	 0.338255905191169 
708	 0.341269267921534 
709	 0.343997451914755 
710	 0.34676575867662 
711	 0.349059754157788 
712	 0.350904962726309 
713	 0.35219845147659 
714	 0.352671726120277 
715	 0.352181351259817 
716	 0.351146434443854 
717	 0.350539354272404 
718	 0.351618684235514 
719	 0.353920431895756 
720	 0.356146618326592 
721	 0.357740655130783 
722	 0.35762364478328 
723	 0.357078907345557 
724	 0.357049233998451 
725	 0.357590848845567 
726	 0.358012734690111 
727	 0.358397271223454 
728	 0.358804907178274 
729	 0.358547912518352 
730	 0.359220923442811 
731	 0.360583484869522 
732	 0.361638553008383 
733	 0.36200843157407 
734	 0.361971364022004 
735	 0.361906486753723 
736	 0.362333057636994 
737	 0.362897434926934 
738	 0.363606462452168 
739	 0.364456200249058 
740	 0.365237858834913 
741	 0.365798116144134 
742	 0.366335663137015 
743	 0.367131556860815 
744	 0.367468804724083 
745	 0.367847906671744 
746	 0.368352044013426 
747	 0.368360929684544 
748	 0.368728752367615 
749	 0.369102026437588 
750	 0.369104101069054 
751	 0.369333508047557 
752	 0.369582182495662 
753	 0.369806284829065 
754	 0.370037783268044 
755	 0.370190085096018 
756	 0.370237939066818 
757	 0.369949638848226 
758	 0.368376297156392 
759	 0.365558131460734 
760	 0.362451401976593 
761	 0.362085788325565 
762	 0.361877110216827 
763	 0.363329862397279 
764	 0.365856991063446 
765	 0.368329882190474 
766	 0.370093047441563 
767	 0.371344356436509 
768	 0.372266193939696 
769	 0.372951926362156 
770	 0.373269571926062 
771	 0.373611644900532 
772	 0.37419890888897 
773	 0.374534658074958 
774	 0.374702691055191 
775	 0.374905589458117 
776	 0.375329223273302 
777	 0.375639534079985 
778	 0.375953952914095 
779	 0.376297784232764 
780	 0.376583339675908 
781	 0.376961837172344 
782	 0.377262165119654 
783	 0.377358290250473 
784	 0.37735503050935 
785	 0.377286997030799 
786	 0.377201177889392 
787	 0.377127808174173 
788	 0.376948551282366 
789	 0.37718815675891 
790	 0.377909109214289 
791	 0.37874144099824 
792	 0.379474264410931 
793	 0.379930903309844 
794	 0.380043926848791 
795	 0.379835111261135 
796	 0.379971535547365 
797	 0.380344541108948 
798	 0.380624400473405 
799	 0.380565476122235 
800	 0.380725158788309 
801	 0.381077510207699 
802	 0.381336540754887 
803	 0.382111947037642 
804	 0.382904564285019 
805	 0.383352105918241 
806	 0.383363404815399 
807	 0.383228736470529 
808	 0.382859036763649 
809	 0.38217142468384 
810	 0.381295963379639 
811	 0.380323704056665 
812	 0.379155823714288 
813	 0.377751406802784 
814	 0.376914162317276 
815	 0.37612555577613 
816	 0.375838814506172 
817	 0.376980444680645 
818	 0.377856814266165 
819	 0.378350245849493 
820	 0.378421026630398 
821	 0.377727812445394 
822	 0.377022146299693 
823	 0.376735098408191 
824	 0.376754976626489 
825	 0.376226158580114 
826	 0.375181237785142 
827	 0.373958561922859 
828	 0.373078723619694 
829	 0.372306536107488 
830	 0.371711187436885 
831	 0.371281435894101 
832	 0.370990671330131 
833	 0.371046394272901 
834	 0.371425188470866 
835	 0.371764401892601 
836	 0.371366993512492 
837	 0.371386819877853 
838	 0.371642904644925 
839	 0.371825770022032 
840	 0.372098491655202 
841	 0.372205379073334 
842	 0.372343702379035 
843	 0.372696302450211 
844	 0.372587563566046 
845	 0.372487133027543 
846	 0.372514556932081 
847	 0.372497868891498 
848	 0.372221242753716 
849	 0.371903886853304 
850	 0.371736524113499 
851	 0.37176805939358 
852	 0.371479046910063 
853	 0.371375801814433 
854	 0.37168473921888 
855	 0.371589882328542 
856	 0.371617271284511 
857	 0.371778984318023 
858	 0.371880228327784 
859	 0.371475305695404 
860	 0.371454562209629 
861	 0.371558282683842 
862	 0.371147896269222 
863	 0.371227776199566 
864	 0.371279335678391 
865	 0.371153729604303 
866	 0.37109824836951 
867	 0.370765150258193 
868	 0.370559012677715 
869	 0.370551823721801 
870	 0.37027633410955 
871	 0.369739503611723 
872	 0.36928065761299 
873	 0.36913260706524 
874	 0.369131459580155 
875	 0.368868675177566 
876	 0.368469328644125 
877	 0.368160110592033 
878	 0.367822752180238 
879	 0.367298723577421 
880	 0.366916341483931 
881	 0.366965796384245 
882	 0.366202038062721 
883	 0.365585162458571 
884	 0.365381400751475 
885	 0.365242141838158 
886	 0.365300746304647 
887	 0.364833572881417 
888	 0.363853198131017 
889	 0.363255805511283 
890	 0.362888745330387 
891	 0.361695327365661 
892	 0.359511303525451 
893	 0.358293059885493 
894	 0.356250625499811 
895	 0.354605723182405 
896	 0.354439422811998 
897	 0.353015582260758 
898	 0.352052953836857 
899	 0.3516032754636 
900	 0.351281102225055 
901	 0.351627141522646 
902	 0.35185059728959 
903	 0.351460613522226 
904	 0.350409846893589 
905	 0.350070481415689 
906	 0.349318431578579 
907	 0.347706730247754 
908	 0.345748947554899 
909	 0.345768856190707 
910	 0.345132823280329 
911	 0.343549039980084 
912	 0.343042129616737 
913	 0.341312288985975 
914	 0.340427055330484 
915	 0.340626303658101 
916	 0.339755711967064 
917	 0.340672966046202 
918	 0.341308778448609 
919	 0.340504288800577 
920	 0.339079846005226 
921	 0.338354464618041 
922	 0.337780403130352 
923	 0.33651482055874 
924	 0.333962922542427 
925	 0.330546824926807 
926	 0.327468485176372 
927	 0.32546451121797 
928	 0.321960497452793 
929	 0.31914654807539 
930	 0.31717594066235 
931	 0.313716161411382 
932	 0.30064003013194 
933	 0.295855824737264 
934	 0.293838838162451 
935	 0.281873365092412 
936	 0.288093036711609 
937	 0.288101717082874 
938	 0.284232658934776 
939	 0.284902752744034 
940	 0.286648336806973 
941	 0.286279346523334 
942	 0.281040316965686 
943	 0.270908080115962 
944	 0.268437821821941 
945	 0.269833093288914 
946	 0.2696311779283 
947	 0.265100705302864 
948	 0.267337266065892 
949	 0.264681595427807 
950	 0.260212153743602 
951	 0.263127026512767 
952	 0.257021696151198 
953	 0.256382355984247 
954	 0.260142175443565 
955	 0.257370839089314 
956	 0.253835368498077 
957	 0.25359425081457 
958	 0.255304281781705 
959	 0.254711342585378 
960	 0.251811511619764 
961	 0.253545985028942 
962	 0.257868866663236 
963	 0.258010677264415 
964	 0.260760005941184 
965	 0.261209489372685 
966	 0.260053908574899 
967	 0.261366960270025 
968	 0.260819390628502 
969	 0.260563228018557 
970	 0.261751787615979 
971	 0.26374599376902 
972	 0.261831624023207 
973	 0.261455179988601 
974	 0.262882126858023 
975	 0.261265367343764 
976	 0.263695884825615 
977	 0.262941890706922 
978	 0.261390516434681 
979	 0.267732967960259 
980	 0.266879727068962 
981	 0.266052670567565 
982	 0.267913750274597 
983	 0.26972787739457 
984	 0.270731349771698 
985	 0.270518859968744 
986	 0.270179119535109 
987	 0.271526254738521 
988	 0.274076848907884 
989	 0.275598227782328 
990	 0.27518036190536 
991	 0.273633447953085 
992	 0.274394976294229 
993	 0.276073453240804 
994	 0.277624771740829 
995	 0.278705518115771 
996	 0.279247739299791 
997	 0.280385181441184 
998	 0.280657954610237 
999	 0.278571759416631 
1000	 0.281460969211007 
1001	 0.284463347787631 
1002	 0.285659232202788 
1003	 0.286688868537635 
1004	 0.288245048675047 
1005	 0.289102388712224 
1006	 0.289954262894226 
1007	 0.289577865201782 
1008	 0.289053909931818 
1009	 0.28968181548742 
1010	 0.290825036237132 
1011	 0.292222339565309 
1012	 0.293786580950242 
1013	 0.294859877763462 
1014	 0.29596363801761 
1015	 0.296721174938621 
1016	 0.297662904183672 
1017	 0.298923716809167 
1018	 0.299826760517774 
1019	 0.300241819058325 
1020	 0.301198634947762 
1021	 0.30247136459065 
1022	 0.303147007908361 
1023	 0.304589575869813 
1024	 0.306133753505281 
1025	 0.307068214662414 
1026	 0.308583075003118 
1027	 0.309621839387623 
1028	 0.310342318255579 
1029	 0.311218056865763 
1030	 0.312009303353941 
1031	 0.312830904401984 
1032	 0.313861797827699 
1033	 0.314552987475347 
1034	 0.314935243259475 
1035	 0.315547865246737 
1036	 0.315708080894931 
1037	 0.316618843729105 
1038	 0.317902418486614 
1039	 0.319691004317739 
1040	 0.321771138950684 
1041	 0.322939483961896 
1042	 0.323614987060087 
1043	 0.323282702322951 
1044	 0.324061015401937 
1045	 0.324882649093452 
1046	 0.325637721907653 
1047	 0.327174962487028 
1048	 0.327939286974099 
1049	 0.32792325097109 
1050	 0.328281874738685 
1051	 0.328489989998703 
1052	 0.329049055061883 
1053	 0.330013203435715 
1054	 0.330579125323151 
1055	 0.331007294955707 
1056	 0.331717842076014 
1057	 0.332450502488646 
1058	 0.333158941234072 
1059	 0.333443929716593 
1060	 0.333759429500811 
1061	 0.334052120208218 
1062	 0.333864325795676 
1063	 0.333825470712489 
1064	 0.334071822158045 
1065	 0.334178169177055 
1066	 0.333807638472731 
1067	 0.333873275251225 
1068	 0.334493810130028 
1069	 0.334708110491313 
1070	 0.334643839039742 
1071	 0.33483849763022 
1072	 0.335156978839488 
1073	 0.335388257809578 
1074	 0.335240297293701 
1075	 0.335111326418731 
1076	 0.334832467800557 
1077	 0.333885386069001 
1078	 0.333561078928392 
1079	 0.333944028733186 
1080	 0.333466517497973 
1081	 0.332460125917183 
1082	 0.331857978914532 
1083	 0.330853474652869 
1084	 0.330236864493539 
1085	 0.330544412816004 
1086	 0.330143341677113 
1087	 0.329358278847294 
1088	 0.328498322111425 
1089	 0.327054711310439 
1090	 0.325737607945184 
1091	 0.325016065747969 
1092	 0.32488679654344 
1093	 0.323965296059785 
1094	 0.323102043932225 
1095	 0.322020772257534 
1096	 0.319883733588281 
1097	 0.318800970082526 
1098	 0.318863703251017 
1099	 0.317890144351883 
1100	 0.317026042716168 
1101	 0.315416258252099 
1102	 0.311582240227053 
1103	 0.309642284616668 
1104	 0.308387159584946 
1105	 0.307385192831019 
1106	 0.307910762364719 
1107	 0.308171718087441 
1108	 0.304768138262381 
1109	 0.301428951613901 
1110	 0.299825678659648 
1111	 0.297895868240149 
1112	 0.296556456461016 
1113	 0.299545554983084 
1114	 0.297693713893777 
1115	 0.288730321683493 
1116	 0.286339613136636 
1117	 0.288135346948701 
1118	 0.288231001485098 
1119	 0.296366021590248 
1120	 0.300721472163238 
1121	 0.302714095227115 
1122	 0.292174940083681 
1123	 0.282522663309997 
1124	 0.285512534247156 
1125	 0.269749795491797 
1126	 0.258333575496425 
1127	 0.266804907834178 
1128	 0.265997442449473 
1129	 0.260955139154854 
1130	 0.258074849867011 
1131	 0.253931930203485 
1132	 0.242390626881561 
1133	 0.238885012334443 
1134	 0.240903146016874 
1135	 0.242285480924563 
1136	 0.245708930801155 
1137	 0.243596642317599 
1138	 0.239541103140296 
1139	 0.23714131748562 
1140	 0.229906700479301 
1141	 0.226354945928032 
1142	 0.235052998779481 
1143	 0.237803889030784 
1144	 0.232326184379375 
1145	 0.230586168156336 
1146	 0.221049979780494 
1147	 0.2123275053722 
1148	 0.216821479007542 
1149	 0.220445152561055 
1150	 0.217352897876846 
1151	 0.209518686741814 
1152	 0.207706859523066 
1153	 0.205008440383256 
1154	 0.204695686848064 
1155	 0.207414074000156 
1156	 0.20911271447874 
1157	 0.208881340920095 
1158	 0.207738016453762 
1159	 0.207127795766016 
1160	 0.209000915634436 
1161	 0.211355280971829 
1162	 0.21122607701554 
1163	 0.211051810405292 
1164	 0.210892363347781 
1165	 0.20934854746204 
1166	 0.21037336889734 
1167	 0.212640479043727 
1168	 0.212846434402481 
1169	 0.213631593237122 
1170	 0.214632095813822 
1171	 0.2150355673169 
1172	 0.214970555060994 
1173	 0.215265924271196 
1174	 0.216088666181791 
1175	 0.215060222972479 
1176	 0.213847268730782 
1177	 0.213964171134582 
1178	 0.214132996458736 
1179	 0.214190593021126 
1180	 0.214361188681697 
1181	 0.213347279156583 
1182	 0.211858795286936 
1183	 0.2122933061185 
1184	 0.213740701444166 
1185	 0.213875225149223 
1186	 0.213113620736433 
1187	 0.212333651241144 
1188	 0.21166428133937 
1189	 0.212063047539531 
1190	 0.213889838261746 
1191	 0.214470931225978 
1192	 0.214461688656668 
1193	 0.2133338471226 
1194	 0.213588562529306 
1195	 0.213504327801483 
1196	 0.213090879725714 
1197	 0.214240668228483 
1198	 0.214433503199966 
1199	 0.213588604203304 
1200	 0.213996376548648 
1201	 0.214065160026883 
1202	 0.213805059614456 
1203	 0.214369986937206 
1204	 0.214812961902739 
1205	 0.215186109512012 
1206	 0.215405845590143 
1207	 0.215497045874098 
1208	 0.215960200722525 
1209	 0.21581878044499 
1210	 0.215296132339878 
1211	 0.215753669806611 
1212	 0.216488882049493 
1213	 0.21693897483071 
1214	 0.217212897001763 
1215	 0.217735559923027 
1216	 0.217552131824788 
1217	 0.217383452565588 
1218	 0.218037810323881 
1219	 0.218683822906529 
1220	 0.219012046517632 
1221	 0.21914230993401 
1222	 0.219132634771216 
1223	 0.21947679568037 
1224	 0.219986502475157 
1225	 0.220107771258172 
1226	 0.220085106715895 
1227	 0.220498729070271 
1228	 0.221326738841613 
1229	 0.222041362810837 
1230	 0.222001027783635 
1231	 0.221947575497077 
1232	 0.222565310615798 
1233	 0.223023897599434 
1234	 0.223815395577896 
1235	 0.224402673579956 
1236	 0.224725237160112 
1237	 0.224791543813338 
1238	 0.22461076636839 
1239	 0.224863512268747 
1240	 0.224819931310556 
1241	 0.224970634254613 
1242	 0.225531713689665 
1243	 0.22580056663499 
1244	 0.225803020279803 
1245	 0.226226379809797 
1246	 0.22642456306581 
1247	 0.226185773447477 
1248	 0.226065552335698 
1249	 0.226116744969738 
1250	 0.225752689177326 
1251	 0.225217191770102 
1252	 0.225561358023836 
1253	 0.225882678042511 
1254	 0.225925724743464 
1255	 0.226151383751583 
1256	 0.226058987654727 
1257	 0.225338847780298 
1258	 0.225119373008302 
1259	 0.22514487191383 
1260	 0.22500491839197 
1261	 0.224884164564622 
1262	 0.224762903945947 
1263	 0.224485120180682 
1264	 0.224373361187598 
1265	 0.224270999584295 
1266	 0.224001341948108 
1267	 0.224033501429594 
1268	 0.22400364093966 
1269	 0.223902843630346 
1270	 0.224195546408604 
1271	 0.223974567927554 
1272	 0.223634364538932 
1273	 0.223963848639426 
1274	 0.224452251382181 
1275	 0.224638558901931 
1276	 0.224786079008138 
1277	 0.224755729424643 
1278	 0.224166742558282 
1279	 0.224240622921096 
1280	 0.224583033420596 
1281	 0.224313057008113 
1282	 0.223671735869203 
1283	 0.223460975021382 
1284	 0.222898559772551 
1285	 0.222575219920286 
1286	 0.222871866729797 
1287	 0.222780000691268 
1288	 0.222611997973059 
1289	 0.222108820250054 
1290	 0.221229350119277 
1291	 0.220632255808197 
1292	 0.220050492740086 
1293	 0.218657086927466 
1294	 0.217457049895706 
1295	 0.216281708590364 
1296	 0.215011242140676 
1297	 0.214350835973467 
1298	 0.214366567274838 
1299	 0.214459595384622 
1300	 0.214038585953021 
1301	 0.212944423190963 
1302	 0.211265706763894 
1303	 0.209560696057247 
1304	 0.208111702058196 
1305	 0.207685769773347 
1306	 0.206486953129432 
1307	 0.205152854255545 
1308	 0.204184649732257 
1309	 0.202974455228071 
1310	 0.201758778160852 
1311	 0.20158221395724 
1312	 0.20058174702463 
1313	 0.198643566039261 
1314	 0.196826251532903 
1315	 0.194359530401369 
1316	 0.193026799180078 
1317	 0.192806925929347 
1318	 0.191325312454791 
1319	 0.189682681778251 
1320	 0.188923735436151 
1321	 0.188317334114558 
1322	 0.186396756415863 
1323	 0.184331430570646 
1324	 0.182320565927639 
1325	 0.181625537173066 
1326	 0.180366870982943 
1327	 0.17854701851583 
1328	 0.178100543095631 
1329	 0.174603057028327 
1330	 0.169503563107699 
1331	 0.169716062243896 
1332	 0.171074448144475 
1333	 0.170530158006717 
1334	 0.171181675372822 
1335	 0.170116867239631 
1336	 0.166465284695123 
1337	 0.165130604505985 
1338	 0.164837659656843 
1339	 0.163435300458771 
1340	 0.161692492621558 
1341	 0.161568133379181 
1342	 0.162008952904535 
1343	 0.161932900340478 
1344	 0.163729490184228 
1345	 0.165222800414285 
1346	 0.166208122841142 
1347	 0.166581343100934 
1348	 0.166520964375853 
1349	 0.168895711633881 
1350	 0.166543825322876 
1351	 0.165458444536827 
1352	 0.190459691889456 
1353	 0.211088626619715 
1354	 0.210529524462303 
1355	 0.228239003160377 
1356	 0.297490582016495 
1357	 0.264989426234559 
1358	 0.339946363682668 
1359	 0.398632122427959 
1360	 0.42039352245343 
1361	 0.551324571551261 
1362	 0.59448690923089 
1363	 0.667389612267685 
1364	 0.623437200047074 
1365	 0.348690441084746 
1366	 0.859367948516166 
1367	 1.09383197469935 
1368	 0.964883701068285 
1369	 0.652485674859938 
1370	 0.583160698565781 
1371	 0.132975115596065 
1372	 6.75384823150672E-02 
1373	 0.588887309396424 
1374	 0.911382644352043 
1375	 13.5124554542708 
1376	 6.67147614441583 
1377	 1.22175760672029 
1378	 1.00589700557301 
1379	 0.602594209870815 
1380	 0.536568851299051 
1381	 0.514928733941093 
1382	 0.51743067380854 
1383	 0.839327725268506 
1384	 1.29721648029353 
1385	 4.57608144881515 
1386	-23.4902978004963 
1387	 4.13055742441694 
1388	 2.57902225048274 
1389	 1.21858491491053 
1390	 0.775405489740817 
1391	 0.613535326699578 
1392	 0.65541793806036 
1393	 1.22449895983557 
1394	 3.65721896833082 
1395	 4.45619598622773 
1396	-124.990679282617 
1397	-16.9179943333924 
1398	 1.55600202180654 
1399	 0.766611495276732 
1400	 7.20193480036817 
1401	-1.51864525640788 
1402	-3.19071166822702 
1403	-3.49390951578709 
1404	 3.04042671127901 
1405	 1.9909668752754 
1406	 0.984653075829389 
1407	 0.710372269658239 
1408	 0.740485353926043 
1409	 0.716169751760971 
1410	 0.583412144790421 
1411	 0.566647726420418 
1412	 0.727172332917043 
1413	 0.825912322061131 
1414	 1.18260447248254 
1415	 1.11261021349515 
1416	 0.816642153895442 
1417	 0.737487689907592 
1418	 0.514752197710334 
1419	 0.443973268395179 
1420	 0.554945123120337 
1421	 0.396227518926057 
1422	 8.44150878953191E-02 
1423	 6.18284008545948E-02 
1424	 0.119406745088922 
1425	 9.73308233597604E-02 
1426	 0.158341272783217 
1427	 0.148239479832885 
1428	 5.03793443109365E-02 
1429	 2.39069944794881E-02 
1430	-7.7346145818499E-04 
1431	 5.98579692507126E-03 
1432	 5.50987832533913E-02 
1433	 7.17111065870622E-02 
1434	 0.097052579661363 
1435	 0.122090101808057 
1436	 0.153193664517963 
1437	 0.157648046716526 
1438	 0.101561346307968 
1439	 0.043889970192107 
1440	 5.86903166248561E-03 
1441	 0.013452577709149 
1442	 6.69888355115297E-02 
1443	 5.00395401108822E-02 
1444	-6.85741678271105E-03 
1445	 5.12171532352415E-03 
1446	 0.012183444046734 
1447	 1.64010122918343E-03 
1448	 2.46322215026247E-02 
1449	 2.74570943507937E-02 
1450	 0.032064960509878 
1451	 6.95500140863838E-02 
1452	 7.81398849914078E-02 
1453	 6.11022657818823E-02 
1454	 5.95837846060572E-02 
1455	 4.92631118664203E-02 
1456	 4.35951081236322E-02 
1457	 4.47787035736713E-02 
1458	 4.76058421274038E-02 
1459	 4.61428539772511E-02 
1460	 4.39304996596547E-02 
1461	 5.05370391171965E-02 
1462	 5.08455405286763E-02 
1463	 4.27929262959936E-02 
1464	 3.65166281507667E-02 
1465	 2.73566747456281E-02 
1466	 2.66224688834401E-02 
1467	 2.59677371338313E-02 
1468	 3.13538169090512E-02 
1469	 5.80897150051944E-02 
1470	 0.056930643562828 
1471	 3.70351756665589E-02 
1472	 3.26926812532682E-02 
1473	 2.24777604539597E-02 
1474	 1.90763486821116E-02 
1475	 2.42573509563345E-02 
1476	 3.05435211223136E-02 
1477	 0.038556356999941 
1478	 4.04723113035752E-02 
1479	 4.65330754752998E-02 
1480	 4.83077578516312E-02 
1481	 4.03291264215325E-02 
1482	 0.039575877381686 
1483	 4.18651584852378E-02 
1484	 4.57859941169773E-02 
1485	 5.31270743643389E-02 
1486	 5.41650395383565E-02 
1487	 5.25280039450373E-02 
1488	 5.41332961668392E-02 
1489	 5.32171428557373E-02 
1490	 5.44098601491879E-02 
1491	 5.99175649714233E-02 
1492	 6.19374577429141E-02 
1493	 6.24832173470007E-02 
1494	 6.28841933474695E-02 
1495	 6.23955957434572E-02 
1496	 6.24071669666792E-02 
1497	 6.16407846140233E-02 
1498	 6.17134645278243E-02 
1499	 6.21928015820023E-02 
1500	 6.39188008591595E-02 
1501	 6.84770045779486E-02 
1502	 6.89739502059357E-02 
1503	 6.67516920498215E-02 
1504	 6.70677973753495E-02 
1505	 6.69543839014017E-02 
1506	 6.61161874487694E-02 
1507	 6.69741637551356E-02 
1508	 6.85492120788044E-02 
1509	 6.99005269660329E-02 
1510	 7.11948881291462E-02 
1511	 7.25547722448319E-02 
1512	 7.39955783607132E-02 
1513	 7.40356704714314E-02 
1514	 7.39392925609155E-02 
1515	 7.58611262352412E-02 
1516	 7.72558365917366E-02 
1517	 7.75566307247246E-02 
1518	 7.78578966196036E-02 
1519	 0.07778587488416 
1520	 7.75807796071241E-02 
1521	 7.79501426200139E-02 
1522	 0.079233848984144 
1523	 0.08107576029649 
1524	 8.27599149609609E-02 
1525	 8.25434137299505E-02 
1526	 8.28650435611668E-02 
1527	 8.49385557056369E-02 
1528	 8.53100826758974E-02 
1529	 8.64128145851778E-02 
1530	 8.82314255874218E-02 
1531	 8.80926355353634E-02 
1532	 8.83010440726056E-02 
1533	 8.91947864390793E-02 
1534	 9.04200653798909E-02 
1535	 9.15328121297226E-02 
1536	 9.19542178978152E-02 
1537	 9.22867173816871E-02 
1538	 9.19010378930679E-02 
1539	 9.15120142065753E-02 
1540	 9.22119388137592E-02 
1541	 9.30114384082216E-02 
1542	 9.37244105712652E-02 
1543	 9.43931336814326E-02 
1544	 9.46921139341673E-02 
1545	 9.56911528251697E-02 
1546	 9.70155327814406E-02 
1547	 9.75608296889055E-02 
1548	 9.82014533884507E-02 
1549	 9.89741934543403E-02 
1550	 0.098948067157457 
1551	 0.099159654908311 
1552	 9.98930656138531E-02 
1553	 9.99972576902563E-02 
1554	 0.100482314135877 
1555	 0.101675559183251 
1556	 0.102508878839795 
1557	 0.102790264122891 
1558	 0.102924899899705 
1559	 0.103207829735161 
1560	 0.103717569556773 
1561	 0.104238862339321 
1562	 0.104215552324025 
1563	 0.104283538677194 
1564	 0.104792662668954 
1565	 0.105688295417082 
1566	 0.106722105578798 
1567	 0.107024383435324 
1568	 0.107115835763759 
1569	 0.107652504835073 
1570	 0.108198655930266 
1571	 0.108414690285936 
1572	 0.108411591557194 
1573	 0.108211902864774 
1574	 0.108055555221899 
1575	 0.108589207008055 
1576	 0.109208908964885 
1577	 0.108871832713208 
1578	 0.108792159317199 
1579	 0.10969734266357 
1580	 0.110570972792545 
1581	 0.111051612592761 
1582	 0.111742709439886 
1583	 0.112402549109914 
1584	 0.112849519895264 
1585	 0.113413386685384 
1586	 0.113624176279432 
1587	 0.114087867485985 
1588	 0.114515704566538 
1589	 0.115113606760188 
1590	 0.116222244867192 
1591	 0.116360840353306 
1592	 0.116399519088878 
1593	 0.116840585715555 
1594	 0.116854152980869 
1595	 0.116765522444451 
1596	 0.117171363029565 
1597	 0.118076516089137 
1598	 0.119035457424829 
1599	 0.119530773746298 
1600	 0.119004336472508 
1601	 0.118024628457528 
1602	 0.117938960903752 
1603	 0.118570114630567 
1604	 0.119134148187956 
1605	 0.120119077130212 
1606	 0.120813480537789 
1607	 0.121012100070791 
1608	 0.121164296461255 
1609	 0.120493492059427 
1610	 0.120232393357328 
1611	 0.12105007044347 
1612	 0.12140032717315 
1613	 0.121745739974627 
1614	 0.122617921880245 
1615	 0.122727671380706 
1616	 0.122996542562015 
1617	 0.123884428287707 
1618	 0.124082310646294 
1619	 0.123691742432251 
1620	 0.123875547839078 
1621	 0.124836201357419 
1622	 0.124871829141182 
1623	 0.125033857692755 
1624	 0.126118515668507 
1625	 0.12624615749484 
1626	 0.125841031384513 
1627	 0.12606967316001 
1628	 0.12693648967042 
1629	 0.127159826623732 
1630	 0.127010715971886 
1631	 0.127599199524822 
1632	 0.127362535938822 
1633	 0.12631603850031 
1634	 0.126253819191909 
1635	 0.126667327176663 
1636	 0.126495486427764 
1637	 0.126158735098849 
1638	 0.126424054445087 
1639	 0.126565980775865 
1640	 0.12608061685075 
1641	 0.12678411041477 
1642	 0.128312658832272 
1643	 0.128020437722933 
1644	 0.127661100148781 
1645	 0.128896902134953 
1646	 0.129203180675396 
1647	 0.129450213901461 
1648	 0.130171916644891 
1649	 0.129373934037623 
1650	 0.12874587545819 
1651	 0.129188451334038 
1652	 0.129143519145032 
1653	 0.128498881290222 
1654	 0.128636025803536 
1655	 0.129276884524609 
1656	 0.129043030050117 
1657	 0.128647158568263 
1658	 0.128832419076269 
1659	 0.128657298810261 
1660	 0.12879840918651 
1661	 0.129695046589711 
1662	 0.129946085924931 
1663	 0.129797326105541 
1664	 0.130171600127914 
1665	 0.131064220707137 
1666	 0.131310428953439 
1667	 0.130866359026367 
1668	 0.131180337913018 
1669	 0.131424617996769 
1670	 0.130907728977234 
1671	 0.13082109589641 
1672	 0.130698853477945 
1673	 0.130197348021929 
1674	 0.130086604576781 
1675	 0.130873901187773 
1676	 0.131796152833846 
1677	 0.131976966539979 
1678	 0.132039890957054 
1679	 0.132011417362824 
1680	 0.131817654578581 
1681	 0.131100118678617 
1682	 0.129792420437398 
1683	 0.129433308382677 
1684	 0.129597843372169 
1685	 0.129954942795172 
1686	 0.130811183630777 
1687	 0.13118410801865 
1688	 0.130546486417856 
1689	 0.129799014713958 
1690	 0.13009070674562 
1691	 0.130231712855885 
1692	 0.130105491993681 
1693	 0.129959420264203 
1694	 0.12932943854448 
1695	 0.128804063434322 
1696	 0.12812087449094 
1697	 0.127597167115958 
1698	 0.126898611240374 
1699	 0.126078824749727 
1700	 0.126047120953419 
1701	 0.126108796204422 
1702	 0.125854014263842 
1703	 0.125931834036902 
1704	 0.126632078217526 
1705	 0.127324540799074 
1706	 0.127993593298261 
1707	 0.128854802551296 
1708	 0.128420264870597 
1709	 0.127499955093965 
1710	 0.128048061638422 
1711	 0.128482633338228 
1712	 0.12850700755902 
1713	 0.128331504677675 
1714	 0.128389045377946 
1715	 0.129643223292951 
1716	 0.129499932857651 
1717	 0.128178610385598 
1718	 0.127324990357365 
1719	 0.125107205183573 
1720	 0.123900773059558 
1721	 0.124833051299688 
1722	 0.126059775055463 
1723	 0.127964087245523 
1724	 0.128863733274009 
1725	 0.127276603647146 
1726	 0.125105131427371 
1727	 0.122636278855715 
1728	 0.120879887583332 
1729	 0.121461672319603 
1730	 0.122447593494854 
1731	 0.123429211219168 
1732	 0.123179831948478 
1733	 0.120456283081736 
1734	 0.119214311574339 
1735	 0.118900159973781 
1736	 0.117674325805918 
1737	 0.118432930088106 
1738	 0.119627192770798 
1739	 0.118810935678757 
1740	 0.117808807120326 
1741	 0.118712928482828 
1742	 0.117978811691282 
1743	 0.115307530671203 
1744	 0.115655655964258 
1745	 0.115121760777041 
1746	 0.113806844491172 
1747	 0.112849795926644 
1748	 0.110971363926284 
1749	 0.10986291867553 
1750	 0.108818013869257 
1751	 0.108064057582296 
1752	 0.107929713894595 
1753	 0.108402259043354 
1754	 0.109839349714749 
1755	 0.11062364317229 
1756	 0.111848108060738 
1757	 0.110017216317714 
1758	 0.107989009295423 
1759	 0.107339348565198 
1760	 0.109064754000428 
1761	 0.110254401011443 
1762	 0.110555016530598 
1763	 0.108869637202474 
1764	 0.104862982417524 
1765	 0.100290837010401 
1766	 9.70652269200399E-02 
1767	 9.68685923592107E-02 
1768	 9.62563648684207E-02 
1769	 9.68740560502824E-02 
1770	 9.67042667188899E-02 
1771	 9.33446230705832E-02 
1772	 9.19615177922756E-02 
1773	 9.17928067506827E-02 
1774	 0.093240743676132 
1775	 9.29996990970468E-02 
1776	 9.23127279445636E-02 
1777	 9.13326197794561E-02 
1778	 9.12076070295935E-02 
1779	 9.19837735729985E-02 
1780	 9.11120668702135E-02 
1781	 8.77699992823147E-02 
1782	 8.66354402047603E-02 
1783	 8.67062579799529E-02 
1784	 8.81414138439731E-02 
1785	 9.39953586089544E-02 
1786	 9.38292497660576E-02 
1787	 8.76733462925092E-02 
1788	 8.83505143468734E-02 
1789	 8.89149854571661E-02 
1790	 9.87411390901442E-02 
1791	 0.114935090322229 
1792	 0.122295009653491 
1793	 0.122491763188634 
1794	 0.107685452562597 
1795	 8.06290524250759E-02 
1796	 9.06378468374448E-02 
1797	 0.114139289734965 
1798	 0.130712271083028 
1799	 0.173864953866361 
1800	 0.115353835835975 
1801	 9.03630423047223E-02 
1802	 0.110040502285357 
1803	 0.111923748385623 
1804	 0.136236794326578 
1805	 0.159427595306633 
1806	 0.186039369479598 
1807	 0.179428193081986 
1808	 7.50699364683258E-02 
1809	 9.07887384910189E-02 
1810	 0.208407003370234 
1811	 0.234797693295418 
1812	 0.468521690937418 
1813	 0.517249499517343 
1814	 0.217326794210579 
1815	-2.52519808957247E-02 
1816	-0.165702655258679 
1817	-3.94627043855354 
1818	 17.8923608412034 
1819	 8.16997047259215 
1820	-7.95695718981745 
1821	-0.595773054456364 
1822	-0.215448975906195 
1823	-0.369475093873521 
1824	-0.341773300552341 
1825	-0.425784754488881 
1826	-0.72713655607239 
1827	-0.272333789015231 
1828	-0.480467167776869 
1829	-1.76602831242679 
1830	-2.04823479276008 
1831	 2.29418850847581 
1832	-7.75165251462462E-02 
1833	-0.251381171561561 
1834	-0.31941913348755 
1835	 6.80302207119703E-02 
1836	 3.37892427918792E-02 
1837	-0.262335904666778 
1838	-0.816123991503878 
1839	 7.24502602664895 
1840	-5.91169172702298 
1841	-3.44505451676882 
1842	 9.05904365277119 
1843	 40.0461567892368 
1844	-3.02198244975414 
1845	-2.34354182522061 
1846	-1.08469710823148 
1847	-0.848621475307626 
1848	-0.534253292424231 
1849	 1.27811242758509 
1850	-0.104505550090357 
1851	-0.158842342284954 
1852	 0.384643411405025 
1853	 0.457944275735139 
1854	 0.412980307505794 
1855	 0.210646171620428 
1856	 0.274157501693091 
1857	 0.554406400689249 
1858	 0.656835340378848 
1859	 4.64003774286098 
1860	-0.109636038574869 
1861	 0.987953160709675 
1862	 1.57782561004149 
1863	 1.12284532653942 
1864	 0.184520066324194 
1865	 1.64674308967169E-02 
1866	-0.121108434499262 
1867	-0.307992666327104 
1868	-0.307439498700919 
1869	-0.462179648205879 
1870	-0.625645828828569 
1871	-1.01812819972094 
1872	-2.03805449868269 
1873	-4.13949817069552 
1874	-19.9626612730625 
1875	 13.023147764166 
1876	 6.70872752614088 
1877	 9.74763055851221 
1878	-11.404337571016 
1879	-2.05763190745699 
1880	-1.15244823219077 
1881	-0.302461320359815 
1882	-0.358200958399432 
1883	-0.883066485894107 
1884	-1.85081429243655 
1885	-1.47776870330504 
1886	-2.33778245562123 
1887	-3.2822038275315 
1888	-3.55417410686302 
1889	-2.94999524829065 
1890	-2.6609490877688 
1891	-2.31037711875112 
1892	-0.912230783746495 
1893	-0.122129360757758 
1894	 0.558809921687216 
1895	-2.26860238264581 
1896	 0.581413469766047 
1897	 1.36273102512245 
1898	 1.5040975930181 
1899	 0.144620017140795 
1900	-7.52817920398842E-02 
1901	 0.237765714702991 
1902	 0.555517422426137 
1903	 0.674340389294225 
1904	 0.485462454836124 
1905	 2.66811381755322 
1906	 3.95701709942519 
1907	 4.71024191667404 
1908	-5.91175571946179 
1909	-1.20220052550189 
1910	 0.300591013840761 
1911	-3.15959207080885 
1912	 2.56948219175951 
1913	 1.52105753722786 
1914	 0.647424822101719 
1915	 0.593516608140786 
1916	 0.265701612648849 
1917	 0.615020205431741 
1918	 78.4491918090707 
1919	-2.79011562302296 
1920	 33.8465477787722 
1921	 0.957126313354064 
1922	 1.22829510607454E-02 
1923	-0.291227608759291 
1924	-0.502476383840976 
1925	-0.59616688520136 
1926	-0.72292558523656 
1927	-0.98684393451605 
1928	 10.1375010418871 
1929	 0.198045994494767 
1930	 0.249914687722513 
1931	 0.698549540350826 
1932	 3.54734732635975 
1933	-5.23594417778783 
1934	-1.80479109760994 
1935	-2.72438092969739 
1936	 22.134229667703 
1937	-58.6800897924364 
1938	 3.69056386881504 
1939	 8.21725609428667 
1940	-4.20380340129005 
1941	-1.3712536401354 
1942	-0.739335067323909 
1943	-0.545644989805051 
1944	 0.232170060871084 
1945	 2.10997063251447 
1946	 5.21980546473491 
1947	 3.04117233219458 
1948	 2.22380210210906 
1949	 1.42345643343745 
1950	 0.334798671591977 
1951	-0.25607952414984 
1952	-0.439206332091387 
1953	-8.70965176313463E-02 
1954	-0.822264044096932 
1955	-0.429852214266822 
1956	-0.187545521249311 
1957	-0.38205390507176 
1958	-0.198982647197515 
1959	 0.109255910409782 
1960	 0.222680005401145 
1961	 0.226367942716199 
1962	 0.261254459227255 
1963	 0.195387824999284 
1964	 0.1874567550384 
1965	 0.186588135481627 
1966	 0.139188672782295 
1967	 7.97935302956597E-02 
1968	 6.78057606754875E-02 
1969	 3.18676541072813E-02 
1970	-4.03880312173945E-03 
1971	 6.54861753020621E-03 
1972	-2.88190649048892E-03 
1973	-3.76689453296962E-03 
1974	 6.73312736204679E-03 
1975	 2.65354784145996E-02 
1976	 6.42408044163362E-02 
1977	 6.85189494606863E-02 
1978	 6.15666717916774E-02 
1979	 0.052626317720325 
1980	 3.76474132181179E-02 
1981	 5.69434065626133E-03 
1982	-2.30634936345383E-02 
1983	-3.62227216717363E-02 
1984	-2.74713606900634E-02 
1985	-1.78665773905046E-02 
1986	-2.26895856616302E-03 
1987	 2.41599189473061E-02 
1988	 3.18652283666944E-02 
1989	 2.93175006565712E-02 
1990	 3.06727445123991E-02 
1991	 2.46763622702259E-02 
1992	 1.26747525334128E-02 
1993	 5.68164860998765E-03 
1994	-4.05840868718815E-03 
1995	-2.06623139521857E-02 
1996	-3.65837740152312E-02 
1997	-1.69277223324878E-02 
1998	 2.50330290490894E-03 
1999	 1.72086248684587E-02 
2000	 5.74445995858419E-02 
2001	 0.0698121885897 
2002	 0.08221426088732 
2003	 7.73826358038398E-02 
2004	 4.87682496842707E-02 
2005	 3.92645086595506E-02 
2006	-1.95348833284465E-02 
2007	-0.059771821150141 
2008	-6.48532269121756E-02 
2009	-0.068859812419208 
2010	-8.66076324574847E-02 
2011	-8.06922986843964E-02 
2012	-5.83642369109802E-02 
2013	-1.07630191059845E-02 
2014	-1.19773651628535E-03 
2015	 3.07345158636034E-03 
2016	 4.24836240469798E-02 
2017	 4.70086494709661E-02 
2018	 5.56549917886195E-02 
2019	 5.44061665816544E-02 
2020	 3.01142920119182E-02 
2021	 2.25996369881197E-02 
2022	 3.02210190660586E-02 
2023	 3.60158704779664E-02 
2024	 3.67600394302864E-02 
2025	 4.21098456377622E-02 
2026	 0.043394254125306 
2027	 0.03467964916657 
2028	 3.73146324804701E-02 
2029	 4.34940038911971E-02 
2030	 2.80561665338908E-02 
2031	 1.93940171333124E-02 
2032	 1.31838486067443E-02 
2033	 4.64117845775118E-03 
2034	 0.004605094422659 
2035	 1.52369964702207E-02 
2036	 2.30297699715759E-02 
2037	 2.53067976070398E-02 
2038	 3.18048197401792E-02 
2039	 3.31275603331156E-02 
2040	 2.10976283703871E-02 
2041	 1.93068764959365E-02 
2042	 2.45841514215898E-02 
2043	 2.41147081793496E-02 
2044	 2.12552118101905E-02 
2045	 2.41699326612593E-02 
2046	 2.17508696012043E-02 
2047	 2.19769499319747E-02 
2048	 2.68964481408797E-02 
2049	 3.04226886026289E-02 
2050	 0.031633729034424 
2051	 0.026370136561678 
2052	 2.39700416867116E-02 
2053	 2.63962124502812E-02 
2054	 3.02606406242017E-02 
2055	 3.74098253777424E-02 
2056	 3.96108602810889E-02 
2057	 0.037179552824848 
2058	 0.036207547676783 
2059	 3.47296910818033E-02 
2060	 3.11056958167634E-02 
2061	 2.58291573710217E-02 
2062	 2.46451455319923E-02 
2063	 2.14172698457443E-02 
2064	 2.23804628376646E-02 
2065	 3.10327593457504E-02 
2066	 3.37653091534827E-02 
2067	 0.030271983640679 
2068	 0.028092756892374 
2069	 3.14279619931767E-02 
2070	 3.60678121463818E-02 
2071	 4.55991168507087E-02 
2072	 4.87297894763102E-02 
2073	 4.46256695609746E-02 
2074	 3.05703982387345E-02 
2075	 2.64570312728136E-02 
2076	 0.019691363751265 
2077	 1.84228165112398E-02 
2078	 2.35323551522856E-02 
2079	 2.58742646850814E-02 
2080	 2.62386933852753E-02 
2081	 3.21724237008828E-02 
2082	 3.68416284516766E-02 
2083	 4.25198881451483E-02 
2084	 4.89296539496229E-02 
2085	 0.048829101286633 
2086	 5.29425063739901E-02 
2087	 0.057443409013571 
2088	 5.73228098375505E-02 
2089	 5.95277760691171E-02 
2090	 5.94973181965248E-02 
2091	 5.45234490195228E-02 
2092	 5.21687473080212E-02 
2093	 5.15644754469082E-02 
2094	 4.96897103385039E-02 
2095	 4.42908539917665E-02 
2096	 4.51196233750553E-02 
2097	 5.05740087948551E-02 
2098	 5.27335322232339E-02 
2099	 5.75664619016255E-02 
2100	 6.02326938625941E-02 
2101	 0.056984653577559 
2102	 5.19439062744429E-02 
2103	 4.50387118912722E-02 
2104	 4.56897896686857E-02 
2105	 4.94248813747522E-02 
2106	 4.78885279297232E-02 
2107	 4.95889975629795E-02 
2108	 4.97215934298639E-02 
2109	 4.77365737015784E-02 
2110	 4.89807522843321E-02 
2111	 5.06745795373355E-02 
2112	 5.10869406994869E-02 
2113	 5.08075212873504E-02 
2114	 5.00448818167081E-02 
2115	 4.82490628314472E-02 
2116	 4.30825185879089E-02 
2117	 4.40290788117865E-02 
2118	 4.68108102514479E-02 
2119	 4.96142196121957E-02 
2120	 5.66442319418706E-02 
2121	 6.23398513863396E-02 
2122	 0.063043664869232 
2123	 6.32768828060191E-02 
2124	 6.43261803405399E-02 
2125	 6.15877837315643E-02 
2126	 5.50971042066841E-02 
2127	 5.52622458378487E-02 
2128	 0.058572056613816 
2129	 5.97175486067477E-02 
2130	 6.49401773339028E-02 
2131	 6.98301550985273E-02 
2132	 7.06920569893072E-02 
2133	 6.89504279437557E-02 
2134	 6.73317859621316E-02 
2135	 6.33978489014142E-02 
2136	 6.22447786336573E-02 
2137	 6.24002395243949E-02 
2138	 6.15326674515729E-02 
2139	 6.25997054887715E-02 
2140	 6.12944171034979E-02 
2141	 5.47920805080509E-02 
2142	 5.31451683450143E-02 
2143	 5.28374339183589E-02 
2144	 5.46571882684656E-02 
2145	 5.81700869240444E-02 
2146	 6.27964366118033E-02 
2147	 6.70476498802914E-02 
2148	 6.74096288971364E-02 
2149	 6.55982434835132E-02 
2150	 6.96709940063867E-02 
2151	 7.16040629689857E-02 
2152	 7.10275293721858E-02 
2153	 7.63726084307609E-02 
2154	 7.97673860744602E-02 
2155	 8.10854346599378E-02 
2156	 8.41684177188219E-02 
2157	 8.23878838880611E-02 
2158	 7.28703203097364E-02 
2159	 7.11533762179054E-02 
2160	 7.08312328480284E-02 
2161	 6.98649176008963E-02 
2162	 7.56970090461307E-02 
2163	 7.19858613533572E-02 
2164	 5.93174997194321E-02 
2165	 5.35818796275326E-02 
2166	 4.40972017443241E-02 
2167	 4.25632993937741E-02 
2168	 5.16916674695157E-02 
2169	 5.50831104650442E-02 
2170	 5.94462887959149E-02 
2171	 6.23715585920784E-02 
2172	 0.061738124537428 
2173	 0.060426827927901 
2174	 5.78277530920602E-02 
2175	 5.53374374571386E-02 
2176	 5.74448559807625E-02 
2177	 6.25053654331895E-02 
2178	 7.46149451993882E-02 
2179	 8.36424983754576E-02 
2180	 8.67693096792437E-02 
2181	 8.96443931268743E-02 
2182	 0.087890199403043 
2183	 8.14829105865096E-02 
2184	 7.29691870648849E-02 
2185	 6.45548434985366E-02 
2186	 5.89204607512023E-02 
2187	 5.29778475945729E-02 
2188	 5.14734826330382E-02 
2189	 5.59350499036916E-02 
2190	 5.68546428087172E-02 
2191	 5.81113835228247E-02 
2192	 5.83954665675822E-02 
2193	 5.75374798014232E-02 
2194	 5.57962346295518E-02 
2195	 5.41188722887147E-02 
2196	 5.39475834049378E-02 
2197	 0.052408087024179 
2198	 5.35256702939607E-02 
2199	 6.00726094503084E-02 
2200	 5.68334183898059E-02 
2201	 5.79680076418445E-02 
2202	 5.78169350115769E-02 
2203	 5.53793906671903E-02 
2204	 5.61092525098882E-02 
2205	 5.62275235858274E-02 
2206	 0.065169578753 
2207	 7.54485824125868E-02 
2208	 8.05519456048255E-02 
2209	 7.90033793963027E-02 
2210	 7.11650536205394E-02 
2211	 6.56180660614675E-02 
2212	 6.24232658175558E-02 
2213	 6.27572055534463E-02 
2214	 6.34871417751916E-02 
2215	 6.23743994157366E-02 
2216	 6.36281448105974E-02 
2217	 6.29360903130187E-02 
2218	 0.062573462803712 
2219	 0.063432017361885 
2220	 6.10976198664009E-02 
2221	 6.00214045314453E-02 
2222	 0.064532820554771 
2223	 6.45323849984922E-02 
2224	 6.31308289875881E-02 
2225	 0.061113722173915 
2226	 5.10205969119275E-02 
2227	 5.11651584882324E-02 
2228	 5.61516309759732E-02 
2229	 5.99403205088159E-02 
2230	 7.58228842969432E-02 
2231	 7.98748524975385E-02 
2232	 7.58465300608952E-02 
2233	 7.24353645064432E-02 
2234	 6.34532553508215E-02 
2235	 5.58507450224331E-02 
2236	 0.049492153151026 
2237	 5.23010929269717E-02 
2238	 6.41465527717844E-02 
2239	 6.99344087953912E-02 
2240	 7.72902521404499E-02 
2241	 7.93435938830968E-02 
2242	 7.30906554733119E-02 
2243	 0.06626419064913 
2244	 6.63306673700496E-02 
2245	 7.07824674654131E-02 
2246	 6.64708045291021E-02 
2247	 6.59287205543708E-02 
2248	 6.30239186909604E-02 
2249	 5.09679993620173E-02 
2250	 5.42805043571814E-02 
2251	 5.76866950711638E-02 
2252	 5.19384559191214E-02 
2253	 5.58484000311498E-02 
2254	 5.82348934739912E-02 
2255	 5.74051942685204E-02 
2256	 5.96011826921448E-02 
2257	 6.08635911875528E-02 
2258	 5.81514985362847E-02 
2259	 5.35824279906288E-02 
2260	 0.052879336367319 
2261	 5.24324890781973E-02 
2262	 5.64549703483759E-02 
2263	 6.90822285183489E-02 
2264	 7.21198284056326E-02 
2265	 7.50950753031795E-02 
2266	 7.82617583808387E-02 
2267	 7.61691181770714E-02 
2268	 6.93927675655975E-02 
2269	 5.99467249025415E-02 
2270	 5.52759029519527E-02 
2271	 4.10344730585568E-02 
2272	 4.11913120185453E-02 
2273	 5.83820893743526E-02 
2274	 6.42770145989784E-02 
2275	 7.41133678187809E-02 
2276	 7.67974583245204E-02 
2277	 6.71330866678109E-02 
2278	 7.04908557766382E-02 
2279	 7.51715748869881E-02 
2280	 7.70730989197292E-02 
2281	 8.56034952780973E-02 
2282	 9.50138632599238E-02 
2283	 8.97754867057186E-02 
2284	 9.07370652568884E-02 
2285	 8.91269342396742E-02 
2286	 7.42697431709438E-02 
2287	 5.51027167549275E-02 
2288	 4.42182300641696E-02 
2289	 5.42683817894343E-02 
2290	 7.59224227797743E-02 
2291	 0.100115237491303 
2292	 0.122594342023765 
2293	 0.120285026361468 
2294	 0.101666517319869 
2295	 9.05564758133391E-02 
2296	 7.83949372818962E-02 
2297	 6.87252448676634E-02 
2298	 6.30789777527133E-02 
2299	 6.17321396917446E-02 
2300	 7.21885820774384E-02 
2301	 7.88397705494751E-02 
2302	 8.56576107147385E-02 
2303	 8.85065906936367E-02 
2304	 8.25726111372244E-02 
2305	 7.67425139774868E-02 
2306	 6.89861751268318E-02 
2307	 6.71015606492187E-02 
2308	 6.84576675078613E-02 
2309	 6.92512570571778E-02 
2310	 6.40906661038629E-02 
2311	 5.78381566689817E-02 
2312	 5.17530921011277E-02 
2313	 3.76309040991046E-02 
2314	 5.95581922882444E-02 
2315	 9.16260979548529E-02 
2316	 7.38916676057654E-02 
2317	 5.40270025994204E-02 
2318	 3.97276279246266E-02 
2319	-3.39441658106587E-03 
2320	-3.46930479768151E-02 
2321	-2.74924345868932E-02 
2322	-2.52055759910655E-02 
2323	-1.92179388659029E-02 
2324	 9.4255767822208E-03 
2325	 2.09888503198719E-02 
2326	 1.72633361065947E-02 
2327	 1.25102813723064E-02 
2328	 1.35321894245858E-02 
2329	 4.03184486873899E-02 
2330	 4.36622625595055E-02 
2331	 2.45553754089807E-02 
2332	 2.55603350763005E-02 
2333	 2.58258600188311E-02 
2334	 5.18925799774389E-02 
2335	 7.51548705282219E-02 
2336	 7.04874281145517E-02 
2337	 0.036604246200962 
2338	-2.32226001996737E-02 
2339	-3.69781868090989E-02 
2340	-3.85650881289387E-02 
2341	-5.52246943249432E-02 
2342	-4.96079484959793E-02 
2343	-8.10729394753791E-02 
2344	-8.88056310279472E-02 
2345	-2.80057973031526E-02 
2346	 4.04506389335243E-03 
2347	 4.89948795569138E-02 
2348	 6.34736519636658E-02 
2349	-6.46181295792435E-03 
2350	-8.84041956406865E-02 
2351	-0.100828941326091 
2352	-6.28169497911619E-02 
2353	-2.62666580038892E-02 
2354	 1.60314021300175E-02 
2355	 9.24695401883013E-03 
2356	-7.50072173866108E-02 
2357	-9.47764733492029E-02 
2358	-2.66819040154008E-02 
2359	 5.35184557475383E-02 
2360	 4.96421921083673E-02 
2361	 4.07144494035069E-02 
2362	-7.44952693017596E-02 
2363	-0.188676730524727 
2364	-6.79967624481269E-02 
2365	-2.03027622217389E-02 
2366	 1.40826093866334E-02 
2367	 6.46581229100046E-02 
2368	 6.98473612206274E-02 
2369	 6.29831685516803E-02 
2370	 0.038369080140554 
2371	 0.106858008288917 
2372	 4.11732080346876E-02 
2373	-0.061510986477339 
2374	-0.019486862355819 
2375	-0.21858234589473 
2376	-0.210573233499565 
2377	 5.38798862967395E-02 
2378	 0.124005509733563 
2379	 0.169358042407221 
2380	 0.124152443065878 
2381	-0.127210364255121 
2382	-0.115805814991473 
2383	-6.92436043379341E-02 
2384	-0.166711429414087 
2385	-0.101594512091342 
2386	-0.283686240677108 
2387	-0.433799720575006 
2388	-0.264205095943484 
2389	-0.182270700349105 
2390	-0.031804187133322 
2391	 1.20421679863064E-03 
2392	-5.77386157357544E-02 
2393	-0.259334029391442 
2394	-0.544373755618813 
2395	-0.451381133614432 
2396	-0.210308037840763 
2397	-0.155692342698343 
2398	-1.73949174969045E-02 
2399	-0.144432763202186 
2400	-0.577079210403465 
2401	-0.292360375221906 
2402	-5.51854213301994E-02 
2403	-0.238989500810633 
2404	-0.179447220226091 
2405	-0.140398847445376 
2406	-0.598346545254582 
2407	-1.41114441692055 
2408	-1.72375590523853 
2409	-3.30573084676356 
2410	-0.340376108896617 
2411	 0.828673876764636 
2412	 1.51356648717632 
2413	 0.827472102380886 
2414	-0.640244580631132 
2415	-0.987567056351252 
2416	-1.04606772512998 
2417	-1.23512548781026 
2418	-0.957193873592741 
2419	-0.69693545080492 
2420	-0.154069393537241 
2421	 1.02534925136878 
2422	 0.368046629265587 
2423	-0.22706970301479 
2424	-0.384510131500226 
2425	-1.2142462389722 
2426	-19.4318949765867 
2427	-0.852695529972282 
2428	-9.62111198088127 
2429	 5.16964601712343 
2430	 4.85178742997032 
2431	 2.32100053750337 
2432	 1.3035406453282 
2433	 37.5911842824278 
2434	 2.33973483755755 
2435	 0.728254552226212 
2436	-0.133337129874384 
2437	-0.31670539110676 
2438	-0.413518275578041 
2439	-9.38356175443447E-02 
2440	 1.2117623079205 
2441	-0.137218971791071 
2442	-0.619070938030956 
2443	-0.195072297572755 
2444	-0.2724055655731 
2445	-0.047618907678001 
2446	 0.155813580314754 
2447	-0.023710770446168 
2448	 0.040227040546832 
2449	 2.52550622794146E-02 
2450	 3.54592499460911E-02 
2451	 0.671200682890378 
2452	 0.676632390096587 
2453	 0.531019828738097 
2454	 0.123758155056276 
2455	-0.25409027341228 
2456	-5.51296348550665E-02 
2457	 0.20301696402916 
2458	 0.329411320876776 
2459	 0.501094874047165 
2460	 0.982638640292277 
2461	 1.27070292924623 
2462	 1.98218963249748 
2463	 3.67872529579292 
2464	 2.72943893282494 
2465	-8.66780915301879 
2466	-4.21737790452158 
2467	-2.21099380241783 
2468	-1.49418470338818 
2469	-0.60836356542756 
2470	 0.401969308721684 
2471	 0.365166048449934 
2472	-0.328592219804603 
2473	-0.149830785390116 
2474	-7.86616484412066E-03 
2475	-0.985873613075058 
2476	-5.73144753876393E-02 
2477	 1.67529045469757 
2478	 0.134364342015156 
2479	-0.500071038685013 
2480	-5.53302411519999 
2481	 2.97711741667695 
2482	 1.67011234362599 
2483	 0.277135560697837 
2484	 0.491036144724051 
2485	 0.794340051181465 
2486	 0.636928029184783 
2487	 1.30511349286159 
2488	 1.22810103539497 
2489	 0.469124230792967 
2490	 0.1780766155714 
2491	 0.017834335041985 
2492	-0.027533428801643 
2493	 0.374040835376813 
2494	 0.795732781603985 
2495	 0.731805687151148 
2496	-6.90458931367289E-02 
2497	-1.39789799166742 
2498	-2.01027323554929 
2499	 4.6984530558336 
2500	 2.02615257854983 
