Wavelength	rt0704rt300000.asd
350	 4.76506962270498E-02 
351	 4.79155094574657E-02 
352	 4.81199031718109E-02 
353	 4.85463651358417E-02 
354	 4.90916320540098E-02 
355	 4.89410977879517E-02 
356	 4.91451683249853E-02 
357	 4.96172256421633E-02 
358	 0.049966000558143 
359	 5.01901381843193E-02 
360	 5.04125717900172E-02 
361	 5.07394696702906E-02 
362	 5.12536637079696E-02 
363	 5.20914371132222E-02 
364	 5.25321637154786E-02 
365	 0.052486942882098 
366	 5.29435638136887E-02 
367	 5.34564022206519E-02 
368	 5.36935978018301E-02 
369	 5.36133952484652E-02 
370	 5.40935483762288E-02 
371	 5.45228112704047E-02 
372	 5.48786395046448E-02 
373	 0.055436346146246 
374	 5.57743174560254E-02 
375	 5.59481616863651E-02 
376	 5.62964762962192E-02 
377	 5.74302304509192E-02 
378	 5.78829877006115E-02 
379	 5.79042938477803E-02 
380	 5.80694835211061E-02 
381	 5.85282762322514E-02 
382	 5.89796474181103E-02 
383	 5.92655238536211E-02 
384	 5.93548255311237E-02 
385	 5.94624474474885E-02 
386	 0.059681535821262 
387	 6.00264167394422E-02 
388	 6.04313872331912E-02 
389	 6.06423103133248E-02 
390	 6.06397136596127E-02 
391	 6.05285353217155E-02 
392	 6.05328292311465E-02 
393	 6.07353600590452E-02 
394	 6.08340887164678E-02 
395	 6.05793522808911E-02 
396	 6.07517862569361E-02 
397	 6.09530908659396E-02 
398	 6.09992448985932E-02 
399	 6.09566904268062E-02 
400	 6.07410515009187E-02 
401	 6.05708857152319E-02 
402	 6.05726959869666E-02 
403	 6.06125196793043E-02 
404	 6.05385510841569E-02 
405	 6.03270174345817E-02 
406	 6.00555379911826E-02 
407	 6.00306398548217E-02 
408	 5.98037131654117E-02 
409	 5.94262121961708E-02 
410	 5.94400495716729E-02 
411	 5.92092221291012E-02 
412	 0.058777641099513 
413	 5.83752112251416E-02 
414	 5.83924147606585E-02 
415	 5.82539535338827E-02 
416	 5.79720124690443E-02 
417	 5.77723135781683E-02 
418	 5.75368601006442E-02 
419	 0.057405428364652 
420	 5.73564469154452E-02 
421	 5.71859231605414E-02 
422	 5.69475131403437E-02 
423	 5.68419282836616E-02 
424	 5.69422824976477E-02 
425	 5.68886287364855E-02 
426	 0.056838551355899 
427	 5.68852170925584E-02 
428	 5.70530234240004E-02 
429	 5.71218081257916E-02 
430	 0.057112376894291 
431	 5.71249551756568E-02 
432	 0.057314956389785 
433	 5.74260058168677E-02 
434	 5.75649051168647E-02 
435	 5.78350479218607E-02 
436	 5.81158949129901E-02 
437	 5.81553214834653E-02 
438	 5.81383400936488E-02 
439	 5.84103662444371E-02 
440	 5.83944122969086E-02 
441	 5.84047447289476E-02 
442	 5.85817350313593E-02 
443	 5.86705483447788E-02 
444	 5.87165207009875E-02 
445	 5.87593302940396E-02 
446	 5.88271323437361E-02 
447	 5.88806952588527E-02 
448	 5.90132835815899E-02 
449	 0.059098859261762 
450	 5.88958791121713E-02 
451	 5.88551303098529E-02 
452	 5.88743528779493E-02 
453	 5.88288333556576E-02 
454	 5.87220464276442E-02 
455	 5.85987252878816E-02 
456	 5.84130721959423E-02 
457	 5.81512262325822E-02 
458	 5.81500346853382E-02 
459	 5.80401678786806E-02 
460	 5.77782474986499E-02 
461	 5.76709474271284E-02 
462	 0.057456170836031 
463	 5.72241953872103E-02 
464	 5.70701339183815E-02 
465	 0.056916620294013 
466	 5.67146693623088E-02 
467	 5.65806164944437E-02 
468	 5.66365925708897E-02 
469	 5.63787174708334E-02 
470	 5.62469464839932E-02 
471	 0.056328739455617 
472	 5.61296149762334E-02 
473	 5.59809002815122E-02 
474	 5.59610012094498E-02 
475	 5.60129395587967E-02 
476	 5.58171444251558E-02 
477	 5.58565806456695E-02 
478	 5.60448618246724E-02 
479	 5.59463864274059E-02 
480	 5.59772042826291E-02 
481	 5.59999291024924E-02 
482	 5.59551578907578E-02 
483	 5.60940675823277E-02 
484	 0.056232334754711 
485	 5.63282941392561E-02 
486	 5.64078981151743E-02 
487	 5.65517570937143E-02 
488	 5.67632211638239E-02 
489	 5.69814987764658E-02 
490	 5.71052332698829E-02 
491	 5.73909262341709E-02 
492	 5.77198642599729E-02 
493	 5.79892089823657E-02 
494	 5.83577308552457E-02 
495	 5.87330695724211E-02 
496	 5.90505802230302E-02 
497	 5.93021551081798E-02 
498	 5.98204812246956E-02 
499	 6.02976266696663E-02 
500	 6.06143332633047E-02 
501	 6.10469212922137E-02 
502	 6.14059883721141E-02 
503	 6.17436585769846E-02 
504	 6.21365545581421E-02 
505	 6.24551146445226E-02 
506	 6.28839022083756E-02 
507	 6.33871759504332E-02 
508	 6.37603112583311E-02 
509	 6.40829917563577E-02 
510	 6.44907056962637E-02 
511	 6.50105929801803E-02 
512	 6.53954254289268E-02 
513	 0.065865699725904 
514	 6.64164178261452E-02 
515	 6.69530355063791E-02 
516	 6.75224696723574E-02 
517	 6.80884082598033E-02 
518	 6.86683826784727E-02 
519	 6.93528788012001E-02 
520	 7.00137504143389E-02 
521	 7.06838364580018E-02 
522	 7.14121013609799E-02 
523	 0.072136153432539 
524	 7.29682305761391E-02 
525	 7.39167991122069E-02 
526	 0.074914424192142 
527	 0.075922210009414 
528	 7.70273466055225E-02 
529	 7.82287067646744E-02 
530	 7.92984315702857E-02 
531	 8.06214801579064E-02 
532	 8.20819681186328E-02 
533	 8.34348654505965E-02 
534	 8.49297952936097E-02 
535	 0.086513843884345 
536	 8.81251696681214E-02 
537	 8.97097203162623E-02 
538	 9.14659229070549E-02 
539	 9.32896458676841E-02 
540	 9.50597612896272E-02 
541	 9.68641048386821E-02 
542	 9.86871090553532E-02 
543	 0.100487445515242 
544	 0.102228070657904 
545	 0.104017755042787 
546	 0.105835136547205 
547	 0.107623265649534 
548	 0.10929813470221 
549	 0.110954049892604 
550	 0.112575678641864 
551	 0.114124756201666 
552	 0.115640667272577 
553	 0.117132999093302 
554	 0.118610883141624 
555	 0.120075291321859 
556	 0.121527548958167 
557	 0.122991485880813 
558	 0.124459715429204 
559	 0.125857766418618 
560	 0.127313855591706 
561	 0.128801226365628 
562	 0.130216340090344 
563	 0.131664660016797 
564	 0.133036150230302 
565	 0.134297634295868 
566	 0.135628498849868 
567	 0.136845556975399 
568	 0.13796957664845 
569	 0.13906549875323 
570	 0.1400243394833 
571	 0.140864597108736 
572	 0.141637736031872 
573	 0.142410932539764 
574	 0.142992253551289 
575	 0.143525867597445 
576	 0.144140836411388 
577	 0.144666764343356 
578	 0.145192990415904 
579	 0.145678443878209 
580	 0.146021642991345 
581	 0.146359781714267 
582	 0.146563945015755 
583	 0.146617136683183 
584	 0.146777818464577 
585	 0.146690873472986 
586	 0.146446225317699 
587	 0.146247024436356 
588	 0.145887573168209 
589	 0.145655528906342 
590	 0.145624000889378 
591	 0.145571811537438 
592	 0.14533441240656 
593	 0.145091655199677 
594	 0.144942999685051 
595	 0.144492588124128 
596	 0.144017751144814 
597	 0.143520333633474 
598	 0.142878920082415 
599	 0.142313630629452 
600	 0.141818430376473 
601	 0.141398639784966 
602	 0.141131507098495 
603	 0.140932318119712 
604	 0.14077621409948 
605	 0.140677083935419 
606	 0.140741264141875 
607	 0.140767814251024 
608	 0.140714097804122 
609	 0.140712429784376 
610	 0.140672445599624 
611	 0.14058426575344 
612	 0.140471001266716 
613	 0.140408534935244 
614	 0.140283473765272 
615	 0.140126439763812 
616	 0.140047390427165 
617	 0.140057280598628 
618	 0.139967074495583 
619	 0.139738882510388 
620	 0.139607074608508 
621	 0.139489329639067 
622	 0.139385551365787 
623	 0.13930543430508 
624	 0.139208693236057 
625	 0.139074244175432 
626	 0.138948014320003 
627	 0.138935008646357 
628	 0.138962000634483 
629	 0.139007211225793 
630	 0.139031290420931 
631	 0.138920565165026 
632	 0.13876883976538 
633	 0.138630979837168 
634	 0.138497371531811 
635	 0.13803543559567 
636	 0.137598565882805 
637	 0.137231279915184 
638	 0.136433849185584 
639	 0.135774473940909 
640	 0.135171345177855 
641	 0.134412623087017 
642	 0.133567300169282 
643	 0.13261403310831 
644	 0.131570868058639 
645	 0.130486354185873 
646	 0.129191848562598 
647	 0.127901910921036 
648	 0.12683489082427 
649	 0.125932911403115 
650	 0.12497863785768 
651	 0.124191962788054 
652	 0.12389117451008 
653	 0.123508250762843 
654	 0.123236617338976 
655	 0.123116090357983 
656	 0.122904141009765 
657	 0.122616491572765 
658	 0.122262112161357 
659	 0.121827148306916 
660	 0.121298424035062 
661	 0.120431048571808 
662	 0.119260333313382 
663	 0.118036501464895 
664	 0.116980012687648 
665	 0.115859533138656 
666	 0.114559845482386 
667	 0.113316305517304 
668	 0.11200110518615 
669	 0.11082174070058 
670	 0.109987756317786 
671	 0.10912199324726 
672	 0.108466521564467 
673	 0.108077336174316 
674	 0.107820548267847 
675	 0.107742992391346 
676	 0.107968499211725 
677	 0.108544883243528 
678	 0.109282800196241 
679	 0.110402152284122 
680	 0.111879200378027 
681	 0.11360794520488 
682	 0.115759858215151 
683	 0.11827325563434 
684	 0.121012408692895 
685	 0.124062518800537 
686	 0.127633891036381 
687	 0.131134646983574 
688	 0.133870114584515 
689	 0.136591006537534 
690	 0.139029918512378 
691	 0.141052067279918 
692	 0.142607352747448 
693	 0.144202264600654 
694	 0.145603165250582 
695	 0.146526455779309 
696	 0.14689689674627 
697	 0.147072144515347 
698	 0.147076916027017 
699	 0.14682478300608 
700	 0.146352111923258 
701	 0.145843361368905 
702	 0.145302666889163 
703	 0.144554074045335 
704	 0.143550468115558 
705	 0.142322003340433 
706	 0.140978585075272 
707	 0.139653662334238 
708	 0.138155150467196 
709	 0.13643552853594 
710	 0.134533619211261 
711	 0.132566496082599 
712	 0.130339321105413 
713	 0.12792108648568 
714	 0.125611020476814 
715	 0.123167780415448 
716	 0.120330837001258 
717	 0.117284386784178 
718	 0.114613729903471 
719	 0.11208194106719 
720	 0.109957281585747 
721	 0.107976296049079 
722	 0.105744151993485 
723	 0.103069358634918 
724	 0.100473685824869 
725	 9.83774969885016E-02 
726	 9.57135991325456E-02 
727	 9.30380012689027E-02 
728	 9.07756610668639E-02 
729	 0.087790604511425 
730	 8.48978299598289E-02 
731	 0.082589584680538 
732	 8.07558327594121E-02 
733	 7.88375779113177E-02 
734	 7.72596051820935E-02 
735	 7.61330288418114E-02 
736	 7.50444337505024E-02 
737	 7.41797554941426E-02 
738	 0.073519507532682 
739	 7.30383068709699E-02 
740	 7.27974192146009E-02 
741	 7.25662277058428E-02 
742	 7.23566464191982E-02 
743	 7.22772908668016E-02 
744	 7.21232740240828E-02 
745	 7.20557568463024E-02 
746	 7.20521378930703E-02 
747	 7.18006169713658E-02 
748	 7.18136858062881E-02 
749	 7.18386593517026E-02 
750	 7.16299689627467E-02 
751	 7.16442838429322E-02 
752	 7.15490036253991E-02 
753	 7.14031244950037E-02 
754	 7.14236357184266E-02 
755	 7.11972153981657E-02 
756	 7.11347883352212E-02 
757	 7.12497743298899E-02 
758	 7.07516133082537E-02 
759	 7.05050040488178E-02 
760	 7.05005006283469E-02 
761	 7.01575195246731E-02 
762	 6.98756764508347E-02 
763	 6.99042316133801E-02 
764	 7.02257706178907E-02 
765	 7.06581586807609E-02 
766	 7.09767913000937E-02 
767	 7.10726064941532E-02 
768	 7.10843818305456E-02 
769	 7.13562927288077E-02 
770	 7.15442721352051E-02 
771	 7.16528313426688E-02 
772	 7.17586121960762E-02 
773	 7.19447301068007E-02 
774	 0.072075426643033 
775	 7.21641170306307E-02 
776	 7.23088845679604E-02 
777	 7.26687385162794E-02 
778	 7.29587655509136E-02 
779	 7.31318815561821E-02 
780	 7.34068714539559E-02 
781	 7.36465387203041E-02 
782	 7.39668618675015E-02 
783	 7.43929949761493E-02 
784	 7.46499587697038E-02 
785	 7.48882309799416E-02 
786	 7.51641932254721E-02 
787	 7.54923926168804E-02 
788	 0.0758319632673 
789	 7.62337585682016E-02 
790	 7.66133872733163E-02 
791	 7.68451817939106E-02 
792	 7.75123591215869E-02 
793	 7.80652955055127E-02 
794	 7.82866753505484E-02 
795	 7.87106723846732E-02 
796	 7.89514946718278E-02 
797	 7.92599149995785E-02 
798	 0.07983750705857 
799	 8.00605885044198E-02 
800	 8.02775488497047E-02 
801	 8.06285711802662E-02 
802	 8.10908710110456E-02 
803	 8.14930628899109E-02 
804	 8.16170217218144E-02 
805	 8.15485675565606E-02 
806	 0.081661540290906 
807	 8.17788034305067E-02 
808	 8.15980823521814E-02 
809	 8.10572000029368E-02 
810	 8.08176391500002E-02 
811	 8.05108462759277E-02 
812	 7.99897452579543E-02 
813	 7.92518497375001E-02 
814	 7.86380681730426E-02 
815	 7.82332531098723E-02 
816	 7.79400217633528E-02 
817	 7.75305028688576E-02 
818	 7.70771699016582E-02 
819	 7.64913163383181E-02 
820	 7.57036600315871E-02 
821	 7.46962303662051E-02 
822	 7.34380213034007E-02 
823	 7.22532791696962E-02 
824	 7.12625603324628E-02 
825	 6.98405481543298E-02 
826	 6.84073220470401E-02 
827	 6.67880116055263E-02 
828	 6.48911756538714E-02 
829	 6.35234030613865E-02 
830	 6.24720292519587E-02 
831	 6.14759966977632E-02 
832	 6.04227002456175E-02 
833	 6.00434904993089E-02 
834	 5.97885850455408E-02 
835	 5.92822360665249E-02 
836	 5.85804286259523E-02 
837	 5.82383345146144E-02 
838	 5.81628430214557E-02 
839	 5.80682322712823E-02 
840	 5.75598661008728E-02 
841	 0.057272685043808 
842	 5.72167615964575E-02 
843	 5.71347158654354E-02 
844	 5.67198993481017E-02 
845	 5.65692134101852E-02 
846	 5.65847787300245E-02 
847	 5.62444430519983E-02 
848	 5.59672484204838E-02 
849	 5.58157874003173E-02 
850	 5.57310421329185E-02 
851	 5.55499031011258E-02 
852	 0.055124354333781 
853	 5.50005088077312E-02 
854	 5.52470693780691E-02 
855	 5.46499884332828E-02 
856	 0.054335736337888 
857	 5.42976235640744E-02 
858	 0.054231493929385 
859	 5.39815597031117E-02 
860	 5.37989612831702E-02 
861	 5.35781337025068E-02 
862	 5.31934642984475E-02 
863	 5.36282577995913E-02 
864	 5.36278917749634E-02 
865	 5.31438386205439E-02 
866	 0.053248440239067 
867	 5.30116657358922E-02 
868	 5.28715855665468E-02 
869	 5.27818743758748E-02 
870	 5.19026708459671E-02 
871	 5.17056529103679E-02 
872	 5.18231291708389E-02 
873	 5.17698882036479E-02 
874	 5.17820943691621E-02 
875	 5.12520066493485E-02 
876	 5.06400710341854E-02 
877	 5.05030372709778E-02 
878	 5.04392687417512E-02 
879	 5.03106415305511E-02 
880	 5.01026082453504E-02 
881	 4.98619034695347E-02 
882	 4.95383653395545E-02 
883	 4.90795047875739E-02 
884	 4.86877536570416E-02 
885	 4.86700407392877E-02 
886	 0.048533433476075 
887	 4.84508097968388E-02 
888	 4.84218991251494E-02 
889	 4.81871682325154E-02 
890	 4.79053845736601E-02 
891	 4.77423260695611E-02 
892	 4.76430061260296E-02 
893	 4.71137580639911E-02 
894	 4.60481503329188E-02 
895	 4.60937605593591E-02 
896	 4.77227046536979E-02 
897	 0.045573741326672 
898	 4.54817629945741E-02 
899	 4.63331825769311E-02 
900	 4.54798097055316E-02 
901	 4.48734336459471E-02 
902	 4.53964846557174E-02 
903	 4.58186423637946E-02 
904	 4.47066893517151E-02 
905	 4.36477838427628E-02 
906	 4.30394832936005E-02 
907	 0.042959034995144 
908	 4.31554490498874E-02 
909	 4.32378309838732E-02 
910	 0.042980950826186 
911	 4.26018929550316E-02 
912	 4.24934438388009E-02 
913	 4.09485910876436E-02 
914	 4.03203904578064E-02 
915	 4.08746377555796E-02 
916	 4.02646456808789E-02 
917	 4.21068237712982E-02 
918	 4.24755065443979E-02 
919	 4.05009827527833E-02 
920	 4.01563592480356E-02 
921	 4.06141909089093E-02 
922	 4.07050214526677E-02 
923	 4.01025539302507E-02 
924	 4.05616182784919E-02 
925	 3.96256733600774E-02 
926	 3.83466153799889E-02 
927	 0.038391319149566 
928	 3.87641458322068E-02 
929	 3.79437442059023E-02 
930	 3.76675442123955E-02 
931	 4.07252094009731E-02 
932	 3.72224435293216E-02 
933	 4.01258270420766E-02 
934	 4.27988446878231E-02 
935	 3.44204883975453E-02 
936	 4.05437799631437E-02 
937	 3.26374131088248E-02 
938	 2.31221311676494E-02 
939	 2.86555054242497E-02 
940	 3.31704534304132E-02 
941	 0.034314518301782 
942	 3.21911586485962E-02 
943	 2.87692035291822E-02 
944	 2.76935655786436E-02 
945	 2.93344459546116E-02 
946	 2.97510438971346E-02 
947	 2.55824705825962E-02 
948	 2.82968624074594E-02 
949	 2.75031942066168E-02 
950	 2.68191989037422E-02 
951	 3.47727465921756E-02 
952	 3.18054468352228E-02 
953	 3.25318409676938E-02 
954	 0.035783685988718 
955	 3.10813471952667E-02 
956	 2.99105020558826E-02 
957	 2.66088205711343E-02 
958	 2.41310449942416E-02 
959	 2.92284993591155E-02 
960	 2.90814101450224E-02 
961	 2.67589224913616E-02 
962	 2.66221997226188E-02 
963	 0.030766990715096 
964	 3.07938691690514E-02 
965	 2.95817393101199E-02 
966	 3.00064126175366E-02 
967	 3.29691017380166E-02 
968	 3.06619673290888E-02 
969	 2.94909972021656E-02 
970	 3.03010378739139E-02 
971	 2.89421183745611E-02 
972	 2.97189577284789E-02 
973	 3.00794679171718E-02 
974	 2.96096289274915E-02 
975	 0.03016362829753 
976	 2.76563663103751E-02 
977	 2.71673965572129E-02 
978	 2.93773705940462E-02 
979	 3.05583648664946E-02 
980	 0.030227547889855 
981	 3.17858121379786E-02 
982	 3.33824661331868E-02 
983	 3.02128413109979E-02 
984	 2.79732694152295E-02 
985	 2.87653627643094E-02 
986	 3.05840582050502E-02 
987	 2.94620077102671E-02 
988	 2.78214489906328E-02 
989	 3.02055545603906E-02 
990	 3.32427729968936E-02 
991	 2.98085930716891E-02 
992	 2.85288878248485E-02 
993	 2.90257979322391E-02 
994	 2.99296584820783E-02 
995	 0.030124388618541 
996	 3.12567523104764E-02 
997	 3.30866517358432E-02 
998	 3.36823032511109E-02 
999	 3.14928137168867E-02 
1000	 3.18740136957011E-02 
1001	 3.09650954772878E-02 
1002	 2.94183978867636E-02 
1003	 2.91053941660209E-02 
1004	 0.029287167515209 
1005	 2.94868089106487E-02 
1006	 3.04526470146938E-02 
1007	 0.030921285879518 
1008	 3.09500127903533E-02 
1009	 3.06924908748874E-02 
1010	 3.06961310851677E-02 
1011	 3.13969023346513E-02 
1012	 3.16385076236646E-02 
1013	 3.14728831857754E-02 
1014	 0.031406859024216 
1015	 3.06056720940746E-02 
1016	 0.030501182079982 
1017	 3.10961405885143E-02 
1018	 3.13602828076576E-02 
1019	 3.14073023085812E-02 
1020	 3.15062342458713E-02 
1021	 3.19126874570024E-02 
1022	 3.16365555106969E-02 
1023	 3.13989701751329E-02 
1024	 3.24530286466542E-02 
1025	 3.24318486462799E-02 
1026	 3.24718474998094E-02 
1027	 3.24993070753717E-02 
1028	 3.21267803423528E-02 
1029	 0.032042158555326 
1030	 3.22833957639147E-02 
1031	 3.22556845814328E-02 
1032	 0.031960147112553 
1033	 3.20306850565448E-02 
1034	 3.22767041751707E-02 
1035	 3.24586392412933E-02 
1036	 3.28061356322694E-02 
1037	 3.31116196086024E-02 
1038	 3.35564753153954E-02 
1039	 0.033582074797763 
1040	 3.37462632573756E-02 
1041	 3.37952837144043E-02 
1042	 3.36950398021369E-02 
1043	 3.32542782947553E-02 
1044	 3.32065108925744E-02 
1045	 3.31536143618056E-02 
1046	 3.33324795004825E-02 
1047	 3.38577357414742E-02 
1048	 3.41368923868971E-02 
1049	 3.46108337430722E-02 
1050	 3.46532114000342E-02 
1051	 3.40433318852854E-02 
1052	 3.40814546838045E-02 
1053	 0.034454050550148 
1054	 0.03455746894004 
1055	 3.51954832272086E-02 
1056	 3.53019812327401E-02 
1057	 3.50569751441413E-02 
1058	 3.40187641616502E-02 
1059	 3.37477537863402E-02 
1060	 3.32952226148899E-02 
1061	 3.35230106617162E-02 
1062	 3.47046379854421E-02 
1063	 3.49064609339538E-02 
1064	 3.49860183737254E-02 
1065	 3.50695679734903E-02 
1066	 3.43476304123345E-02 
1067	 3.43549500380457E-02 
1068	 3.53941611712312E-02 
1069	 3.54629075757949E-02 
1070	 3.49680470730156E-02 
1071	 3.48632863622858E-02 
1072	 3.41939703330607E-02 
1073	 3.40510639748872E-02 
1074	 3.40088314648375E-02 
1075	 3.45333225456451E-02 
1076	 3.46332061244685E-02 
1077	 3.47040604679281E-02 
1078	 3.45271571840025E-02 
1079	 3.42445867872351E-02 
1080	 3.39505065291687E-02 
1081	 3.31469525835656E-02 
1082	 3.29332584910529E-02 
1083	 3.28316841992547E-02 
1084	 3.30841174488814E-02 
1085	 3.45106367642237E-02 
1086	 3.48230270419942E-02 
1087	 3.46783677430077E-02 
1088	 3.45792678689357E-02 
1089	 3.38357329200094E-02 
1090	 3.28022582372887E-02 
1091	 3.24737221163275E-02 
1092	 3.25768570583001E-02 
1093	 0.032682319018542 
1094	 3.31816197043431E-02 
1095	 3.34173988766951E-02 
1096	 0.033759102063126 
1097	 3.39138260546066E-02 
1098	 3.41078017019202E-02 
1099	 3.37327573903658E-02 
1100	 3.25408840732098E-02 
1101	 0.03218953797858 
1102	 3.21742312984714E-02 
1103	 3.16246934973675E-02 
1104	 3.10211027227707E-02 
1105	 3.05098426221213E-02 
1106	 3.11774373549857E-02 
1107	 3.19003562236523E-02 
1108	 3.17740887101514E-02 
1109	 3.23427738257064E-02 
1110	 3.19900976135999E-02 
1111	 2.78333989765121E-02 
1112	 2.73090407390068E-02 
1113	 3.04822130809548E-02 
1114	 3.13035496602107E-02 
1115	 3.28949517258607E-02 
1116	 3.38613868673325E-02 
1117	 3.22203112811097E-02 
1118	 3.11062965677086E-02 
1119	 3.01025619541361E-02 
1120	 2.93918225990627E-02 
1121	 2.84689212235311E-02 
1122	 2.71892107288886E-02 
1123	 2.47297566387234E-02 
1124	 2.11854048681932E-02 
1125	 2.53707362131555E-02 
1126	 3.14476319644156E-02 
1127	 3.40750599462361E-02 
1128	 4.72102593559942E-02 
1129	 4.53034223487797E-02 
1130	 2.52247533398976E-02 
1131	 2.11868305118948E-02 
1132	 2.05621713257116E-02 
1133	 2.17428011360269E-02 
1134	 2.94334400224129E-02 
1135	 3.41241193577974E-02 
1136	 4.08078638088397E-02 
1137	 3.96047293834056E-02 
1138	 3.16975727429445E-02 
1139	 3.09257909955379E-02 
1140	 2.93979256917196E-02 
1141	 2.61131264299302E-02 
1142	 3.00142783243525E-02 
1143	 3.27275859945146E-02 
1144	 3.48066331211679E-02 
1145	 3.32954587407325E-02 
1146	 2.88719018385045E-02 
1147	 3.21708828841495E-02 
1148	 3.36439677235426E-02 
1149	 3.04189885099699E-02 
1150	 2.80789568480724E-02 
1151	 2.46930111275644E-02 
1152	 2.24929716164224E-02 
1153	 0.019864916520467 
1154	 2.05580351019709E-02 
1155	 2.34474684685076E-02 
1156	 2.40831876202219E-02 
1157	 2.46770772044325E-02 
1158	 2.59188463310081E-02 
1159	 2.48756808428839E-02 
1160	 2.30743541098156E-02 
1161	 2.28377714772886E-02 
1162	 2.35371954863296E-02 
1163	 2.51242835497985E-02 
1164	 2.60316517073046E-02 
1165	 2.63140684818619E-02 
1166	 2.62241280654469E-02 
1167	 2.48751877326274E-02 
1168	 2.47521810510312E-02 
1169	 2.54561981490554E-02 
1170	 2.49020596127346E-02 
1171	 2.47904322796567E-02 
1172	 2.52468141996245E-02 
1173	 2.51745250014497E-02 
1174	 2.46244326582393E-02 
1175	 2.45610691464031E-02 
1176	 2.51479377934995E-02 
1177	 2.54045299231702E-02 
1178	 2.47191163040381E-02 
1179	 2.41569857616363E-02 
1180	 0.024216183296251 
1181	 2.48103598978567E-02 
1182	 2.58307160561175E-02 
1183	 2.61979117387731E-02 
1184	 2.55656765795089E-02 
1185	 2.46496760735465E-02 
1186	 0.024603161957504 
1187	 2.58235993055445E-02 
1188	 2.63984182506674E-02 
1189	 2.56985232666792E-02 
1190	 2.52793212723556E-02 
1191	 2.55663940907573E-02 
1192	 2.55574910485186E-02 
1193	 0.025840078594 
1194	 2.59547725315481E-02 
1195	 0.02594164443567 
1196	 2.57070760170781E-02 
1197	 2.53669951461409E-02 
1198	 2.55673024656825E-02 
1199	 2.61123733318959E-02 
1200	 2.60040494468194E-02 
1201	 2.54458137318242E-02 
1202	 2.56221001007175E-02 
1203	 2.56900632144238E-02 
1204	 2.51621603691905E-02 
1205	 2.52470719918939E-02 
1206	 2.52662330898981E-02 
1207	 2.50427313523453E-02 
1208	 2.53830564627511E-02 
1209	 2.52917843852667E-02 
1210	 2.47952360977186E-02 
1211	 2.50211700615168E-02 
1212	 2.53684252297595E-02 
1213	 2.50828073430878E-02 
1214	 2.50688854026828E-02 
1215	 2.54687628176721E-02 
1216	 2.58379956649784E-02 
1217	 2.52004251947504E-02 
1218	 2.46655288871423E-02 
1219	 0.024829079634508 
1220	 2.51366112095272E-02 
1221	 0.025354324098889 
1222	 2.55590304293953E-02 
1223	 2.57437340569601E-02 
1224	 2.54412588821074E-02 
1225	 2.55766067558873E-02 
1226	 2.63271823477815E-02 
1227	 2.63789484862365E-02 
1228	 2.59722640684504E-02 
1229	 2.55136622304242E-02 
1230	 2.53221243189737E-02 
1231	 2.54230683229821E-02 
1232	 2.55770499979097E-02 
1233	 2.57593869313188E-02 
1234	 0.025632338616607 
1235	 2.54923141325931E-02 
1236	 2.52919794012296E-02 
1237	 0.025308340579342 
1238	 2.52759331934773E-02 
1239	 0.025411209919864 
1240	 2.55703784406604E-02 
1241	 2.58741834018315E-02 
1242	 2.56552854960313E-02 
1243	 2.54319197644241E-02 
1244	 2.54537517307919E-02 
1245	 2.50280103469276E-02 
1246	 2.47865130496621E-02 
1247	 2.46489196955596E-02 
1248	 2.48145855680213E-02 
1249	 2.54204702267516E-02 
1250	 2.57456299269425E-02 
1251	 2.57756491656711E-02 
1252	 2.54435924031542E-02 
1253	 2.51752545226136E-02 
1254	 2.52070205227246E-02 
1255	 2.50791602963306E-02 
1256	 0.024978225320026 
1257	 2.47925521030061E-02 
1258	 2.48330560776092E-02 
1259	 2.50431465049759E-02 
1260	 2.50993449406158E-02 
1261	 0.025028832528191 
1262	 2.51937022998524E-02 
1263	 2.52923880251564E-02 
1264	 2.57681262703386E-02 
1265	 2.64092783300109E-02 
1266	 2.66868901246104E-02 
1267	 2.63331344726361E-02 
1268	 2.61926265558108E-02 
1269	 2.58674058694334E-02 
1270	 2.53298956202398E-02 
1271	 2.55241322765719E-02 
1272	 0.025677128104473 
1273	 0.025267570770155 
1274	 2.54919702756105E-02 
1275	 2.57222034129391E-02 
1276	 2.53713728197209E-02 
1277	 0.025778748543969 
1278	 2.62979201795383E-02 
1279	 2.60259170097685E-02 
1280	 2.58071209038865E-02 
1281	 0.025665533814068 
1282	 2.52231758417003E-02 
1283	 2.49586028603828E-02 
1284	 0.024884490655922 
1285	 2.48537408899888E-02 
1286	 2.48663511458326E-02 
1287	 2.49891537519249E-02 
1288	 2.55349583472679E-02 
1289	 2.55229705309265E-02 
1290	 0.025073023960425 
1291	 2.47763251954589E-02 
1292	 2.51155713608093E-02 
1293	 2.57265291958266E-02 
1294	 2.64180706358897E-02 
1295	 2.63992047397247E-02 
1296	 2.56689149208285E-02 
1297	 2.51760568360743E-02 
1298	 2.48563832128518E-02 
1299	 2.47036812136547E-02 
1300	 2.46490094570891E-02 
1301	 2.44909282635312E-02 
1302	 2.44983690366895E-02 
1303	 2.42942729413746E-02 
1304	 0.024463961177981 
1305	 2.49243238758915E-02 
1306	 2.47233867154288E-02 
1307	 2.42148337799635E-02 
1308	 2.43348999970553E-02 
1309	 2.39230569852915E-02 
1310	 2.36590239723293E-02 
1311	 2.45951442331123E-02 
1312	 0.024763193710295 
1313	 2.35946760449684E-02 
1314	 2.36143499176125E-02 
1315	 2.52025109659133E-02 
1316	 2.51914609932678E-02 
1317	 2.39112392987357E-02 
1318	 2.39809366397913E-02 
1319	 2.39534273347866E-02 
1320	 2.36655049685356E-02 
1321	 0.024020881180449 
1322	 2.50993259999221E-02 
1323	 2.59143612928783E-02 
1324	 2.50541423085614E-02 
1325	 2.26022697078594E-02 
1326	 2.25408983796751E-02 
1327	 0.023586168808516 
1328	 2.14856640503475E-02 
1329	 2.02104995364522E-02 
1330	 0.021692781105294 
1331	 2.11062614873184E-02 
1332	 2.00461161382154E-02 
1333	 1.96429837067606E-02 
1334	 1.99542106202444E-02 
1335	 2.14509569542922E-02 
1336	 2.48233565622502E-02 
1337	 2.46881438452128E-02 
1338	 2.34125832334529E-02 
1339	 0.02362741689878 
1340	 0.022054160125278 
1341	 0.020445135388376 
1342	 2.08731674706843E-02 
1343	 2.09116013652465E-02 
1344	 1.56036339306139E-02 
1345	 1.50876628552907E-02 
1346	 2.87425393333759E-02 
1347	 3.01616883717659E-02 
1348	 1.36202393707265E-02 
1349	 1.16153026594305E-02 
1350	 1.01152531267986E-02 
1351	-2.63094447434698E-03 
1352	 7.66155582776742E-03 
1353	 0.024718871856762 
1354	 9.47621467627952E-03 
1355	-1.24197967834576E-02 
1356	 6.04577440501663E-02 
1357	 0.155534981827245 
1358	 3.69859339838857E-02 
1359	-0.123263837041103 
1360	 3.43609424311307E-02 
1361	 0.418958310349904 
1362	 0.40579896242281 
1363	 0.165909295286736 
1364	 0.120464881657862 
1365	-0.347687149278983 
1366	-0.272464233242804 
1367	 0.326490003138357 
1368	 0.564392911528315 
1369	 0.565855583787423 
1370	 0.477024172769293 
1371	 0.391303345829787 
1372	 0.297230421717484 
1373	-0.297506150976225 
1374	-0.363804974965291 
1375	 1.37759448957325 
1376	 1.59900033872884 
1377	 0.313461993235051 
1378	 0.329979878130615 
1379	 0.363156406948834 
1380	 0.201143585515832 
1381	-0.151258246634186 
1382	-0.19906907966021 
1383	-0.43543524845574 
1384	-0.664725539796694 
1385	 1.65885041155022 
1386	-20.1317029882395 
1387	 2.96070353451769 
1388	 1.64901596059159 
1389	 1.5041699910012 
1390	 0.958457868677139 
1391	-0.374825466159699 
1392	-0.281911987638514 
1393	 0.313220081289908 
1394	-0.529957570254347 
1395	-0.188564754424802 
1396	-3.2257480041973 
1397	 8.1252240518112 
1398	-0.654062633998178 
1399	-0.228838555969807 
1400	-9.63413334474346 
1401	 1.29790308175666 
1402	 1.45501448185636 
1403	 0.282917285930372 
1404	-0.973946363560815 
1405	-0.805271781656771 
1406	-0.494128499945095 
1407	-0.19924960796498 
1408	 0.109282589134359 
1409	 0.233252258559841 
1410	 0.50235970044958 
1411	 0.49474679698487 
1412	-0.136010422512691 
1413	-0.180676383957926 
1414	 0.468564187584187 
1415	 0.403022300175327 
1416	 0.180329152245229 
1417	 0.156892809501008 
1418	-0.195462254599373 
1419	-0.247082568921157 
1420	 0.123663094527487 
1421	 4.56840970829748E-02 
1422	-0.386878287297334 
1423	-0.314594248144959 
1424	-4.84947083271993E-02 
1425	-3.07212928205557E-02 
1426	 2.44826647652459E-02 
1427	 8.79557604350006E-02 
1428	 6.61331522855824E-02 
1429	 2.87954637094926E-02 
1430	 1.11261602837503E-02 
1431	 2.58545697667762E-02 
1432	-1.24608989227412E-03 
1433	-2.77815129681039E-02 
1434	-0.010001313803096 
1435	 2.39117257210157E-02 
1436	 9.11290423686893E-02 
1437	 3.32635170591572E-02 
1438	-8.36604722564994E-02 
1439	 3.55830193980284E-02 
1440	 9.27716978646442E-02 
1441	 2.07050926089285E-02 
1442	 2.32577834784939E-02 
1443	 6.32373924021009E-02 
1444	 6.59776876942786E-02 
1445	 5.96209005048847E-02 
1446	 6.12970358875978E-02 
1447	 5.59579884869682E-02 
1448	 4.15484006860783E-02 
1449	 3.24493790970971E-02 
1450	 4.56732512833195E-02 
1451	 4.64115376974014E-02 
1452	 3.12853974784404E-02 
1453	 3.74625747545498E-02 
1454	 3.03531296620937E-02 
1455	 1.03106734664639E-02 
1456	 7.89687964283648E-03 
1457	 1.19319407580798E-02 
1458	 1.51324484720985E-02 
1459	 2.65200059259909E-02 
1460	 2.56999889911075E-02 
1461	 2.17765319982039E-02 
1462	 0.015255750942575 
1463	-3.44015753855447E-03 
1464	-1.00919798415079E-02 
1465	-1.56304540794087E-02 
1466	-1.45088018812316E-02 
1467	-4.95728492654419E-04 
1468	 5.69388578775357E-03 
1469	 0.015517208779032 
1470	 1.52247762613112E-02 
1471	-1.75165266449449E-03 
1472	 1.89261194093229E-03 
1473	 1.53912441758524E-02 
1474	 2.25564727071491E-02 
1475	 3.90356559476022E-02 
1476	 4.05137506805524E-02 
1477	 3.21339893170348E-02 
1478	 2.52608869024475E-02 
1479	 9.57266451107679E-03 
1480	 8.42458911691022E-03 
1481	 1.62293067225837E-02 
1482	 1.48575927257485E-02 
1483	 1.30609151147915E-02 
1484	 1.54151926783954E-02 
1485	 0.016051258691389 
1486	 1.44695287232806E-02 
1487	 1.44525216495848E-02 
1488	 0.016922448844741 
1489	 2.01928212570007E-02 
1490	 1.88767480706853E-02 
1491	 1.57786223903658E-02 
1492	 1.69272184928536E-02 
1493	 1.78795592898427E-02 
1494	 1.69584027896521E-02 
1495	 1.77337381025284E-02 
1496	 1.92121856385425E-02 
1497	 1.81842019749274E-02 
1498	 1.84048206372981E-02 
1499	 2.25679585462517E-02 
1500	 2.36161351138917E-02 
1501	 2.22203392229428E-02 
1502	 2.14919792688293E-02 
1503	 1.97390343668619E-02 
1504	 1.91422093430582E-02 
1505	 1.92717857886883E-02 
1506	 1.93956810948355E-02 
1507	 1.88786001677665E-02 
1508	 1.88204522162863E-02 
1509	 1.84483265631452E-02 
1510	 1.74347261290804E-02 
1511	 0.01671807437435 
1512	 1.69031560397453E-02 
1513	 1.73113286522868E-02 
1514	 1.74603613271561E-02 
1515	 1.87317490524275E-02 
1516	 1.92208064013552E-02 
1517	 1.72191042856224E-02 
1518	 1.74381001695164E-02 
1519	 1.90591818712249E-02 
1520	 1.86656989684491E-02 
1521	 1.87892283294127E-02 
1522	 1.95643531619644E-02 
1523	 0.018875041167828 
1524	 1.71413121151013E-02 
1525	 1.67061304838472E-02 
1526	 1.72756831204354E-02 
1527	 1.70094967614256E-02 
1528	 1.74217173460578E-02 
1529	 1.83790755950589E-02 
1530	 1.77852556739603E-02 
1531	 1.69365161461825E-02 
1532	 1.78904093589096E-02 
1533	 1.93459367105484E-02 
1534	 1.95128437522861E-02 
1535	 1.86814991174862E-02 
1536	 1.83531838766107E-02 
1537	 1.87815466750155E-02 
1538	 0.018340986667662 
1539	 0.01819441556704 
1540	 1.92589324509055E-02 
1541	 1.95367997541526E-02 
1542	 0.019663483847566 
1543	 2.04819683889298E-02 
1544	 2.00166236459828E-02 
1545	 1.87527662227812E-02 
1546	 1.85620952353952E-02 
1547	 1.91755191559945E-02 
1548	 1.96293346487901E-02 
1549	 1.89751456777018E-02 
1550	 1.84498761185372E-02 
1551	 1.84539571065125E-02 
1552	 1.82345149582989E-02 
1553	 1.88843555362494E-02 
1554	 1.92114458233962E-02 
1555	 1.88804133639016E-02 
1556	 1.85625222020324E-02 
1557	 0.01808079211901 
1558	 1.87131701340503E-02 
1559	 1.94177326881271E-02 
1560	 0.019278428037741 
1561	 1.94902522153043E-02 
1562	 0.019833089891221 
1563	 1.95541826129827E-02 
1564	 1.96894801189783E-02 
1565	 2.06745902392485E-02 
1566	 2.09319427731581E-02 
1567	 2.00870100028999E-02 
1568	 1.93782466369648E-02 
1569	 1.94044065168948E-02 
1570	 1.90974124817309E-02 
1571	 1.87319128234319E-02 
1572	 1.93248733784499E-02 
1573	 1.98173219792367E-02 
1574	 1.94785156776732E-02 
1575	 0.019065526156423 
1576	 1.92599082474274E-02 
1577	 1.90497313393761E-02 
1578	 1.84802642378358E-02 
1579	 1.87807798787526E-02 
1580	 0.018948531303164 
1581	 0.01874996168444 
1582	 1.91110489599948E-02 
1583	 0.019660487685706 
1584	 1.97715568961759E-02 
1585	 1.93789852924507E-02 
1586	 1.91645953080227E-02 
1587	 1.95914608901809E-02 
1588	 1.99429865028648E-02 
1589	 1.96730180189069E-02 
1590	 1.95713046248089E-02 
1591	 2.04968185737005E-02 
1592	 2.07739095993603E-02 
1593	 0.020037493802795 
1594	 2.06428137570399E-02 
1595	 2.08345673139087E-02 
1596	 2.05432118448724E-02 
1597	 2.17759073970476E-02 
1598	 2.18304580405748E-02 
1599	 2.05471083384111E-02 
1600	 1.96277591637394E-02 
1601	 0.019675154129143 
1602	 2.00042091025889E-02 
1603	 1.94546740605696E-02 
1604	 1.96255479594122E-02 
1605	 2.01077310714943E-02 
1606	 2.02378648514381E-02 
1607	 2.02959290843998E-02 
1608	 1.97770529318167E-02 
1609	 1.94514816853524E-02 
1610	 1.93729951634169E-02 
1611	 2.01885685788766E-02 
1612	 2.07396426206466E-02 
1613	 1.97974419266458E-02 
1614	 1.98172181120959E-02 
1615	 0.019973236315678 
1616	 1.97268327369103E-02 
1617	 2.03688531930422E-02 
1618	 2.03834373395081E-02 
1619	 1.97677131765403E-02 
1620	 2.01147076288721E-02 
1621	 2.05341390241758E-02 
1622	 1.99026452354293E-02 
1623	 1.94000041193893E-02 
1624	 1.97368733604145E-02 
1625	 1.99853244490719E-02 
1626	 1.97535517236616E-02 
1627	 1.98734044623628E-02 
1628	 2.02135362791282E-02 
1629	 1.99647596149592E-02 
1630	 2.01855649883267E-02 
1631	 2.11539279480339E-02 
1632	 2.12587124975225E-02 
1633	 2.13974876390545E-02 
1634	 2.18633078377084E-02 
1635	 2.11559549537522E-02 
1636	 2.03487998163346E-02 
1637	 1.99689647298293E-02 
1638	 2.01343214662549E-02 
1639	 2.12744779947249E-02 
1640	 2.16767623324408E-02 
1641	 2.11956966158019E-02 
1642	 2.08124263362098E-02 
1643	 0.01999032216748 
1644	 1.97097239498501E-02 
1645	 2.06811531751374E-02 
1646	 2.08446567165754E-02 
1647	 2.00549356277145E-02 
1648	 2.04189639899894E-02 
1649	 2.06903213846447E-02 
1650	 0.02018647452524 
1651	 2.11064781346243E-02 
1652	 2.16892046433869E-02 
1653	 2.03653652986425E-02 
1654	 2.04169705389956E-02 
1655	 2.10459526611523E-02 
1656	 0.020543682249529 
1657	 1.99290174340802E-02 
1658	 2.00381571108565E-02 
1659	 1.94634752374861E-02 
1660	 1.92627598590535E-02 
1661	 2.03038772620978E-02 
1662	 2.07442534459625E-02 
1663	 2.07742622233567E-02 
1664	 2.07826534783686E-02 
1665	 0.020687655500748 
1666	 2.05815989283239E-02 
1667	 0.020003051456466 
1668	 2.16676185542094E-02 
1669	 2.17683529596857E-02 
1670	 2.02335120700155E-02 
1671	 2.02360026906915E-02 
1672	 1.98083862142514E-02 
1673	 1.96248932994682E-02 
1674	 2.14300954621375E-02 
1675	 2.17037507744927E-02 
1676	 2.01400473440537E-02 
1677	 0.020369232402035 
1678	 2.10965849019448E-02 
1679	 2.01333122947778E-02 
1680	 1.94401497600764E-02 
1681	 2.00117913667136E-02 
1682	 2.07368516653888E-02 
1683	 2.10922373849538E-02 
1684	 2.24276178255295E-02 
1685	 2.29306177281815E-02 
1686	 2.08158340002006E-02 
1687	 1.98787679245768E-02 
1688	 2.07236769720091E-02 
1689	 2.00443688027473E-02 
1690	 1.82870206006883E-02 
1691	 1.83664881871006E-02 
1692	 1.86614034713983E-02 
1693	 1.76181101990265E-02 
1694	 1.89848379805668E-02 
1695	 2.05151689919356E-02 
1696	 1.94593969343063E-02 
1697	 2.01517008608488E-02 
1698	 2.12366945055033E-02 
1699	 2.06846706938549E-02 
1700	 2.04564210518161E-02 
1701	 2.01256139933422E-02 
1702	 1.97425834551406E-02 
1703	 2.06518673412586E-02 
1704	 2.15781290520017E-02 
1705	 2.10524344668721E-02 
1706	 2.09782758754102E-02 
1707	 2.04258753697349E-02 
1708	 1.91540497691351E-02 
1709	 2.03936415587319E-02 
1710	 2.15598025639301E-02 
1711	 2.09316443894915E-02 
1712	 2.15633151291678E-02 
1713	 2.16388479412754E-02 
1714	 2.15284512037338E-02 
1715	 0.021119794682902 
1716	 2.10572404868831E-02 
1717	 0.020684759873991 
1718	 0.019400925444063 
1719	 1.96346688036487E-02 
1720	 1.95211540560629E-02 
1721	 1.92896203959712E-02 
1722	 2.00483120958202E-02 
1723	 2.11345415270903E-02 
1724	 0.022017018954888 
1725	 2.17274336296447E-02 
1726	 2.07818641595965E-02 
1727	 1.94143212051611E-02 
1728	 1.83833240789859E-02 
1729	 1.88446263833946E-02 
1730	 1.89961018619108E-02 
1731	 1.85562396330839E-02 
1732	 1.86474681615881E-02 
1733	 1.80556053353719E-02 
1734	 1.80834248090984E-02 
1735	 1.95095820246846E-02 
1736	 1.94387593592247E-02 
1737	 1.87254978083233E-02 
1738	 1.98072257676398E-02 
1739	 2.21263505685114E-02 
1740	 2.30889453479218E-02 
1741	 2.27889659938036E-02 
1742	 2.21612679017465E-02 
1743	 2.02910052254104E-02 
1744	 1.98092876893192E-02 
1745	 1.99320137804231E-02 
1746	 1.89583225167073E-02 
1747	 1.87189693033405E-02 
1748	 1.95527379367253E-02 
1749	 1.93323361872204E-02 
1750	 1.80758196853065E-02 
1751	 1.77804082890846E-02 
1752	 1.60644071241405E-02 
1753	 1.70183199052021E-02 
1754	 2.20254062675578E-02 
1755	 2.29817219568193E-02 
1756	 2.37254632159072E-02 
1757	 2.17283540410592E-02 
1758	 1.89474235715535E-02 
1759	 1.99271101329946E-02 
1760	 1.99061332923622E-02 
1761	 2.01357689803781E-02 
1762	 1.89074681300764E-02 
1763	 1.69126059594482E-02 
1764	 1.60037499249175E-02 
1765	 1.43705827413798E-02 
1766	 1.69704329727452E-02 
1767	 2.15542471113752E-02 
1768	 2.16161036313818E-02 
1769	 1.87886191233622E-02 
1770	 1.65813663112955E-02 
1771	 1.32222409235877E-02 
1772	 1.33379291223283E-02 
1773	 2.10380785296027E-02 
1774	 2.31597761488388E-02 
1775	 2.10475030055762E-02 
1776	 1.97765442430124E-02 
1777	 0.015294016169596 
1778	 0.014892525327506 
1779	 1.76316524778501E-02 
1780	 1.62214344794708E-02 
1781	 1.02546795527581E-02 
1782	 1.20364447159099E-02 
1783	 1.94829359796098E-02 
1784	 2.33620926598983E-02 
1785	 0.037751733316127 
1786	 3.72299533112677E-02 
1787	 1.69054357849753E-02 
1788	 1.25043793245995E-02 
1789	 6.61467881377407E-03 
1790	 3.82610008548748E-03 
1791	 1.80929762899352E-02 
1792	 1.45994586528229E-02 
1793	 1.96689781298783E-02 
1794	 3.00541391138337E-02 
1795	 1.18175095114453E-02 
1796	 2.40803008146507E-03 
1797	 7.87033817221463E-03 
1798	 2.00521305124709E-03 
1799	 1.07148760660736E-02 
1800	 2.28482686204147E-03 
1801	-0.012216609979866 
1802	-2.47611989545711E-02 
1803	-3.29491474245296E-02 
1804	-3.76867337934008E-02 
1805	-5.12060417182885E-02 
1806	-8.42460674624825E-02 
1807	-0.114732955539 
1808	-0.172122597833414 
1809	-0.252764741111387 
1810	-0.275488783360141 
1811	-0.324597795286453 
1812	-0.344756837632653 
1813	-0.308442181956919 
1814	-0.169243253035149 
1815	-1.26567557041833E-03 
1816	 0.457793996105847 
1817	 0.402211796904021 
1818	 5.09154785048469E-02 
1819	 0.215921281410765 
1820	 0.796485239022294 
1821	 0.304496873664475 
1822	 0.26219045498788 
1823	-7.41983974744084E-02 
1824	-0.175793897669213 
1825	-0.336003698089422 
1826	-0.434663275782837 
1827	-0.684898803724268 
1828	-0.74589243199301 
1829	-2.71724060485237 
1830	-4.64418197847807 
1831	 6.76200650545333 
1832	 1.73047800676756 
1833	 7.58961279541142E-02 
1834	-0.15618204303054 
1835	 0.12598937360757 
1836	 0.148508314769676 
1837	 0.500000263905922 
1838	 0.843801872261835 
1839	-2.99496290619029 
1840	-1.17268177948981 
1841	-0.924202567242228 
1842	 2.28638477584864 
1843	 8.30679017184129 
1844	-0.214600594362918 
1845	 0.282531072829229 
1846	 0.766942001302967 
1847	 1.0267103752622 
1848	 1.74865725917374 
1849	-6.74113587813965 
1850	-2.95063087966973 
1851	-1.01354624931726 
1852	 1.92475901621066E-02 
1853	 0.095985135049855 
1854	 0.245337280151934 
1855	 0.565817597452694 
1856	 0.659216126801325 
1857	-0.039487029579284 
1858	-0.153611877306589 
1859	 2.05756617288725 
1860	-4.91506786563022 
1861	-2.96941374903067 
1862	-1.65829107709284 
1863	-0.618238306318218 
1864	-0.525109943232093 
1865	-0.397552827992298 
1866	 4.7961958972082E-04 
1867	 0.208036074704309 
1868	 0.302683070996517 
1869	 0.307267817418237 
1870	 2.55290310486475E-02 
1871	 0.237223277568092 
1872	 0.303944228196185 
1873	 0.891663374668655 
1874	 5.99641602976531 
1875	 1.30601580737378 
1876	 1.1216299522905 
1877	 4.32359493415461 
1878	-5.6199257437683 
1879	 0.681991918424414 
1880	 0.968135705134074 
1881	 0.621296827970654 
1882	 0.703043772600591 
1883	 1.09395375009833 
1884	 0.866220525544206 
1885	 0.235964166833699 
1886	-0.116928548167353 
1887	-0.236354839587544 
1888	 0.943530305459806 
1889	 1.63310166898431 
1890	 2.77542053746562 
1891	 3.80471747293796 
1892	 5.42464948331691 
1893	 1.8131272644704 
1894	-0.222052395363247 
1895	 7.16980966591143 
1896	 2.2135523670844 
1897	 3.5307690387554 
1898	 2.78180891281055 
1899	 0.237156352678961 
1900	-1.67110768539026E-02 
1901	 0.829452477347448 
1902	 0.886638105458166 
1903	 0.197799726369372 
1904	-0.685184927519927 
1905	-1.35420505241038 
1906	-2.4382851190829 
1907	-2.64537776619732 
1908	 3.49875007186856 
1909	 3.76123321257673 
1910	 1.90227583258581 
1911	 2.99813326591841 
1912	-2.58935397733625 
1913	-1.04106573103684 
1914	 1.22158944085069 
1915	 1.39741713365917 
1916	 0.888228409329637 
1917	 1.29116417126255 
1918	 117.24821194348 
1919	-2.19320447390154 
1920	 21.6314603478003 
1921	 1.2118056160579 
1922	 0.292766145635766 
1923	 0.136826111967401 
1924	 0.148824338872491 
1925	 0.244502822783565 
1926	 0.271708214053141 
1927	 0.12565922393813 
1928	 2.54882712856394 
1929	 0.158312136324293 
1930	 0.385378063364931 
1931	 0.717867288102172 
1932	 5.46278770486483 
1933	-6.06905348578394 
1934	-1.08185034871704 
1935	-0.655280014944843 
1936	-11.4745389850156 
1937	 75.0724379918396 
1938	-8.11039774031303 
1939	-19.5468859864211 
1940	 6.83538564281704 
1941	 1.19497130242282 
1942	 0.586886909188765 
1943	 0.69827361605264 
1944	 0.745838217901638 
1945	 1.13173306681309 
1946	 1.51130566990522 
1947	 0.641188726838625 
1948	-0.212041321952879 
1949	-0.147864727076316 
1950	 0.34643565755489 
1951	 0.230624547032189 
1952	 0.339592752583609 
1953	 0.872694952512211 
1954	 1.33531305856541 
1955	 0.396584897376368 
1956	 0.599060164618503 
1957	 0.813509557345184 
1958	 0.457951347615365 
1959	 0.458920004776453 
1960	 0.255994789748884 
1961	 7.58432869222425E-02 
1962	 0.153685342122601 
1963	 9.64356697080168E-02 
1964	 0.105809623001773 
1965	 0.166513785796186 
1966	 0.155988913039042 
1967	 9.55599027817309E-02 
1968	 7.54705766498718E-02 
1969	 5.00756275912896E-02 
1970	 2.31363572802441E-02 
1971	 0.034910932442084 
1972	 1.71358870214938E-02 
1973	 1.85611826068914E-02 
1974	 3.21952369124836E-02 
1975	-1.31060767745567E-02 
1976	-3.15098853691158E-02 
1977	-2.31581285983295E-02 
1978	-2.18138607156242E-02 
1979	-3.31992435927726E-03 
1980	 3.44134655787628E-02 
1981	 0.0764949431548 
1982	 8.89540153867195E-02 
1983	 8.01427417595921E-02 
1984	 6.63200746287068E-02 
1985	 4.56844460860173E-02 
1986	 3.23752611972222E-02 
1987	 2.48717022935088E-02 
1988	 2.68478779821553E-02 
1989	 3.14339060312136E-02 
1990	 2.61958763604546E-02 
1991	 2.86263942978225E-02 
1992	 2.88860156222091E-02 
1993	 1.49063179590001E-02 
1994	 1.93268562882638E-03 
1995	-1.66371028082894E-02 
1996	-2.35480242982059E-02 
1997	-1.60235861679622E-02 
1998	-0.015424830525657 
1999	-6.15071252175232E-03 
2000	 1.72092630206031E-02 
2001	 0.010322303127228 
2002	-3.38544309652689E-03 
2003	 3.47496310228943E-02 
2004	 8.90165307531849E-02 
2005	 0.106322285242218 
2006	 0.132492016792752 
2007	 0.138534470304409 
2008	 9.69514503436533E-02 
2009	 7.66752635621149E-02 
2010	 5.88872737081138E-02 
2011	 5.10681230221302E-02 
2012	 4.87392757083855E-02 
2013	 0.043397336189034 
2014	 4.73982707483673E-02 
2015	 3.61838380354328E-02 
2016	 1.87923836988528E-02 
2017	 3.31324089167149E-02 
2018	 5.23944505269609E-02 
2019	 4.70704394708071E-02 
2020	 3.84839851564626E-02 
2021	 2.54124704819366E-02 
2022	 1.53587045912951E-03 
2023	-2.94724781047118E-03 
2024	-5.68919415054027E-03 
2025	-0.007278387879701 
2026	-2.62837436543979E-03 
2027	 0.01098657942355 
2028	 1.28509862830427E-02 
2029	 1.23537495073013E-02 
2030	 2.26780163869091E-02 
2031	 2.34765511733345E-02 
2032	 1.65949557427945E-02 
2033	 1.81627537082004E-02 
2034	 2.03699363762948E-02 
2035	 1.80171216648271E-02 
2036	 2.11992338712036E-02 
2037	 2.27269014728135E-02 
2038	 1.96611459864434E-02 
2039	 1.94876985338233E-02 
2040	 2.19402201896511E-02 
2041	 2.00502209415207E-02 
2042	 1.49112510713266E-02 
2043	 0.013801012170243 
2044	 1.23846301017674E-02 
2045	 7.59888419629526E-03 
2046	 1.13735031950569E-02 
2047	 1.87618009116371E-02 
2048	 1.61665560324705E-02 
2049	 1.27910916645087E-02 
2050	 9.93344871583975E-03 
2051	 1.33817987714271E-03 
2052	-8.43965946080414E-03 
2053	-4.66497713370471E-03 
2054	 5.02547897777096E-04 
2055	-1.55145807707428E-03 
2056	-7.27123246178459E-04 
2057	 3.31675916390888E-03 
2058	 3.1540843577627E-03 
2059	 1.32089915872915E-03 
2060	 2.44699289241541E-04 
2061	-2.53144522195442E-04 
2062	-6.76108759677698E-03 
2063	-9.01378330294587E-03 
2064	-5.44364738000598E-03 
2065	 1.02479932283849E-02 
2066	 2.83411474094699E-02 
2067	 3.69680432086016E-02 
2068	 3.89286346811043E-02 
2069	 2.98407237508939E-02 
2070	 2.19630785994252E-02 
2071	 1.90350794106328E-02 
2072	 2.20636833300298E-02 
2073	 2.35754233908269E-02 
2074	 2.80753549595145E-02 
2075	 2.67554548782083E-02 
2076	 2.31414083963983E-02 
2077	 1.96600771291408E-02 
2078	 1.01800858385231E-02 
2079	 0.010101782359618 
2080	 1.55176452723877E-02 
2081	 1.89430315091683E-02 
2082	 2.34728092962114E-02 
2083	 0.021459036180645 
2084	 1.33971819700487E-02 
2085	 8.09906722315022E-03 
2086	 2.05844194748058E-03 
2087	 5.01852737061943E-04 
2088	 5.29644423068237E-03 
2089	 4.63667594840182E-03 
2090	 1.28397323837335E-03 
2091	 4.44532693106458E-03 
2092	 6.05329263199477E-03 
2093	 3.85801061999458E-03 
2094	 6.06164226956571E-03 
2095	 1.44526098370502E-02 
2096	 1.62737310548653E-02 
2097	 1.51734679795148E-02 
2098	 1.59429886782291E-02 
2099	 0.015978828767077 
2100	 1.50917386502182E-02 
2101	 1.65275232625925E-02 
2102	 1.47134236691859E-02 
2103	 1.13680486801621E-02 
2104	 1.08616358503289E-02 
2105	 6.24133107986831E-03 
2106	 6.64817024450571E-03 
2107	 7.13288513940684E-03 
2108	 1.61861926987344E-03 
2109	 5.30899874585841E-03 
2110	 1.16813435552091E-02 
2111	 1.53017752713154E-02 
2112	 2.01407281264948E-02 
2113	 2.34406753502776E-02 
2114	 2.36006482732634E-02 
2115	 2.29521381102405E-02 
2116	 2.28216858095312E-02 
2117	 2.14624922132645E-02 
2118	 1.69275515257491E-02 
2119	 1.41716023016639E-02 
2120	 1.09371678526129E-02 
2121	 1.04805683367449E-02 
2122	 9.48018657254276E-03 
2123	 5.29498042887426E-03 
2124	 4.19181747865961E-03 
2125	 6.86480314802608E-03 
2126	 1.04519392216574E-02 
2127	 1.32985477078849E-02 
2128	 1.71311433851598E-02 
2129	 1.73896840404353E-02 
2130	 1.38572479091569E-02 
2131	 1.22640736837127E-02 
2132	 9.43308611726252E-03 
2133	 6.82659970660895E-03 
2134	 7.7409593284591E-03 
2135	 0.013611988034108 
2136	 1.56173305812869E-02 
2137	 1.90543123105775E-02 
2138	 1.94536951477328E-02 
2139	 1.42849392985904E-02 
2140	 1.32673460439129E-02 
2141	 1.39258105484485E-02 
2142	 1.40010904421886E-02 
2143	 1.39130724369499E-02 
2144	 1.92152493902939E-02 
2145	 1.71179830260514E-02 
2146	 0.013441619951783 
2147	 1.54602661508145E-02 
2148	 1.10950281362568E-02 
2149	 8.29909217384772E-03 
2150	 9.50841095725674E-03 
2151	 5.87120341380481E-03 
2152	 6.9437870974872E-03 
2153	 9.94707275608389E-03 
2154	 1.31200140559288E-02 
2155	 1.84415741210523E-02 
2156	 1.75634064258437E-02 
2157	 2.04521298146642E-02 
2158	 0.027778581211367 
2159	 2.84868412533149E-02 
2160	 0.025567595195352 
2161	 2.47883849060833E-02 
2162	 2.07767983803988E-02 
2163	 1.91280801988334E-02 
2164	 2.10357714282547E-02 
2165	 1.96894172961989E-02 
2166	 1.50287450627665E-02 
2167	 1.43267484518943E-02 
2168	 1.36625343729487E-02 
2169	 1.49179431014242E-02 
2170	 2.15832565400834E-02 
2171	 2.42646700000325E-02 
2172	 2.10404337059739E-02 
2173	 0.02275725928214 
2174	 2.57540131297424E-02 
2175	 2.46512925102052E-02 
2176	 2.36599294644662E-02 
2177	 2.23376523860681E-02 
2178	 1.90988834317783E-02 
2179	 1.60830633490171E-02 
2180	 1.58536363528954E-02 
2181	 0.016641792079999 
2182	 1.72792873790569E-02 
2183	 1.86930094078428E-02 
2184	 1.64846264547846E-02 
2185	 9.14023308972883E-03 
2186	 4.53985180722043E-03 
2187	-5.92529860139932E-03 
2188	-6.95865505300438E-03 
2189	 1.54165055311437E-03 
2190	 5.4311406040513E-03 
2191	 1.40387241318653E-02 
2192	 1.61351310468459E-02 
2193	 1.19471034071005E-02 
2194	 1.13962032458079E-02 
2195	 4.68684489997193E-03 
2196	 6.68799600051631E-03 
2197	 1.90752849470945E-02 
2198	 0.021607518198773 
2199	 2.06576360878707E-02 
2200	 3.07925863015473E-02 
2201	 2.89353401522657E-02 
2202	 1.56911534639643E-02 
2203	 9.61346658777328E-03 
2204	 6.47072912430182E-03 
2205	 1.1133895486281E-03 
2206	 5.69391926473605E-03 
2207	 1.19670987863562E-02 
2208	 1.21771161054637E-02 
2209	 1.79294898915618E-02 
2210	 0.018723413972247 
2211	 1.73202760072231E-02 
2212	 2.18603226740025E-02 
2213	 1.40069528492349E-02 
2214	 7.31459814130772E-03 
2215	 7.80075512077842E-03 
2216	 1.19994091727787E-03 
2217	-3.30815630051803E-03 
2218	-4.86983377195406E-03 
2219	-4.32661067752385E-03 
2220	-5.16865551774574E-03 
2221	-3.45470469197144E-03 
2222	 2.54661694050704E-03 
2223	 6.09467734757254E-03 
2224	 9.84758008076812E-03 
2225	 1.26318900536936E-02 
2226	 1.51922431907192E-02 
2227	 1.88787967739715E-02 
2228	 2.19327815425757E-02 
2229	 2.30071448606697E-02 
2230	 2.57554994713051E-02 
2231	 2.59928894195038E-02 
2232	 2.25894038181831E-02 
2233	 1.96973467811885E-02 
2234	 1.30476097017912E-02 
2235	 1.41446705767644E-02 
2236	 1.19921262070975E-02 
2237	 1.03200494468001E-02 
2238	 0.011814162470391 
2239	 1.38267575557891E-02 
2240	 0.017199441602733 
2241	 1.90327609831687E-02 
2242	 1.78651952814421E-02 
2243	 1.11544319121899E-02 
2244	 1.17154753734168E-02 
2245	 1.54916631855974E-02 
2246	 2.04681936304931E-02 
2247	 2.67268700142346E-02 
2248	 2.50059651164626E-02 
2249	 1.65700709306104E-02 
2250	 4.64578817473543E-03 
2251	-8.59596183601802E-04 
2252	 3.2194564736054E-03 
2253	 6.42354537553232E-03 
2254	 1.15934721375083E-02 
2255	 0.019880726740978 
2256	 1.11236874031375E-02 
2257	 2.22367418132456E-03 
2258	 9.07141761659168E-03 
2259	 2.19312626795047E-03 
2260	 6.64012481421959E-04 
2261	 9.10332795539368E-03 
2262	 1.29318704908644E-02 
2263	 1.24830302826931E-02 
2264	 1.35211937076846E-02 
2265	 1.45597877376317E-02 
2266	 1.77011313117416E-02 
2267	 1.74314855442685E-02 
2268	 1.89477124559267E-02 
2269	 2.89489140260985E-02 
2270	 3.40117258007167E-02 
2271	 3.66456731223025E-02 
2272	 3.97055357427431E-02 
2273	 4.69524803759522E-02 
2274	 3.91556195895111E-02 
2275	 1.48484212312146E-02 
2276	 6.0032987496871E-03 
2277	-7.32640514849136E-03 
2278	-1.62417129873879E-02 
2279	-1.26739274688547E-02 
2280	-9.28315085856119E-03 
2281	-1.20635570323078E-02 
2282	 6.38618334819069E-03 
2283	 0.022790483023704 
2284	 2.34321904476312E-02 
2285	 2.98491563524367E-02 
2286	 2.54208110945111E-02 
2287	 0.019318952309794 
2288	 2.76749363976727E-02 
2289	 3.28076087495722E-02 
2290	 3.34388178544024E-02 
2291	 3.51703868433797E-02 
2292	 4.61930785747442E-02 
2293	 3.29945924427323E-02 
2294	 1.79288715028333E-02 
2295	 2.46156920854487E-02 
2296	 7.96033466079827E-03 
2297	 3.01363365921878E-03 
2298	 4.04781951715323E-03 
2299	-1.39680024932266E-02 
2300	-1.95651048220934E-02 
2301	-2.70775110802878E-02 
2302	-2.22758087311298E-02 
2303	 1.52653941805682E-03 
2304	 3.43365396026049E-03 
2305	 1.99936963272538E-02 
2306	 1.99584323566893E-02 
2307	-6.75226285529356E-03 
2308	 8.98964690949008E-03 
2309	 2.31683800272354E-02 
2310	 3.23889086392409E-02 
2311	 3.62336971263101E-02 
2312	 2.63429680332728E-02 
2313	 1.45603881280175E-02 
2314	 1.30447603822285E-02 
2315	 4.41481757008552E-02 
2316	 0.049709399700941 
2317	 4.36020492207408E-02 
2318	 3.37353093596197E-02 
2319	-3.47952394996853E-04 
2320	-1.30143723087951E-02 
2321	-1.78125295254639E-02 
2322	-1.96929410557915E-02 
2323	-6.95510631544912E-03 
2324	 9.68665194625426E-03 
2325	 4.62424632158124E-03 
2326	-0.02196658756257 
2327	-1.77417162883387E-02 
2328	 2.42231891867557E-03 
2329	 5.42525830486602E-03 
2330	 3.04267844388711E-02 
2331	 6.09999315589743E-02 
2332	 6.18670758861488E-02 
2333	 6.08512818687372E-02 
2334	 7.70874721717136E-02 
2335	 0.063638429898598 
2336	 3.83002235958104E-02 
2337	 6.08672788736594E-02 
2338	 6.72947227628811E-02 
2339	 0.038355391540287 
2340	-1.87494010348979E-02 
2341	-7.36419611532219E-02 
2342	-9.61656044732142E-02 
2343	-9.35189896306789E-02 
2344	-2.47489066192333E-02 
2345	 3.96178277247774E-02 
2346	 2.01505123983964E-02 
2347	-2.67420564846019E-02 
2348	-7.88929999683611E-02 
2349	-0.117337151251772 
2350	-9.35386618259191E-02 
2351	 1.38244236288032E-03 
2352	 6.63820324680467E-02 
2353	 0.116279329789359 
2354	 0.125188754120882 
2355	 0.115540509780712 
2356	 8.63412607998138E-02 
2357	 4.25245168473937E-02 
2358	 3.75913933109763E-02 
2359	-6.01238170284867E-03 
2360	 3.31907077022945E-02 
2361	 8.19369237221822E-02 
2362	 5.19168579679123E-02 
2363	 3.72261058942215E-02 
2364	-6.32728435962621E-02 
2365	-0.155446828114265 
2366	-0.167176296938794 
2367	-0.163980347929219 
2368	-0.134822736359249 
2369	-5.48520331510066E-02 
2370	 1.69223616356384E-02 
2371	 0.036250429369023 
2372	 2.88429383698017E-02 
2373	 3.65548002218846E-02 
2374	-9.34761148520094E-02 
2375	-4.71599267853123E-02 
2376	 0.220580671571336 
2377	 0.222406219100544 
2378	 0.163346960150867 
2379	 6.50330901934798E-02 
2380	 6.94659446821531E-03 
2381	 0.281610278250693 
2382	 0.441183113497375 
2383	 0.445541896225628 
2384	 0.435425237045935 
2385	 5.07311315912908E-02 
2386	-0.218398059313191 
2387	-0.257127366360038 
2388	-0.563989596276554 
2389	-0.88454826455483 
2390	-0.739324306832529 
2391	-0.733636843750827 
2392	-0.806817605088786 
2393	-0.746690302134476 
2394	-0.790684643581975 
2395	-0.63979631938559 
2396	-0.279387349779989 
2397	-0.183449351660344 
2398	-0.123112821417254 
2399	-3.31638833934747E-03 
2400	 0.122834240560016 
2401	 0.307350050083961 
2402	 0.42153919392133 
2403	 0.456099623610936 
2404	 0.317884723369591 
2405	 9.94198133135074E-02 
2406	 2.46423374059865E-02 
2407	 0.511765676026841 
2408	 0.682980081621681 
2409	 0.143507910266992 
2410	-1.23592197499769 
2411	-0.943263364331361 
2412	-1.2397072915769 
2413	-0.859365162316685 
2414	-5.19762494733196E-02 
2415	 0.556879237490665 
2416	 0.257599012031804 
2417	 6.64691384465694E-03 
2418	-0.458435393452175 
2419	-0.888359617598149 
2420	-5.62781774629007 
2421	-1.42661831829734 
2422	-0.46812290447797 
2423	-0.542965428420607 
2424	 0.635202046587243 
2425	 2.13513593478064 
2426	-11.169425912975 
2427	 2.32845969895817 
2428	 13.3485778392528 
2429	-0.618800067173399 
2430	 1.96471231910443 
2431	 1.43068573140824 
2432	 0.664152741206711 
2433	 41.5388760252239 
2434	 3.18681859421171 
2435	 1.97157787046843 
2436	 1.30374637996947 
2437	 1.34064677251155 
2438	 1.85126003633541 
2439	 3.59295469029429 
2440	 3.31124608017849 
2441	 1.28866245636636 
2442	 0.679369111534952 
2443	 0.107548757020381 
2444	 2.34367169400077E-02 
2445	-4.03032452660091E-02 
2446	-4.58220328064089E-02 
2447	 5.51327577389444E-02 
2448	 8.62968100536575E-02 
2449	 0.363289320478261 
2450	 0.485882734778638 
2451	-0.105291661436046 
2452	 0.861328725044889 
2453	 1.55201507133246 
2454	 3.88097106521419 
2455	 0.867710750492884 
2456	 3.41110226897426E-02 
2457	-0.198543144297807 
2458	-1.13272404343232E-02 
2459	 0.116849462469923 
2460	 0.148830957844767 
2461	-0.179016994476258 
2462	-0.817832303543114 
2463	-1.87969704536214 
2464	-1.9064866331877 
2465	-0.278017843948904 
2466	 2.09412784828583 
2467	 2.20989567807886 
2468	 1.23001211365725 
2469	 0.400601729930942 
2470	 0.296703482554989 
2471	 0.195247258737806 
2472	 0.418375192918054 
2473	 0.520976722805681 
2474	-3.64013464066404E-02 
2475	 0.106647756546752 
2476	 0.490428554751478 
2477	-1.82732908946397 
2478	-0.251855233077622 
2479	-0.307030892405938 
2480	 1.60236111645807 
2481	 2.43357250453725 
2482	 1.70616187655421 
2483	-1.39646459547751E-02 
2484	-0.300823273152762 
2485	-1.13137410689599 
2486	-1.22860028349681 
2487	-0.828979907596128 
2488	-0.845438839347233 
2489	-0.694855460841399 
2490	-0.465893235652322 
2491	-0.629924233558252 
2492	-0.791766627471348 
2493	-0.909260472245425 
2494	-0.947422404150584 
2495	-0.975077541209403 
2496	-0.874898063838621 
2497	-0.21748903161244 
2498	-0.238634863982859 
2499	-0.606697796390832 
2500	-0.574961640001469 
