Wavelength	rt0704rt00001.asd
350	 4.28904937409146E-02 
351	 4.36394498292179E-02 
352	 4.40172715585386E-02 
353	 4.42200474127559E-02 
354	 4.43843151132808E-02 
355	 4.43596012655463E-02 
356	 4.46672603324201E-02 
357	 4.52576041428374E-02 
358	 4.58825583513662E-02 
359	 0.046385855620375 
360	 4.67421004432436E-02 
361	 4.71013578241654E-02 
362	 4.76962883708566E-02 
363	 4.84568064439396E-02 
364	 0.04873073553581 
365	 4.86358542123789E-02 
366	 4.95331229145795E-02 
367	 0.050138985109846 
368	 5.02827060448939E-02 
369	 5.02659194891235E-02 
370	 5.08935055132227E-02 
371	 5.16801564028106E-02 
372	 5.22785911422997E-02 
373	 5.25534641596496E-02 
374	 5.33632229974982E-02 
375	 5.37260153689935E-02 
376	 5.36464300125624E-02 
377	 5.46855915035983E-02 
378	 0.055307745034015 
379	 5.54680744498675E-02 
380	 5.55504324421065E-02 
381	 5.60876151154964E-02 
382	 5.63294238204781E-02 
383	 5.64812450014615E-02 
384	 5.70919900412528E-02 
385	 5.75725080882532E-02 
386	 5.78654326552495E-02 
387	 5.80844561679692E-02 
388	 0.058462995151181 
389	 5.86831300305615E-02 
390	 5.86576465316818E-02 
391	 5.85440427884549E-02 
392	 5.90174352239724E-02 
393	 0.058905840631836 
394	 5.85171897855384E-02 
395	 5.86042333991775E-02 
396	 5.90580045340593E-02 
397	 5.92117300342144E-02 
398	 5.90167743113651E-02 
399	 5.89548334514739E-02 
400	 5.88747799794288E-02 
401	 5.86547549802749E-02 
402	 5.83378298898334E-02 
403	 5.83458791594379E-02 
404	 5.82507429681115E-02 
405	 5.80086699456071E-02 
406	 5.77205517158227E-02 
407	 5.73885958114404E-02 
408	 5.71821789595598E-02 
409	 5.70624395926923E-02 
410	 5.67915737041294E-02 
411	 5.63918957318029E-02 
412	 5.59187995866228E-02 
413	 5.55103417611012E-02 
414	 5.55361576395125E-02 
415	 5.52659119787527E-02 
416	 5.48001794226426E-02 
417	 5.45279346436014E-02 
418	 5.42543255085062E-02 
419	 5.40958994749966E-02 
420	 5.40103739123063E-02 
421	 5.37736534723135E-02 
422	 5.34182237292241E-02 
423	 5.32313017561021E-02 
424	 5.33299989546941E-02 
425	 5.32278237466387E-02 
426	 5.30626896433716E-02 
427	 5.30121498596764E-02 
428	 5.32027183532041E-02 
429	 5.32262028718895E-02 
430	 5.32088102605567E-02 
431	 5.32414038052838E-02 
432	 5.33085112215065E-02 
433	 5.35508425266661E-02 
434	 5.37487139500413E-02 
435	 0.053755606630331 
436	 5.38808826523084E-02 
437	 5.39159586788067E-02 
438	 5.39508879573532E-02 
439	 5.41804865037932E-02 
440	 5.41935437167012E-02 
441	 0.054159790364083 
442	 5.42012203220991E-02 
443	 5.42765197125663E-02 
444	 5.42635409525563E-02 
445	 5.41871222803786E-02 
446	 5.41278405509353E-02 
447	 5.41988847710692E-02 
448	 5.42391343713263E-02 
449	 5.41700838530408E-02 
450	 0.053997563149124 
451	 5.38835143313329E-02 
452	 5.38042200407279E-02 
453	 5.37004404342476E-02 
454	 5.34984816784082E-02 
455	 5.33328289931566E-02 
456	 0.053189721061995 
457	 5.30115857925382E-02 
458	 5.28321736725973E-02 
459	 5.26144486932833E-02 
460	 5.23571748118946E-02 
461	 5.21009738960883E-02 
462	 5.19051601568734E-02 
463	 5.17288311169199E-02 
464	 5.15373254015362E-02 
465	 5.13811754674064E-02 
466	 5.11902083877143E-02 
467	 0.0510167881055 
468	 5.09306498816372E-02 
469	 5.06342093648118E-02 
470	 0.050492638343447 
471	 5.05437332271708E-02 
472	 5.03157885380716E-02 
473	 0.049982643669019 
474	 4.98635901612996E-02 
475	 5.00723390079436E-02 
476	 4.98488156542498E-02 
477	 4.97437761481238E-02 
478	 4.97924514456074E-02 
479	 4.97003707492522E-02 
480	 0.049834950351058 
481	 4.98583159781054E-02 
482	 4.96570754190031E-02 
483	 4.97654130691459E-02 
484	 4.97688930279477E-02 
485	 0.049764180710828 
486	 0.049941226765344 
487	 4.99586625821273E-02 
488	 4.99390449535522E-02 
489	 5.00030308121327E-02 
490	 5.02318934714192E-02 
491	 5.04784928318945E-02 
492	 5.06760317544831E-02 
493	 5.08301485828342E-02 
494	 5.10913481656961E-02 
495	 5.13746252526407E-02 
496	 5.16165585608939E-02 
497	 5.17924256330439E-02 
498	 5.21066853582474E-02 
499	 5.24058503765811E-02 
500	 0.052655352969735 
501	 5.30673640757874E-02 
502	 5.32929311186984E-02 
503	 5.34681276383087E-02 
504	 5.37801344304577E-02 
505	 5.39984623518603E-02 
506	 5.42480659544907E-02 
507	 5.45490890490542E-02 
508	 5.48315239687387E-02 
509	 5.50634913577809E-02 
510	 5.53702747131722E-02 
511	 5.57715236953447E-02 
512	 5.59817652007319E-02 
513	 0.056180942118106 
514	 5.65174582357703E-02 
515	 5.70620346932234E-02 
516	 5.74311139095232E-02 
517	 0.057799885143043 
518	 0.058233481311091 
519	 5.85988763975451E-02 
520	 5.90955525012741E-02 
521	 5.96735979928676E-02 
522	 0.06025371287286 
523	 0.060852587795445 
524	 6.15075190864343E-02 
525	 6.22116598437846E-02 
526	 6.29332135748424E-02 
527	 6.37065198191064E-02 
528	 6.46132747253033E-02 
529	 6.56651533049805E-02 
530	 6.67414709091659E-02 
531	 6.78760921840329E-02 
532	 6.91084085166163E-02 
533	 7.04534826165706E-02 
534	 7.17843659626996E-02 
535	 7.31487936359751E-02 
536	 0.074617830004146 
537	 7.62665746846506E-02 
538	 7.79388055032093E-02 
539	 7.96382958514928E-02 
540	 8.14164249163399E-02 
541	 8.33598026972493E-02 
542	 8.52229534486824E-02 
543	 8.69974453254611E-02 
544	 8.88296928050764E-02 
545	 9.06811736562622E-02 
546	 0.092581096611994 
547	 9.45024168922211E-02 
548	 9.63140186717095E-02 
549	 9.80093844783622E-02 
550	 0.099688425553902 
551	 0.10144563737302 
552	 0.103068379874198 
553	 0.104612366747958 
554	 0.106158936886779 
555	 0.107785747262706 
556	 0.109332119534487 
557	 0.110889259116255 
558	 0.112534176427708 
559	 0.114145216418678 
560	 0.115828593008281 
561	 0.117564661978107 
562	 0.11927170466487 
563	 0.120985277854459 
564	 0.122684644270634 
565	 0.12434193411227 
566	 0.125938772923293 
567	 0.127398067586914 
568	 0.128792617048443 
569	 0.130206579465538 
570	 0.131480805359738 
571	 0.132541903235787 
572	 0.133435835910526 
573	 0.134317807980548 
574	 0.135087298751613 
575	 0.135826469791276 
576	 0.136601524846147 
577	 0.13732640294065 
578	 0.137949084913831 
579	 0.13852355444827 
580	 0.139147718846446 
581	 0.139632826309652 
582	 0.140042212998974 
583	 0.140404601580382 
584	 0.140629727672401 
585	 0.140644650525798 
586	 0.140585538701865 
587	 0.140631663554123 
588	 0.140644464394888 
589	 0.140666834704705 
590	 0.140730661292147 
591	 0.140839933112483 
592	 0.140882588561436 
593	 0.140935373628099 
594	 0.141046632445411 
595	 0.141077528652084 
596	 0.140988652751077 
597	 0.140802656538425 
598	 0.14058845429405 
599	 0.140445499190116 
600	 0.140301250384343 
601	 0.140126252481356 
602	 0.1399989394565 
603	 0.139946430336287 
604	 0.139876522047917 
605	 0.139719969842218 
606	 0.139753722923865 
607	 0.139704471200377 
608	 0.13951802476162 
609	 0.139390625092513 
610	 0.13926654266673 
611	 0.139118093397233 
612	 0.138930168691629 
613	 0.138718427291879 
614	 0.138456724312485 
615	 0.13823473070238 
616	 0.138174851508221 
617	 0.138060218210426 
618	 0.137844780426024 
619	 0.137591466834308 
620	 0.1375119747642 
621	 0.137346081112367 
622	 0.137155542098847 
623	 0.137062116897075 
624	 0.136935663728508 
625	 0.136799037305311 
626	 0.136694728378984 
627	 0.136672443987558 
628	 0.136573987232031 
629	 0.136562568948094 
630	 0.136688074306724 
631	 0.136549180103076 
632	 0.136394125414942 
633	 0.136253493572908 
634	 0.136029526384872 
635	 0.135493135532686 
636	 0.134888636282039 
637	 0.134280225586857 
638	 0.13339429065186 
639	 0.132592305137173 
640	 0.131785505615242 
641	 0.130814681313995 
642	 0.129803126190255 
643	 0.128517208140879 
644	 0.127034323213118 
645	 0.125677956234909 
646	 0.12402194307752 
647	 0.122377622047136 
648	 0.121039589790848 
649	 0.119775738095417 
650	 0.118609534609843 
651	 0.11770641065061 
652	 0.117272653681642 
653	 0.116986369311787 
654	 0.116864339809502 
655	 0.116822735351559 
656	 0.116602943538856 
657	 0.116492264141572 
658	 0.116289732852266 
659	 0.115801512637798 
660	 0.115183316298356 
661	 0.114217259065484 
662	 0.112916023770956 
663	 0.111471135408827 
664	 0.110005045021132 
665	 0.108539931112939 
666	 0.107059470470998 
667	 0.105548211928596 
668	 0.104177224157317 
669	 0.10294800115408 
670	 0.101847201717116 
671	 0.101060849795576 
672	 0.10046525848815 
673	 0.100073540165063 
674	 0.100029519207216 
675	 0.100065684979343 
676	 0.100366216904884 
677	 0.101100499686354 
678	 0.10218275260442 
679	 0.103596243774736 
680	 0.105430201540697 
681	 0.107795472692313 
682	 0.110576781995949 
683	 0.113741480924739 
684	 0.117287914662854 
685	 0.121654471196149 
686	 0.126918507843228 
687	 0.132067651230986 
688	 0.136097537724089 
689	 0.140586303518184 
690	 0.144878170083935 
691	 0.148837468207874 
692	 0.152619273423831 
693	 0.156396623320825 
694	 0.159828188781272 
695	 0.162604665297374 
696	 0.164915583835435 
697	 0.166822941981717 
698	 0.168542960500861 
699	 0.170057489684477 
700	 0.17105958932916 
701	 0.172018744020065 
702	 0.172903868668187 
703	 0.173321147318218 
704	 0.17333834785375 
705	 0.173154034414637 
706	 0.172834816845733 
707	 0.172101352350829 
708	 0.171234039263731 
709	 0.170204032752208 
710	 0.168896880608579 
711	 0.167363162208569 
712	 0.165490348949117 
713	 0.163356618023899 
714	 0.161190802217174 
715	 0.158941631523727 
716	 0.156311629545219 
717	 0.153367953973805 
718	 0.150759886911174 
719	 0.148144215371332 
720	 0.145898286215741 
721	 0.143852338487126 
722	 0.141485083390026 
723	 0.13860351402669 
724	 0.13574513842723 
725	 0.133315398720728 
726	 0.130631521784891 
727	 0.127656573965377 
728	 0.124513278059513 
729	 0.121213495149201 
730	 0.117877984141274 
731	 0.114887467624035 
732	 0.112314868365361 
733	 0.10996523881344 
734	 0.107915074022986 
735	 0.106255448103777 
736	 0.105015054267519 
737	 0.10398284523038 
738	 0.103102195941271 
739	 0.102413651428618 
740	 0.102073273629382 
741	 0.101730242756123 
742	 0.101453689544694 
743	 0.101447412036943 
744	 0.101153318488376 
745	 0.10093293372421 
746	 0.100897711374605 
747	 0.100704050918486 
748	 0.100676481632134 
749	 0.100642052043979 
750	 0.100446569575684 
751	 0.100421836147795 
752	 0.100312913217284 
753	 0.100181647743698 
754	 0.100204923722841 
755	 9.99508209058703E-02 
756	 9.98371060373227E-02 
757	 0.099934071637193 
758	 9.96325150917802E-02 
759	 9.98492201167043E-02 
760	 0.100056418923213 
761	 9.91286200773762E-02 
762	 9.88597915876414E-02 
763	 9.89591113906563E-02 
764	 9.91736041690742E-02 
765	 9.93498980032805E-02 
766	 9.97074181961543E-02 
767	 9.98354910389861E-02 
768	 9.98346292056115E-02 
769	 0.100237958325033 
770	 0.100353564415357 
771	 0.100442720444516 
772	 0.100760766265816 
773	 0.101040835720505 
774	 0.101173278461595 
775	 0.101375021695535 
776	 0.101875582644824 
777	 0.101971807775623 
778	 0.102304347354727 
779	 0.102907079324168 
780	 0.103145282823355 
781	 0.103407803413108 
782	 0.103845918287088 
783	 0.104395670520965 
784	 0.104583895843228 
785	 0.104986769300448 
786	 0.105518933025296 
787	 0.105900750214568 
788	 0.106239715021838 
789	 0.106848772347692 
790	 0.107552127002899 
791	 0.107875388185591 
792	 0.108604661490833 
793	 0.10926670593495 
794	 0.109638121950395 
795	 0.110130289774789 
796	 0.110528086127274 
797	 0.11096525672186 
798	 0.111540771732143 
799	 0.111830074386343 
800	 0.112135808214801 
801	 0.112587640475135 
802	 0.113153580055258 
803	 0.113502117647348 
804	 0.113792555930744 
805	 0.114020660754912 
806	 0.11397228657562 
807	 0.11401582137152 
808	 0.113833618779741 
809	 0.113287611062658 
810	 0.11311926586164 
811	 0.112712418083542 
812	 0.111978201308368 
813	 0.111089996966607 
814	 0.110257360984422 
815	 0.109560376690138 
816	 0.109223341007873 
817	 0.109309903950979 
818	 0.108237135665438 
819	 0.107155853012372 
820	 0.106397498480545 
821	 0.10512135063845 
822	 0.103633457087912 
823	 0.102072945676812 
824	 0.10046616863234 
825	 9.84371200287339E-02 
826	 9.61960486867184E-02 
827	 9.39279081901466E-02 
828	 9.19083961512003E-02 
829	 8.96945852538079E-02 
830	 8.78117173765794E-02 
831	 8.62663486928332E-02 
832	 8.47845656592453E-02 
833	 8.38577949998127E-02 
834	 8.32377935956118E-02 
835	 8.25580882848634E-02 
836	 0.081467135535804 
837	 8.10930262370705E-02 
838	 8.09760728847361E-02 
839	 0.080561347726134 
840	 7.99168510252571E-02 
841	 7.96806224583688E-02 
842	 7.95629789000759E-02 
843	 7.90586297468798E-02 
844	 7.84052129590842E-02 
845	 0.078058181944282 
846	 7.79799439431666E-02 
847	 7.77852096707197E-02 
848	 7.73552910781809E-02 
849	 7.68889532979172E-02 
850	 7.64584495552013E-02 
851	 7.59204197560747E-02 
852	 7.54542192962063E-02 
853	 7.52462990037473E-02 
854	 7.52632292697635E-02 
855	 7.50526481677674E-02 
856	 7.45405004131534E-02 
857	 7.42556498525595E-02 
858	 7.44959120115186E-02 
859	 7.41872257485044E-02 
860	 0.073682315689325 
861	 7.32050581514489E-02 
862	 7.29000015429772E-02 
863	 7.29021601998345E-02 
864	 7.25838258263036E-02 
865	 7.20027769007855E-02 
866	 7.18142698274468E-02 
867	 7.13997390293476E-02 
868	 7.13293272404784E-02 
869	 7.14644959248694E-02 
870	 7.06327945619661E-02 
871	 6.99370812985254E-02 
872	 0.06941742770961 
873	 6.90779376061683E-02 
874	 6.94204305978007E-02 
875	 0.068943441724248 
876	 6.79826314435225E-02 
877	 6.73735711108778E-02 
878	 6.73760942777861E-02 
879	 6.71533494520841E-02 
880	 6.65505834514722E-02 
881	 0.065838203277931 
882	 6.53561929618743E-02 
883	 6.51143554966464E-02 
884	 6.49044954379538E-02 
885	 0.064425652275384 
886	 6.38547140063028E-02 
887	 6.35985014627088E-02 
888	 6.35428488225208E-02 
889	 6.30180022629591E-02 
890	 6.26342364950405E-02 
891	 6.23622351221392E-02 
892	 6.19799438976356E-02 
893	 6.11136978316208E-02 
894	 0.060373750325498 
895	 6.01788093083264E-02 
896	 6.04171526079724E-02 
897	 5.95508308261878E-02 
898	 5.89502648504107E-02 
899	 5.87107468759454E-02 
900	 5.85207195707089E-02 
901	 5.87180170579446E-02 
902	 0.05801120725438 
903	 5.70140982858625E-02 
904	 5.67453644437782E-02 
905	 5.64940007418502E-02 
906	 0.056141975432403 
907	 5.56838651295977E-02 
908	 5.51797830539918E-02 
909	 5.42468898416966E-02 
910	 5.41658046157281E-02 
911	 5.44374096003178E-02 
912	 5.31230255348702E-02 
913	 5.18350230135534E-02 
914	 5.08728126597878E-02 
915	 5.06236564321775E-02 
916	 5.14212848045025E-02 
917	 5.10019358005472E-02 
918	 5.06338729335198E-02 
919	 5.03723690896119E-02 
920	 4.82834391353324E-02 
921	 4.86004635047258E-02 
922	 4.87610084324152E-02 
923	 4.71536268697161E-02 
924	 4.70878875579374E-02 
925	 4.55799455326052E-02 
926	 4.40833630389051E-02 
927	 4.45175209924395E-02 
928	 4.43362506769107E-02 
929	 4.37856195062957E-02 
930	 4.39946579580597E-02 
931	 4.54536992489966E-02 
932	 3.86185594472404E-02 
933	 3.33557962163353E-02 
934	 3.50503347064352E-02 
935	 4.02699411270576E-02 
936	 4.00040595807121E-02 
937	 3.31801947399587E-02 
938	 2.86522549554628E-02 
939	 3.27141282792103E-02 
940	 0.033132904610715 
941	 0.03125618697123 
942	 3.04008924151394E-02 
943	 3.31956921671417E-02 
944	 3.04694436239417E-02 
945	 3.18875276889992E-02 
946	 3.30243198238631E-02 
947	 2.59770761255431E-02 
948	 0.03568545499325 
949	 3.52802911726612E-02 
950	 2.82177751445913E-02 
951	 3.32796038259298E-02 
952	 3.10511921752247E-02 
953	 3.00108445020802E-02 
954	 2.97113973240698E-02 
955	 0.024899788097261 
956	 2.78260373136578E-02 
957	 0.0281921179894 
958	 2.57508766237318E-02 
959	 2.74318824269074E-02 
960	 3.30871379027676E-02 
961	 3.17532734640187E-02 
962	 2.70603046441919E-02 
963	 3.00928839357688E-02 
964	 3.04394745006451E-02 
965	 0.028890847651277 
966	 0.027904205845482 
967	 2.93643767466435E-02 
968	 2.76563556799847E-02 
969	 2.82515071592025E-02 
970	 3.01839537197634E-02 
971	 2.77395938980112E-02 
972	 2.88098282297731E-02 
973	 2.94106900209891E-02 
974	 2.85765411581912E-02 
975	 2.91613168791911E-02 
976	 2.87653408565703E-02 
977	 2.87589061704225E-02 
978	 2.95048946858076E-02 
979	 2.98996196769627E-02 
980	 2.69642919322078E-02 
981	 2.71639222975715E-02 
982	 2.99974608592884E-02 
983	 2.96870073759878E-02 
984	 2.83097552116618E-02 
985	 0.02760955369321 
986	 2.74423401595323E-02 
987	 2.66451510235463E-02 
988	 2.76025566975823E-02 
989	 3.02995762587833E-02 
990	 0.031885452731015 
991	 2.91167947311333E-02 
992	 2.80743583324772E-02 
993	 2.84466733028281E-02 
994	 2.88052892187551E-02 
995	 0.028028124563696 
996	 2.91923777278673E-02 
997	 3.06602346956183E-02 
998	 3.06704299796495E-02 
999	 0.028727429137425 
1000	 2.95404991438888E-02 
1001	 3.08715059918025E-02 
1002	 3.10239466443278E-02 
1003	 0.031356317706378 
1004	 3.25159705044327E-02 
1005	 3.30496364016079E-02 
1006	 3.34878280348333E-02 
1007	 3.41936522316746E-02 
1008	 3.35854433735064E-02 
1009	 3.25171056003371E-02 
1010	 3.25964145087803E-02 
1011	 3.29010905258006E-02 
1012	 3.31201534296163E-02 
1013	 3.29999823161209E-02 
1014	 3.32550901305292E-02 
1015	 3.30593106416877E-02 
1016	 3.31900975402209E-02 
1017	 3.42991996798738E-02 
1018	 3.45416876552891E-02 
1019	 3.40789011072024E-02 
1020	 3.39487255069238E-02 
1021	 3.33729764806142E-02 
1022	 3.35393281478469E-02 
1023	 3.43971208194787E-02 
1024	 3.41938384448406E-02 
1025	 0.034372078597173 
1026	 3.47589994251996E-02 
1027	 3.47855106508543E-02 
1028	 3.42889285466131E-02 
1029	 3.44863148074424E-02 
1030	 3.50648896244232E-02 
1031	 3.51700173016193E-02 
1032	 3.55458812963462E-02 
1033	 0.035607903783205 
1034	 3.48383583370167E-02 
1035	 3.48037193304759E-02 
1036	 3.50809946627861E-02 
1037	 3.53055525347068E-02 
1038	 3.57049774240485E-02 
1039	 3.63477202547604E-02 
1040	 3.68237736280211E-02 
1041	 0.037253674386809 
1042	 3.76160572247269E-02 
1043	 3.80813520330335E-02 
1044	 0.03819878640799 
1045	 3.81178146682815E-02 
1046	 3.80104414276415E-02 
1047	 0.037599680071727 
1048	 3.74431985524455E-02 
1049	 3.72198764002661E-02 
1050	 3.72058101118817E-02 
1051	 3.74224243526685E-02 
1052	 3.75816854551606E-02 
1053	 3.78572503799759E-02 
1054	 0.03809839600465 
1055	 3.83844998478264E-02 
1056	 3.85846075317119E-02 
1057	 3.87488344190525E-02 
1058	 3.88574711297384E-02 
1059	 3.90791593902989E-02 
1060	 0.039430406024381 
1061	 0.039405911394041 
1062	 3.91937535765986E-02 
1063	 3.91881499761829E-02 
1064	 0.038923031697994 
1065	 3.88975961244161E-02 
1066	 3.94173869613721E-02 
1067	 3.94157912342731E-02 
1068	 3.88883932043822E-02 
1069	 3.88183052565753E-02 
1070	 3.90633214562812E-02 
1071	 3.89257571977541E-02 
1072	 3.89229376943577E-02 
1073	 3.85621723077113E-02 
1074	 3.85242285808298E-02 
1075	 3.81723810150744E-02 
1076	 3.80600510102596E-02 
1077	 3.84977661001688E-02 
1078	 3.83642710403369E-02 
1079	 3.78032399413832E-02 
1080	 3.75207587875084E-02 
1081	 0.03686290715196 
1082	 3.69449703345934E-02 
1083	 3.77037869312594E-02 
1084	 3.79645607711244E-02 
1085	 3.90726174713246E-02 
1086	 3.91223661809441E-02 
1087	 3.74587362418189E-02 
1088	 3.69633407172508E-02 
1089	 3.67374669258752E-02 
1090	 0.036302143337637 
1091	 0.036262542869152 
1092	 3.74332713144738E-02 
1093	 3.73375279175258E-02 
1094	 3.63327765133918E-02 
1095	 3.60189041615338E-02 
1096	 3.57758127030775E-02 
1097	 3.53398751222782E-02 
1098	 3.49961478245511E-02 
1099	 3.48096382694066E-02 
1100	 3.42305842716139E-02 
1101	 3.40789390698593E-02 
1102	 0.034558074569225 
1103	 3.46440458931125E-02 
1104	 3.47434305972372E-02 
1105	 3.51681569201206E-02 
1106	 3.32841928802804E-02 
1107	 3.29509456069999E-02 
1108	 3.21473963911057E-02 
1109	 3.04975345514489E-02 
1110	 0.030441797374119 
1111	 3.29387418624787E-02 
1112	 3.29456572586542E-02 
1113	 3.17750165480643E-02 
1114	 0.031368332791866 
1115	 2.92327003934409E-02 
1116	 2.92002094341129E-02 
1117	 3.41275224492214E-02 
1118	 3.61154728508225E-02 
1119	 3.65857295240042E-02 
1120	 3.66580161421677E-02 
1121	 3.17119445428692E-02 
1122	 0.02681311698037 
1123	 3.32814302466752E-02 
1124	 3.89370458139653E-02 
1125	 3.18983128264589E-02 
1126	 3.35728681118227E-02 
1127	 0.026516510971168 
1128	 7.41210772392123E-03 
1129	 6.96162934328719E-03 
1130	 2.15151407302266E-02 
1131	 2.06879696895566E-02 
1132	 1.88984951916592E-02 
1133	 0.02037304716647 
1134	 1.64841528399073E-02 
1135	 1.76089526315065E-02 
1136	 2.91026755632313E-02 
1137	 0.027988981818673 
1138	 2.05047022248517E-02 
1139	 1.46942497711512E-02 
1140	 1.45156300192382E-02 
1141	 1.07011938967003E-02 
1142	 9.20025609712523E-03 
1143	 1.51608449523696E-02 
1144	 1.54297680016818E-02 
1145	 1.24749871598453E-02 
1146	 1.96844687568288E-02 
1147	 0.024098589852516 
1148	 0.016964859081323 
1149	 1.21888011764494E-02 
1150	 1.42042565601882E-02 
1151	 1.87970607409192E-02 
1152	 1.98309276885447E-02 
1153	 0.025190992132698 
1154	 2.55142756876608E-02 
1155	 2.25414126606218E-02 
1156	 1.82475271036839E-02 
1157	 1.84570050618407E-02 
1158	 2.12621088796659E-02 
1159	 2.24337131389262E-02 
1160	 2.25871466534743E-02 
1161	 2.27576013613024E-02 
1162	 2.21861638159283E-02 
1163	 2.26482364858525E-02 
1164	 2.40740319195747E-02 
1165	 0.024160820995998 
1166	 2.36864251981964E-02 
1167	 2.38588863246982E-02 
1168	 2.42883105801664E-02 
1169	 2.40991317564203E-02 
1170	 2.36089810065544E-02 
1171	 0.023625021566765 
1172	 2.34902189749497E-02 
1173	 2.31086064307057E-02 
1174	 2.27455834949679E-02 
1175	 2.32522225534185E-02 
1176	 2.31101363252334E-02 
1177	 2.25050953985174E-02 
1178	 2.29981272135885E-02 
1179	 2.32180291747306E-02 
1180	 0.022635952398981 
1181	 2.23385801659284E-02 
1182	 2.28121190997517E-02 
1183	 2.32086991841919E-02 
1184	 2.33031899758619E-02 
1185	 2.39235403790125E-02 
1186	 2.37846046153055E-02 
1187	 2.31730052919289E-02 
1188	 2.37522705663172E-02 
1189	 2.39345466952515E-02 
1190	 2.32855637390382E-02 
1191	 2.34209820040829E-02 
1192	 2.35959812527851E-02 
1193	 2.38613717224671E-02 
1194	 0.023795372015113 
1195	 2.34831358697049E-02 
1196	 2.29649403527666E-02 
1197	 2.27492653655682E-02 
1198	 2.25911611379968E-02 
1199	 2.26551481759186E-02 
1200	 2.30089759374892E-02 
1201	 2.31869340888591E-02 
1202	 2.32651940102348E-02 
1203	 2.37381058613199E-02 
1204	 2.39027085656801E-02 
1205	 2.29800797468265E-02 
1206	 0.022492666064675 
1207	 2.27759479358787E-02 
1208	 2.29525496939231E-02 
1209	 2.30753846487621E-02 
1210	 2.27050617411492E-02 
1211	 2.22503681501735E-02 
1212	 2.25588722542124E-02 
1213	 2.29675778685559E-02 
1214	 2.28530980795632E-02 
1215	 2.26210505843166E-02 
1216	 2.23653512215598E-02 
1217	 0.022209813047859 
1218	 2.19632936525257E-02 
1219	 2.25237010156667E-02 
1220	 0.023135568564995 
1221	 2.25633792773042E-02 
1222	 2.22997780408358E-02 
1223	 2.24389860644232E-02 
1224	 2.22687962600777E-02 
1225	 2.26785489918194E-02 
1226	 2.29883644476681E-02 
1227	 2.26994128889947E-02 
1228	 2.29097233231684E-02 
1229	 0.023129478727469 
1230	 2.26277140030424E-02 
1231	 2.25939313051948E-02 
1232	 2.27145363435107E-02 
1233	 2.23479473796342E-02 
1234	 2.28147542151957E-02 
1235	 2.29099954749873E-02 
1236	 2.27191382491271E-02 
1237	 2.25297912689353E-02 
1238	 2.22153643219081E-02 
1239	 2.22511073000415E-02 
1240	 0.022315155434007 
1241	 2.21730809944549E-02 
1242	 2.23277575481791E-02 
1243	 2.26260537840889E-02 
1244	 2.25808935404207E-02 
1245	 2.29683434937902E-02 
1246	 2.31712235295168E-02 
1247	 2.28346029632069E-02 
1248	 2.28850144105861E-02 
1249	 2.29446005109005E-02 
1250	 2.29011670173728E-02 
1251	 2.30077740586324E-02 
1252	 2.31353469550771E-02 
1253	 0.023090244951143 
1254	 2.27484823592607E-02 
1255	 2.26658415792156E-02 
1256	 2.27389501042625E-02 
1257	 2.25822675334451E-02 
1258	 2.23328570297934E-02 
1259	 2.24876023670774E-02 
1260	 2.26280373210943E-02 
1261	 2.24489794865995E-02 
1262	 2.22715188675099E-02 
1263	 2.25667122949469E-02 
1264	 2.23315998213028E-02 
1265	 2.16067457913572E-02 
1266	 2.13770340105813E-02 
1267	 2.18562797359538E-02 
1268	 2.23507582468274E-02 
1269	 2.21163519053072E-02 
1270	 2.18479975043495E-02 
1271	 2.20270029725883E-02 
1272	 2.17500910335404E-02 
1273	 2.16643055243135E-02 
1274	 2.22729021869829E-02 
1275	 2.22898967620671E-02 
1276	 2.17971828332885E-02 
1277	 2.16731208175746E-02 
1278	 2.18037506483571E-02 
1279	 2.18659721374291E-02 
1280	 2.18156221717573E-02 
1281	 2.18559229825119E-02 
1282	 2.19861309687548E-02 
1283	 2.19164380889083E-02 
1284	 2.15461240169011E-02 
1285	 2.16846896322375E-02 
1286	 2.22944333981809E-02 
1287	 0.022340063405807 
1288	 2.23923478849073E-02 
1289	 0.022421794669915 
1290	 2.21864041724987E-02 
1291	 2.15464806051315E-02 
1292	 2.16558320406774E-02 
1293	 0.021888011966475 
1294	 2.17112053631039E-02 
1295	 2.16113618732669E-02 
1296	 2.15508779822185E-02 
1297	 0.021230651247264 
1298	 2.07305238914775E-02 
1299	 2.08960502955693E-02 
1300	 2.16631714459646E-02 
1301	 2.13518887881002E-02 
1302	 2.07623164374441E-02 
1303	 2.05977752160168E-02 
1304	 0.019696058642709 
1305	 1.91781876357068E-02 
1306	 1.90185747700089E-02 
1307	 2.00448193199588E-02 
1308	 2.02810379952154E-02 
1309	 2.03745366466348E-02 
1310	 1.99738372990725E-02 
1311	 1.92185680918537E-02 
1312	 1.85578507443231E-02 
1313	 1.66083647843839E-02 
1314	 1.64514121508835E-02 
1315	 1.83535445583211E-02 
1316	 1.84963235910746E-02 
1317	 1.82517307586184E-02 
1318	 1.86843058059729E-02 
1319	 1.84533673092405E-02 
1320	 1.81728505967465E-02 
1321	 1.83235867503809E-02 
1322	 1.94911115365775E-02 
1323	 1.94124815787939E-02 
1324	 1.90236600172497E-02 
1325	 1.86978340334699E-02 
1326	 1.80408609570215E-02 
1327	 1.88249174399104E-02 
1328	 1.96962612558971E-02 
1329	 1.91791375181543E-02 
1330	 1.98968243329133E-02 
1331	 1.95419477670198E-02 
1332	 1.57462461885467E-02 
1333	 1.36485714055535E-02 
1334	 1.22341635034741E-02 
1335	 0.011274934679344 
1336	 9.92386319172741E-03 
1337	 8.67360692161291E-03 
1338	 7.30812955824125E-03 
1339	 8.62811380000948E-03 
1340	 1.20786160219226E-02 
1341	 1.27264538089062E-02 
1342	 0.017298431094567 
1343	 1.83510172424489E-02 
1344	 8.18489527474969E-03 
1345	 5.20531231025647E-03 
1346	 1.22773740457555E-02 
1347	 1.19834345928852E-02 
1348	 6.64190296992225E-03 
1349	 4.59496345877141E-03 
1350	-8.97657182340656E-03 
1351	-2.18461509211177E-02 
1352	-9.07528063336388E-03 
1353	-7.582403521676E-04 
1354	 1.87750543955195E-02 
1355	-1.23052817201544E-02 
1356	-3.68303063814873E-03 
1357	-0.149735980930321 
1358	-0.464227034800302 
1359	-0.517015521613683 
1360	-0.521478715151338 
1361	-0.743617724609869 
1362	-0.780269434650843 
1363	-0.717078380510582 
1364	-1.18429951808678 
1365	-1.65171980469417 
1366	-1.86582288393295 
1367	-1.64907824520826 
1368	-1.79181840544233 
1369	-1.95802430151594 
1370	-1.61083343553116 
1371	-1.08269106424126 
1372	-1.00401787772265 
1373	-0.485061656954212 
1374	-0.355901693166551 
1375	-12.2606952832527 
1376	-6.7170951567013 
1377	-1.06862335333572 
1378	-0.877616593766503 
1379	-0.607561393988122 
1380	-0.446094255445565 
1381	-6.33885303222752E-02 
1382	-5.93115086310956E-02 
1383	-1.14205085284194 
1384	-1.60820992190032 
1385	-1.46688239271468 
1386	 14.9479872729053 
1387	-4.35802603853847 
1388	-2.88350237183002 
1389	-4.4203162422237 
1390	-4.41726501602419 
1391	-1.89017986200803 
1392	-1.2126080328354 
1393	-2.97616223992801 
1394	-8.52348721568292 
1395	-7.82428545778316 
1396	 196.246896943348 
1397	 15.7034799265451 
1398	-0.898547385582646 
1399	-1.20529524631264 
1400	-81.2668949894282 
1401	 4.55706391566026 
1402	 4.76135300144575 
1403	 7.89480943953269 
1404	-2.05255673963183 
1405	-0.894850358756727 
1406	-0.416925150216041 
1407	-0.407203683434657 
1408	-1.03502130957264 
1409	-0.663779757349535 
1410	-0.180671311023843 
1411	-0.145121668633027 
1412	-2.35394559722683E-02 
1413	 1.94391445194261E-02 
1414	-0.27648925216968 
1415	-1.20754337537496 
1416	-0.828619845438838 
1417	-0.734588896682515 
1418	-0.811927535920441 
1419	-0.793950634198884 
1420	-0.650317897536916 
1421	-0.398510394644974 
1422	-0.109947041173686 
1423	-8.59903333801321E-02 
1424	-0.137769113921478 
1425	-5.94569279583578E-02 
1426	-7.64596748417838E-02 
1427	-4.47900944746132E-02 
1428	 0.116765333555402 
1429	 0.162767858026602 
1430	 0.14756046565279 
1431	 0.136318939852 
1432	 0.120867476035597 
1433	 0.110887805562534 
1434	 0.108035553524538 
1435	 6.83933734132046E-02 
1436	 0.015576104589693 
1437	-6.85943007906263E-02 
1438	-0.137122465485302 
1439	-0.152798300130069 
1440	-0.129685990279553 
1441	-0.124098350550202 
1442	-8.99219012839782E-02 
1443	-6.40960369589893E-02 
1444	-7.40498978788097E-02 
1445	-6.77296943072009E-02 
1446	-6.17322426847013E-02 
1447	-6.11210755886834E-02 
1448	-6.35640415788799E-02 
1449	-5.81775512451939E-02 
1450	-3.44163708763864E-02 
1451	-2.96548443907898E-02 
1452	-0.030519685659366 
1453	-1.24615507760009E-02 
1454	-8.10668720268665E-03 
1455	-1.93613949526659E-02 
1456	-1.31465661616511E-02 
1457	 4.32806551695755E-03 
1458	 6.70762562370864E-03 
1459	 9.08315537318589E-03 
1460	 6.50468884290175E-03 
1461	-8.40445199871365E-03 
1462	-9.64726219579781E-03 
1463	-3.79749401621177E-03 
1464	-4.36829812835198E-03 
1465	-1.66013462497642E-03 
1466	-7.17451476101528E-04 
1467	-8.44542729070907E-03 
1468	-9.40873006035481E-03 
1469	 5.7431036012827E-04 
1470	-5.78462210186941E-05 
1471	-1.07669541350843E-02 
1472	-1.09310222028979E-02 
1473	-1.22962440419335E-02 
1474	-7.5169190352368E-03 
1475	 1.36394474466946E-02 
1476	 1.31420276248277E-02 
1477	 8.74454985451374E-04 
1478	-7.84487033687724E-04 
1479	-7.53726848222747E-03 
1480	-1.03620561957413E-02 
1481	-1.38782027708025E-03 
1482	-3.16866501733657E-03 
1483	-1.82417097769028E-02 
1484	-1.78600754919318E-02 
1485	-7.94187800166036E-03 
1486	-7.2747837601375E-03 
1487	-6.62360375709961E-03 
1488	-4.29565414866413E-03 
1489	-7.77599309018331E-03 
1490	-6.72627314032427E-03 
1491	 8.79481775963398E-04 
1492	 2.72005217258692E-03 
1493	 1.74503699449629E-03 
1494	 2.25140816090177E-03 
1495	 2.18823805889709E-03 
1496	 2.08191510764552E-03 
1497	 2.87636229011025E-03 
1498	 2.83453076417218E-03 
1499	 7.43126170783525E-04 
1500	 7.27795472280644E-04 
1501	 0.002738441205167 
1502	 3.37189664560773E-03 
1503	 4.27919054016447E-03 
1504	 4.46600129889266E-03 
1505	 3.34485770514364E-03 
1506	 2.35421686793343E-03 
1507	 3.60212474078853E-03 
1508	 4.86804562420075E-03 
1509	 4.26231741607165E-03 
1510	 4.88056619028384E-03 
1511	 5.1964059642469E-03 
1512	 3.84770022007849E-03 
1513	 3.58325946376996E-03 
1514	 3.41864590239538E-03 
1515	 3.04303207386762E-03 
1516	 3.53287874473999E-03 
1517	 4.62358865478733E-03 
1518	 4.94927596304244E-03 
1519	 4.37282247301497E-03 
1520	 4.35301964849491E-03 
1521	 4.24004554523856E-03 
1522	 4.15266910855757E-03 
1523	 4.65331756150459E-03 
1524	 5.03493035110711E-03 
1525	 5.04682573945553E-03 
1526	 5.40934757188762E-03 
1527	 5.84083360591569E-03 
1528	 5.9608792468793E-03 
1529	 6.68785020182201E-03 
1530	 6.9866013603618E-03 
1531	 6.25576915159765E-03 
1532	 5.75347287648163E-03 
1533	 5.58815079774763E-03 
1534	 5.75945826672202E-03 
1535	 6.27067067663358E-03 
1536	 6.35159384573129E-03 
1537	 6.18175917017761E-03 
1538	 6.5580835401453E-03 
1539	 6.52149509706492E-03 
1540	 5.68891862811957E-03 
1541	 5.4517046647053E-03 
1542	 5.75864467288675E-03 
1543	 6.18617812786369E-03 
1544	 6.70567386583018E-03 
1545	 6.86206092985898E-03 
1546	 6.6164905774932E-03 
1547	 6.41363666430572E-03 
1548	 6.73485861188629E-03 
1549	 7.23781869756596E-03 
1550	 7.22642244097575E-03 
1551	 6.92950289484683E-03 
1552	 7.04109576920265E-03 
1553	 7.50847890077372E-03 
1554	 7.79726742791232E-03 
1555	 7.85526720157922E-03 
1556	 7.7294659207673E-03 
1557	 7.7793067910422E-03 
1558	 8.13239023345807E-03 
1559	 8.31810679390719E-03 
1560	 8.9254734304492E-03 
1561	 9.35849008835559E-03 
1562	 8.56991894226277E-03 
1563	 7.74609507226936E-03 
1564	 7.53543298704308E-03 
1565	 7.88632913359824E-03 
1566	 8.30057316261917E-03 
1567	 8.60528114553602E-03 
1568	 8.77621956460505E-03 
1569	 8.22833901171573E-03 
1570	 8.03761645863683E-03 
1571	 7.80873599175343E-03 
1572	 7.51392952774092E-03 
1573	 8.64036250578604E-03 
1574	 9.29330815710761E-03 
1575	 8.62765161415328E-03 
1576	 8.70448830064642E-03 
1577	 9.39559407624398E-03 
1578	 8.82857794094544E-03 
1579	 8.59462336542875E-03 
1580	 9.71169263563243E-03 
1581	 9.80273048182616E-03 
1582	 9.6290545053038E-03 
1583	 9.79880567782006E-03 
1584	 9.4689534055528E-03 
1585	 9.57865257317051E-03 
1586	 9.55520713100473E-03 
1587	 9.49736195486363E-03 
1588	 1.03217688899319E-02 
1589	 1.05748803168658E-02 
1590	 1.03533748822709E-02 
1591	 1.03599406742011E-02 
1592	 1.00755419656661E-02 
1593	 9.6221107113285E-03 
1594	 9.09839497836535E-03 
1595	 8.89486597989337E-03 
1596	 9.01282332981643E-03 
1597	 9.28846655208786E-03 
1598	 9.58818949849577E-03 
1599	 1.00745572456607E-02 
1600	 1.06173700158816E-02 
1601	 1.07391186748043E-02 
1602	 1.07407580678503E-02 
1603	 1.00857793619533E-02 
1604	 9.75756967624016E-03 
1605	 1.04830127651813E-02 
1606	 1.06291108900589E-02 
1607	 1.04452241804521E-02 
1608	 1.08736295950857E-02 
1609	 0.010581618672357 
1610	 9.51407196010381E-03 
1611	 9.8562815728531E-03 
1612	 1.02818119104889E-02 
1613	 9.90364175027242E-03 
1614	 1.01327472938775E-02 
1615	 1.05211464462664E-02 
1616	 1.10544404976007E-02 
1617	 1.11602533443266E-02 
1618	 1.11471940859218E-02 
1619	 1.19769509473086E-02 
1620	 1.20042282361182E-02 
1621	 1.09066979993811E-02 
1622	 1.05521842980888E-02 
1623	 1.10333243311885E-02 
1624	 1.07323951252617E-02 
1625	 1.04810154448515E-02 
1626	 1.10595981411061E-02 
1627	 1.05174715611268E-02 
1628	 9.76801249650366E-03 
1629	 1.05096719649243E-02 
1630	 1.13292656000792E-02 
1631	 1.07915206265345E-02 
1632	 9.81574599363629E-03 
1633	 9.99744856444129E-03 
1634	 1.06827875019005E-02 
1635	 1.11017415776548E-02 
1636	 1.12378345440422E-02 
1637	 1.07757411926532E-02 
1638	 1.01022354184208E-02 
1639	 1.01418053442162E-02 
1640	 1.08249135958059E-02 
1641	 1.17750131045703E-02 
1642	 1.24881989488782E-02 
1643	 1.21582054525979E-02 
1644	 1.16948558669575E-02 
1645	 1.10184657733632E-02 
1646	 9.89125738137416E-03 
1647	 9.94897340627878E-03 
1648	 1.05803087316946E-02 
1649	 0.010785700335644 
1650	 1.12510787712675E-02 
1651	 1.15416228403429E-02 
1652	 1.11979387307868E-02 
1653	 1.04361147213204E-02 
1654	 1.03849450420619E-02 
1655	 1.04097898199591E-02 
1656	 1.06461926087453E-02 
1657	 1.20367603385059E-02 
1658	 1.19120159335365E-02 
1659	 1.04887420423843E-02 
1660	 1.03051029762617E-02 
1661	 1.00222493721449E-02 
1662	 0.010066578064776 
1663	 1.11056255738906E-02 
1664	 1.12464295714165E-02 
1665	 1.07769812267825E-02 
1666	 1.09632406223097E-02 
1667	 1.13764981393752E-02 
1668	 0.012310072261112 
1669	 0.012315647731609 
1670	 1.11197100445711E-02 
1671	 1.10806631858105E-02 
1672	 1.13871484944448E-02 
1673	 0.01153470374265 
1674	 1.20660058691865E-02 
1675	 1.15377180538102E-02 
1676	 1.04447351296037E-02 
1677	 1.04446839979434E-02 
1678	 1.12672354545945E-02 
1679	 0.011259549102147 
1680	 1.04064556773084E-02 
1681	 9.92112385803781E-03 
1682	 9.43946762475171E-03 
1683	 9.10843778759391E-03 
1684	 1.03589270223028E-02 
1685	 1.10169384523127E-02 
1686	 9.85591145945283E-03 
1687	 9.88041322082156E-03 
1688	 1.01263855632962E-02 
1689	 9.3853183553259E-03 
1690	 9.55779763116458E-03 
1691	 1.04438947233204E-02 
1692	 1.07310228901084E-02 
1693	 1.05651102555762E-02 
1694	 1.12163386164456E-02 
1695	 1.17414377438938E-02 
1696	 1.10964808552413E-02 
1697	 1.16835833879252E-02 
1698	 1.25001246630393E-02 
1699	 1.12747483354388E-02 
1700	 1.08240808566206E-02 
1701	 1.16865114605863E-02 
1702	 1.12007366852883E-02 
1703	 1.14468323402419E-02 
1704	 1.29453224271728E-02 
1705	 1.19082591118643E-02 
1706	 1.05450005180852E-02 
1707	 1.07957954110131E-02 
1708	 1.07486571577557E-02 
1709	 1.06370017779162E-02 
1710	 1.08239133721261E-02 
1711	 1.05758107585959E-02 
1712	 9.22983665885418E-03 
1713	 9.55418482625205E-03 
1714	 1.00090792243355E-02 
1715	 1.07332132328589E-02 
1716	 1.04605883441457E-02 
1717	 9.59928679464022E-03 
1718	 0.010587272126868 
1719	 1.32210027470568E-02 
1720	 1.36946578147412E-02 
1721	 1.25981995579688E-02 
1722	 1.16007720436904E-02 
1723	 9.03467450226508E-03 
1724	 7.49442068488789E-03 
1725	 9.63075288424794E-03 
1726	 9.05818282519885E-03 
1727	 6.68592504238784E-03 
1728	 8.64552814837286E-03 
1729	 9.77190320537699E-03 
1730	 9.53250319304243E-03 
1731	 1.17313110513604E-02 
1732	 1.20888975447063E-02 
1733	 1.02347566834856E-02 
1734	 9.21288516015476E-03 
1735	 9.5377081737377E-03 
1736	 1.10673331605371E-02 
1737	 1.06927924251248E-02 
1738	 9.16462210399921E-03 
1739	 8.56066799818107E-03 
1740	 7.22485132025782E-03 
1741	 7.35185918530734E-03 
1742	 9.53510398874133E-03 
1743	 1.06643082388454E-02 
1744	 9.41549011548395E-03 
1745	 7.49605406519155E-03 
1746	 8.82157518074574E-03 
1747	 8.9236683785855E-03 
1748	 9.04975431054201E-03 
1749	 9.94356878027078E-03 
1750	 0.010369095781415 
1751	 0.010165453305868 
1752	 1.06665468944909E-02 
1753	 1.02046680214553E-02 
1754	 8.06081846891446E-03 
1755	 8.05567791725253E-03 
1756	 8.69034069459632E-03 
1757	 9.33326160461526E-03 
1758	 1.07287165361201E-02 
1759	 7.70030048798376E-03 
1760	 6.65522093834636E-03 
1761	 8.21153572498104E-03 
1762	 6.04275424881388E-03 
1763	 6.91210949741108E-03 
1764	 9.53083215493156E-03 
1765	 8.93985113050597E-03 
1766	 0.010742965003217 
1767	 1.01231439828304E-02 
1768	 7.76688550572607E-03 
1769	 8.08752909394996E-03 
1770	 5.89944779071562E-03 
1771	 8.79643391412867E-03 
1772	 1.38257444661613E-02 
1773	 1.18833184703613E-02 
1774	 1.10944610106336E-02 
1775	 9.4970110984012E-03 
1776	 8.00556645798826E-03 
1777	 8.22373791176348E-03 
1778	 9.81906489757607E-03 
1779	 1.23191210396691E-02 
1780	 1.20620499910558E-02 
1781	 1.24618093044787E-02 
1782	 1.15566967228964E-02 
1783	 5.80489000201512E-03 
1784	 5.54250365431582E-03 
1785	 1.13828984965213E-02 
1786	 8.04576367730752E-03 
1787	-1.91812872563818E-03 
1788	-4.50843978693921E-03 
1789	-0.010610256682142 
1790	-1.43269975401598E-03 
1791	 1.29194388512457E-02 
1792	 8.49828896458534E-03 
1793	 3.11252721459113E-03 
1794	-3.15208708915106E-03 
1795	-2.00629996289413E-02 
1796	-2.29995013657003E-02 
1797	-2.76892516820057E-02 
1798	-0.036006597177762 
1799	-3.32370214094177E-02 
1800	-3.28797947631326E-02 
1801	-4.73779645834321E-02 
1802	-0.123232333039136 
1803	-0.143028957018797 
1804	-0.102851283948733 
1805	-7.89680934175301E-02 
1806	 6.16667323714544E-02 
1807	 0.111813398364877 
1808	 3.89546418024799E-03 
1809	-0.100986083080608 
1810	-0.445740477895972 
1811	-0.606071703648611 
1812	-0.303661480204804 
1813	-0.242357315007043 
1814	-1.70243397407431E-02 
1815	-0.196320419110932 
1816	-1.11297012668947 
1817	-3.71032692024383 
1818	 12.5792970842676 
1819	 5.8316775339006 
1820	-1.24964418208774 
1821	-0.259335122407702 
1822	-0.086540437109885 
1823	 0.046117198161184 
1824	 2.49604248073816E-02 
1825	 8.96012642036442E-02 
1826	 4.89898060766326E-02 
1827	 1.07739008192482 
1828	 0.898867299134923 
1829	 1.68903915184913 
1830	 2.15106438963854 
1831	 4.61577402710449 
1832	 1.51426174795161 
1833	 0.900941832136552 
1834	 0.686582332648484 
1835	 0.276896116846755 
1836	 0.184919405838279 
1837	 0.172547292434354 
1838	 3.17822526770582E-02 
1839	-4.11897001455981 
1840	-1.20713593239875 
1841	-2.19437595407205 
1842	 2.25758961118987 
1843	 0.491300213811913 
1844	 1.62866722808253 
1845	 1.9026677658114 
1846	 1.3661948907553 
1847	 1.4636366160479 
1848	 1.56465367568937 
1849	-5.21158588435861 
1850	-1.56070918958822 
1851	-1.30929498175321 
1852	-0.863014832108214 
1853	-0.485147780959656 
1854	-0.259589522279851 
1855	 0.382019580676673 
1856	 0.412174397336413 
1857	-0.758256211166768 
1858	-1.41170059952624 
1859	-6.18735317981435 
1860	 18.0162130227173 
1861	 0.589267174738566 
1862	-0.409335223065392 
1863	 9.25473559559363E-02 
1864	 0.224243561334036 
1865	 0.364132118655997 
1866	 1.10542265065142 
1867	 1.06931318409866 
1868	 0.506685980583535 
1869	 0.251384793043264 
1870	-0.275067321944435 
1871	-0.24376145124325 
1872	 0.348535160869042 
1873	-2.58630340012277E-03 
1874	-1.57458840337806 
1875	 0.864063583578131 
1876	 0.348002825505949 
1877	 0.651504407275863 
1878	-0.354274107635065 
1879	 0.794557715101411 
1880	 0.331856139837159 
1881	-0.736465522941517 
1882	-0.653164525073127 
1883	-0.2587740149621 
1884	 0.100773557678487 
1885	 0.670505442391753 
1886	 1.20865523058791 
1887	 1.71076875043463 
1888	 2.38330227671926 
1889	 2.53984269759409 
1890	 3.77188205791343 
1891	 4.6817570313543 
1892	 5.02170577652335 
1893	 1.75220590736481 
1894	 0.619693486822565 
1895	-0.676232895327998 
1896	-0.807837020837712 
1897	-1.81026771576678 
1898	-3.7283532825831 
1899	-1.35741681058118 
1900	-1.40381043327373 
1901	 4.93892431924502 
1902	 1.2230216017908 
1903	 0.262072028220083 
1904	 0.679311442000374 
1905	 2.76383984058058 
1906	 3.97716622197289 
1907	 6.86575689500823 
1908	-14.8421798890205 
1909	-8.71987120624474 
1910	-5.77476418985559 
1911	-8.72880542163206 
1912	 1.60740338343062 
1913	 0.540881699699857 
1914	 1.43249286779756 
1915	 1.11009706381637 
1916	 0.882427472826182 
1917	-0.303960169688465 
1918	-78.1120467591643 
1919	 2.49648972895396 
1920	-24.2117839247604 
1921	 1.96303854651594E-02 
1922	 0.272047950377518 
1923	 0.166239183311853 
1924	 0.200446899260983 
1925	 0.329056242236658 
1926	 0.421433571898303 
1927	 0.747242689241348 
1928	-10.3973986086029 
1929	-0.705815190550712 
1930	 0.116201615741864 
1931	 1.07633774564771 
1932	 5.98231770714414 
1933	-3.08605907262537 
1934	 8.23328723117179E-02 
1935	 4.44497637553766 
1936	-34.7304029587995 
1937	 50.3011452804686 
1938	-2.89078515834078 
1939	-3.40292408928481 
1940	-0.628782593807933 
1941	 0.135818189952778 
1942	-0.140077748827627 
1943	-0.434857271244397 
1944	 3.15319529623033E-02 
1945	-0.259237498666256 
1946	-4.90766002287939E-02 
1947	 1.23062435984112 
1948	-2.09134170563317E-02 
1949	-0.887988087181109 
1950	-0.922561527564903 
1951	-1.22669656723758 
1952	-1.27546720144508 
1953	-1.19931451024807 
1954	-0.639887890688191 
1955	 0.164795103693027 
1956	 0.479237442044978 
1957	 0.415093113130044 
1958	 0.304665532161726 
1959	 0.164727586503056 
1960	 0.148103666567336 
1961	 0.210737361303654 
1962	 0.189278624239167 
1963	 0.145614381108694 
1964	 5.05863021611888E-02 
1965	-7.83472611979096E-02 
1966	-0.10485214885615 
1967	-0.104448236797241 
1968	-5.37939449240902E-02 
1969	 1.4896511117402E-03 
1970	 5.15180513815026E-02 
1971	 6.64602418449246E-02 
1972	 5.74989698796075E-02 
1973	 0.059099489044019 
1974	 4.81146896775008E-02 
1975	 5.61157610076484E-02 
1976	 5.35467620963848E-02 
1977	 2.49160709991391E-02 
1978	 1.03375662263396E-02 
1979	 1.70667371337175E-03 
1980	-5.48400903988282E-03 
1981	-4.10031760157561E-03 
1982	-4.55087280254337E-03 
1983	-1.75673091326344E-02 
1984	-2.05089317232847E-02 
1985	-1.53091490155893E-02 
1986	 2.09338170394525E-03 
1987	 1.12690528101933E-02 
1988	 1.09566648038125E-02 
1989	 2.17388135009172E-02 
1990	 7.4799586523592E-03 
1991	 4.85052670645283E-03 
1992	 3.49956705214491E-02 
1993	 3.24465651934199E-02 
1994	 2.57827556048919E-02 
1995	 9.98987306984734E-03 
1996	 1.27208322422873E-02 
1997	 8.17235963267896E-03 
1998	 6.52266985674667E-03 
1999	 1.87655063247363E-02 
2000	 4.52047574966302E-02 
2001	 5.96614238071867E-02 
2002	 6.65011481582905E-02 
2003	 8.16171693330784E-02 
2004	 0.103327280411793 
2005	 7.36265127297783E-02 
2006	 3.11597298725243E-02 
2007	 5.38752327468873E-02 
2008	 4.72030050053575E-02 
2009	 3.84105219098815E-02 
2010	 4.03186003791138E-02 
2011	 4.05582351198309E-02 
2012	 1.81706559684565E-02 
2013	 0.026988299408083 
2014	 4.98042474079777E-02 
2015	 0.052213574295688 
2016	 4.53000078837704E-02 
2017	 3.35512919752092E-02 
2018	 1.66308349641691E-02 
2019	 1.04725654307874E-02 
2020	 1.95871450130955E-02 
2021	 2.12389397241785E-02 
2022	 2.31365658793603E-02 
2023	 2.07341530910465E-02 
2024	 1.13782346789579E-02 
2025	-1.14358953430296E-02 
2026	-0.018600344612398 
2027	-2.43429514352225E-02 
2028	-2.46287616777214E-02 
2029	-2.40827487046263E-02 
2030	-2.05334330920547E-02 
2031	-1.76179040999375E-02 
2032	-1.23828344667276E-02 
2033	 4.94835530532356E-05 
2034	 1.78705947692961E-02 
2035	 0.021385905289797 
2036	 1.70017772459924E-02 
2037	 1.15807865593366E-02 
2038	 3.13635751724453E-03 
2039	 3.29203835777145E-04 
2040	 4.88278896760851E-03 
2041	 4.51108028022129E-03 
2042	 2.84298547185375E-04 
2043	 6.08935620590946E-04 
2044	 2.90851830851829E-03 
2045	 8.07079008551927E-03 
2046	 4.40086569307061E-03 
2047	 3.32731386036343E-03 
2048	 3.32471768173042E-04 
2049	-3.99750349566192E-03 
2050	-3.5496035889577E-03 
2051	 1.46945559187407E-03 
2052	 5.36798848870379E-03 
2053	 1.00228214965889E-02 
2054	 1.66375822738947E-02 
2055	 1.93740949037257E-02 
2056	 1.69801832880736E-02 
2057	 5.11521828571987E-03 
2058	-6.23057525367938E-03 
2059	-2.57529369283994E-02 
2060	-2.99337173507282E-02 
2061	-2.92417201937139E-02 
2062	-2.59606858875267E-02 
2063	-0.01334030277329 
2064	-2.77032906301696E-03 
2065	 2.74520496726281E-03 
2066	 0.011666940538756 
2067	 1.27077134151201E-02 
2068	 6.1649912221231E-03 
2069	 1.42361340936528E-03 
2070	-2.75054836687128E-03 
2071	-5.54313418862332E-03 
2072	 1.75889280663967E-03 
2073	 4.02292617655949E-03 
2074	 1.19878720384462E-03 
2075	 4.68561039843343E-03 
2076	 1.38402540768116E-02 
2077	 1.58822980118857E-02 
2078	 1.74576013489256E-02 
2079	 1.82598909761661E-02 
2080	 1.63663379482405E-02 
2081	 1.30961134621181E-02 
2082	 9.32555702631846E-03 
2083	 1.33597836974509E-02 
2084	 1.64977478932152E-02 
2085	 1.21993481314582E-02 
2086	 9.66558050841529E-03 
2087	 6.83349840904716E-03 
2088	 3.69310479229563E-03 
2089	 2.56882514337306E-03 
2090	 3.45654098557299E-03 
2091	 6.11145004924478E-03 
2092	 8.10829267667929E-03 
2093	 1.09500944410243E-02 
2094	 1.14470826066737E-02 
2095	 1.09043453876953E-02 
2096	 1.10345122538084E-02 
2097	 1.06343084576224E-02 
2098	 9.75816013243831E-03 
2099	 1.09808879274138E-02 
2100	 6.52621836204043E-03 
2101	 4.92825181973979E-03 
2102	-1.8303600600993E-03 
2103	-6.47285986691641E-03 
2104	-1.11994395068278E-03 
2105	-2.24286855684044E-03 
2106	-2.5211864689996E-03 
2107	-1.12237402379987E-03 
2108	-4.01523287824142E-03 
2109	-0.001760263157181 
2110	 1.27860000724435E-03 
2111	 3.1702204129791E-03 
2112	 6.75465522059972E-03 
2113	 6.35980258651206E-03 
2114	 3.52754640719949E-04 
2115	-4.87074201443873E-05 
2116	 2.86573847239584E-04 
2117	 9.80609579141488E-04 
2118	 6.58889542414606E-03 
2119	 7.34271286581817E-03 
2120	 5.7822460370105E-03 
2121	 2.3199497536442E-03 
2122	 6.43426688723397E-04 
2123	 3.25058356790721E-03 
2124	 5.86310482000252E-03 
2125	 6.71282179442417E-03 
2126	 3.07756015377308E-03 
2127	-1.25724397723713E-04 
2128	 1.3556143912683E-03 
2129	 7.88399297425153E-03 
2130	 1.59399961595506E-02 
2131	 2.27518107114789E-02 
2132	 2.38055560573595E-02 
2133	 1.94021221387415E-02 
2134	 1.71576470663707E-02 
2135	 1.17561001779127E-02 
2136	 8.27447297734541E-03 
2137	 5.46393903581987E-03 
2138	 4.63679066111877E-03 
2139	 6.20666866918332E-03 
2140	 6.71449377543166E-03 
2141	 8.70342500199045E-03 
2142	 9.66137080202322E-03 
2143	 1.04805532353404E-02 
2144	 6.49358169232225E-03 
2145	 6.59554366985181E-03 
2146	 6.38291216170953E-03 
2147	 5.32079498838605E-03 
2148	 7.90007823234439E-03 
2149	 8.83827429048036E-03 
2150	 1.07836786499282E-02 
2151	 1.22512096456334E-02 
2152	 1.04341184275663E-02 
2153	 7.58398595082033E-03 
2154	 3.89359903684011E-03 
2155	 1.54844319984807E-03 
2156	 1.87216559026381E-04 
2157	 1.60907641092683E-03 
2158	 8.25543138211295E-03 
2159	 1.12770016904251E-02 
2160	 1.32985999500704E-02 
2161	 1.74896355789154E-02 
2162	 2.21813294115954E-02 
2163	 2.38335993187864E-02 
2164	 2.78622259552521E-02 
2165	 2.86532252459005E-02 
2166	 2.39453054849019E-02 
2167	 2.15489160680287E-02 
2168	 2.12098045545299E-02 
2169	 1.76830813699423E-02 
2170	 9.82175271854795E-03 
2171	 6.0277818624238E-03 
2172	 9.59368145325718E-03 
2173	 6.35242921275145E-03 
2174	 2.49257896592721E-03 
2175	 1.89212493739848E-03 
2176	-2.77324235962168E-03 
2177	-7.46641511903376E-03 
2178	-5.59574190708267E-03 
2179	-3.38245798537341E-03 
2180	 1.30195639680763E-03 
2181	 7.3060284298315E-03 
2182	 1.03112577590713E-02 
2183	 1.26517019954947E-02 
2184	 7.79994453692117E-03 
2185	 1.4511450443362E-03 
2186	-7.60408601044184E-04 
2187	-1.09661788287681E-03 
2188	 2.6188999476316E-04 
2189	 5.9980757574311E-03 
2190	 7.42398192459386E-03 
2191	 8.8606999606506E-03 
2192	 9.00518900330832E-03 
2193	 4.97363162520627E-03 
2194	 5.04301483298146E-03 
2195	 7.84165907647533E-03 
2196	 6.25301378015178E-03 
2197	 3.92178394890669E-03 
2198	 4.48154674229332E-03 
2199	 2.96820023339147E-03 
2200	 2.05921246100975E-03 
2201	 1.28102054132149E-02 
2202	 1.57272489502431E-02 
2203	 8.76285327101925E-03 
2204	 5.36690048032017E-03 
2205	 1.65199136659809E-03 
2206	 3.65292628419495E-03 
2207	 6.6548593270359E-03 
2208	 1.00150731529571E-02 
2209	 0.017636596439569 
2210	 2.03378525497062E-02 
2211	 2.29061700930618E-02 
2212	 2.33369854350225E-02 
2213	 1.73864751411198E-02 
2214	 5.71784709796469E-03 
2215	-2.74604970712283E-03 
2216	 2.36781027507406E-03 
2217	 5.67938498236606E-03 
2218	 1.55230077300499E-02 
2219	 1.68214416161833E-02 
2220	 1.53869617502089E-02 
2221	 1.41381349355207E-02 
2222	 8.33980338645851E-03 
2223	 6.6677652618846E-03 
2224	 6.72603181312329E-03 
2225	 8.12153172650626E-03 
2226	 1.26369766997607E-02 
2227	 1.24636055605938E-02 
2228	 1.13679938137854E-02 
2229	 1.11663812176657E-02 
2230	 8.2214382196115E-03 
2231	 7.02211122594974E-03 
2232	 6.98481017898093E-03 
2233	 8.65122951993855E-03 
2234	 1.10505608782488E-02 
2235	 1.27154509074003E-02 
2236	 1.86585041771638E-02 
2237	 2.35008394127509E-02 
2238	 2.21418430541591E-02 
2239	 1.83191617400444E-02 
2240	 1.57597259475188E-02 
2241	 1.01817037956412E-02 
2242	 1.05339979887293E-02 
2243	 1.28756347695306E-02 
2244	 8.06472135137905E-03 
2245	 9.59212928519326E-03 
2246	 2.74591336766458E-03 
2247	 2.45111157195913E-03 
2248	 9.98122303386573E-03 
2249	 1.14820058474999E-02 
2250	 2.55172973549349E-02 
2251	 2.42880175718708E-02 
2252	 1.83451458985213E-02 
2253	 1.86208072667466E-02 
2254	 9.98944388827751E-03 
2255	 6.73262474041581E-03 
2256	 4.7252560256091E-03 
2257	 7.94589348839325E-03 
2258	 2.07969939289648E-02 
2259	 3.66674964973292E-02 
2260	 4.16089282681272E-02 
2261	 3.93752124567833E-02 
2262	 4.08399378209396E-02 
2263	 3.50981359175052E-02 
2264	 3.41695686552982E-02 
2265	 4.37288178534521E-02 
2266	 4.36705083182152E-02 
2267	 3.56790050660273E-02 
2268	 2.90387934976504E-02 
2269	 1.84340366602696E-02 
2270	 8.4408736120844E-03 
2271	-3.77772652828983E-03 
2272	-7.25772990604553E-03 
2273	-3.57211822341615E-03 
2274	-4.88407057151555E-03 
2275	-1.65570065864356E-03 
2276	-3.85586575595596E-03 
2277	-1.97905375783458E-02 
2278	-2.11475967544951E-02 
2279	-1.23691241295675E-02 
2280	-9.6973164576001E-03 
2281	-4.98931877827158E-03 
2282	 2.79683906008271E-03 
2283	 9.3696893023273E-03 
2284	 1.39786177396185E-02 
2285	 1.09111562348246E-02 
2286	 1.42459656104053E-02 
2287	 1.08808322711688E-02 
2288	 1.24518812034245E-02 
2289	 3.05430639969056E-02 
2290	 3.64432373573358E-02 
2291	 4.43272833937384E-02 
2292	 2.79560330199121E-02 
2293	-6.22803730093117E-03 
2294	-1.41163755290812E-02 
2295	-1.34467238149114E-02 
2296	-1.33300413659503E-02 
2297	 3.06865962779116E-03 
2298	 1.69323703093145E-02 
2299	 1.53169184544737E-02 
2300	 2.76987734788105E-02 
2301	 3.95411521963727E-02 
2302	 4.10303362900697E-02 
2303	 3.58383008309638E-02 
2304	 2.25888652067966E-02 
2305	 3.19958932304743E-03 
2306	-1.47301534814275E-02 
2307	-1.63966553379865E-02 
2308	-2.8552433047964E-04 
2309	 2.75798254322537E-02 
2310	 0.044620405914317 
2311	 3.95240973792415E-02 
2312	 3.03318048805401E-02 
2313	 2.19505357504799E-02 
2314	 1.42105032906032E-02 
2315	 1.06048868668206E-02 
2316	-6.84002514524218E-03 
2317	-1.73114452919791E-02 
2318	-1.37444695171121E-02 
2319	-4.12642353771097E-03 
2320	 1.87111021164078E-02 
2321	 0.042222837987444 
2322	 5.98693014041706E-02 
2323	 6.45537673578398E-02 
2324	 7.84038142781102E-02 
2325	 9.22319405342112E-02 
2326	 0.076334583381968 
2327	 8.16965496807513E-02 
2328	 9.70384404625182E-02 
2329	 9.13561866221401E-02 
2330	 9.84847340735932E-02 
2331	 0.101489141359442 
2332	 0.100657678010733 
2333	 0.102410275356571 
2334	 0.104881517931507 
2335	 0.124740819580157 
2336	 0.136023683530943 
2337	 0.138480333780669 
2338	 0.139623343482488 
2339	 0.13198093200004 
2340	 0.120661095644156 
2341	 7.98195613425552E-02 
2342	 8.40452809758786E-02 
2343	 9.48354122090445E-02 
2344	 3.57775523328911E-02 
2345	 4.79977469932114E-02 
2346	 3.35990741484223E-02 
2347	-5.08685238333333E-03 
2348	 5.86978612630555E-02 
2349	 7.14955446190316E-02 
2350	 0.052543186445037 
2351	 9.17033196892471E-02 
2352	 9.15968039258756E-02 
2353	 7.87103154120459E-02 
2354	 9.96929625331809E-02 
2355	 6.34429077679376E-02 
2356	 6.09350879071436E-02 
2357	 0.101604997810325 
2358	 0.127052148315063 
2359	 0.250238807576079 
2360	 0.395774567479289 
2361	 0.425386791050994 
2362	 0.386965187715175 
2363	 0.309864126319107 
2364	 0.184915345515689 
2365	 0.094383649691793 
2366	 6.35980066056279E-02 
2367	 7.78981977030025E-02 
2368	 0.113536228493653 
2369	 0.120074657015309 
2370	 0.146864883373241 
2371	 0.188643155115754 
2372	 0.102159253947981 
2373	 0.140507885066461 
2374	 0.19913280991904 
2375	 0.167787529885507 
2376	 0.297429282198562 
2377	 0.243155079909765 
2378	 0.1998263120571 
2379	 0.230912905302852 
2380	 0.161217312336607 
2381	 0.448188430961037 
2382	 0.83634525904283 
2383	 0.783331878697691 
2384	 0.853243022097889 
2385	 0.629640208281856 
2386	 0.13826039000923 
2387	 0.023970958560884 
2388	 0.209486674303365 
2389	 0.365188874748183 
2390	 0.480493398235504 
2391	 0.528131801053861 
2392	 0.434227028004059 
2393	 0.180408522470254 
2394	 0.274447188019624 
2395	 0.290372749485118 
2396	 0.09962453141442 
2397	 0.115630827128542 
2398	 0.102293215937383 
2399	 9.27440127491971E-02 
2400	-7.65572607885073E-03 
2401	-0.110264407934762 
2402	-2.76030660242781E-02 
2403	 0.325338367878201 
2404	 0.581184330936009 
2405	 0.628994592840143 
2406	 0.945578667091093 
2407	 0.778251031751798 
2408	-0.625827877689671 
2409	-1.81220790967923 
2410	-6.69618251265532 
2411	-1.46057134288998 
2412	-1.18048021917362 
2413	-0.717452700887533 
2414	-0.852834818632656 
2415	-0.735328414867173 
2416	-0.530553290722951 
2417	-1.04809111911712 
2418	-1.2076054240772 
2419	-1.23205096789951 
2420	-5.04700671594568 
2421	-1.31694685595354 
2422	-0.922235156630631 
2423	-1.19359401948636 
2424	-2.96814563101407 
2425	-5.55054411536511 
2426	-78.8518023127357 
2427	 3.78240654968951 
2428	 12.7696587355272 
2429	-1.12965906982698 
2430	 0.849726563966817 
2431	 1.55814094943072 
2432	 1.33787278280479 
2433	 4.01801864109176 
2434	 1.06958564784263E-02 
2435	-0.143535261037973 
2436	-0.388374821339171 
2437	-1.61833534132852 
2438	-2.05898564342959 
2439	-2.44506265880031 
2440	-2.47281747814338 
2441	-0.866341061088289 
2442	-0.615324456012702 
2443	-0.49798738671177 
2444	-0.327997801954864 
2445	 1.56425703648573E-02 
2446	 0.365873021630087 
2447	 0.310005344810223 
2448	 0.380683982175267 
2449	 0.123865800043339 
2450	-0.21381501450115 
2451	-4.36308293120209E-02 
2452	-0.711095374235618 
2453	-0.624332731973207 
2454	-1.57384598167526 
2455	-0.184942486211634 
2456	 0.812724191412034 
2457	 0.984608830741309 
2458	 0.755625786930137 
2459	 0.985392955604661 
2460	 0.839413405721006 
2461	 0.14982655372373 
2462	 0.204088514328031 
2463	 0.496469909528205 
2464	 2.10994831339378 
2465	 15.6180311088289 
2466	 2.35252221294844 
2467	 0.438004924179162 
2468	-3.77967015030084E-02 
2469	-0.664339648226916 
2470	-0.762159379297099 
2471	-0.682471971254289 
2472	-0.737923986950403 
2473	-0.740363066306469 
2474	-0.759501845999436 
2475	-1.23464146317555 
2476	-2.04369849355726 
2477	-5.00586046216349 
2478	 2.15058343909246 
2479	 1.4394424472235 
2480	 8.82475336633727 
2481	-3.54270345365006 
2482	-1.27636191456161 
2483	 0.430053118857247 
2484	 1.48372589662166 
2485	 2.00982603030271 
2486	 0.783148000996026 
2487	-9.82799474736506E-02 
2488	-0.577693831482506 
2489	-0.683397320168548 
2490	-0.376717174316912 
2491	-0.329294095075537 
2492	-0.491794140781398 
2493	-0.479703434666808 
2494	-0.139433891849005 
2495	 0.731853053260557 
2496	 3.05154589048546 
2497	 1.94261320685734 
2498	 1.21746052824016 
2499	-1.3098476514598 
2500	 0.496528905197849 
