Wavelength	rt0704dirt00000.asd
350	 0.10756881104501 
351	 0.107540466020349 
352	 0.107983349625434 
353	 0.108266612422372 
354	 0.108133066665224 
355	 0.108704648322694 
356	 0.108660243604676 
357	 0.108691604971243 
358	 0.109612369188426 
359	 0.109982123206554 
360	 0.1102893996564 
361	 0.110570066045591 
362	 0.110596121323231 
363	 0.111228427718826 
364	 0.111579246813375 
365	 0.111443614863201 
366	 0.111957946894252 
367	 0.112385159732305 
368	 0.112606802164864 
369	 0.112751209239237 
370	 0.113182132883223 
371	 0.114010971861904 
372	 0.114680920186744 
373	 0.114493362152922 
374	 0.115122419822522 
375	 0.115657509597702 
376	 0.115856031582971 
377	 0.11673995214215 
378	 0.117136966718756 
379	 0.117443949070876 
380	 0.1181697624328 
381	 0.119030513366965 
382	 0.119242648669098 
383	 0.119353442515988 
384	 0.120312847422124 
385	 0.120884577023135 
386	 0.121034227413349 
387	 0.121276578503581 
388	 0.122514680770354 
389	 0.122882452840001 
390	 0.123036618828101 
391	 0.12364016267901 
392	 0.124113004542546 
393	 0.124355261970049 
394	 0.1245578577956 
395	 0.124972875992136 
396	 0.125517569018087 
397	 0.125886451050797 
398	 0.126086673307557 
399	 0.126385807523107 
400	 0.126647905632495 
401	 0.126842484322794 
402	 0.127057310400207 
403	 0.1276474525276 
404	 0.128005121779811 
405	 0.128156647041976 
406	 0.12834706513113 
407	 0.128511846085639 
408	 0.128850352900542 
409	 0.12931731059562 
410	 0.129628734412801 
411	 0.129839914991603 
412	 0.129936222974186 
413	 0.13000215598682 
414	 0.130374919468211 
415	 0.130877925135693 
416	 0.131230762553692 
417	 0.131245290147374 
418	 0.131527157086214 
419	 0.131960599559079 
420	 0.132384680949232 
421	 0.132662639999904 
422	 0.132987091162038 
423	 0.133461137006393 
424	 0.134073374086729 
425	 0.134568839669199 
426	 0.135085139309965 
427	 0.135648872719506 
428	 0.136234793075395 
429	 0.136875337505525 
430	 0.13744294331032 
431	 0.137944336745123 
432	 0.138556749180544 
433	 0.139226428921502 
434	 0.139900351410505 
435	 0.140551980950093 
436	 0.141249260618556 
437	 0.141851573057998 
438	 0.142426971231759 
439	 0.143110389018589 
440	 0.143548262162091 
441	 0.144023432813524 
442	 0.144654231179111 
443	 0.145219580615633 
444	 0.145758489369648 
445	 0.146212465628522 
446	 0.14654962961034 
447	 0.146902091578114 
448	 0.147357520669569 
449	 0.147795578906104 
450	 0.147980172048022 
451	 0.14823018029852 
452	 0.148557077846572 
453	 0.148864550469073 
454	 0.148916407368519 
455	 0.149107489988007 
456	 0.149284018477516 
457	 0.149221976054503 
458	 0.149480308666298 
459	 0.14959078294377 
460	 0.149496945183433 
461	 0.14959214039081 
462	 0.149640306068991 
463	 0.149661127485725 
464	 0.149712936447462 
465	 0.1498394049791 
466	 0.149862572247433 
467	 0.149894087376156 
468	 0.15011893064076 
469	 0.150081666560472 
470	 0.150141733015017 
471	 0.150381518601332 
472	 0.150417346230199 
473	 0.150486273481236 
474	 0.150705319065287 
475	 0.15103092762053 
476	 0.15093680723582 
477	 0.151105313050862 
478	 0.151501520617226 
479	 0.151633739059283 
480	 0.151915866408928 
481	 0.152193659954109 
482	 0.152394755860469 
483	 0.152761508084838 
484	 0.153134299187324 
485	 0.153524539511772 
486	 0.153956258557379 
487	 0.154184236075427 
488	 0.154485696636158 
489	 0.15494695174307 
490	 0.155444872828352 
491	 0.155993106412466 
492	 0.156555784097292 
493	 0.157084021824653 
494	 0.157494404130328 
495	 0.158066104221045 
496	 0.158749110896436 
497	 0.15933960037619 
498	 0.159920976697202 
499	 0.160543534938564 
500	 0.161220922177277 
501	 0.161916588773559 
502	 0.162517922552831 
503	 0.163135231441741 
504	 0.163866970495877 
505	 0.164448056609753 
506	 0.165201044607527 
507	 0.166095043088155 
508	 0.166820958953935 
509	 0.167452956820281 
510	 0.168198209651187 
511	 0.169097680837388 
512	 0.169748280993409 
513	 0.170524619678734 
514	 0.171384114743445 
515	 0.172149129503425 
516	 0.173114231002088 
517	 0.173989216508718 
518	 0.174733530817174 
519	 0.175672513340537 
520	 0.176634963212257 
521	 0.177532594451457 
522	 0.178361459803266 
523	 0.179310648460357 
524	 0.180288609367845 
525	 0.181264139971565 
526	 0.182260694217828 
527	 0.183359429173122 
528	 0.184423542827424 
529	 0.185408181280727 
530	 0.186507477272074 
531	 0.187697952941693 
532	 0.188906882728001 
533	 0.190061998778742 
534	 0.191297048410901 
535	 0.192470897967027 
536	 0.193593426624268 
537	 0.194854236372886 
538	 0.196209456636814 
539	 0.197493618437223 
540	 0.198642956795077 
541	 0.200043762718486 
542	 0.201325580781193 
543	 0.202484032992703 
544	 0.203740060402912 
545	 0.205005650159302 
546	 0.206250104499066 
547	 0.207471104779449 
548	 0.208727222570926 
549	 0.209830031095673 
550	 0.210874807727668 
551	 0.212012094904765 
552	 0.213046732963789 
553	 0.214075231804211 
554	 0.215132200223968 
555	 0.216157282761012 
556	 0.217112090231728 
557	 0.218064913999348 
558	 0.219045255692483 
559	 0.219893281531172 
560	 0.220778591090847 
561	 0.221705657270772 
562	 0.222588135466732 
563	 0.223521615533292 
564	 0.224357403968318 
565	 0.225033049438497 
566	 0.225706757913306 
567	 0.226401278063621 
568	 0.227077842903154 
569	 0.22769289628735 
570	 0.228389591188239 
571	 0.228976030207659 
572	 0.229447471399017 
573	 0.230014142557835 
574	 0.230606760032294 
575	 0.231169279808967 
576	 0.231670768950924 
577	 0.2321664301782 
578	 0.23270860752552 
579	 0.233252251050379 
580	 0.23370099453805 
581	 0.234100105520117 
582	 0.23449933345914 
583	 0.234917050545517 
584	 0.23532512750272 
585	 0.235546659360121 
586	 0.23562793638859 
587	 0.235712852647602 
588	 0.235916068703778 
589	 0.236161401329456 
590	 0.236429712824328 
591	 0.236799008993096 
592	 0.237090887946214 
593	 0.237439301956614 
594	 0.237922847450112 
595	 0.23828596034772 
596	 0.238668580129432 
597	 0.239070238154554 
598	 0.239416272131976 
599	 0.239747833614736 
600	 0.239992244769097 
601	 0.240117761741657 
602	 0.240167814335649 
603	 0.240384310689781 
604	 0.240496334889098 
605	 0.240226222570173 
606	 0.240186322302584 
607	 0.240149146392036 
608	 0.240028341310923 
609	 0.239922903820969 
610	 0.239821663036549 
611	 0.239682032975948 
612	 0.239485499135305 
613	 0.239304847969845 
614	 0.239118575701716 
615	 0.238978465908918 
616	 0.238951665480599 
617	 0.238859893929916 
618	 0.23874549809967 
619	 0.238695261117284 
620	 0.238846073663922 
621	 0.238735281791043 
622	 0.238586816729145 
623	 0.238710367244347 
624	 0.238644885074982 
625	 0.238452602181668 
626	 0.238304462313759 
627	 0.238434202597983 
628	 0.238450531045941 
629	 0.238485250949924 
630	 0.238626024572501 
631	 0.238557306258293 
632	 0.238551309231529 
633	 0.238610514169987 
634	 0.238604590992977 
635	 0.238454442395307 
636	 0.238318143294979 
637	 0.238224320179955 
638	 0.237981011631668 
639	 0.237779657498026 
640	 0.237592546588459 
641	 0.237361581430321 
642	 0.237208851327121 
643	 0.236768138322946 
644	 0.236059731361335 
645	 0.235426588140919 
646	 0.234768356626202 
647	 0.23413353394323 
648	 0.233572906663428 
649	 0.233042301753935 
650	 0.232502313524351 
651	 0.231994582950413 
652	 0.231606973892367 
653	 0.231294220650096 
654	 0.230994773706597 
655	 0.230637441432944 
656	 0.230186660650894 
657	 0.229695557390897 
658	 0.229214262424196 
659	 0.228713431114731 
660	 0.228005730827935 
661	 0.227142574344387 
662	 0.226234287908283 
663	 0.225428589404252 
664	 0.224603856298298 
665	 0.223823639854975 
666	 0.223110575830456 
667	 0.222405279429284 
668	 0.221608452944424 
669	 0.22090591212768 
670	 0.220518390541161 
671	 0.220313670825908 
672	 0.220044016818095 
673	 0.219788710158222 
674	 0.219914522893239 
675	 0.220097796491977 
676	 0.22035811018498 
677	 0.220779231738515 
678	 0.221429888980881 
679	 0.222340736990582 
680	 0.223432578428861 
681	 0.224626580230063 
682	 0.226242500102036 
683	 0.22810126987048 
684	 0.230059242578685 
685	 0.232289360492551 
686	 0.235151297144769 
687	 0.238280113357296 
688	 0.241121711269058 
689	 0.244425835632164 
690	 0.247588315414917 
691	 0.250661104172097 
692	 0.254099302708285 
693	 0.257959615036017 
694	 0.26200939515183 
695	 0.265807909792533 
696	 0.269230576615172 
697	 0.272706717539724 
698	 0.276373174615742 
699	 0.27992654653131 
700	 0.283392105805677 
701	 0.28695575129073 
702	 0.290388333675705 
703	 0.293364757903881 
704	 0.296170617838114 
705	 0.298944800631789 
706	 0.301618153679543 
707	 0.304060471285574 
708	 0.306270328352801 
709	 0.308282996404775 
710	 0.310123616291777 
711	 0.311749608753679 
712	 0.313100733247902 
713	 0.314212470075606 
714	 0.315237680232714 
715	 0.315946396654093 
716	 0.316565558916179 
717	 0.317311838165919 
718	 0.318062680927902 
719	 0.318883791198185 
720	 0.319444100950536 
721	 0.319665485785364 
722	 0.320041907865446 
723	 0.320326286073732 
724	 0.320354782964939 
725	 0.320373249849054 
726	 0.320565790959473 
727	 0.320610208351794 
728	 0.320287061035875 
729	 0.320001339250477 
730	 0.31973876097625 
731	 0.319433932619653 
732	 0.319027513723919 
733	 0.318736392723968 
734	 0.31850069309539 
735	 0.318324893952628 
736	 0.318302617205215 
737	 0.318446684224347 
738	 0.318555202537743 
739	 0.318546492277074 
740	 0.31883569619025 
741	 0.31910406930605 
742	 0.319371726933192 
743	 0.319779131100761 
744	 0.31989668442592 
745	 0.32007774713258 
746	 0.320394632263851 
747	 0.320449084940513 
748	 0.320769781087331 
749	 0.32110684144569 
750	 0.321196688403484 
751	 0.321412695428944 
752	 0.321607167599094 
753	 0.321742735265963 
754	 0.321853158201716 
755	 0.32201479620069 
756	 0.322223106476392 
757	 0.322368141589428 
758	 0.322108891888256 
759	 0.322180612420332 
760	 0.322466879498741 
761	 0.322225204662176 
762	 0.322252597712559 
763	 0.322622790481168 
764	 0.323123488948062 
765	 0.323559262205733 
766	 0.324145180941026 
767	 0.324445952997079 
768	 0.324573822525196 
769	 0.325098500833248 
770	 0.325443799684817 
771	 0.325683384258423 
772	 0.325948601831835 
773	 0.326156306179732 
774	 0.326424438122526 
775	 0.326735650176628 
776	 0.327018182190508 
777	 0.327240089588479 
778	 0.327630877773947 
779	 0.32809359262681 
780	 0.328227729374605 
781	 0.328569411958079 
782	 0.329036466880756 
783	 0.329441511848 
784	 0.329613387184637 
785	 0.329915111744418 
786	 0.330281426259335 
787	 0.330538893727983 
788	 0.330881942778918 
789	 0.331331649569047 
790	 0.331806830698221 
791	 0.332184188844496 
792	 0.332650711265979 
793	 0.333056764398684 
794	 0.333385153169506 
795	 0.333882822070689 
796	 0.334167400594805 
797	 0.334371778943868 
798	 0.334703082780241 
799	 0.335033696908201 
800	 0.335289299344068 
801	 0.335580743293059 
802	 0.336062661723526 
803	 0.336363626417002 
804	 0.336560687619851 
805	 0.336742408896256 
806	 0.336956105382719 
807	 0.337168113299947 
808	 0.337253783747625 
809	 0.337146905289161 
810	 0.336986663870713 
811	 0.336785575729447 
812	 0.336562359575459 
813	 0.336345204288736 
814	 0.336210600404104 
815	 0.33598018653438 
816	 0.33591335455548 
817	 0.336433657469823 
818	 0.336565976623422 
819	 0.33609343050574 
820	 0.335352059817309 
821	 0.335208759387765 
822	 0.334915909792961 
823	 0.3343652618041 
824	 0.333675384749395 
825	 0.332906503257551 
826	 0.331993391042247 
827	 0.330952342580436 
828	 0.329909761275759 
829	 0.328851944459611 
830	 0.327907346941364 
831	 0.327125228172249 
832	 0.32652011507671 
833	 0.326077652222173 
834	 0.325927684872871 
835	 0.325898532383325 
836	 0.325466073593591 
837	 0.325310515515113 
838	 0.32529223226343 
839	 0.325147694071975 
840	 0.324722853137152 
841	 0.324626758879976 
842	 0.32463507082041 
843	 0.324342545097253 
844	 0.324056687495576 
845	 0.32395013470895 
846	 0.323958485608194 
847	 0.323859310279738 
848	 0.323582629103167 
849	 0.323383150602574 
850	 0.323289648071312 
851	 0.323007717187275 
852	 0.322791202798268 
853	 0.322833920117924 
854	 0.323028791871009 
855	 0.322711060534702 
856	 0.322382371615291 
857	 0.322265393869751 
858	 0.322367069235177 
859	 0.322274833511886 
860	 0.322126345238718 
861	 0.321908696739217 
862	 0.321636205779231 
863	 0.322007810187646 
864	 0.321799540128036 
865	 0.321159369731664 
866	 0.321409558609225 
867	 0.321056290307146 
868	 0.32082520966945 
869	 0.320881640644963 
870	 0.320329366498322 
871	 0.320034944734944 
872	 0.319967294407892 
873	 0.319957104279922 
874	 0.320009468883457 
875	 0.319598331534725 
876	 0.319032107951677 
877	 0.318752235842374 
878	 0.318610388382752 
879	 0.318418470807224 
880	 0.318097893269719 
881	 0.31767709620054 
882	 0.317364925729943 
883	 0.31694785985521 
884	 0.316523950755761 
885	 0.316365206962955 
886	 0.315938375602644 
887	 0.31569839779538 
888	 0.315731879159439 
889	 0.315584549192208 
890	 0.315052525606913 
891	 0.314450835278451 
892	 0.313986790441865 
893	 0.313438842573689 
894	 0.312562024785122 
895	 0.312229348958602 
896	 0.312849732409294 
897	 0.312044364544961 
898	 0.311462441000196 
899	 0.311367442131885 
900	 0.311260515288891 
901	 0.310187930749017 
902	 0.309654322489877 
903	 0.309559394115129 
904	 0.309276479015974 
905	 0.308948364566085 
906	 0.307845301381812 
907	 0.306645250442184 
908	 0.306818635737707 
909	 0.306286665380709 
910	 0.305993446718872 
911	 0.305909989377946 
912	 0.304962260707053 
913	 0.30327502251904 
914	 0.302837931146176 
915	 0.303242972329343 
916	 0.301627687436847 
917	 0.301961967687746 
918	 0.301893073320882 
919	 0.300351198448165 
920	 0.298912635434728 
921	 0.297630572594292 
922	 0.297073714212895 
923	 0.296972371280021 
924	 0.29513673835738 
925	 0.292919991645507 
926	 0.291241885118961 
927	 0.290530698421558 
928	 0.289457201508227 
929	 0.288502935673406 
930	 0.285576674155426 
931	 0.278174548972517 
932	 0.274756333408752 
933	 0.270747856168971 
934	 0.266276759676857 
935	 0.264855882702308 
936	 0.269364589707446 
937	 0.262629601647443 
938	 0.25770999444182 
939	 0.266991873204706 
940	 0.265914180546892 
941	 0.260624256904598 
942	 0.254915442856743 
943	 0.251566044808229 
944	 0.251265393926947 
945	 0.253196503042314 
946	 0.25261660919409 
947	 0.245852735547934 
948	 0.24387782214316 
949	 0.241433681221705 
950	 0.239290559805499 
951	 0.240194663352728 
952	 0.231398587313161 
953	 0.230185404892019 
954	 0.235749193164414 
955	 0.235168969081481 
956	 0.230277713842298 
957	 0.229275113993705 
958	 0.231966277020971 
959	 0.232636876502786 
960	 0.231305221797658 
961	 0.228056873988604 
962	 0.227049147214664 
963	 0.232354405773753 
964	 0.233172332147 
965	 0.233299429313535 
966	 0.233438276103792 
967	 0.23181640765355 
968	 0.23081803333814 
969	 0.230296479273309 
970	 0.230054417672396 
971	 0.230080055877949 
972	 0.230965141310891 
973	 0.231130064643509 
974	 0.23058554629834 
975	 0.231029596273324 
976	 0.232761182940583 
977	 0.232892319192827 
978	 0.231715237457803 
979	 0.232008639100365 
980	 0.231685271897551 
981	 0.233809235829639 
982	 0.236449452791128 
983	 0.234691221321537 
984	 0.232693354367231 
985	 0.232467019828643 
986	 0.234131878234912 
987	 0.236234320901882 
988	 0.236243615015026 
989	 0.237837522304959 
990	 0.239093694591341 
991	 0.235325350123378 
992	 0.23404795644677 
993	 0.23692933665424 
994	 0.240275790142841 
995	 0.238931241035336 
996	 0.239361797643232 
997	 0.240354417271344 
998	 0.240943604207845 
999	 0.240915514958692 
1000	 0.241471767107808 
1001	 0.242200498699905 
1002	 0.24371924034629 
1003	 0.245063473574199 
1004	 0.247257131055438 
1005	 0.248184849552786 
1006	 0.248754719889265 
1007	 0.248265501159939 
1008	 0.24780118598401 
1009	 0.247611336687782 
1010	 0.24796715224114 
1011	 0.249166268670338 
1012	 0.249989118704759 
1013	 0.250811353420768 
1014	 0.251476117722466 
1015	 0.251653448895555 
1016	 0.252487598999745 
1017	 0.253603154592639 
1018	 0.254654462721155 
1019	 0.256562844805167 
1020	 0.257659612375259 
1021	 0.258268444044691 
1022	 0.258690024901164 
1023	 0.259403957528587 
1024	 0.259634636601497 
1025	 0.260457697410602 
1026	 0.261611199048964 
1027	 0.262365445931115 
1028	 0.262927782623598 
1029	 0.263701843392259 
1030	 0.26448694090928 
1031	 0.265116254905514 
1032	 0.265848392602472 
1033	 0.266419648989998 
1034	 0.266358206883614 
1035	 0.267116634176324 
1036	 0.268509042812251 
1037	 0.269555380070637 
1038	 0.270889277592446 
1039	 0.272100590116686 
1040	 0.273111248299254 
1041	 0.273474346443503 
1042	 0.274316218055229 
1043	 0.275311226556771 
1044	 0.27619508669638 
1045	 0.277098878804576 
1046	 0.278016000868304 
1047	 0.279124092242016 
1048	 0.279762313138905 
1049	 0.280344176663466 
1050	 0.28057064207286 
1051	 0.279856752555452 
1052	 0.279981923817782 
1053	 0.280004489867693 
1054	 0.280672088396212 
1055	 0.283008991002453 
1056	 0.283997569658311 
1057	 0.284571867071939 
1058	 0.284997576698265 
1059	 0.285140418414843 
1060	 0.284009541513471 
1061	 0.284125566334715 
1062	 0.285043448731329 
1063	 0.285296096564707 
1064	 0.285390561293156 
1065	 0.285767008623256 
1066	 0.286328396451405 
1067	 0.286388914462376 
1068	 0.286313592268433 
1069	 0.286402185788297 
1070	 0.285866076163649 
1071	 0.285771664742485 
1072	 0.286004043444896 
1073	 0.286928435352768 
1074	 0.286884894369804 
1075	 0.286590600432587 
1076	 0.286179775274544 
1077	 0.285045900368236 
1078	 0.284614994720439 
1079	 0.284525305359285 
1080	 0.284284874404453 
1081	 0.284385295264966 
1082	 0.284115230196113 
1083	 0.283204283213289 
1084	 0.282858824249053 
1085	 0.283261482096617 
1086	 0.282862095959386 
1087	 0.281932422837415 
1088	 0.281522224517038 
1089	 0.281203717654009 
1090	 0.279856340045938 
1091	 0.279518500706782 
1092	 0.280486869242129 
1093	 0.280027102263037 
1094	 0.278542524158949 
1095	 0.278022742942706 
1096	 0.27771237226667 
1097	 0.2768960320109 
1098	 0.276588805328674 
1099	 0.275902826187746 
1100	 0.273277712339519 
1101	 0.272481312782862 
1102	 0.273936645932283 
1103	 0.273632305851221 
1104	 0.273391522949031 
1105	 0.27310817716134 
1106	 0.269612608568569 
1107	 0.265679959531704 
1108	 0.265168653155435 
1109	 0.265532289843049 
1110	 0.264733826796037 
1111	 0.265817597860583 
1112	 0.265529272628469 
1113	 0.261826997434184 
1114	 0.260974968573493 
1115	 0.263534219379198 
1116	 0.264605563989411 
1117	 0.266986076412534 
1118	 0.266933604999737 
1119	 0.262287790344877 
1120	 0.261118983258949 
1121	 0.263511316988495 
1122	 0.258291620513096 
1123	 0.250451818229732 
1124	 0.247258451049873 
1125	 0.237250575497523 
1126	 0.227485397540503 
1127	 0.223299398020217 
1128	 0.222651999394309 
1129	 0.226870255481109 
1130	 0.237238521295895 
1131	 0.236172838244018 
1132	 0.23434443714856 
1133	 0.232650448058039 
1134	 0.223903779557451 
1135	 0.222283360728254 
1136	 0.22881370957567 
1137	 0.227883178305581 
1138	 0.226155387490487 
1139	 0.219501274197714 
1140	 0.210195063712771 
1141	 0.208662338453005 
1142	 0.211269508654035 
1143	 0.209907479074178 
1144	 0.208007359039715 
1145	 0.203469783832681 
1146	 0.197864764151696 
1147	 0.195023729361146 
1148	 0.196175890683813 
1149	 0.195577587478002 
1150	 0.192716821842545 
1151	 0.187160627101328 
1152	 0.185910672959812 
1153	 0.185339112334641 
1154	 0.185278676974626 
1155	 0.186850521931327 
1156	 0.186893378715377 
1157	 0.186957990610814 
1158	 0.186408291966519 
1159	 0.185885741571651 
1160	 0.185596674633092 
1161	 0.185728030914916 
1162	 0.187118139371191 
1163	 0.187457354823957 
1164	 0.187113438246015 
1165	 0.187408737609808 
1166	 0.186718570943637 
1167	 0.186490614765652 
1168	 0.18740725703251 
1169	 0.186585994839373 
1170	 0.185190895587518 
1171	 0.185372236775636 
1172	 0.186878695707731 
1173	 0.186809231377408 
1174	 0.186809260790492 
1175	 0.186887408483331 
1176	 0.186807182287075 
1177	 0.186498325842942 
1178	 0.18672830595907 
1179	 0.187076220732526 
1180	 0.18616467765701 
1181	 0.184862092476502 
1182	 0.18419897884035 
1183	 0.184474499367981 
1184	 0.185206100739362 
1185	 0.185666614088029 
1186	 0.18589660032242 
1187	 0.18568343746259 
1188	 0.185344791920944 
1189	 0.184871516343073 
1190	 0.184154854658512 
1191	 0.184136777065022 
1192	 0.184164857861046 
1193	 0.184376898958793 
1194	 0.183868549465481 
1195	 0.183921381919617 
1196	 0.184260489592329 
1197	 0.18407860040214 
1198	 0.184113363638543 
1199	 0.184294825429045 
1200	 0.184384799602915 
1201	 0.18440496360678 
1202	 0.1845653537687 
1203	 0.18507490688982 
1204	 0.1854236611187 
1205	 0.184877883156392 
1206	 0.184579059837957 
1207	 0.185279780821337 
1208	 0.185269216249575 
1209	 0.185001166676254 
1210	 0.185460695775616 
1211	 0.185541738699323 
1212	 0.185429844205645 
1213	 0.185893017841516 
1214	 0.18619388834724 
1215	 0.186502767495767 
1216	 0.186337871101358 
1217	 0.186461371708894 
1218	 0.186792529862135 
1219	 0.187057548391396 
1220	 0.187567485181994 
1221	 0.188106992622079 
1222	 0.188055582545267 
1223	 0.18789802969736 
1224	 0.187669940215534 
1225	 0.187581893784907 
1226	 0.188092822829509 
1227	 0.188367906605517 
1228	 0.188137992619198 
1229	 0.188150493688319 
1230	 0.188653215059362 
1231	 0.188752097794166 
1232	 0.18877611170342 
1233	 0.188880620202722 
1234	 0.188518053185837 
1235	 0.188479050066862 
1236	 0.188949956760799 
1237	 0.189193100321917 
1238	 0.189378849178144 
1239	 0.189699311889337 
1240	 0.189562027967124 
1241	 0.189706403024295 
1242	 0.190161526500293 
1243	 0.189975070484767 
1244	 0.190408094223669 
1245	 0.191411757659434 
1246	 0.191683037564371 
1247	 0.191426957408806 
1248	 0.191253400065747 
1249	 0.191211606176486 
1250	 0.191396530264716 
1251	 0.192014483664446 
1252	 0.192450286230482 
1253	 0.192553912684451 
1254	 0.192543352205122 
1255	 0.192491335330857 
1256	 0.192541082105725 
1257	 0.192789239925418 
1258	 0.192667678254778 
1259	 0.1921013568257 
1260	 0.192083544565399 
1261	 0.192385880528644 
1262	 0.192171910586478 
1263	 0.191821979428066 
1264	 0.192010268186701 
1265	 0.191907635470046 
1266	 0.191481909632958 
1267	 0.191614647080467 
1268	 0.191946925735516 
1269	 0.191977390736121 
1270	 0.191866230372715 
1271	 0.191928226432829 
1272	 0.192275353009839 
1273	 0.192206663962759 
1274	 0.191675386657302 
1275	 0.191537194714079 
1276	 0.191453415120754 
1277	 0.190766024830768 
1278	 0.190204132504291 
1279	 0.190270187120538 
1280	 0.190184565403235 
1281	 0.18989362948683 
1282	 0.189969543802127 
1283	 0.189934476596573 
1284	 0.189256815655528 
1285	 0.188922366711662 
1286	 0.189285788260483 
1287	 0.188981886961589 
1288	 0.18802611605796 
1289	 0.187550647557672 
1290	 0.187095603438573 
1291	 0.186723425918899 
1292	 0.1861356012513 
1293	 0.18554360355595 
1294	 0.185590102641681 
1295	 0.185157849576957 
1296	 0.184573702165014 
1297	 0.184277188934151 
1298	 0.182738769347272 
1299	 0.181498401846225 
1300	 0.181061632352734 
1301	 0.18054865290492 
1302	 0.180583117479026 
1303	 0.180457183713336 
1304	 0.179702590535592 
1305	 0.178406709537268 
1306	 0.177784562300568 
1307	 0.177605370624021 
1308	 0.176674203654981 
1309	 0.175435804079067 
1310	 0.174915045801881 
1311	 0.174533930056459 
1312	 0.173283443199858 
1313	 0.171900679012082 
1314	 0.171000411412156 
1315	 0.169526088269555 
1316	 0.168057489284458 
1317	 0.167411618484624 
1318	 0.166827605884715 
1319	 0.16534590553282 
1320	 0.164322492980991 
1321	 0.163331844110593 
1322	 0.164449340650826 
1323	 0.165936787832458 
1324	 0.165782063164226 
1325	 0.163618013902075 
1326	 0.162456543174881 
1327	 0.161749359600485 
1328	 0.159333880117566 
1329	 0.156827312761678 
1330	 0.155051402678168 
1331	 0.152500527723012 
1332	 0.149705447161614 
1333	 0.150035793884503 
1334	 0.15173446614817 
1335	 0.151612242656239 
1336	 0.149215298252729 
1337	 0.148884307582703 
1338	 0.150044554814352 
1339	 0.149009631794971 
1340	 0.146766333224882 
1341	 0.145838800224064 
1342	 0.143843312110698 
1343	 0.1417631258553 
1344	 0.141257717805751 
1345	 0.140608658573609 
1346	 0.136216015600609 
1347	 0.13656962023563 
1348	 0.148828746289724 
1349	 0.15413078475562 
1350	 0.15549502217408 
1351	 0.162803821829065 
1352	 0.168618833632448 
1353	 0.159628877430358 
1354	 8.17200267620631E-02 
1355	 8.95108615996124E-02 
1356	 0.33819543067875 
1357	 0.452098322368298 
1358	 0.414524268212572 
1359	 0.666634830451769 
1360	 0.689404247206118 
1361	 0.392128941134075 
1362	 0.521225304999049 
1363	 0.658515248710844 
1364	 0.645569614178327 
1365	 0.805612033329558 
1366	 0.680730088742609 
1367	 0.5863731830758 
1368	 0.639620259371396 
1369	 4.52316352932603E-02 
1370	 5.36245162819723E-02 
1371	 0.732319088234786 
1372	 0.823136871701259 
1373	 0.46007919151096 
1374	 0.457729539836961 
1375	 12.3859187460132 
1376	 2.78455184759623 
1377	-0.303568972468456 
1378	-0.235635076500588 
1379	-0.177422084267329 
1380	-8.56974811142594E-02 
1381	 0.527475643570303 
1382	 0.875920242991058 
1383	 0.893819934660211 
1384	 1.38567387477273 
1385	 7.12802017252839 
1386	-33.8523397758114 
1387	 3.10035385322698 
1388	 1.72131684678456 
1389	 0.953608329862001 
1390	 0.124910773632944 
1391	-0.208118926434758 
1392	 4.12090994059578E-02 
1393	 0.714469538559751 
1394	 0.424076549805177 
1395	-0.335903581114067 
1396	-44.2077810949855 
1397	-14.4229038333312 
1398	 1.55899965641797 
1399	 1.3231525102077 
1400	 97.4687672132367 
1401	-8.82199318479488 
1402	-3.9716036242678 
1403	 0.778332074055763 
1404	-0.661410252277543 
1405	 0.18839683165406 
1406	 0.49482258373883 
1407	 0.434809042932712 
1408	 1.3224753188029 
1409	 1.11175998252949 
1410	 0.333406151669288 
1411	 0.279898647370334 
1412	 0.637866555619363 
1413	 0.748097116523894 
1414	 1.55112440144614 
1415	 0.907128288747936 
1416	-3.33524301994165E-02 
1417	-0.171653298569301 
1418	-0.529648869123655 
1419	-0.558554821524792 
1420	-0.357167881205692 
1421	-0.233104243019743 
1422	-0.103107316291069 
1423	-7.06774728530164E-02 
1424	-2.35712915750264E-02 
1425	-2.12320454352993E-02 
1426	-0.120959971232065 
1427	-0.123049754059566 
1428	-6.47777090548547E-02 
1429	-5.19720468775465E-02 
1430	-3.07354678397741E-02 
1431	-9.63594419376292E-03 
1432	 8.81058917479978E-03 
1433	-4.52841826820636E-03 
1434	-8.54363454984527E-02 
1435	-8.52329036169425E-02 
1436	-6.28903389574866E-02 
1437	-3.67947713122211E-02 
1438	 0.047268987079641 
1439	 0.129417523581379 
1440	 9.95635329406749E-02 
1441	 5.22532335674612E-02 
1442	 3.49139778183383E-02 
1443	 2.04458979034908E-02 
1444	 4.44457708540981E-02 
1445	 8.01252306012634E-02 
1446	 8.04771341075483E-02 
1447	 9.41126306897378E-02 
1448	 0.13155132861193 
1449	 0.11595373182438 
1450	 6.61941420249033E-02 
1451	 5.30878297228405E-02 
1452	 5.10794011533497E-02 
1453	 4.29260433247144E-02 
1454	 4.16897555683347E-02 
1455	 5.75248201258275E-02 
1456	 6.25383112269927E-02 
1457	 6.07183231160238E-02 
1458	 5.78221005312563E-02 
1459	 5.85600299427604E-02 
1460	 5.68747501222135E-02 
1461	 4.70100884695161E-02 
1462	 4.26540925414954E-02 
1463	 4.42277776749221E-02 
1464	 4.19794587171989E-02 
1465	 3.37172203832963E-02 
1466	 0.029239142244883 
1467	 2.57852897072934E-02 
1468	 3.05561296984842E-02 
1469	 4.17563051942313E-02 
1470	 4.72960208592628E-02 
1471	 0.064526508501354 
1472	 6.38608045185181E-02 
1473	 4.01800912569565E-02 
1474	 4.10101050159372E-02 
1475	 5.29279752009075E-02 
1476	 5.02841025530589E-02 
1477	 4.99589194308344E-02 
1478	 5.01645409711916E-02 
1479	 3.73737605580211E-02 
1480	 3.60344637727695E-02 
1481	 4.82943921048317E-02 
1482	 4.98211926420849E-02 
1483	 4.49335510793993E-02 
1484	 4.67592027231005E-02 
1485	 4.86169378693661E-02 
1486	 5.16716526230863E-02 
1487	 5.96282812464198E-02 
1488	 6.10959734941457E-02 
1489	 5.96041454699635E-02 
1490	 5.87987906476908E-02 
1491	 5.54360849823087E-02 
1492	 5.50250957993557E-02 
1493	 5.63564283261226E-02 
1494	 5.67499820929982E-02 
1495	 5.72259616555421E-02 
1496	 5.82945665829152E-02 
1497	 6.09492607022114E-02 
1498	 6.05216853150303E-02 
1499	 5.72444912550442E-02 
1500	 5.74526577025633E-02 
1501	 5.85166842400042E-02 
1502	 5.84174246319604E-02 
1503	 5.90779368350401E-02 
1504	 0.060518495705564 
1505	 6.19753737262769E-02 
1506	 6.19829337994775E-02 
1507	 6.19858829628796E-02 
1508	 6.25501445290839E-02 
1509	 0.0615220327559 
1510	 6.12172289721217E-02 
1511	 6.30905265761507E-02 
1512	 6.41284859605891E-02 
1513	 6.41686831105664E-02 
1514	 6.44607390116902E-02 
1515	 6.44996556371256E-02 
1516	 6.48220011719965E-02 
1517	 6.58712527519636E-02 
1518	 6.67720327374094E-02 
1519	 6.67782791006035E-02 
1520	 6.75184822022422E-02 
1521	 6.87349079790364E-02 
1522	 6.82243238884956E-02 
1523	 6.78118788722539E-02 
1524	 6.88375881013937E-02 
1525	 6.96508062062701E-02 
1526	 6.99707830146327E-02 
1527	 7.13736279089417E-02 
1528	 7.25324509491709E-02 
1529	 7.21716400319614E-02 
1530	 0.072598200549986 
1531	 7.35369727694027E-02 
1532	 7.37939591593037E-02 
1533	 7.40921219306599E-02 
1534	 7.51404005131535E-02 
1535	 7.66057337590947E-02 
1536	 7.70704659625136E-02 
1537	 7.67565389982569E-02 
1538	 7.66547622903616E-02 
1539	 7.66346340678895E-02 
1540	 7.69783586948416E-02 
1541	 7.81033620158189E-02 
1542	 0.079121170247724 
1543	 7.88904729207735E-02 
1544	 7.87529792441886E-02 
1545	 7.96057382533403E-02 
1546	 8.00422476415374E-02 
1547	 8.05188821399771E-02 
1548	 8.13552281463667E-02 
1549	 8.22038221277429E-02 
1550	 8.31179246168486E-02 
1551	 8.31202979651417E-02 
1552	 8.27868995500797E-02 
1553	 8.27550120874098E-02 
1554	 8.23609619140994E-02 
1555	 8.29705827365898E-02 
1556	 8.42496329178076E-02 
1557	 8.42521877815828E-02 
1558	 8.47021065133994E-02 
1559	 8.58897896569672E-02 
1560	 8.62711720296438E-02 
1561	 0.086475304007196 
1562	 8.68061252603863E-02 
1563	 8.70338851942831E-02 
1564	 8.72778769668427E-02 
1565	 8.75767385237929E-02 
1566	 0.087909958401694 
1567	 8.83848219964441E-02 
1568	 8.89114198306097E-02 
1569	 8.90781422660817E-02 
1570	 8.92285660019698E-02 
1571	 8.93784868858099E-02 
1572	 8.91889628978369E-02 
1573	 0.089636940819851 
1574	 9.04752391071853E-02 
1575	 9.05083243538643E-02 
1576	 9.08892337051249E-02 
1577	 9.16785448953929E-02 
1578	 9.17758934518107E-02 
1579	 9.24936161723811E-02 
1580	 9.34824689036553E-02 
1581	 0.093860273535184 
1582	 9.44278558645448E-02 
1583	 9.49119281486144E-02 
1584	 9.48562698406229E-02 
1585	 9.47125443480857E-02 
1586	 9.55202403170065E-02 
1587	 9.64605650460664E-02 
1588	 0.096596267255026 
1589	 9.70526435419972E-02 
1590	 9.74560364622741E-02 
1591	 9.68600558675601E-02 
1592	 9.63429624132146E-02 
1593	 9.64330761715191E-02 
1594	 9.67608443679699E-02 
1595	 9.75616485631462E-02 
1596	 0.098112827761996 
1597	 9.79411842875101E-02 
1598	 9.80124164560287E-02 
1599	 9.81047080751569E-02 
1600	 9.76542616096198E-02 
1601	 9.74963293227082E-02 
1602	 9.74754832374763E-02 
1603	 9.73174647232203E-02 
1604	 9.81249718800031E-02 
1605	 0.099448084746887 
1606	 9.98240994877324E-02 
1607	 9.92510254414815E-02 
1608	 9.91437608127431E-02 
1609	 0.099973338675347 
1610	 0.100568239645995 
1611	 0.10085467673842 
1612	 0.101356708654865 
1613	 0.101748934221529 
1614	 0.10170805500957 
1615	 0.10172262490977 
1616	 0.102418067583205 
1617	 0.102728421422212 
1618	 0.102464302870193 
1619	 0.102743126364857 
1620	 0.102872099668005 
1621	 0.102481787356206 
1622	 0.102412167143999 
1623	 0.102999797216107 
1624	 0.10350595158555 
1625	 0.103721875945097 
1626	 0.103741500411429 
1627	 0.103757356304532 
1628	 0.104200777120274 
1629	 0.104686952116154 
1630	 0.105378806176881 
1631	 0.105832506704368 
1632	 0.105797446873627 
1633	 0.105523290883304 
1634	 0.104959556972406 
1635	 0.104772089307267 
1636	 0.104972434923101 
1637	 0.105396343410225 
1638	 0.105740463705071 
1639	 0.105403334390491 
1640	 0.104959496890953 
1641	 0.10544447025548 
1642	 0.106391296600261 
1643	 0.106755569711686 
1644	 0.107224111290137 
1645	 0.107783975756206 
1646	 0.107594659330729 
1647	 0.107333570944339 
1648	 0.107399674143152 
1649	 0.107334786693319 
1650	 0.107397903200219 
1651	 0.107949605130537 
1652	 0.108062840520503 
1653	 0.107171990255449 
1654	 0.107210643493516 
1655	 0.108281544101687 
1656	 0.108237045862435 
1657	 0.107497309472177 
1658	 0.10769163663271 
1659	 0.108164761154047 
1660	 0.108208383041569 
1661	 0.108657421202575 
1662	 0.10873661906479 
1663	 0.107944581124514 
1664	 0.107824385660035 
1665	 0.10802389747073 
1666	 0.108102450538619 
1667	 0.108299556009009 
1668	 0.108998989081403 
1669	 0.108992594894972 
1670	 0.108881332101718 
1671	 0.109194654327738 
1672	 0.109059329428028 
1673	 0.108725366693298 
1674	 0.10869905327191 
1675	 0.108722348162406 
1676	 0.108200592108507 
1677	 0.108752684094818 
1678	 0.110218835285899 
1679	 0.10974015408216 
1680	 0.108455404962748 
1681	 0.108946136220672 
1682	 0.109753949581175 
1683	 0.109609640405381 
1684	 0.110411743133634 
1685	 0.110311862285535 
1686	 0.109382838947248 
1687	 0.10927553955224 
1688	 0.108388980177883 
1689	 0.107874186942648 
1690	 0.107246458157671 
1691	 0.106623750177234 
1692	 0.106568719829694 
1693	 0.105942065807247 
1694	 0.106358785237501 
1695	 0.107409777382394 
1696	 0.107198772036525 
1697	 0.106871945314366 
1698	 0.107416380862136 
1699	 0.106946804210779 
1700	 0.106833977065488 
1701	 0.107798079722377 
1702	 0.106888833779405 
1703	 0.106624347573054 
1704	 0.107540687628613 
1705	 0.107936338220678 
1706	 0.108859391660793 
1707	 0.107697154742421 
1708	 0.105617697788803 
1709	 0.106217799145236 
1710	 0.106273735401644 
1711	 0.105459117390902 
1712	 0.106495673479038 
1713	 0.105560114857813 
1714	 0.105624126123489 
1715	 0.107931939688939 
1716	 0.107464585066445 
1717	 0.106628366201758 
1718	 0.105371513166001 
1719	 0.104349427615321 
1720	 0.105628626756283 
1721	 0.106365977911175 
1722	 0.104961245402414 
1723	 0.10534413822548 
1724	 0.106348171366001 
1725	 0.105336082306624 
1726	 0.104829200024546 
1727	 0.104525011473815 
1728	 0.10341265562508 
1729	 0.102766869189375 
1730	 0.103330107892711 
1731	 0.10411443754579 
1732	 0.103685272072205 
1733	 0.102981928016191 
1734	 0.101860309679977 
1735	 0.100202846496072 
1736	 9.91775538768264E-02 
1737	 9.97381444463214E-02 
1738	 0.101389053919997 
1739	 0.101168236133231 
1740	 0.100192110427077 
1741	 9.87017323849798E-02 
1742	 9.74615229137202E-02 
1743	 9.86223151176574E-02 
1744	 9.78572044302923E-02 
1745	 9.66147796738401E-02 
1746	 9.74836974942576E-02 
1747	 9.73110550250666E-02 
1748	 9.76656510594641E-02 
1749	 0.098034743459746 
1750	 9.77232358458021E-02 
1751	 9.64687394740974E-02 
1752	 0.094962666709658 
1753	 9.50646710712908E-02 
1754	 9.49063680635833E-02 
1755	 9.43692988559052E-02 
1756	 9.49105476900393E-02 
1757	 9.49118953592516E-02 
1758	 9.52984114738566E-02 
1759	 9.61882181388422E-02 
1760	 9.71085376273342E-02 
1761	 9.46453080591108E-02 
1762	 9.24079321729586E-02 
1763	 9.36370931834732E-02 
1764	 9.22777512353439E-02 
1765	 9.10432468938725E-02 
1766	 9.27480398814703E-02 
1767	 9.10747168491201E-02 
1768	 8.81529585945462E-02 
1769	 0.08898392525816 
1770	 8.91372817447063E-02 
1771	 8.79532111566836E-02 
1772	 9.12887531227966E-02 
1773	 9.50149265480313E-02 
1774	 9.34358704342217E-02 
1775	 9.22243574906037E-02 
1776	 9.30399421632924E-02 
1777	 9.58823339969005E-02 
1778	 9.43282223004553E-02 
1779	 8.92707443692742E-02 
1780	 8.79834845650485E-02 
1781	 0.082981033193733 
1782	 8.06008388577568E-02 
1783	 8.67374308565263E-02 
1784	 8.99755559700319E-02 
1785	 9.15876500210795E-02 
1786	 9.02054806644425E-02 
1787	 8.77066639258124E-02 
1788	 8.63533962035088E-02 
1789	 7.82722460934153E-02 
1790	 8.12330817635501E-02 
1791	 8.76970387025205E-02 
1792	 0.091777353266093 
1793	 0.107732645090813 
1794	 0.111213294605912 
1795	 9.90410871829996E-02 
1796	 0.103128218524779 
1797	 9.03263727110949E-02 
1798	 8.51117450134651E-02 
1799	 0.129276711658175 
1800	 0.089309550409635 
1801	 9.12901609106158E-02 
1802	 0.145593273140769 
1803	 0.152198403793044 
1804	 0.19370302099185 
1805	 0.207547587992941 
1806	 5.78341611070353E-02 
1807	 2.53490277517555E-02 
1808	 0.150370253938613 
1809	 0.238025082386843 
1810	 0.479429539444658 
1811	 0.676888066497609 
1812	 0.561378595783867 
1813	 0.490118934585819 
1814	 0.439467337815074 
1815	 0.262775926448939 
1816	-0.761400374222826 
1817	-1.86202854527586 
1818	 1.60239587214989 
1819	-2.4694277885689 
1820	 6.17659581070019 
1821	 1.0221683436952 
1822	 0.780323436258331 
1823	 0.529408914605286 
1824	 0.575609632590165 
1825	 1.49088056531901 
1826	 4.38248904218661 
1827	-2.83897179787329 
1828	-1.69069228012798 
1829	-2.1166965474767 
1830	-1.06413516227245 
1831	 2.11194002913184 
1832	 0.390109015958287 
1833	-0.191594276688357 
1834	-0.138544868647526 
1835	-0.103590176431321 
1836	-7.05448253658395E-02 
1837	 0.671327623102286 
1838	 1.64409578079432 
1839	-9.14266625411899 
1840	 0.901887493042445 
1841	-1.02298079409341 
1842	 2.68814837616767 
1843	 5.52422232726347 
1844	 0.653725432520533 
1845	 0.873983322694148 
1846	 1.08536909441437 
1847	 1.37718917154145 
1848	 1.74533733254136 
1849	-5.99716772347723 
1850	-2.20325832525175 
1851	-0.89239455284177 
1852	-0.471514861367746 
1853	-0.541519198843719 
1854	-0.617966707077428 
1855	-0.914122559183515 
1856	-1.20240667974655 
1857	-2.1262032375683 
1858	-2.72196726898512 
1859	-6.78250703195081 
1860	 9.01649857597735 
1861	 1.31431673710979 
1862	 1.75059203776091 
1863	 1.47769541960902 
1864	 1.19940725620478 
1865	 1.00713401503725 
1866	 0.323847729770202 
1867	-2.39708911069718E-02 
1868	-0.436767330276824 
1869	-0.576372380526456 
1870	-0.266664052530782 
1871	-0.120363650866011 
1872	-0.538080161045306 
1873	-0.46310271128638 
1874	 2.48586865165391 
1875	-0.504945701103504 
1876	-0.766066360416237 
1877	-5.21092429104818 
1878	 8.31344315059926 
1879	 0.917393930667651 
1880	 0.910220950576712 
1881	 0.997076668785094 
1882	 1.13317579657203 
1883	 1.77055810816538 
1884	 3.36760837647916 
1885	 1.8481732620888 
1886	 1.28181761750758 
1887	-0.146387331350786 
1888	-2.38471956722411 
1889	-2.20085807879743 
1890	-9.40725824656498E-02 
1891	-0.640615788564722 
1892	-2.03945485298891 
1893	-0.71755175277118 
1894	-1.06477003956081 
1895	 8.34664638828191 
1896	 0.755560087632988 
1897	-0.461339357750563 
1898	 0.54327125208135 
1899	 0.254117622364302 
1900	 0.157984591151176 
1901	-0.789916102310071 
1902	-0.12450549069281 
1903	 0.620066592743673 
1904	 0.442072692940648 
1905	 2.1460195214672 
1906	 3.32121288656659 
1907	 4.34983549566217 
1908	-7.81413876452817 
1909	-2.2358387109486 
1910	-0.671241606562755 
1911	-3.49617890593719 
1912	 0.82025160104271 
1913	 0.201901713544386 
1914	-7.56187975327186E-02 
1915	-0.412399691916104 
1916	-1.10104658125835 
1917	-1.28257364958716 
1918	-75.1567223102217 
1919	 1.01602467933294 
1920	 22.0294584791638 
1921	 1.92090847284332 
1922	 0.937989684512724 
1923	 0.719424236631954 
1924	 0.325369167789354 
1925	 0.150419059231479 
1926	 0.103204972225449 
1927	 0.34786950184393 
1928	 3.41636906231416 
1929	-0.128508608321608 
1930	-0.665074895093526 
1931	-0.983419916259364 
1932	-8.53599004272237 
1933	 8.02677621850758 
1934	 1.17404253617648 
1935	-2.71515667990836E-02 
1936	 8.35299704540189 
1937	-3.61254306666426 
1938	-1.61522798048836 
1939	-5.33557399937302 
1940	 2.37007061749401 
1941	 1.23046855078736 
1942	 0.979711263950045 
1943	 1.16510597551135 
1944	 1.61608816063574 
1945	 2.68871646662508 
1946	 3.99818043519596 
1947	 2.1380801028232 
1948	 1.99116774023856 
1949	 1.80293073684867 
1950	 1.86566036362159 
1951	 1.06612039868179 
1952	 0.767505558230679 
1953	 0.357122878715858 
1954	 0.576125199412408 
1955	 0.786796983754623 
1956	 1.29119021306556 
1957	 1.28075695894796 
1958	 0.652256027521163 
1959	 9.52312867055186E-02 
1960	-0.208694184740294 
1961	-0.395388221765218 
1962	-0.411698066290707 
1963	-0.244865299160715 
1964	-0.16304110638046 
1965	-0.175874067592485 
1966	-0.142487148288179 
1967	-0.126527115797675 
1968	-8.23820892153656E-02 
1969	-4.38842253439354E-02 
1970	-3.51724194393228E-03 
1971	 1.61717138580902E-02 
1972	-5.21477733869067E-03 
1973	-2.28386655323288E-02 
1974	-3.03262537962943E-02 
1975	-4.06116698994255E-02 
1976	-4.81378598634984E-02 
1977	-3.20359303251677E-02 
1978	-3.75816430987574E-03 
1979	 1.35459177085539E-02 
1980	 3.73492343458345E-02 
1981	 6.18428698780118E-02 
1982	 5.51899244227335E-02 
1983	 2.67092400223627E-02 
1984	-4.77948536561763E-03 
1985	-2.52783435367263E-02 
1986	-0.027564123922653 
1987	-2.04949393178508E-02 
1988	-4.60034397875251E-03 
1989	-1.43498380936833E-03 
1990	-3.29839695059614E-03 
1991	-2.60310029247246E-03 
1992	-4.44395526298585E-03 
1993	 1.05112989176849E-02 
1994	 1.53162583785396E-02 
1995	 1.83167239220394E-02 
1996	 2.04841752245288E-03 
1997	 3.75645867840132E-03 
1998	 7.30919906647978E-03 
1999	-7.25943832700955E-03 
2000	 1.00651722113504E-02 
2001	 6.49771718388294E-02 
2002	 7.50692830736617E-02 
2003	 7.11798995885333E-02 
2004	 0.105435239826127 
2005	 6.34371690058609E-02 
2006	 1.83280570271808E-03 
2007	 4.72669294507893E-04 
2008	 0.010142795450747 
2009	 4.23319185575282E-03 
2010	-4.37611026901943E-03 
2011	-8.13544812889046E-05 
2012	 7.19803768204209E-03 
2013	-1.88429081067251E-03 
2014	 1.03436631540155E-02 
2015	 1.37453328192202E-02 
2016	-1.38091165152775E-03 
2017	-2.5732547189553E-03 
2018	 6.80304492995088E-03 
2019	 1.38534374757441E-02 
2020	 0.020630465578623 
2021	 2.79860682045048E-02 
2022	 1.78456645324687E-02 
2023	 1.67255945407622E-02 
2024	 0.014860601491226 
2025	 8.28289489898588E-03 
2026	 7.92264014605849E-03 
2027	 1.19078955018304E-02 
2028	 1.29419884300286E-02 
2029	 1.69513244853093E-02 
2030	 2.84180412199794E-02 
2031	 3.10252352207501E-02 
2032	 3.33926719446173E-02 
2033	 3.44985897977123E-02 
2034	 3.76997655708661E-02 
2035	 3.97544187622407E-02 
2036	 3.74021406056324E-02 
2037	 3.75917463843705E-02 
2038	 0.030783986875863 
2039	 2.73176402760057E-02 
2040	 2.52152837306002E-02 
2041	 2.52545700684101E-02 
2042	 0.025802780388068 
2043	 2.92893621991879E-02 
2044	 3.82030140305871E-02 
2045	 3.93852319945078E-02 
2046	 3.99502236882079E-02 
2047	 3.90745591462368E-02 
2048	 3.86018537802549E-02 
2049	 4.20209520652801E-02 
2050	 4.64225450927171E-02 
2051	 0.047017342654454 
2052	 0.041039648224656 
2053	 0.032095131582973 
2054	 2.41002164445115E-02 
2055	 0.022758924727861 
2056	 2.32278782972174E-02 
2057	 2.62706536978055E-02 
2058	 3.16154525428282E-02 
2059	 4.55447333836536E-02 
2060	 5.19578860972082E-02 
2061	 0.058692177950119 
2062	 5.74975341873858E-02 
2063	 6.13472114182542E-02 
2064	 5.78903070942878E-02 
2065	 4.75077517025322E-02 
2066	 4.74946902734699E-02 
2067	 4.11019427909616E-02 
2068	 3.19171985488965E-02 
2069	 3.08689859936705E-02 
2070	 2.43560348895066E-02 
2071	 1.39280268369684E-02 
2072	 0.014739469076725 
2073	 1.65432209647039E-02 
2074	 2.09354720037466E-02 
2075	 2.40728815828134E-02 
2076	 2.98538577946972E-02 
2077	 3.18456701275728E-02 
2078	 3.17011255780171E-02 
2079	 3.54853714576727E-02 
2080	 4.16963611509836E-02 
2081	 4.63302193526615E-02 
2082	 4.90811508921445E-02 
2083	 4.32464430634832E-02 
2084	 3.98523381092314E-02 
2085	 3.94167041019256E-02 
2086	 3.96715534556963E-02 
2087	 4.89769317017563E-02 
2088	 5.33412992641404E-02 
2089	 0.051432102294187 
2090	 5.67897694142608E-02 
2091	 5.60690727515773E-02 
2092	 5.62098821177614E-02 
2093	 6.09330954402762E-02 
2094	 6.12693434769001E-02 
2095	 5.61369179744142E-02 
2096	 5.22630034066391E-02 
2097	 4.50742888327692E-02 
2098	 4.07079659386936E-02 
2099	 3.59105239086355E-02 
2100	 3.55987467575834E-02 
2101	 3.54738039916962E-02 
2102	 3.88004561164376E-02 
2103	 4.37537965223094E-02 
2104	 4.87172612246608E-02 
2105	 5.41416781220764E-02 
2106	 5.74729637198742E-02 
2107	 5.87759459169544E-02 
2108	 5.77822853697386E-02 
2109	 5.63756344499807E-02 
2110	 5.53121877218061E-02 
2111	 4.82412195652075E-02 
2112	 4.20850119181682E-02 
2113	 4.03753009221499E-02 
2114	 3.88131225777063E-02 
2115	 4.17843944497516E-02 
2116	 5.51636399933917E-02 
2117	 5.94694525642484E-02 
2118	 6.03524916207154E-02 
2119	 6.28521579693858E-02 
2120	 6.37699485811211E-02 
2121	 6.17303710025574E-02 
2122	 0.061982990395508 
2123	 6.45189535835341E-02 
2124	 6.12816908138062E-02 
2125	 5.73974625340115E-02 
2126	 5.39849325592145E-02 
2127	 5.46719193025739E-02 
2128	 5.89305789405263E-02 
2129	 5.68019127872004E-02 
2130	 5.75596057397486E-02 
2131	 0.057515661481939 
2132	 5.01576053544319E-02 
2133	 5.12206294332347E-02 
2134	 5.14138761770477E-02 
2135	 5.04749191268011E-02 
2136	 5.09187383180319E-02 
2137	 5.63089221577477E-02 
2138	 5.68773360539358E-02 
2139	 5.42858972003838E-02 
2140	 5.53615557922137E-02 
2141	 5.64446905693092E-02 
2142	 5.61398307592237E-02 
2143	 5.63188898175853E-02 
2144	 5.92089979974728E-02 
2145	 5.69689067374857E-02 
2146	 5.44344592803171E-02 
2147	 5.53960159700867E-02 
2148	 5.74253307928584E-02 
2149	 6.12899889315669E-02 
2150	 6.38864076899184E-02 
2151	 6.11021096485997E-02 
2152	 5.67378337995502E-02 
2153	 4.96263513230347E-02 
2154	 4.82816210930883E-02 
2155	 5.43079936571068E-02 
2156	 5.61807716490295E-02 
2157	 5.73271665068141E-02 
2158	 5.86723747122971E-02 
2159	 6.08311036401285E-02 
2160	 6.25331098322225E-02 
2161	 6.22822445919547E-02 
2162	 6.40130961977012E-02 
2163	 6.21379772850691E-02 
2164	 5.26740460148669E-02 
2165	 4.87002488052581E-02 
2166	 0.046340756934352 
2167	 4.65243507686638E-02 
2168	 5.04777946004874E-02 
2169	 5.36338270619808E-02 
2170	 0.061743665693389 
2171	 6.03970158839591E-02 
2172	 0.059821159485751 
2173	 6.15143944375189E-02 
2174	 5.57303367629912E-02 
2175	 5.42316569987465E-02 
2176	 5.58571065554403E-02 
2177	 5.33662186734323E-02 
2178	 5.51878772037087E-02 
2179	 5.89507058319671E-02 
2180	 6.02044557573838E-02 
2181	 0.06130449029691 
2182	 5.97629580873791E-02 
2183	 6.29745475710762E-02 
2184	 7.04816840266968E-02 
2185	 7.31313424581108E-02 
2186	 7.31801860225726E-02 
2187	 7.29676045421959E-02 
2188	 7.05678596171267E-02 
2189	 6.13061389123863E-02 
2190	 5.59274484249986E-02 
2191	 5.18498899177505E-02 
2192	 0.049652368261021 
2193	 4.86233440277144E-02 
2194	 4.70695549603025E-02 
2195	 4.65299892874983E-02 
2196	 4.71266660651632E-02 
2197	 4.52072762216216E-02 
2198	 4.80347461775451E-02 
2199	 5.59722732795634E-02 
2200	 6.46084230613969E-02 
2201	 7.32923520545176E-02 
2202	 7.78923439938127E-02 
2203	 7.62015989847007E-02 
2204	 6.96998215692095E-02 
2205	 6.21277095109281E-02 
2206	 6.01117189603511E-02 
2207	 6.23941361594335E-02 
2208	 0.063460602929302 
2209	 6.03554857661193E-02 
2210	 0.054586756018202 
2211	 4.40483143752656E-02 
2212	 4.34238895224238E-02 
2213	 4.97741092998248E-02 
2214	 4.49381176887143E-02 
2215	 4.08161011743009E-02 
2216	 4.20738727976283E-02 
2217	 4.39239562415855E-02 
2218	 4.69859742930551E-02 
2219	 4.87037877527386E-02 
2220	 5.55241440665012E-02 
2221	 5.28323037609039E-02 
2222	 3.83704333474709E-02 
2223	 3.81564833268956E-02 
2224	 4.10718648475326E-02 
2225	 4.57463378086404E-02 
2226	 6.36635360853327E-02 
2227	 6.80360762133288E-02 
2228	 6.41220757138528E-02 
2229	 0.061784677910919 
2230	 0.052539984877742 
2231	 5.05740894020648E-02 
2232	 5.23611607288132E-02 
2233	 5.54446443077774E-02 
2234	 6.41584656216212E-02 
2235	 6.69098166473561E-02 
2236	 0.067775519016537 
2237	 6.39595494193319E-02 
2238	 4.88064830010244E-02 
2239	 3.95830462824246E-02 
2240	 3.28275524816068E-02 
2241	 3.13553154357164E-02 
2242	 4.18185004750628E-02 
2243	 4.82100386874048E-02 
2244	 4.99157176843448E-02 
2245	 4.82187170870047E-02 
2246	 5.05028478994251E-02 
2247	 4.87668471927756E-02 
2248	 4.81678348742325E-02 
2249	 6.01750206961436E-02 
2250	 5.79502529765005E-02 
2251	 5.20461823191609E-02 
2252	 5.39415153323131E-02 
2253	 0.049486362414013 
2254	 4.70938681755834E-02 
2255	 5.61798910847459E-02 
2256	 0.069583218360028 
2257	 7.47036850800225E-02 
2258	 8.84404957601471E-02 
2259	 0.100247426304457 
2260	 9.67731396313898E-02 
2261	 7.80340690201085E-02 
2262	 7.27463613547619E-02 
2263	 0.054500320146693 
2264	 5.27328652699351E-02 
2265	 7.43313873244836E-02 
2266	 7.58473815078264E-02 
2267	 7.29247124164567E-02 
2268	 7.12800988101725E-02 
2269	 6.16160200399011E-02 
2270	 5.24644192235682E-02 
2271	 0.040974284552732 
2272	 3.57708914823217E-02 
2273	 2.99797863943162E-02 
2274	 3.11204200146788E-02 
2275	 4.63327491568105E-02 
2276	 0.052450643272433 
2277	 5.44916412288927E-02 
2278	 0.053574867830003 
2279	 4.80826503075651E-02 
2280	 4.41541641183228E-02 
2281	 3.65559842987542E-02 
2282	 3.83213418711156E-02 
2283	 4.13617002737538E-02 
2284	 0.043231025073743 
2285	 4.48289757219405E-02 
2286	 3.44593259061983E-02 
2287	 3.42894091568562E-02 
2288	 3.69462014196797E-02 
2289	 3.98498155572596E-02 
2290	 5.75478289764654E-02 
2291	 5.10301245703123E-02 
2292	 4.10289791525486E-02 
2293	 3.15132269192827E-02 
2294	 3.42525251753736E-03 
2295	-1.68340514815215E-03 
2296	 7.02357861522556E-04 
2297	-8.25476063565167E-03 
2298	-8.70806798767071E-04 
2299	 0.023984312784618 
2300	 4.11874665362752E-02 
2301	 5.08893868665331E-02 
2302	 0.063515046006599 
2303	 5.41297433028488E-02 
2304	 2.78454806935608E-02 
2305	 4.14165060771207E-03 
2306	 4.04034952547883E-03 
2307	 1.38279738571121E-02 
2308	 4.89195344481221E-03 
2309	 1.61827132862563E-02 
2310	 2.61178014241041E-02 
2311	 1.13385598644553E-02 
2312	 5.42642913215766E-03 
2313	 1.87922640234587E-02 
2314	 2.14588747438944E-02 
2315	 1.00282436667792E-02 
2316	 3.95963274564266E-02 
2317	 0.063080366866561 
2318	 6.23368585224755E-02 
2319	 8.47129013354773E-02 
2320	 7.66717677502435E-02 
2321	 6.29840982732185E-02 
2322	 6.27135206446815E-02 
2323	 5.57770054374554E-02 
2324	 6.06433855891135E-02 
2325	 5.04544279260009E-02 
2326	 4.73804681094183E-02 
2327	 3.15631809901606E-02 
2328	 3.71775634636188E-04 
2329	 7.3782908782463E-03 
2330	 1.65843142200226E-02 
2331	 3.52461084041138E-02 
2332	 7.70516415174039E-02 
2333	 9.08379578223462E-02 
2334	 8.74467773699259E-02 
2335	 9.83780631542227E-02 
2336	 0.092949250582093 
2337	 0.080694086336918 
2338	 9.17664294801592E-02 
2339	 8.41423243384279E-02 
2340	 7.75690487932836E-02 
2341	 8.79038455714013E-02 
2342	 6.71189603694286E-02 
2343	 4.46788931762779E-02 
2344	 7.19752387611416E-02 
2345	 0.114276831667693 
2346	 0.156425223531476 
2347	 0.187499737453211 
2348	 0.116971141886898 
2349	 3.80846327703951E-02 
2350	-5.93526433708825E-02 
2351	-0.148980983356247 
2352	-0.161305696525422 
2353	-0.18591279129961 
2354	-0.173492463467613 
2355	-0.115747381917716 
2356	-7.19933073887188E-02 
2357	-2.83334640117322E-02 
2358	-0.050739877932463 
2359	-0.149289185487255 
2360	-0.148836894881527 
2361	-0.184394654706582 
2362	-0.123235920266112 
2363	 5.50995003215939E-02 
2364	 3.84986637222952E-02 
2365	 3.32312618394392E-03 
2366	 0.027400199643585 
2367	 1.38558022721514E-02 
2368	 1.44711272376945E-02 
2369	 5.59874328611011E-02 
2370	 8.50884087363461E-02 
2371	 6.39161360053483E-02 
2372	-4.68920338468609E-02 
2373	-6.12948759447908E-02 
2374	-2.62490362954014E-02 
2375	-4.70703570795839E-02 
2376	 2.61372022322529E-02 
2377	-7.27787813227401E-03 
2378	-0.233699141231173 
2379	-0.45738841730405 
2380	-0.476960551232342 
2381	-0.346651064991721 
2382	-2.44909581129799E-05 
2383	 8.98629483421741E-02 
2384	-9.90112791220634E-02 
2385	-0.151114558947625 
2386	-0.424426069794587 
2387	-0.578116853594943 
2388	-0.303479682432433 
2389	-0.408631893673858 
2390	-0.210018588019985 
2391	 0.182018420750826 
2392	 0.288792262552157 
2393	 0.563502048624238 
2394	 0.819190183119257 
2395	 0.481597640199689 
2396	 0.111045903528396 
2397	 0.112051066524025 
2398	 9.92177250505721E-02 
2399	-1.74964810131709E-02 
2400	 0.377815146452685 
2401	 0.623869700942896 
2402	 0.15355779366172 
2403	 0.157392915507547 
2404	 0.29378123107325 
2405	-5.01935283357869E-02 
2406	-8.45364857113942E-02 
2407	 0.338857384614078 
2408	 0.362121884165238 
2409	 2.14125440790484 
2410	 5.97962221794403 
2411	 0.965108427472426 
2412	 1.33395388293523 
2413	 1.12580196956561 
2414	-0.363195322297427 
2415	-0.750582564966897 
2416	-0.835771706711643 
2417	-1.18472367083191 
2418	-0.418006805745913 
2419	-9.79738729794183E-02 
2420	 1.6058815639259 
2421	 1.77436496308802 
2422	 0.80886920316046 
2423	 1.24522966184499 
2424	 2.68452183880251 
2425	-0.244691005809099 
2426	 9.82750854036186 
2427	-1.29673792364517 
2428	-5.67166278108155 
2429	 0.615638308582988 
2430	-2.78933423243483 
2431	-3.55907072415009 
2432	-4.95380025291067 
2433	 106.399441345818 
2434	 3.91339781960399 
2435	 1.70684645518086 
2436	 0.373232741760935 
2437	-0.158796011196668 
2438	-0.162085601601757 
2439	 1.31343281095764 
2440	 1.79251551400492 
2441	 0.906516640218333 
2442	 0.857460308820871 
2443	 0.471279165705283 
2444	 0.422963474606143 
2445	 0.274971534491718 
2446	 5.40005147242076E-02 
2447	-0.418674468331552 
2448	-0.616311110931811 
2449	-0.691482705749502 
2450	-0.698724319672174 
2451	-6.38934686797805E-02 
2452	-5.23276861966779E-02 
2453	 0.281291389441905 
2454	 1.96591356123394 
2455	 0.910726880762589 
2456	 0.954167903074224 
2457	 0.860989483392306 
2458	 0.514371463396758 
2459	 0.473002271692964 
2460	 0.813759755405585 
2461	 1.25905116033588 
2462	 1.49851170588573 
2463	 3.00172516244884 
2464	 4.61887032370563 
2465	 7.60529296692943 
2466	 2.69240236166595 
2467	 1.92448309547622 
2468	 0.317512403439237 
2469	-0.104641470691271 
2470	-0.399904334941662 
2471	-0.35670064870951 
2472	 0.292136050575252 
2473	 0.397018475273919 
2474	 0.838831123156472 
2475	 2.03959007963452 
2476	 1.30498108895002 
2477	 3.48780617118584 
2478	-1.36705994606454 
2479	 0.173466422802885 
2480	 2.22847607029362 
2481	-3.05733213822858 
2482	-1.73275007674327 
2483	-0.472135987524439 
2484	-0.969658215112787 
2485	-0.666432288387216 
2486	-6.36780136681623E-02 
2487	 8.93126233445055E-02 
2488	 0.165369953551651 
2489	 0.158835879899585 
2490	 0.161558673898237 
2491	 7.53254294456655E-03 
2492	-3.34397836039317E-02 
2493	-0.150187447253657 
2494	-0.659926756019101 
2495	-0.991465609839069 
2496	-1.02402344990277 
2497	-1.1177800834423 
2498	-1.64457999200766 
2499	 2.28410247208499 
2500	 0.907638013386629 
