Wavelength	rt0707close00007.asd
350	 8.41629898498699E-02 
351	 8.42896312627784E-02 
352	 8.41355477160463E-02 
353	 8.36163114756519E-02 
354	 8.28508667417946E-02 
355	 8.26502465899264E-02 
356	 8.31946447155958E-02 
357	 8.39363950796324E-02 
358	 8.41880848492182E-02 
359	 8.38181492117016E-02 
360	 8.31555106982985E-02 
361	 8.24971582907486E-02 
362	 8.21514105272389E-02 
363	 8.32056874937364E-02 
364	 8.37126615298446E-02 
365	 0.083291875826097 
366	 8.44542359158898E-02 
367	 8.46667393276038E-02 
368	 8.40431907571212E-02 
369	 8.35974843559119E-02 
370	 8.50147182992784E-02 
371	 8.49060212183293E-02 
372	 8.39380257172515E-02 
373	 8.47581389480886E-02 
374	 8.40130709517543E-02 
375	 8.47761043322567E-02 
376	 8.70410093979826E-02 
377	 8.58925731106451E-02 
378	 8.58606592957179E-02 
379	 8.62372617195523E-02 
380	 8.58820190562866E-02 
381	 8.63052552383806E-02 
382	 8.69152232181746E-02 
383	 8.73344920102859E-02 
384	 8.73684450691319E-02 
385	 8.72745846331676E-02 
386	 0.087783401531709 
387	 8.86643845859312E-02 
388	 8.86619236637442E-02 
389	 8.88198158345101E-02 
390	 8.83578336620616E-02 
391	 8.73706584790694E-02 
392	 8.89610127397183E-02 
393	 9.01507030763604E-02 
394	 9.04723324701575E-02 
395	 9.04567216878675E-02 
396	 0.090117725134071 
397	 9.01178425613735E-02 
398	 9.06152549848028E-02 
399	 9.12828692758897E-02 
400	 9.09661507116668E-02 
401	 9.06886268398963E-02 
402	 9.10388896662288E-02 
403	 9.07986632336195E-02 
404	 0.091462310885498 
405	 9.22062308572643E-02 
406	 9.18231839935214E-02 
407	 9.21745123803059E-02 
408	 0.092597215939496 
409	 9.28470969477516E-02 
410	 9.32219218765622E-02 
411	 9.30240438726064E-02 
412	 9.31171805969823E-02 
413	 9.38914174912029E-02 
414	 9.39416200002257E-02 
415	 9.41453408811278E-02 
416	 9.46404143345469E-02 
417	 0.095185581839119 
418	 9.51825205533872E-02 
419	 9.51448158785234E-02 
420	 9.55104401193698E-02 
421	 9.65040387397328E-02 
422	 9.69983554875952E-02 
423	 9.72263532434473E-02 
424	 9.76020223107525E-02 
425	 9.82047799640174E-02 
426	 9.84884176482596E-02 
427	 9.87817309272648E-02 
428	 9.96479522400882E-02 
429	 9.99739704876252E-02 
430	 0.100477330415591 
431	 0.101270986620014 
432	 0.101580118685368 
433	 0.101995806921468 
434	 0.102552053838574 
435	 0.103128547333968 
436	 0.103518201331788 
437	 0.104077534122185 
438	 0.104852348499871 
439	 0.105656472501588 
440	 0.105994734843112 
441	 0.106396517659777 
442	 0.107046544300704 
443	 0.107457326753158 
444	 0.107899070600817 
445	 0.108492962547705 
446	 0.109162031846479 
447	 0.109175240874855 
448	 0.10961776836447 
449	 0.110405691798035 
450	 0.110634649715023 
451	 0.11092934253683 
452	 0.111359474387892 
453	 0.111801064209382 
454	 0.111837870330438 
455	 0.112538797957497 
456	 0.11326286599437 
457	 0.1131060415582 
458	 0.113351071556661 
459	 0.113663186492888 
460	 0.113944298031395 
461	 0.114396809118408 
462	 0.114698625422078 
463	 0.115024906065345 
464	 0.115478729884073 
465	 0.115690010095914 
466	 0.115753947350378 
467	 0.115980170021956 
468	 0.116650156494556 
469	 0.116973769494198 
470	 0.117270777544341 
471	 0.117625200323207 
472	 0.117665722381406 
473	 0.117866885956964 
474	 0.11810962565759 
475	 0.118318654086183 
476	 0.119217135254511 
477	 0.119817135250253 
478	 0.119940868025845 
479	 0.120031957375492 
480	 0.120519630248966 
481	 0.121094194050992 
482	 0.121487238685575 
483	 0.121711386364671 
484	 0.122126039190532 
485	 0.122597738136602 
486	 0.122923860496063 
487	 0.123662510160146 
488	 0.124217197426077 
489	 0.124462946708269 
490	 0.124788425111411 
491	 0.125343462234308 
492	 0.126047761089691 
493	 0.126723371876163 
494	 0.127058483636272 
495	 0.127605700132926 
496	 0.128343771078081 
497	 0.128960048286 
498	 0.129422579778766 
499	 0.129912450806906 
500	 0.130541646895665 
501	 0.131280977648146 
502	 0.13192521851312 
503	 0.132507457754173 
504	 0.133103845164953 
505	 0.13359843315379 
506	 0.134283023418598 
507	 0.135054622448713 
508	 0.135521373905686 
509	 0.13592189476948 
510	 0.136615555147022 
511	 0.137626090293469 
512	 0.138193341752858 
513	 0.13861233288587 
514	 0.139209537927471 
515	 0.140220218687761 
516	 0.141004274718189 
517	 0.14164722638659 
518	 0.142292702459052 
519	 0.143066778945962 
520	 0.143871560740002 
521	 0.144695239885139 
522	 0.145511464387823 
523	 0.14612203769365 
524	 0.146979993139601 
525	 0.148010595386707 
526	 0.148794939921445 
527	 0.149647155337611 
528	 0.150482850400306 
529	 0.151232962192931 
530	 0.151947863252145 
531	 0.152789009340658 
532	 0.153819908973054 
533	 0.154984030824747 
534	 0.155895222641084 
535	 0.156593226373951 
536	 0.157300075540774 
537	 0.158387738767628 
538	 0.159158581100233 
539	 0.159940675000246 
540	 0.161076655924527 
541	 0.162122276897286 
542	 0.163033381671024 
543	 0.163947122953612 
544	 0.165069257250351 
545	 0.165985742820865 
546	 0.166766049487829 
547	 0.167526447499989 
548	 0.168334963212537 
549	 0.16926294967656 
550	 0.170253737377711 
551	 0.171212889364811 
552	 0.172127462566868 
553	 0.173170374440156 
554	 0.174261743577364 
555	 0.175031189421822 
556	 0.175906224127756 
557	 0.176857305597923 
558	 0.177761199149548 
559	 0.178586253522124 
560	 0.17947688661481 
561	 0.180464882503246 
562	 0.181477612227756 
563	 0.182096078544914 
564	 0.182779015642968 
565	 0.183710115343921 
566	 0.184301442977445 
567	 0.18503217129873 
568	 0.185789078544125 
569	 0.186310232627412 
570	 0.186781189529867 
571	 0.187416206054225 
572	 0.18815114780751 
573	 0.188634080131635 
574	 0.189247787374144 
575	 0.189706542690791 
576	 0.189799269992791 
577	 0.190046631922444 
578	 0.190213877953616 
579	 0.190381400867435 
580	 0.190755924887655 
581	 0.190806674066269 
582	 0.190858392248863 
583	 0.19108810307865 
584	 0.191225119296905 
585	 0.191096115103529 
586	 0.190950198876986 
587	 0.191084179544802 
588	 0.190912238779737 
589	 0.190760243708235 
590	 0.190707878639326 
591	 0.190483995348747 
592	 0.189858638894314 
593	 0.189314235031289 
594	 0.189109457975757 
595	 0.188355256312381 
596	 0.187425012531 
597	 0.186379013276626 
598	 0.185160387678843 
599	 0.18415309984993 
600	 0.183371064852271 
601	 0.182827637331537 
602	 0.182661365927248 
603	 0.182140015500194 
604	 0.181772144570278 
605	 0.182148898428332 
606	 0.182018559124278 
607	 0.182022154019373 
608	 0.182273554051999 
609	 0.182269069142676 
610	 0.182338958173163 
611	 0.18235392747977 
612	 0.1822247686525 
613	 0.182233482245518 
614	 0.182381093385167 
615	 0.182586862306273 
616	 0.182714836717733 
617	 0.182736897724361 
618	 0.182592400520195 
619	 0.182424280441018 
620	 0.182720374786815 
621	 0.182851303649649 
622	 0.182824804154392 
623	 0.182806455356538 
624	 0.182609742201042 
625	 0.18257736560982 
626	 0.182872909022426 
627	 0.183406722840371 
628	 0.18292093455739 
629	 0.18237544762337 
630	 0.18260069558271 
631	 0.182968432692099 
632	 0.183156736546429 
633	 0.183116373571007 
634	 0.18296077108723 
635	 0.182642477584651 
636	 0.182533457022816 
637	 0.182738956151436 
638	 0.182956353461891 
639	 0.182876485856496 
640	 0.182636991752067 
641	 0.182489421148287 
642	 0.182443617440657 
643	 0.182575446701767 
644	 0.18269305672728 
645	 0.182413857511339 
646	 0.182265472473161 
647	 0.181956136489443 
648	 0.181465605492296 
649	 0.181776255015226 
650	 0.181737484360501 
651	 0.181290555830212 
652	 0.180769381880854 
653	 0.1799299873954 
654	 0.179327600216845 
655	 0.179030007672034 
656	 0.178394458615627 
657	 0.177629338076294 
658	 0.177090774490953 
659	 0.176893803400687 
660	 0.17646546884313 
661	 0.175908650355818 
662	 0.175499361083109 
663	 0.175552600686088 
664	 0.175400208150193 
665	 0.175368799686729 
666	 0.175493143438185 
667	 0.175036113756858 
668	 0.17477286407405 
669	 0.174870974772192 
670	 0.175195860003495 
671	 0.175283673177594 
672	 0.174939737138806 
673	 0.174586542024329 
674	 0.175103467997406 
675	 0.175039932587893 
676	 0.174814643371956 
677	 0.174924255546088 
678	 0.175162953752296 
679	 0.175248624027769 
680	 0.17511474669693 
681	 0.174858204450554 
682	 0.174783879968441 
683	 0.174849580504872 
684	 0.17494102843754 
685	 0.174895368253365 
686	 0.174451535824952 
687	 0.174102838354341 
688	 0.174250753239839 
689	 0.174083699119549 
690	 0.173331703216146 
691	 0.172481164576043 
692	 0.172406876006238 
693	 0.171984033933817 
694	 0.171118352377549 
695	 0.170028384190027 
696	 0.168900573866614 
697	 0.168162579726106 
698	 0.167360046479108 
699	 0.166063901529579 
700	 0.16521103430172 
701	 0.16388054180578 
702	 0.162192190987535 
703	 0.160991840260254 
704	 0.15973442423558 
705	 0.158390310984873 
706	 0.157009570837795 
707	 0.155580852897224 
708	 0.153312058088924 
709	 0.151032723995033 
710	 0.149718999810621 
711	 0.147448997680494 
712	 0.145011331510465 
713	 0.142724910290793 
714	 0.140198447231058 
715	 0.138179731962868 
716	 0.135937107005041 
717	 0.132938836625589 
718	 0.130840551028229 
719	 0.127154660207139 
720	 0.123816764528819 
721	 0.122189790025989 
722	 0.119838073600324 
723	 0.117179640785473 
724	 0.114648691834299 
725	 0.111279334223745 
726	 0.108548228157109 
727	 0.105714188608082 
728	 0.102128590628995 
729	 9.88186243078535E-02 
730	 9.50022392691123E-02 
731	 9.15218902866635E-02 
732	 8.90873234965768E-02 
733	 8.63061074873789E-02 
734	 8.43056829658649E-02 
735	 8.31233302900687E-02 
736	 8.11410887009435E-02 
737	 8.00378701368788E-02 
738	 0.079257629341084 
739	 7.82892895536368E-02 
740	 7.82816812040827E-02 
741	 7.80197792685639E-02 
742	 7.75193330457441E-02 
743	 7.73490992000264E-02 
744	 0.076977240271371 
745	 7.68501634301361E-02 
746	 0.076979952959818 
747	 7.66897647519449E-02 
748	 7.65597052600088E-02 
749	 7.64210440157295E-02 
750	 7.61457876768766E-02 
751	 7.64018139994004E-02 
752	 7.62954162830347E-02 
753	 7.59669067757268E-02 
754	 7.60494150585801E-02 
755	 7.60475001941813E-02 
756	 7.60309280028403E-02 
757	 7.60909146240891E-02 
758	 7.63411017411014E-02 
759	 7.64020034123403E-02 
760	 7.63046364183521E-02 
761	 7.64410557272932E-02 
762	 7.64861239126661E-02 
763	 7.69077569981938E-02 
764	 0.077172457889808 
765	 0.076837551980483 
766	 7.66260778274438E-02 
767	 7.67036806576106E-02 
768	 7.68478943691272E-02 
769	 7.65301304851995E-02 
770	 7.71141802891347E-02 
771	 7.75458435852756E-02 
772	 7.71500874907586E-02 
773	 7.76208440144907E-02 
774	 0.077943376724918 
775	 7.82114874634018E-02 
776	 7.87626706174122E-02 
777	 7.83115402275733E-02 
778	 7.84793646367135E-02 
779	 7.94451923375686E-02 
780	 7.97774542602924E-02 
781	 7.98941003798255E-02 
782	 8.04550103425461E-02 
783	 8.14821546525759E-02 
784	 8.13679803194797E-02 
785	 8.19499788073402E-02 
786	 8.29021390073156E-02 
787	 8.32960270828899E-02 
788	 8.37331614053281E-02 
789	 8.41223726593589E-02 
790	 8.45589637575173E-02 
791	 8.52460998904869E-02 
792	 8.55818805362709E-02 
793	 8.64328045601147E-02 
794	 8.77563607633204E-02 
795	 8.76506240571787E-02 
796	 8.81912469154309E-02 
797	 8.89485272047323E-02 
798	 8.91736502271699E-02 
799	 8.94392413544958E-02 
800	 9.01188247581013E-02 
801	 0.090891980248109 
802	 9.11064984554533E-02 
803	 9.09377760318279E-02 
804	 9.13632074644185E-02 
805	 9.21725341140695E-02 
806	 9.19208875951774E-02 
807	 9.12238198998311E-02 
808	 9.13251328782185E-02 
809	 9.24813606985346E-02 
810	 9.17831735315277E-02 
811	 9.19433614474438E-02 
812	 9.25883582910129E-02 
813	 0.092101994416912 
814	 9.11442134370088E-02 
815	 9.04505227811989E-02 
816	 8.99372383161537E-02 
817	 8.88787976428791E-02 
818	 8.80127494303634E-02 
819	 0.087392864926354 
820	 0.086638781700235 
821	 8.49797384153215E-02 
822	 8.39542487195138E-02 
823	 8.26049139662831E-02 
824	 8.02801243816721E-02 
825	 7.80991707721163E-02 
826	 7.59422561002197E-02 
827	 7.40472814259921E-02 
828	 0.072660801600083 
829	 7.05493788311899E-02 
830	 0.06844065592033 
831	 6.68837274770061E-02 
832	 6.60924246988866E-02 
833	 0.064702985452226 
834	 0.063603216624042 
835	 6.32278517468773E-02 
836	 6.31336715189526E-02 
837	 0.062061735965038 
838	 0.061253484448024 
839	 6.15339297779974E-02 
840	 6.13447674652706E-02 
841	 6.11581150471435E-02 
842	 6.07513803048147E-02 
843	 5.99423274257941E-02 
844	 5.97116357319464E-02 
845	 5.92781350022547E-02 
846	 0.058695949397711 
847	 5.85181966005831E-02 
848	 0.057935253465577 
849	 5.74942632090263E-02 
850	 5.74257330613858E-02 
851	 0.057354066605674 
852	 5.72961974141757E-02 
853	 5.72140503299519E-02 
854	 5.70965438611171E-02 
855	 5.69931457903913E-02 
856	 5.68152574559225E-02 
857	 5.63547677453134E-02 
858	 5.56509594636813E-02 
859	 5.57241622590718E-02 
860	 0.055632930055929 
861	 5.53986132410276E-02 
862	 5.54376186125278E-02 
863	 5.53150452742745E-02 
864	 5.47414953808482E-02 
865	 5.41374477693774E-02 
866	 5.43807519705686E-02 
867	 5.43062393080888E-02 
868	 5.37099934729248E-02 
869	 0.053238760007797 
870	 5.43099820162596E-02 
871	 5.37322458966931E-02 
872	 5.30053986947863E-02 
873	 5.33975599832272E-02 
874	 5.32898955409971E-02 
875	 5.30617202317924E-02 
876	 5.27661651808968E-02 
877	 5.23943599840628E-02 
878	 5.19053734018109E-02 
879	 5.18776488596887E-02 
880	 5.17456675814823E-02 
881	 5.08233223842689E-02 
882	 5.09704069214177E-02 
883	 5.15674913377532E-02 
884	 5.15488889502724E-02 
885	 5.01571310529834E-02 
886	 5.11972483224858E-02 
887	 5.07480509646645E-02 
888	 4.87250690925993E-02 
889	 4.99532944083565E-02 
890	 0.0494990739809 
891	 4.90865399700563E-02 
892	 5.00667983122623E-02 
893	 5.06046577701195E-02 
894	 0.050732501738116 
895	 4.96739678405039E-02 
896	 0.047967299151301 
897	 5.09801082868343E-02 
898	 5.04354892247064E-02 
899	 4.92770950232598E-02 
900	 5.11282594808058E-02 
901	 4.62438811701559E-02 
902	 4.65311702216171E-02 
903	 4.95312993731348E-02 
904	 4.89108033676612E-02 
905	 4.77396404693431E-02 
906	 4.79498037427665E-02 
907	 0.047909545091415 
908	 4.43665336191123E-02 
909	 4.51003882781593E-02 
910	 4.61905896889858E-02 
911	 4.64549050414487E-02 
912	 4.79430425880822E-02 
913	 4.63953751706243E-02 
914	 4.42898935401901E-02 
915	 4.41602087601871E-02 
916	 4.66621698321765E-02 
917	 0.046582071002596 
918	 4.50883890152353E-02 
919	 4.42728282263456E-02 
920	 4.58958139582248E-02 
921	 4.38707863258176E-02 
922	 4.25122266750935E-02 
923	 4.47226490836984E-02 
924	 4.58197149944901E-02 
925	 0.046027640387757 
926	 4.44046503823761E-02 
927	 4.04986951900909E-02 
928	 3.69033781130613E-02 
929	 4.27005591505168E-02 
930	 5.16646945299031E-02 
931	 4.68535894766591E-02 
932	 4.47881973768154E-02 
933	 4.53360891656979E-02 
934	 5.44506901285725E-02 
935	 6.46441638216366E-02 
936	 2.68875242003496E-02 
937	 1.75501630798657E-02 
938	 3.72387191964619E-02 
939	 0.056776116080295 
940	 4.80804795323088E-02 
941	 3.66680972303777E-02 
942	 3.30854772030852E-02 
943	 3.41847029558464E-02 
944	 1.48950939555388E-02 
945	 2.48177682239161E-02 
946	 4.62518574831496E-02 
947	 3.47596938139309E-02 
948	 0.044238618343786 
949	 5.68115863313948E-02 
950	 0.065722139734325 
951	 7.22230989982636E-02 
952	 0.052744935044916 
953	 4.56899462723788E-02 
954	 4.71289366473245E-02 
955	 2.97100263684074E-02 
956	 3.10653273331701E-02 
957	 4.71914435437699E-02 
958	 4.99233677210194E-02 
959	 1.58424772909761E-02 
960	 3.48979722429754E-02 
961	 4.85860997989385E-02 
962	 4.45924302648668E-02 
963	 4.59585023519264E-02 
964	 5.16271660673717E-02 
965	 4.75439517025029E-02 
966	 3.82895065060397E-02 
967	 3.85967355442387E-02 
968	 4.42933323001391E-02 
969	 4.44339097038128E-02 
970	 3.97358688022108E-02 
971	 3.97294965228093E-02 
972	 0.040217123760424 
973	 4.07274174199303E-02 
974	 4.19164725528792E-02 
975	 0.044277675851465 
976	 4.06262663156839E-02 
977	 3.62809732097035E-02 
978	 3.71141364358115E-02 
979	 4.51508859932054E-02 
980	 4.77848946168334E-02 
981	 4.47165312613136E-02 
982	 4.13839850586997E-02 
983	 4.40637899745448E-02 
984	 4.04324953851348E-02 
985	 3.54224724194154E-02 
986	 3.57023961535982E-02 
987	 4.43246303407137E-02 
988	 4.23533994812223E-02 
989	 4.00152979438215E-02 
990	 4.14995403626832E-02 
991	 4.36792045968094E-02 
992	 4.22501732276791E-02 
993	 3.83234484370027E-02 
994	 0.035794765438879 
995	 3.81886991522765E-02 
996	 3.89323563172776E-02 
997	 0.040198213250307 
998	 4.31759276626301E-02 
999	 4.64286644020032E-02 
1000	 4.06286506931533E-02 
1001	 4.55074564470165E-02 
1002	 4.59446060311962E-02 
1003	 0.04706748065789 
1004	 5.11674235947917E-02 
1005	 0.050872449608344 
1006	 4.76136326048631E-02 
1007	 4.53022461831851E-02 
1008	 4.29509592307867E-02 
1009	 4.11323608555379E-02 
1010	 4.11397781710346E-02 
1011	 4.08161588670079E-02 
1012	 4.08034874878043E-02 
1013	 4.07887342507871E-02 
1014	 4.09427468901033E-02 
1015	 4.26962765386529E-02 
1016	 4.29814310575055E-02 
1017	 4.12595180088563E-02 
1018	 4.20615249308942E-02 
1019	 4.39435069318831E-02 
1020	 4.50208410242126E-02 
1021	 4.84808476274403E-02 
1022	 4.90830371196383E-02 
1023	 4.56800913994251E-02 
1024	 4.44874432509031E-02 
1025	 4.18461152949407E-02 
1026	 3.95350835997744E-02 
1027	 3.85148557521125E-02 
1028	 3.88119657096332E-02 
1029	 0.038493644532395 
1030	 3.84554709978125E-02 
1031	 3.89396395344069E-02 
1032	 3.99860120039851E-02 
1033	 4.07733071069478E-02 
1034	 4.19665004766466E-02 
1035	 0.042491453722575 
1036	 4.27322252544425E-02 
1037	 4.29676885971296E-02 
1038	 4.30864194875074E-02 
1039	 4.30451395668787E-02 
1040	 4.27501075978104E-02 
1041	 4.16250864109908E-02 
1042	 4.12223090352016E-02 
1043	 4.04660208437633E-02 
1044	 4.06874132855542E-02 
1045	 4.18110517074965E-02 
1046	 4.21730921935969E-02 
1047	 4.27560363616055E-02 
1048	 4.31857568924673E-02 
1049	 0.043258005218132 
1050	 4.34400983005233E-02 
1051	 0.043826433294775 
1052	 4.38844437095419E-02 
1053	 0.04376854071805 
1054	 0.043482469123841 
1055	 4.30278846445152E-02 
1056	 4.25504377078721E-02 
1057	 4.19528554205464E-02 
1058	 0.040535506985231 
1059	 4.10049598430897E-02 
1060	 0.042481463033737 
1061	 4.32273226575788E-02 
1062	 4.56981448268549E-02 
1063	 4.56560783873394E-02 
1064	 4.29227687328353E-02 
1065	 4.24797049696041E-02 
1066	 4.19873224647245E-02 
1067	 4.19410508172019E-02 
1068	 4.39953652956484E-02 
1069	 4.44747014082507E-02 
1070	 4.40986549396556E-02 
1071	 4.36237868550928E-02 
1072	 0.042003916197889 
1073	 4.09205990428227E-02 
1074	 4.11109692653895E-02 
1075	 4.18862167829369E-02 
1076	 0.042769310234715 
1077	 4.56724733067453E-02 
1078	 4.58949188166472E-02 
1079	 0.044778630408393 
1080	 4.40183233865671E-02 
1081	 4.17131484446998E-02 
1082	 4.08099285077128E-02 
1083	 3.99736946346369E-02 
1084	 4.05086709830576E-02 
1085	 4.35610744892085E-02 
1086	 4.40742415374376E-02 
1087	 4.48708801667045E-02 
1088	 4.46813900995249E-02 
1089	 4.01361660286385E-02 
1090	 3.84953132642998E-02 
1091	 3.91112825648116E-02 
1092	 4.21733522048708E-02 
1093	 4.28620297168466E-02 
1094	 4.59251665925966E-02 
1095	 4.61210386703272E-02 
1096	 4.24502044842809E-02 
1097	 0.04141690841695 
1098	 0.040874269703689 
1099	 4.05601697573666E-02 
1100	 4.02904138143838E-02 
1101	 4.16839198985873E-02 
1102	 0.046330233985757 
1103	 4.77384375409118E-02 
1104	 0.050116527263212 
1105	 4.89364558582253E-02 
1106	 0.044797424619727 
1107	 0.04235387586845 
1108	 3.83338330100294E-02 
1109	 3.85157636743952E-02 
1110	 4.06709087482279E-02 
1111	 4.77723284279832E-02 
1112	 4.78534454146758E-02 
1113	 4.75181237537059E-02 
1114	 0.049614941169421 
1115	 4.51649661475253E-02 
1116	 4.32990424687004E-02 
1117	 5.36945660434534E-02 
1118	 5.66410555805724E-02 
1119	 4.44494428203575E-02 
1120	 3.18591543179548E-02 
1121	 1.57540086485971E-02 
1122	-1.25718609740261E-02 
1123	-3.53823979045453E-02 
1124	-8.08650685257423E-04 
1125	-4.34070943955087E-03 
1126	-1.63441329563667E-02 
1127	 2.47045916652975E-02 
1128	 4.88302732972666E-02 
1129	 5.95405410776534E-02 
1130	 0.103066795723986 
1131	 0.112530494145635 
1132	 0.066388842537724 
1133	 6.46615746806364E-02 
1134	 0.106305272302118 
1135	 0.101263134392238 
1136	 7.42912429375022E-02 
1137	 6.87501645376282E-02 
1138	 5.50601925067443E-02 
1139	 4.17223474788346E-02 
1140	 5.21875161779489E-02 
1141	 5.56467576686611E-02 
1142	 5.96943486193665E-02 
1143	 5.55050733616197E-02 
1144	 4.67253567311033E-02 
1145	 5.26334857787673E-02 
1146	 5.11672312904793E-02 
1147	 4.69417893299895E-02 
1148	 0.04270076487968 
1149	 3.10161664700076E-02 
1150	 0.030464205487581 
1151	 3.25341081015734E-02 
1152	 3.53003036597386E-02 
1153	 4.74259992051705E-02 
1154	 4.74973211991256E-02 
1155	 4.33856921453182E-02 
1156	 3.61208917495018E-02 
1157	 3.71273637816329E-02 
1158	 0.038112628078859 
1159	 3.82926904402169E-02 
1160	 4.00024751670661E-02 
1161	 4.08124760222591E-02 
1162	 4.17382734905176E-02 
1163	 4.51992103918657E-02 
1164	 4.58752571759937E-02 
1165	 4.15152277632687E-02 
1166	 4.20271625553886E-02 
1167	 4.51409774411341E-02 
1168	 4.48962257231425E-02 
1169	 4.62659395083133E-02 
1170	 4.68734306345093E-02 
1171	 4.54849900846511E-02 
1172	 3.95001397119265E-02 
1173	 3.88098259816096E-02 
1174	 4.01786257604848E-02 
1175	 4.03612669475584E-02 
1176	 4.18773172505912E-02 
1177	 4.32202185547589E-02 
1178	 4.17102859904063E-02 
1179	 0.04100733510758 
1180	 0.041930944245708 
1181	 4.33025497315453E-02 
1182	 4.46710334631783E-02 
1183	 4.49248360976074E-02 
1184	 4.38927436842942E-02 
1185	 4.34948603201815E-02 
1186	 4.38536462918853E-02 
1187	 4.31038125943901E-02 
1188	 4.18805616366681E-02 
1189	 3.95321150521617E-02 
1190	 3.75566358872031E-02 
1191	 3.82713119521035E-02 
1192	 3.88770946628475E-02 
1193	 4.01568436176364E-02 
1194	 4.12780622227422E-02 
1195	 4.28900897846742E-02 
1196	 4.36229424109074E-02 
1197	 4.29921206002771E-02 
1198	 0.042266071382719 
1199	 4.27567677636117E-02 
1200	 4.27136962746484E-02 
1201	 4.28339263365841E-02 
1202	 0.043701079826695 
1203	 4.24877626634491E-02 
1204	 4.16496179677712E-02 
1205	 4.14794969810382E-02 
1206	 4.10690989569336E-02 
1207	 4.28071665866339E-02 
1208	 4.48064843863472E-02 
1209	 0.044230614711392 
1210	 4.34242349454968E-02 
1211	 4.42527196376239E-02 
1212	 4.45433254583048E-02 
1213	 4.35679680772509E-02 
1214	 4.30612357714518E-02 
1215	 0.043100140386673 
1216	 4.31269098037952E-02 
1217	 4.22115744465919E-02 
1218	 4.21118066896214E-02 
1219	 4.31157701356945E-02 
1220	 0.041865614436088 
1221	 4.01696525711332E-02 
1222	 4.13084642766407E-02 
1223	 4.25623553214403E-02 
1224	 4.23331231778765E-02 
1225	 4.20935021143859E-02 
1226	 4.15395002757584E-02 
1227	 4.03583658348807E-02 
1228	 4.05916749868009E-02 
1229	 4.21656366704586E-02 
1230	 4.17667842946239E-02 
1231	 4.16392076466638E-02 
1232	 4.34843401087564E-02 
1233	 4.41357215639901E-02 
1234	 4.28747484304185E-02 
1235	 4.22547284452182E-02 
1236	 4.13200534225044E-02 
1237	 4.07032671088614E-02 
1238	 3.93021223834494E-02 
1239	 4.03268693335171E-02 
1240	 4.26393667667279E-02 
1241	 4.15455517229477E-02 
1242	 4.00985913755607E-02 
1243	 0.0404201477936 
1244	 4.06181653790389E-02 
1245	 4.17144541081853E-02 
1246	 4.26329946853695E-02 
1247	 4.20157287651956E-02 
1248	 4.15203370499917E-02 
1249	 4.07341082866407E-02 
1250	 4.12761477603564E-02 
1251	 4.32154870342659E-02 
1252	 4.24507633519445E-02 
1253	 4.03755457209486E-02 
1254	 3.87200050574733E-02 
1255	 3.73746527444475E-02 
1256	 0.037331996571683 
1257	 3.94812592448297E-02 
1258	 4.04469045830414E-02 
1259	 4.19756538556677E-02 
1260	 0.042366201984954 
1261	 4.20398578917946E-02 
1262	 4.20256331606352E-02 
1263	 4.15533459238557E-02 
1264	 4.11409503158686E-02 
1265	 4.04649298318459E-02 
1266	 3.87718014091009E-02 
1267	 4.01077665217768E-02 
1268	 4.10367129420992E-02 
1269	 0.0409330483811 
1270	 4.31526969658357E-02 
1271	 4.32271824524952E-02 
1272	 4.23005669096235E-02 
1273	 4.32375507917405E-02 
1274	 4.36389284982718E-02 
1275	 4.27022980757324E-02 
1276	 4.14856591757847E-02 
1277	 4.11941646811489E-02 
1278	 4.13747264094716E-02 
1279	 4.27050437056572E-02 
1280	 4.47374363887241E-02 
1281	 4.52779472978963E-02 
1282	 4.53946793506485E-02 
1283	 4.50256513795872E-02 
1284	 4.29991237701425E-02 
1285	 4.28779668534186E-02 
1286	 4.39118198372922E-02 
1287	 4.30815147448429E-02 
1288	 4.13005099819289E-02 
1289	 4.08710540909094E-02 
1290	 3.93534926106717E-02 
1291	 4.04122690224975E-02 
1292	 0.041689047881764 
1293	 4.12729696438282E-02 
1294	 4.20764693273024E-02 
1295	 4.27245330252243E-02 
1296	 4.13522046887885E-02 
1297	 4.19185964480374E-02 
1298	 4.28957347563955E-02 
1299	 4.11116646506606E-02 
1300	 4.26657903993421E-02 
1301	 4.63805904386164E-02 
1302	 0.045104898690074 
1303	 4.26929745548647E-02 
1304	 0.039515144267009 
1305	 3.67162803795982E-02 
1306	 3.79989575057693E-02 
1307	 4.35319146237812E-02 
1308	 4.39873601273709E-02 
1309	 4.66469462878903E-02 
1310	 4.77888300607892E-02 
1311	 4.33982695124019E-02 
1312	 0.042019966400575 
1313	 4.39020852772013E-02 
1314	 0.042881263075612 
1315	 3.76801873867046E-02 
1316	 3.61101641735493E-02 
1317	 3.70648662852453E-02 
1318	 3.75076568914534E-02 
1319	 3.89018614616788E-02 
1320	 3.98927305216825E-02 
1321	 4.24429570307434E-02 
1322	 4.29457793838519E-02 
1323	 3.48261969942828E-02 
1324	 0.03123704982974 
1325	 3.58888651882699E-02 
1326	 4.29034206327755E-02 
1327	 5.21047275560303E-02 
1328	 5.72474038103116E-02 
1329	 5.25046651844019E-02 
1330	 4.25983872130184E-02 
1331	 3.97940968458855E-02 
1332	 4.00012752252317E-02 
1333	 2.62365821535862E-02 
1334	 7.45958754178998E-03 
1335	 7.47537321458952E-03 
1336	 2.96393610387143E-02 
1337	 2.96401087928908E-02 
1338	 3.29462949733529E-02 
1339	 3.14110595228877E-02 
1340	 6.32075192283072E-03 
1341	-9.41305613600148E-03 
1342	-2.49923042573729E-02 
1343	-2.52212509475402E-02 
1344	-6.94584138522665E-03 
1345	-1.34906742736149E-02 
1346	-4.64673678563349E-03 
1347	-1.07675298149856E-03 
1348	-9.73415303487434E-02 
1349	-0.142712405496429 
1350	-4.62897836852312E-02 
1351	 9.00930347822238E-03 
1352	 0.130305617315958 
1353	 0.309615165456873 
1354	 0.587918688929112 
1355	 0.437265007832469 
1356	 0.151544115925532 
1357	-6.36729956760417E-02 
1358	-0.368006052528119 
1359	-0.257682039697459 
1360	-0.332144279375051 
1361	 2.67598094339773 
1362	-2.19096679590994 
1363	-0.474427292890195 
1364	-2.38334545230556E-02 
1365	-0.119685328935399 
1366	-0.675041237924692 
1367	-0.534935074484459 
1368	-1.54829692595722 
1369	-1.95016303310516 
1370	-1.9120584097567 
1371	-0.939266757114927 
1372	-1.70727752780758 
1373	 0.659469472815754 
1374	 0.138791053657607 
1375	 3.83990359620492 
1376	 4.5952485933469 
1377	 0.844708774131389 
1378	 1.60423668597894 
1379	-1.12108273552808 
1380	-2.04744390897657 
1381	 1.75869227066179 
1382	 3.13268530951448 
1383	-5.4145837764218 
1384	-12.765327112843 
1385	-0.474855109201143 
1386	 8.39376860157254E-02 
1387	-2.11785597151894 
1388	-0.287390942853785 
1389	-0.80140470239194 
1390	-0.630442274219492 
1391	 2576.64910292855 
1392	-1.96277401635335 
1393	-20.2495711567275 
1394	-5.31928676324274 
1395	-1.89591336360876 
1396	 4.63985636283317 
1397	 0.925004228213046 
1398	-5.81650285510224 
1399	-4.87111822656256 
1400	 3.42402626656181 
1401	-6.60238313681536 
1402	-1.4217183437012 
1403	-1.80752440033666 
1404	-1.65362309922739 
1405	-1.51745351356077 
1406	-1.59684269860959 
1407	-1.12126276964635 
1408	 0.936283956620396 
1409	 2.29788200706314 
1410	-0.100384515989916 
1411	-0.207566267139858 
1412	 1.2198394391508 
1413	 19.5559455898134 
1414	 5.19651322571315 
1415	-19.9359597393199 
1416	-2.36591272527231 
1417	-2.08352446660044 
1418	-0.259818059225623 
1419	-1.88606181009632E-02 
1420	-0.639232034307081 
1421	-0.605147143269556 
1422	-1.34611472628646 
1423	-0.831025129990616 
1424	 7.95418157806122E-02 
1425	 0.159286215419808 
1426	-0.413891039981097 
1427	-0.40487920809826 
1428	 0.11379513730851 
1429	 1.29607372947911 
1430	-1.0883266866561 
1431	-1.76727426450869 
1432	 1.20851357937766 
1433	 2.00176128456382 
1434	-2.29202772756553 
1435	-1.60937529660598 
1436	-1.35653790600339 
1437	-0.920133580649128 
1438	-1.45697620902301 
1439	-2.07036671495836 
1440	-1.26188750773036 
1441	-205.443269929646 
1442	-0.726418700338387 
1443	 0.68286368686543 
1444	 0.607234242559597 
1445	 0.212671231241782 
1446	-0.278481741194591 
1447	-0.979016381312067 
1448	-1.21601162712302 
1449	-1.84294231989346 
1450	-1.16067310015526 
1451	-0.622113771371131 
1452	 0.126048499203162 
1453	 0.326214251533656 
1454	 0.325307132947315 
1455	 0.700080152898993 
1456	 0.724364499578535 
1457	-0.797990425520157 
1458	-0.721626533958356 
1459	 6.08578553667587E-02 
1460	 0.184457333856734 
1461	 0.301199501378724 
1462	 0.194016811841247 
1463	-6.29503126703553E-02 
1464	-0.271115197472271 
1465	-0.807342994815531 
1466	-0.861616528832544 
1467	-0.435067719657919 
1468	-0.335241383223482 
1469	-0.316122149281352 
1470	-0.151513193356074 
1471	 9.79467937928133E-02 
1472	 0.110423519395536 
1473	 0.319193431046097 
1474	 0.393231124389447 
1475	 0.166223864496811 
1476	-3.36427662535691E-02 
1477	-0.33125055542339 
1478	-0.427280530511179 
1479	-0.664956857098718 
1480	-0.806237620177896 
1481	-0.667880672355658 
1482	-0.556601840719305 
1483	-0.651271609899588 
1484	-0.57359095297548 
1485	-0.277707085693683 
1486	-0.165244897623783 
1487	-7.52783567557945E-02 
1488	-1.33229201118658E-02 
1489	-4.00653001984625E-02 
1490	-3.27607556009174E-02 
1491	-9.65912596911245E-03 
1492	 1.84345311050555E-03 
1493	 4.16852442075171E-02 
1494	 2.59040238027996E-02 
1495	-6.05811472276743E-02 
1496	-5.08499902242587E-02 
1497	 1.59758243474442E-02 
1498	 1.50430044133213E-02 
1499	 6.52526030805077E-03 
1500	 1.61139163574397E-02 
1501	-6.81307456425471E-03 
1502	-1.56109953835261E-02 
1503	 1.14505868533063E-02 
1504	 2.94241836004659E-02 
1505	 3.00178574291561E-02 
1506	 3.57664650312656E-02 
1507	 4.08885644661694E-02 
1508	 6.26289197656654E-02 
1509	 6.69155922114661E-02 
1510	 4.02519875649209E-02 
1511	 4.62365171737219E-02 
1512	 6.02784478703491E-02 
1513	 4.48903844493912E-02 
1514	 3.74506584970833E-02 
1515	 3.53291272636563E-02 
1516	 3.51638767687687E-02 
1517	 5.34618432575035E-02 
1518	 5.82129738834968E-02 
1519	 5.37441623222711E-02 
1520	 5.80071822161758E-02 
1521	 0.062712188353934 
1522	 0.071265931356792 
1523	 7.30147412976199E-02 
1524	 6.33995079619932E-02 
1525	 5.09277773193349E-02 
1526	 4.49300184516055E-02 
1527	 3.81864093592812E-02 
1528	 2.51307292544303E-02 
1529	 0.034971687607459 
1530	 4.58486095356064E-02 
1531	 3.99351615551316E-02 
1532	 5.00000892008122E-02 
1533	 5.25650211194291E-02 
1534	 4.25274572587001E-02 
1535	 4.40766128611205E-02 
1536	 4.33993706182262E-02 
1537	 3.60765287342694E-02 
1538	 3.32856490885251E-02 
1539	 3.40892081939761E-02 
1540	 3.54960182586359E-02 
1541	 4.32819638051732E-02 
1542	 5.13429064292831E-02 
1543	 5.42210391282494E-02 
1544	 5.49932357351885E-02 
1545	 4.77334827387646E-02 
1546	 3.81100032613106E-02 
1547	 4.09259704940534E-02 
1548	 4.41129593399476E-02 
1549	 3.89887547259667E-02 
1550	 4.18009505708378E-02 
1551	 5.00637901978576E-02 
1552	 5.26030619504408E-02 
1553	 4.85345661317282E-02 
1554	 4.34024317070672E-02 
1555	 3.88076953861801E-02 
1556	 0.037399687124426 
1557	 4.22570588057008E-02 
1558	 4.37771674838691E-02 
1559	 4.27579455171867E-02 
1560	 4.11497058884709E-02 
1561	 3.89769785812048E-02 
1562	 4.22915237146033E-02 
1563	 4.32352503085608E-02 
1564	 4.03746861869412E-02 
1565	 4.63003138486067E-02 
1566	 5.00322192472917E-02 
1567	 4.64471632513363E-02 
1568	 0.04763103789676 
1569	 4.56698056704094E-02 
1570	 3.84397501882109E-02 
1571	 3.34443905518046E-02 
1572	 3.56854634348876E-02 
1573	 4.39214055455232E-02 
1574	 4.42471889500316E-02 
1575	 4.37447234452958E-02 
1576	 4.86362671697962E-02 
1577	 5.00997792304278E-02 
1578	 5.39486489815815E-02 
1579	 6.13271353399026E-02 
1580	 6.31085893671601E-02 
1581	 5.78077012660413E-02 
1582	 5.37881047074448E-02 
1583	 5.14400545789242E-02 
1584	 5.10357808050273E-02 
1585	 4.91027625419587E-02 
1586	 4.32783790786083E-02 
1587	 4.59956151485469E-02 
1588	 4.69432456991942E-02 
1589	 4.00342894337513E-02 
1590	 3.86138975574309E-02 
1591	 4.45431926683652E-02 
1592	 4.72694147874157E-02 
1593	 4.31603371007563E-02 
1594	 4.58890548863047E-02 
1595	 4.36506847786224E-02 
1596	 3.12398707441219E-02 
1597	 3.18885563663265E-02 
1598	 3.73303699597881E-02 
1599	 3.53393175891846E-02 
1600	 3.50846383160881E-02 
1601	 3.74079509675781E-02 
1602	 3.72660262075366E-02 
1603	 3.87638827155809E-02 
1604	 4.59829004502757E-02 
1605	 5.33197395540016E-02 
1606	 5.33262422925127E-02 
1607	 5.44940587681409E-02 
1608	 5.71673022014751E-02 
1609	 0.047079041050512 
1610	 3.93614438336878E-02 
1611	 3.93296415283121E-02 
1612	 3.85517691620069E-02 
1613	 4.29924830132814E-02 
1614	 4.80324411219663E-02 
1615	 4.84616903984237E-02 
1616	 4.50451480987242E-02 
1617	 4.09124373423282E-02 
1618	 0.037775953924544 
1619	 3.84218230151252E-02 
1620	 4.27838496006014E-02 
1621	 4.19545795481673E-02 
1622	 4.22122645613275E-02 
1623	 4.58221164167019E-02 
1624	 0.042400287285359 
1625	 4.18872932241875E-02 
1626	 4.56583396184545E-02 
1627	 4.29792004495415E-02 
1628	 4.00556667162882E-02 
1629	 4.03879872658076E-02 
1630	 4.16942354753682E-02 
1631	 4.27956259820926E-02 
1632	 4.02019789837603E-02 
1633	 3.62176997220651E-02 
1634	 3.61854157698689E-02 
1635	 3.85004895439633E-02 
1636	 4.06233091589794E-02 
1637	 4.26900513575163E-02 
1638	 4.59466542852369E-02 
1639	 5.11205731195567E-02 
1640	 0.054513402913585 
1641	 5.28407014762397E-02 
1642	 5.01949143567335E-02 
1643	 4.79290377355491E-02 
1644	 4.56916402300673E-02 
1645	 4.53508301668864E-02 
1646	 4.42336160657441E-02 
1647	 4.09607105205565E-02 
1648	 3.89694779849955E-02 
1649	 4.14397800476424E-02 
1650	 4.25486395568414E-02 
1651	 4.26037150162879E-02 
1652	 0.045329723790937 
1653	 4.12315922589682E-02 
1654	 4.35305985262073E-02 
1655	 5.07803954043574E-02 
1656	 5.03569753820674E-02 
1657	 4.93532408653999E-02 
1658	 5.01512991502527E-02 
1659	 0.046401226471496 
1660	 4.36239914201447E-02 
1661	 4.52498410549972E-02 
1662	 4.57033935371172E-02 
1663	 4.11891716525994E-02 
1664	 4.06167051587348E-02 
1665	 4.35862147399009E-02 
1666	 4.54782832675741E-02 
1667	 4.95244534233001E-02 
1668	 4.16954916220569E-02 
1669	 0.04112563141471 
1670	 3.93576061447956E-02 
1671	 3.71657576384223E-02 
1672	 4.37827335508374E-02 
1673	 3.92058312421056E-02 
1674	 2.61798589993986E-02 
1675	 2.88564162020481E-02 
1676	 0.039882324239662 
1677	 4.32889493734959E-02 
1678	 4.19476382621322E-02 
1679	 4.39473678428755E-02 
1680	 4.55559306563205E-02 
1681	 4.63475551741434E-02 
1682	 5.01593098017442E-02 
1683	 4.40039586080783E-02 
1684	 3.41171573006934E-02 
1685	 3.46118038501715E-02 
1686	 4.07671998232523E-02 
1687	 4.89251482964969E-02 
1688	 5.25373722219321E-02 
1689	 5.22353018495913E-02 
1690	 5.28928796312467E-02 
1691	 0.048159191491288 
1692	 4.23618250060253E-02 
1693	 4.14648907713931E-02 
1694	 3.76019043003838E-02 
1695	 3.71761102188547E-02 
1696	 3.67514997123553E-02 
1697	 3.39743397818328E-02 
1698	 3.90193709051821E-02 
1699	 4.15984301440163E-02 
1700	 4.53756998864405E-02 
1701	 4.43000126118716E-02 
1702	 0.032162298738143 
1703	 3.74292741128507E-02 
1704	 4.58384852047009E-02 
1705	 4.00465282338831E-02 
1706	 0.04401947812067 
1707	 4.25058507556722E-02 
1708	 3.23051735967344E-02 
1709	 4.14525804758782E-02 
1710	 5.18998035913108E-02 
1711	 4.71348180603415E-02 
1712	 4.12213281481255E-02 
1713	 3.73630333701486E-02 
1714	 3.04003061895358E-02 
1715	 2.55546896720543E-02 
1716	 3.36247834636529E-02 
1717	 2.75180726737439E-02 
1718	 3.41001344788899E-02 
1719	 4.49042374166173E-02 
1720	 3.74033863230441E-02 
1721	 3.67926395920264E-02 
1722	 4.31217848515797E-02 
1723	 3.15150183698926E-02 
1724	 2.66249645231639E-02 
1725	 3.21278268930227E-02 
1726	 2.71572583271436E-02 
1727	 0.024378874286301 
1728	 0.028073795097575 
1729	 2.53015166877514E-02 
1730	 1.48915111441042E-02 
1731	 2.54101181374166E-02 
1732	 4.34672404979962E-02 
1733	 4.10147770771618E-02 
1734	 4.75441189014816E-02 
1735	 5.63361336629676E-02 
1736	 5.37501257422416E-02 
1737	 5.95183854722081E-02 
1738	 6.05372415381115E-02 
1739	 5.18836023048508E-02 
1740	 4.40240096663138E-02 
1741	 3.87529722007282E-02 
1742	 4.21090294712173E-02 
1743	 4.16020183349499E-02 
1744	 4.32994917828456E-02 
1745	 4.96026772672296E-02 
1746	 2.66961762579441E-02 
1747	 3.10111964558564E-02 
1748	 4.27240277500273E-02 
1749	 3.81396126007293E-02 
1750	 5.38602647085015E-02 
1751	 5.95964788513809E-02 
1752	 3.60352572160805E-02 
1753	 3.48570532767842E-02 
1754	 0.052711690257066 
1755	 5.61738188753431E-02 
1756	 5.34284169265489E-02 
1757	 5.98787092908125E-02 
1758	 5.75750009000435E-02 
1759	 5.71705859691667E-02 
1760	 0.056878979794299 
1761	 4.23111764887466E-02 
1762	 2.61947731369314E-02 
1763	 2.33804249712996E-02 
1764	 2.26151585868049E-02 
1765	 0.010838425769639 
1766	 1.54552515672835E-02 
1767	 1.73805873792032E-02 
1768	 3.55161357615353E-03 
1769	 4.40382926943611E-03 
1770	 0.019399180497011 
1771	 4.75047054372629E-02 
1772	 5.72642710372198E-02 
1773	 4.29847157764196E-02 
1774	 2.73730105754633E-02 
1775	 1.78905383485904E-02 
1776	 1.84725060455574E-02 
1777	 0.064537758832138 
1778	 8.84431652189584E-02 
1779	 8.67740622931442E-02 
1780	 7.66015532522317E-02 
1781	 0.070261476454105 
1782	 6.82663891540201E-02 
1783	 3.90860076616793E-02 
1784	 4.35983256158182E-03 
1785	-0.018455668110332 
1786	-0.0813790681932 
1787	-0.224923704104508 
1788	-0.233931983452098 
1789	-0.175453775039029 
1790	-0.161378514518942 
1791	-1.22485816201344E-02 
1792	-3.21986192338011E-02 
1793	-5.43009801738594E-02 
1794	 0.198395421048518 
1795	 3.26120075499984E-02 
1796	-0.314971282835639 
1797	-0.359978548388217 
1798	-0.596506648328612 
1799	-0.453458011308579 
1800	-0.293902682022537 
1801	-0.211750863442511 
1802	-0.618291067639299 
1803	-0.947609304226445 
1804	-0.586920656261183 
1805	-5.37387182934378E-02 
1806	 4.65750502622439 
1807	 4.67193065473956 
1808	 0.295393647450135 
1809	-0.371988058777562 
1810	-2.47408662142579 
1811	-2.54328876970089 
1812	-2.04088872342216 
1813	-2.14818591542331 
1814	-1.07317846175011 
1815	-1.92284532772606 
1816	 6.20577660471868E-02 
1817	-0.29673236185057 
1818	-3.80967584178853E-02 
1819	-26.0702359753684 
1820	-1.40737758409937 
1821	-1.72613760560843 
1822	-1.99132664830602 
1823	-39.0567229571698 
1824	 2.12803018066202 
1825	 0.845104288058869 
1826	 0.689957762241782 
1827	 0.342236970736259 
1828	-4.07976268136915E-02 
1829	 6.05136666628722 
1830	 1.57336858238982 
1831	 1.50008578801754 
1832	 1.36528141343354 
1833	 2.47597013297769 
1834	 2.8402994909151 
1835	 1.21377715563613 
1836	 11.5670468009752 
1837	-0.226750497930912 
1838	-8.31050273706417E-02 
1839	-0.336014221502331 
1840	-1.48463405912375 
1841	 2.44062822415038 
1842	 0.970924554175249 
1843	 0.552323996652456 
1844	-5.28962002219587E-03 
1845	-3.98276546005153E-02 
1846	 5.22880288264981E-02 
1847	 8.66366983032572E-03 
1848	 0.129785294363245 
1849	 0.518437364155422 
1850	 3.27827255011371E-02 
1851	-0.301702308618989 
1852	-0.263509813001512 
1853	-0.611362288701865 
1854	-0.892558104492534 
1855	-7.81106331995572 
1856	 1.16170069954848 
1857	 0.313331312374439 
1858	 0.23946386212316 
1859	-0.469918437087505 
1860	-0.708780114234812 
1861	-3.67126523639112 
1862	 1.74218734274061 
1863	 0.429663166548992 
1864	 0.143637616163978 
1865	-0.304727944128916 
1866	-7.5701917241851 
1867	 17.4721284518201 
1868	 5.1737646994218 
1869	 5.11038146973713 
1870	-1049.21165300772 
1871	-1.28295078054544 
1872	-0.415285219618194 
1873	 8.24830905555169E-02 
1874	 1.14617493781242 
1875	 1.37151944252419 
1876	 1.37911024999621 
1877	 1.279816346574 
1878	 1.53183458090975 
1879	 1.87215492877408 
1880	 1.73582632597036 
1881	 4.83414631190881 
1882	-11.5266089054229 
1883	 3.0681318643589 
1884	 0.888734080782671 
1885	 1.37269151229939 
1886	 2.19688403229608 
1887	 1.40761832002287 
1888	 0.258854738350694 
1889	 0.100301778930693 
1890	-0.327153880476811 
1891	-0.321444754173132 
1892	 3.17162304597843E-02 
1893	 0.739096511442848 
1894	 1.72477907675338 
1895	 1.77922073564344 
1896	 0.56838643368947 
1897	 0.534239879385687 
1898	 1.0134772035827 
1899	 0.118217659326326 
1900	 0.107988497304938 
1901	-0.461990911442153 
1902	-0.574764243203659 
1903	-2.51344403905752 
1904	-8.14995891688568 
1905	 2.05915922009422 
1906	 0.543542798188078 
1907	 0.173068212526525 
1908	-0.234088212434129 
1909	 3.44521493848233E-02 
1910	-0.172760904179337 
1911	-0.108339099515971 
1912	 0.158826132401547 
1913	 0.118149943195376 
1914	 6.73491852585953E-02 
1915	 2.59212985967768E-02 
1916	-0.201228032618851 
1917	-2.65024560614244 
1918	 1.04406488291799 
1919	 0.624646074882407 
1920	 0.667075140599572 
1921	 1.36266088514553 
1922	 3.14940579703094 
1923	-1.4372155816918 
1924	 10.8155504332879 
1925	-2.60134168305444 
1926	-4.00778728372406 
1927	 2.09196396337735 
1928	-1.64719383938836 
1929	-1.54605465636104 
1930	-1.58232849603843 
1931	-3.58127099420855 
1932	 2.31597848229667 
1933	 0.591464448338382 
1934	-0.296474796511907 
1935	-0.972495008167265 
1936	-0.802429224473531 
1937	-0.597141099867497 
1938	-0.669441987495431 
1939	-0.361573283589665 
1940	 0.56683238267127 
1941	 1.7844015251803 
1942	 0.39295753149646 
1943	 0.317968593861309 
1944	 1.11585949786644 
1945	 1.54350338752492 
1946	 0.232597994821923 
1947	 0.222510477186916 
1948	 0.917388255276144 
1949	 1.60097643620037 
1950	 0.963329578757227 
1951	-0.224355619026829 
1952	-0.806021919471739 
1953	-2.36368198397267 
1954	-0.328186270117097 
1955	 1.52559913119843 
1956	 18.0535193078076 
1957	-15.3164777799545 
1958	-1.7344237765051 
1959	-0.753601821545986 
1960	-0.462886630042854 
1961	-0.123305450566209 
1962	 6.00535825684544E-02 
1963	 0.465505946947159 
1964	 0.665364027547553 
1965	 1.26613021159524 
1966	 3.96453012029696 
1967	 5.24347745627272 
1968	-9.05553473020322 
1969	-1.99684499230724 
1970	-1.0656282939158 
1971	-1.6046718318152 
1972	-1.36811902289533 
1973	-0.855496763364631 
1974	-4.02129473464664 
1975	-5.04006512050978 
1976	-1.59170010976604 
1977	 2.34937736511033E-02 
1978	-0.929372660408142 
1979	-0.905813349584296 
1980	-0.410461679294475 
1981	 0.038826233675408 
1982	 0.133634390009934 
1983	 41.184638171593 
1984	-0.855707755946157 
1985	-3.55435526493052 
1986	-2.98433227482221 
1987	-1.63413567134829 
1988	-1.24007291157895 
1989	-0.142079227007132 
1990	-0.163965668078074 
1991	-0.89891556597279 
1992	-1.15949209651657 
1993	-1.32486136111931 
1994	-2.17380829746811 
1995	-115.169733397924 
1996	-6.09846974091792 
1997	 2.18987596467073 
1998	 3.02706528715731 
1999	-9.32783882632755 
2000	-3.12256874500383 
2001	-9.58119526432431 
2002	-2.70260057413089 
2003	 0.156885620759532 
2004	 0.31456794774045 
2005	 0.573721104846307 
2006	 0.656502506132646 
2007	 0.39980438652146 
2008	 0.162601712010551 
2009	 5.74218362506416E-02 
2010	-0.12813018933406 
2011	-0.307488376050996 
2012	-0.425562008872983 
2013	-0.276536345254512 
2014	-0.60554151196385 
2015	-1.8438206948786 
2016	-2.48293595985726 
2017	-2.05699752635929 
2018	-0.878026387748406 
2019	-0.657299924196711 
2020	-0.096093692774404 
2021	-0.353150288612194 
2022	-1.91140168040655E-02 
2023	-9.93558288914718E-02 
2024	-0.301278313686128 
2025	-0.770157069113928 
2026	-0.504210968173219 
2027	 0.222146709265071 
2028	 0.347085774160449 
2029	 0.941119819973814 
2030	 0.238293122606725 
2031	-0.340446142724703 
2032	-0.373006679921244 
2033	-0.627816459296274 
2034	-0.659889914071898 
2035	-0.436284970989605 
2036	-0.40247080597442 
2037	-7.49117653299045E-02 
2038	 0.469585233415254 
2039	 0.625633269651232 
2040	 0.335126381285119 
2041	 0.36963882189033 
2042	 0.603652809603762 
2043	 0.634233505888173 
2044	 0.521591558072197 
2045	 1.5398208237071 
2046	-1.24881935636428 
2047	-7.5878916491941 
2048	-1.20241160944336 
2049	-0.6845902136237 
2050	-0.68959132136109 
2051	-0.323615117666153 
2052	-0.128610624694606 
2053	-0.124630124557987 
2054	 0.14406847687735 
2055	 0.240941463592095 
2056	 0.337455939440974 
2057	 0.69990998190144 
2058	 0.911837466898077 
2059	 0.640341839856161 
2060	 0.494828851435216 
2061	 0.295035327886815 
2062	 0.124710153113164 
2063	-5.17373615580956E-02 
2064	 0.162046203133766 
2065	 1.00123054039811 
2066	 10.4615757926225 
2067	 5.59582871421135 
2068	 1.32490227716988 
2069	 0.845991263329794 
2070	 0.790494592871046 
2071	 0.674998283933561 
2072	 0.397168834258472 
2073	 0.365153553453537 
2074	 0.311470128129258 
2075	 0.328942139258197 
2076	 0.75301210062151 
2077	 0.73448426534898 
2078	 0.238461039308073 
2079	 9.79845457485215E-02 
2080	-3.72555629058753E-02 
2081	 8.58725288724857E-03 
2082	-1.18081935254968E-02 
2083	 0.010619550278582 
2084	-0.175158799139962 
2085	-0.231825907937315 
2086	-0.125477713113617 
2087	-9.43531314700975E-02 
2088	 2.24639701509133E-02 
2089	 0.030872823112772 
2090	 1.76220333842959E-02 
2091	 0.305991047255009 
2092	 0.062035672766184 
2093	-0.324363869910675 
2094	-0.339127974880133 
2095	-0.404551760484085 
2096	-0.337022291976608 
2097	 6.61564017828504E-02 
2098	 1.38334168421026E-02 
2099	-0.268478145243939 
2100	-0.447484474461482 
2101	-0.64783062215521 
2102	-0.824888329244098 
2103	-0.61169880818246 
2104	-0.533497919403805 
2105	-0.413801432887311 
2106	-0.354007163485195 
2107	-0.266866785127286 
2108	-0.161600794885251 
2109	-0.259508212982804 
2110	-0.253427727854131 
2111	-0.316719670376211 
2112	-0.352612979960739 
2113	-0.289907983551863 
2114	-3.45582548459849E-02 
2115	 0.130055813860368 
2116	 0.298486199132718 
2117	 0.417710235007799 
2118	 0.488841017267866 
2119	 0.437166454895656 
2120	 0.316164207280647 
2121	 0.211700941504066 
2122	 9.7919150433969E-03 
2123	-0.162996454326491 
2124	-0.254505359119989 
2125	-0.487300495902284 
2126	-0.538080102221554 
2127	-0.487963993646948 
2128	-0.350249252896232 
2129	-5.48143813540996E-02 
2130	-6.16275523928413E-02 
2131	-0.192835865404139 
2132	-0.222679033166564 
2133	-0.300087315827676 
2134	-0.339583706452444 
2135	-0.284608595059997 
2136	-0.319792813075868 
2137	-0.455756093163539 
2138	-0.417272849955277 
2139	-0.288180214311395 
2140	-0.191918829723082 
2141	-1.13277552555869E-03 
2142	 5.33235828260346E-02 
2143	 6.59606746817821E-02 
2144	-1.15928844364302E-02 
2145	-0.201322937545314 
2146	-0.257346443231704 
2147	-0.385764109559865 
2148	-0.462368479226672 
2149	-0.380365236829462 
2150	-0.26662547432213 
2151	-6.71047841917136E-02 
2152	-8.44379338532261E-02 
2153	-7.03045556872612E-02 
2154	-3.70450313476071E-02 
2155	-3.91878075809494E-02 
2156	 8.65188761236691E-02 
2157	 9.42096798884842E-02 
2158	 5.70580635112556E-02 
2159	 4.57130154150409E-02 
2160	-3.46551719511778E-02 
2161	-6.35534687985301E-02 
2162	-9.26557887187636E-03 
2163	-1.52359272235416E-02 
2164	-1.23150826822324E-02 
2165	-4.68150749005854E-02 
2166	-0.193602264400246 
2167	-0.240786540258802 
2168	-0.317229916888801 
2169	-0.363193175515777 
2170	-0.370284953335886 
2171	-8.48891723962281E-02 
2172	-3.33607847896347E-02 
2173	 0.071103385740208 
2174	 0.176943043328171 
2175	 0.12278620139847 
2176	 8.74028328384861E-02 
2177	 0.138932664129826 
2178	 0.08531590335531 
2179	-0.120623456159264 
2180	-0.106717655559767 
2181	-0.139745521045838 
2182	-0.153580411809302 
2183	 6.76976455801519E-03 
2184	-0.101216771986067 
2185	-0.269802767111388 
2186	-0.337916141447336 
2187	-0.428629482102119 
2188	-0.421078426337063 
2189	-0.228509768859175 
2190	-0.156330143784237 
2191	-7.99016507933687E-02 
2192	-4.79499531022563E-02 
2193	-0.109520801438465 
2194	-0.11492842060741 
2195	-7.93154548610928E-02 
2196	-6.44727445011751E-02 
2197	-0.075137066969555 
2198	-3.07512604244781E-02 
2199	 7.85618826480217E-02 
2200	 0.111644411078148 
2201	 0.157742613431643 
2202	 0.279783643393545 
2203	 0.170429558693336 
2204	-0.237354441350984 
2205	-0.809649515379809 
2206	-0.992118883790569 
2207	-1.02385809510798 
2208	-0.947029171841285 
2209	-0.606301590753043 
2210	-0.372961534103759 
2211	-0.013473415009401 
2212	 0.204350215675595 
2213	 0.126960812238579 
2214	 0.127493225434482 
2215	 0.203161802695794 
2216	 0.424480921533823 
2217	 0.422572537741193 
2218	 0.438037714082444 
2219	 0.378671811402283 
2220	 2.14715157308741E-02 
2221	-0.193883909236746 
2222	-0.503988939184495 
2223	-0.606284920202014 
2224	-0.295623436803619 
2225	-0.315036675247993 
2226	-0.341271338883069 
2227	-0.332736035341974 
2228	-0.363182852161324 
2229	-0.371064856651326 
2230	-0.33029945484706 
2231	-0.357728501934131 
2232	-0.54977257678334 
2233	-0.606460783255045 
2234	-0.707972370352877 
2235	-0.306360576397607 
2236	-0.129447544626882 
2237	-0.290846030173397 
2238	-0.267254073487615 
2239	-8.56946483533098E-02 
2240	-9.14866368315567E-03 
2241	 8.77476541263279E-02 
2242	 4.03790172044301E-02 
2243	-1.30531975729816E-02 
2244	 0.114141402820179 
2245	 0.52417112771901 
2246	 0.991613740216415 
2247	 0.732552898212297 
2248	 0.214711612969595 
2249	-0.103587093779482 
2250	-0.282449821596255 
2251	-0.114706272862469 
2252	-1.57814091986599E-02 
2253	-0.108695526082473 
2254	 5.48179060574407E-02 
2255	 0.127551118459956 
2256	-0.089358766122007 
2257	 7.07391374623156E-02 
2258	 0.515971962890122 
2259	 0.839993583927433 
2260	 0.943690936428126 
2261	 1.08164954249853 
2262	 1.20778207740076 
2263	 1.26980526199219 
2264	 1.33788870725458 
2265	 2.34075716376828 
2266	 2.5506845858714 
2267	 0.429108451447899 
2268	-7.48841425861707E-02 
2269	 0.415886339034809 
2270	-7.68311081379838E-03 
2271	-0.149833218075201 
2272	-0.160596938042652 
2273	-0.012738464365164 
2274	-8.67727627932959E-02 
2275	-0.586357821815978 
2276	-0.774270234908846 
2277	-0.539341073012848 
2278	-0.698226973082282 
2279	-0.793278581173359 
2280	-0.827116990449623 
2281	-1.22497228743063 
2282	-2.35325662058801 
2283	-1.75194349873405 
2284	-1.03238860384162 
2285	-1.24739717411109 
2286	-2.21295308201006 
2287	 5.51510038462907 
2288	 0.701112249123861 
2289	 1.25667181301272 
2290	 2.01086086856429 
2291	-11.9261932329935 
2292	-2.2232656075733 
2293	-2.49901183326466 
2294	-2.08349930543971 
2295	-4.71982751463922 
2296	-14.7218539861418 
2297	-2.64145847476759 
2298	-3.76593936881646 
2299	 30.2449141050313 
2300	 4.74098903235047 
2301	 2.20850050994847 
2302	 2.59069554135041 
2303	-2.24245060986652 
2304	-0.503926398379379 
2305	-0.539532606362646 
2306	-1.42546391174269 
2307	-1.75626544705853 
2308	 23.9878755005826 
2309	-9.94662115322689 
2310	-4.08133523849948 
2311	-0.631993845594336 
2312	-4.96716921122751E-02 
2313	 1.10249665268797 
2314	 5.94514199965455 
2315	 87.1525311040579 
2316	-38.0689162867374 
2317	-13.964984778047 
2318	-5.05131235061573 
2319	-8.51618694253963 
2320	 8.4768299466012 
2321	 20.4652212557148 
2322	-0.975495668814725 
2323	-2.76948254272387 
2324	 58.132647320495 
2325	 3.62352082663272 
2326	 1.24473459784524 
2327	 0.46035762410429 
2328	 0.877571105964208 
2329	 1.07865020461099 
2330	 0.537799529696919 
2331	-0.115988013395718 
2332	-1.40162335931756 
2333	-2.30946990079729 
2334	-1.78227911969811 
2335	-0.644715298751353 
2336	-0.138640323200296 
2337	-0.372496215723448 
2338	-0.373916503643878 
2339	 2.85748860825999 
2340	-9.7549138237904 
2341	-5.12900028793043 
2342	-24.93454210427 
2343	-16.3021569447362 
2344	 7.48918035274236 
2345	 2.70490569855927 
2346	 2.03990251823565 
2347	 1.32980269451213 
2348	 0.497202338473368 
2349	 0.37081161086027 
2350	 0.549076766010537 
2351	 0.38595075439165 
2352	 0.341084594183902 
2353	 1.3379306902857 
2354	 2.28977423075959 
2355	 2124.35357842074 
2356	-3.36421128263902 
2357	 22.6299643461243 
2358	 1.5594561409198 
2359	 0.560231634523562 
2360	 8.27087185967566E-02 
2361	-0.479166022498805 
2362	-4.29701465938621 
2363	 5.38754270930415 
2364	-4.76569845798301E-02 
2365	 0.197330477245028 
2366	 0.184220895077755 
2367	 0.302206443630776 
2368	 0.322101062219724 
2369	 0.276054299609519 
2370	 0.532892756650663 
2371	 3.31277193794926E-02 
2372	-0.949719564435515 
2373	-2.24762858874873 
2374	-9.68979155342509E-02 
2375	 0.346020267060638 
2376	 2.87689183477855 
2377	 4.07379390431366 
2378	 3.81107826088302 
2379	 3.90614156934497 
2380	 3.43849213952329 
2381	 1.8159338838896 
2382	 1.12538169207878 
2383	 1.02791642207709 
2384	 0.899522628278577 
2385	 0.984724327035491 
2386	 0.934608324228965 
2387	 0.283632877537167 
2388	-0.112923272228178 
2389	 1.87329651669677 
2390	 0.748291190694272 
2391	-0.702735365036798 
2392	-1.09321209597428 
2393	-1.64072228837303 
2394	-5.17338149891736 
2395	 5.37671918357986 
2396	 1.02400514129394 
2397	 0.252787792883959 
2398	-0.157196365904711 
2399	-0.647344539252315 
2400	-0.994006217550556 
2401	-0.723951490213742 
2402	-0.273792271935638 
2403	 0.1641993301795 
2404	 0.342141930530249 
2405	 0.320267295197836 
2406	-5.91705355405168E-02 
2407	-0.239660632963891 
2408	 6.52007421117148E-03 
2409	 0.587785989694443 
2410	 0.760864952661988 
2411	 1.41049322958951 
2412	 0.576085440904436 
2413	-0.368325241528562 
2414	-0.330697557419895 
2415	-9.78134019808004E-02 
2416	 8.35062405987141E-02 
2417	 0.487008550255474 
2418	 1.12047686916704 
2419	 2.48771053994457 
2420	 3.75628768501296 
2421	 5.93281140845302 
2422	 3.15240285918067 
2423	 1.99562918452628 
2424	 2.19911658698115 
2425	-1.99463848807571 
2426	-1.23234717026758 
2427	-0.649877647746822 
2428	-1.09213584642759 
2429	-0.695500947143964 
2430	-0.80078587875052 
2431	-1.17059629977739 
2432	-1.87245764307045 
2433	 3.67695496861391 
2434	-2.599092768536 
2435	-2.00456112106415 
2436	-1.73399693641943 
2437	-1.33136889737749 
2438	-0.273210351499235 
2439	-0.073194942480655 
2440	 0.41981749545984 
2441	 0.620079586219737 
2442	 0.382901163881259 
2443	 1.64542417362187E-02 
2444	-0.601892735933058 
2445	-0.94076567266969 
2446	-2.41620944538362 
2447	-2.34521486189217 
2448	-6.67825416444074 
2449	 29.580134366038 
2450	-14.4267428156415 
2451	-1.49619342014033 
2452	-1.37888269415584 
2453	-1.23969637648681 
2454	-1.50553779052447 
2455	-5.90389220702134 
2456	-6.53525493902379E-02 
2457	 0.14621789617686 
2458	 0.532407609435042 
2459	 2.56155475916771 
2460	-1.44802268779098 
2461	-0.569648873128955 
2462	-5.39140192280038E-02 
2463	 5.25877673635766E-02 
2464	 0.360198998393542 
2465	 0.733282657465101 
2466	-0.560909462416371 
2467	-1.15290723497344 
2468	-2.47029253198298 
2469	 3.77951245221029 
2470	-0.383382252966046 
2471	-0.653330563951394 
2472	-0.897411592056629 
2473	-1.81982540101171 
2474	-1.5920677333185 
2475	-2.60450707873585 
2476	-6.3047198435385 
2477	-4.23903619656648 
2478	 3.85318426987533 
2479	 0.376219893576873 
2480	 0.309862490006926 
2481	 0.824569467374642 
2482	 3.56723104582537 
2483	 6.88489854747754 
2484	 2.74117325519013 
2485	 2.44329705320937 
2486	 1.37927294835074 
2487	 0.784527305597318 
2488	 0.416158989996321 
2489	-5.41162656963755E-02 
2490	-0.491230522492462 
2491	-1.04270728825256 
2492	-1.53702119692547 
2493	 0.290680864291138 
2494	 1.10961917370509 
2495	 0.475159093807462 
2496	 0.123476639548819 
2497	 8.04127370894597E-02 
2498	 0.607648767810842 
2499	 1.41077567325136 
2500	 2.47772432817811 
