Wavelength	rt0707close00008.asd
350	 8.21617839408531E-02 
351	 8.21732750360415E-02 
352	 8.22465250256542E-02 
353	 8.21023325939285E-02 
354	 8.14557832589502E-02 
355	 8.04359925704064E-02 
356	 8.15952920112945E-02 
357	 8.26844950012248E-02 
358	 8.13861404324096E-02 
359	 8.19536785745567E-02 
360	 8.18774312180978E-02 
361	 8.12768375438804E-02 
362	 8.19942382069602E-02 
363	 8.26451385983372E-02 
364	 8.29789538394421E-02 
365	 8.30826531448965E-02 
366	 8.33254910507078E-02 
367	 8.27665544309961E-02 
368	 8.24304616833337E-02 
369	 8.31121862169871E-02 
370	 8.28576250151868E-02 
371	 8.32782073222318E-02 
372	 8.36905812079623E-02 
373	 8.25042829001636E-02 
374	 8.27257740730532E-02 
375	 8.41398774352291E-02 
376	 8.54652945683851E-02 
377	 0.084604216661724 
378	 8.44446144845778E-02 
379	 8.49702164151251E-02 
380	 8.54062051542481E-02 
381	 8.49621756035889E-02 
382	 8.49709086876939E-02 
383	 8.55853223497269E-02 
384	 8.62042009629368E-02 
385	 8.56092659038939E-02 
386	 8.57615329689654E-02 
387	 8.70198280636924E-02 
388	 8.76977548898084E-02 
389	 8.77644869658733E-02 
390	 8.68482446387078E-02 
391	 8.56383640608942E-02 
392	 8.75109146763112E-02 
393	 8.87394858966253E-02 
394	 8.86167335776213E-02 
395	 8.79034554410634E-02 
396	 0.087952756433023 
397	 8.83899122760375E-02 
398	 8.87292470439583E-02 
399	 8.85892453076061E-02 
400	 8.92551067264152E-02 
401	 8.95661558710043E-02 
402	 0.088986060451318 
403	 8.91054222908359E-02 
404	 8.96954526053579E-02 
405	 9.01245189513921E-02 
406	 8.98959234184932E-02 
407	 9.03430379012412E-02 
408	 9.07771598337142E-02 
409	 9.10037744519544E-02 
410	 9.14146318503291E-02 
411	 9.15358603696089E-02 
412	 9.16711369721022E-02 
413	 9.20317196951718E-02 
414	 9.22832688639404E-02 
415	 9.25243915109564E-02 
416	 9.27476811455556E-02 
417	 9.29446217700079E-02 
418	 9.33566930973734E-02 
419	 9.35256290804889E-02 
420	 9.36522718164608E-02 
421	 9.46359184051551E-02 
422	 0.095071646104192 
423	 9.52532042619898E-02 
424	 9.56315079074148E-02 
425	 9.60610287622673E-02 
426	 9.63422447477301E-02 
427	 9.67545962612297E-02 
428	 9.76496473132001E-02 
429	 9.80762083737714E-02 
430	 9.87770777178591E-02 
431	 9.97588498558951E-02 
432	 0.100012527916205 
433	 0.100432832258193 
434	 0.100905722141689 
435	 0.101238511747614 
436	 0.101685119520529 
437	 0.102259536155777 
438	 0.102912250564974 
439	 0.103536807953468 
440	 0.103918741700734 
441	 0.104390009076262 
442	 0.105033154111645 
443	 0.1054793267214 
444	 0.105979507049663 
445	 0.106549907760494 
446	 0.107101793843575 
447	 0.10738563384596 
448	 0.107751407833119 
449	 0.108235476543045 
450	 0.108638038351661 
451	 0.109000218531871 
452	 0.109314831671212 
453	 0.109610864023222 
454	 0.109984783584905 
455	 0.110543612050577 
456	 0.111014239300019 
457	 0.111126932615436 
458	 0.111412108542398 
459	 0.111714848195349 
460	 0.111967065346543 
461	 0.112226330360129 
462	 0.11262157166468 
463	 0.113043499765181 
464	 0.113407775748426 
465	 0.113880521207276 
466	 0.113949979056715 
467	 0.114055039613789 
468	 0.114889510655474 
469	 0.115236320975235 
470	 0.115411125430628 
471	 0.115647333988319 
472	 0.115867731606235 
473	 0.116237536943161 
474	 0.116552291103791 
475	 0.11672052610244 
476	 0.117440243022221 
477	 0.117954670939777 
478	 0.118155789603542 
479	 0.118406665173855 
480	 0.118798650624161 
481	 0.119238801052363 
482	 0.119661034062182 
483	 0.120118926290313 
484	 0.120542165203472 
485	 0.120890029539988 
486	 0.121191386648076 
487	 0.121712948580488 
488	 0.122444960120835 
489	 0.123059618686775 
490	 0.123014180841894 
491	 0.12344089259297 
492	 0.124207797294038 
493	 0.124950875371075 
494	 0.125414955222293 
495	 0.12589511338702 
496	 0.126407401620594 
497	 0.126869800110618 
498	 0.127645174343371 
499	 0.128382944839533 
500	 0.128847900102059 
501	 0.129076626365753 
502	 0.129895275479669 
503	 0.130852178960952 
504	 0.131340832926848 
505	 0.131811306442628 
506	 0.132163483495369 
507	 0.132555203670698 
508	 0.133309603216636 
509	 0.133919986015034 
510	 0.134756000738129 
511	 0.135836533662415 
512	 0.136001177597094 
513	 0.136260306364234 
514	 0.136882594600716 
515	 0.137744866715647 
516	 0.138355233345441 
517	 0.139112565513679 
518	 0.140108014193478 
519	 0.140967174951022 
520	 0.141701424243333 
521	 0.142329292628153 
522	 0.142925055055198 
523	 0.143700985427445 
524	 0.144490046167923 
525	 0.145291230197277 
526	 0.146204218426491 
527	 0.147002917935888 
528	 0.147795540704519 
529	 0.148615553773063 
530	 0.149222205534809 
531	 0.150053776399059 
532	 0.151045119238767 
533	 0.151956626110356 
534	 0.152820980810768 
535	 0.153526456220893 
536	 0.154187250201113 
537	 0.155164045718089 
538	 0.156085539235365 
539	 0.156955785983965 
540	 0.157842703857442 
541	 0.15869907731524 
542	 0.159636456168059 
543	 0.160617682497053 
544	 0.161515499295116 
545	 0.162272047135306 
546	 0.163009169867607 
547	 0.163794762398887 
548	 0.164528465320956 
549	 0.165544785624778 
550	 0.16653928644218 
551	 0.167150963095192 
552	 0.168093046538712 
553	 0.169005175572126 
554	 0.169795317553526 
555	 0.170733232495884 
556	 0.171716817629875 
557	 0.172591905986693 
558	 0.173305645468378 
559	 0.174200091161814 
560	 0.175112951233085 
561	 0.175956109871879 
562	 0.176701350162157 
563	 0.177339363724168 
564	 0.178098233572254 
565	 0.178961837652739 
566	 0.179363317275177 
567	 0.179976300549794 
568	 0.180624513043054 
569	 0.180974005044633 
570	 0.18173128617686 
571	 0.182380664905128 
572	 0.182762698849001 
573	 0.183176166683278 
574	 0.18371754181618 
575	 0.18416602788331 
576	 0.184336441639004 
577	 0.184410368787452 
578	 0.184557444202791 
579	 0.184722689027833 
580	 0.184736397648623 
581	 0.184841501056796 
582	 0.18499488330363 
583	 0.185128188327286 
584	 0.185215024790687 
585	 0.184889023350654 
586	 0.184544096199369 
587	 0.184691525412295 
588	 0.1845809319859 
589	 0.184265899458891 
590	 0.183862679052966 
591	 0.183451805030433 
592	 0.182992007846468 
593	 0.182509127646342 
594	 0.18196108119508 
595	 0.181012192760468 
596	 0.180152650589994 
597	 0.179153783776867 
598	 0.177554479756964 
599	 0.176677244787757 
600	 0.175881966001329 
601	 0.174907603307387 
602	 0.174560029028911 
603	 0.174176396464204 
604	 0.17380909754531 
605	 0.173677961798578 
606	 0.173576371957572 
607	 0.173856955880565 
608	 0.174303124799287 
609	 0.174126603779169 
610	 0.174044047086458 
611	 0.173956115423428 
612	 0.173740939498497 
613	 0.173694139075612 
614	 0.173916246710331 
615	 0.17420188982063 
616	 0.174194530006024 
617	 0.174003455024972 
618	 0.17397374334878 
619	 0.174198544553667 
620	 0.17434993180556 
621	 0.174303742837115 
622	 0.174153395637687 
623	 0.174056250526798 
624	 0.173999433430394 
625	 0.173945324932084 
626	 0.17404734701449 
627	 0.174580070743064 
628	 0.174387943804733 
629	 0.17390370179837 
630	 0.17369013928747 
631	 0.173772666156096 
632	 0.174019824681815 
633	 0.174226762288478 
634	 0.174170259641025 
635	 0.173736035556488 
636	 0.173453938679611 
637	 0.17358861513748 
638	 0.173967306510532 
639	 0.173858715626632 
640	 0.173513934066086 
641	 0.173370245870346 
642	 0.173195378390277 
643	 0.173228523309824 
644	 0.173328389647743 
645	 0.173063565365191 
646	 0.172924156692908 
647	 0.172722911365105 
648	 0.172353032620976 
649	 0.172174588522311 
650	 0.171937277557824 
651	 0.171607204500737 
652	 0.1712094255457 
653	 0.170486854827343 
654	 0.169757398711209 
655	 0.169114216699612 
656	 0.168369396886706 
657	 0.167782222452231 
658	 0.167323655632917 
659	 0.166869896276326 
660	 0.1662104636374 
661	 0.165689472045721 
662	 0.165434508221019 
663	 0.165405712197378 
664	 0.165308369470822 
665	 0.165191327528052 
666	 0.165044926336702 
667	 0.164646561109036 
668	 0.164444386624172 
669	 0.16450482841629 
670	 0.164684339287607 
671	 0.164542941022523 
672	 0.164451578216564 
673	 0.164467185740081 
674	 0.164338969781075 
675	 0.16447654202824 
676	 0.16453615668094 
677	 0.164312994867358 
678	 0.16430061797396 
679	 0.164380646684993 
680	 0.164345800862521 
681	 0.164035484364585 
682	 0.163952464652866 
683	 0.164158736870301 
684	 0.164448157559522 
685	 0.164316645823447 
686	 0.163806102004 
687	 0.163211281087788 
688	 0.162869473261792 
689	 0.162643602261587 
690	 0.162282397413771 
691	 0.161857881079428 
692	 0.161575611203128 
693	 0.160634048250462 
694	 0.159557103803439 
695	 0.158739346154011 
696	 0.157876762083401 
697	 0.157014872760917 
698	 0.155940418349943 
699	 0.154603911414882 
700	 0.153670875301375 
701	 0.152306634160826 
702	 0.150630240460891 
703	 0.14940797421396 
704	 0.148016679624841 
705	 0.146560068293251 
706	 0.145118186723638 
707	 0.143334323102239 
708	 0.14139203766996 
709	 0.139547246678597 
710	 0.137893901570107 
711	 0.135398356916219 
712	 0.132776276806459 
713	 0.130419190085893 
714	 0.128203835636857 
715	 0.126106922525518 
716	 0.123592484502827 
717	 0.120559280408739 
718	 0.118372809793296 
719	 0.115336822133278 
720	 0.112494434806042 
721	 0.110494765521673 
722	 0.1082146557471 
723	 0.10545688785266 
724	 0.102747940689671 
725	 0.100361782559825 
726	 9.75293347667772E-02 
727	 9.45272143390083E-02 
728	 0.091624632781491 
729	 8.83011674812565E-02 
730	 8.51160414747747E-02 
731	 8.22407016983101E-02 
732	 7.94756849235827E-02 
733	 7.77569533135406E-02 
734	 0.076047757594716 
735	 7.41710653353137E-02 
736	 7.31178548878231E-02 
737	 7.19965321571998E-02 
738	 0.071191740079192 
739	 7.09587617256603E-02 
740	 7.02283086179201E-02 
741	 6.99789203063055E-02 
742	 6.99246229594351E-02 
743	 6.93199127008974E-02 
744	 6.93501199995815E-02 
745	 6.93082801410319E-02 
746	 6.90148094988025E-02 
747	 6.92286264140571E-02 
748	 6.90511141142493E-02 
749	 6.87001937461705E-02 
750	 0.068578566377792 
751	 6.87422686089774E-02 
752	 6.85596853175197E-02 
753	 6.82601216045555E-02 
754	 6.84300059895121E-02 
755	 6.82332029648015E-02 
756	 6.83736396490729E-02 
757	 6.88958034636193E-02 
758	 6.85860020239436E-02 
759	 6.84222342029369E-02 
760	 6.85833921621742E-02 
761	 6.86294361074142E-02 
762	 6.88324327969223E-02 
763	 6.89724460585644E-02 
764	 6.88858019119965E-02 
765	 6.86424184576895E-02 
766	 6.89635867790293E-02 
767	 6.91825547980922E-02 
768	 6.91051719707053E-02 
769	 6.89459098682762E-02 
770	 6.90924128662372E-02 
771	 0.069319432347335 
772	 6.94085729655836E-02 
773	 6.95120998443664E-02 
774	 6.98045258027918E-02 
775	 7.01320383407837E-02 
776	 7.02401535762401E-02 
777	 7.02212016078697E-02 
778	 7.03929218740715E-02 
779	 0.070780640195621 
780	 7.10982841369318E-02 
781	 7.12021691311533E-02 
782	 7.18174998896247E-02 
783	 0.072977260848971 
784	 7.27497550437158E-02 
785	 7.28608470035779E-02 
786	 7.35023456302953E-02 
787	 7.42301998274213E-02 
788	 7.44718216898654E-02 
789	 7.50327447917662E-02 
790	 7.56843925222902E-02 
791	 7.55050902751762E-02 
792	 7.60301636040107E-02 
793	 7.69245602777662E-02 
794	 7.77428700851983E-02 
795	 0.078238631351825 
796	 7.85455112797531E-02 
797	 7.87654047216694E-02 
798	 7.90705748433605E-02 
799	 7.98625259466393E-02 
800	 8.04491766750151E-02 
801	 8.06970811849195E-02 
802	 8.08513166855245E-02 
803	 8.10073805381472E-02 
804	 8.11953564736189E-02 
805	 8.14247018319833E-02 
806	 8.16800476043793E-02 
807	 8.13801158382687E-02 
808	 8.11773796051544E-02 
809	 8.15057499891375E-02 
810	 8.14540361969748E-02 
811	 8.18610317676357E-02 
812	 8.23194380745295E-02 
813	 8.19872490554167E-02 
814	 8.16763611128542E-02 
815	 8.10823406147508E-02 
816	 7.99989794839019E-02 
817	 7.85535354501564E-02 
818	 7.79785206406509E-02 
819	 7.76805643763687E-02 
820	 7.70318215866023E-02 
821	 7.55554390284001E-02 
822	 7.47732709644448E-02 
823	 7.37708190121162E-02 
824	 0.071875369414806 
825	 7.01650427050906E-02 
826	 6.81717046672133E-02 
827	 6.63348060788976E-02 
828	 6.52200834255513E-02 
829	 6.30476825776604E-02 
830	 6.16594215148064E-02 
831	 6.09746511439859E-02 
832	 0.059598064624005 
833	 5.81958408691528E-02 
834	 5.75640189562478E-02 
835	 5.76331890277074E-02 
836	 5.73328304604046E-02 
837	 5.64590979213981E-02 
838	 5.61646867015404E-02 
839	 5.67636120052172E-02 
840	 0.055657463717978 
841	 5.54857518593545E-02 
842	 5.56127777674028E-02 
843	 5.47766250679941E-02 
844	 5.46144956718457E-02 
845	 5.47187227696899E-02 
846	 5.46422566428988E-02 
847	 5.40684610411272E-02 
848	 5.37082559739924E-02 
849	 5.32373899486887E-02 
850	 5.29366729569713E-02 
851	 5.38498359429998E-02 
852	 5.35362920059035E-02 
853	 5.29373789187548E-02 
854	 5.30265743610548E-02 
855	 5.32328730006526E-02 
856	 5.29325394618822E-02 
857	 0.052481550287049 
858	 5.22428113227315E-02 
859	 0.051465425762566 
860	 5.11851841692381E-02 
861	 5.14348729992344E-02 
862	 5.17004699034799E-02 
863	 5.18717025016098E-02 
864	 5.12116052569472E-02 
865	 5.04357849514913E-02 
866	 5.12578598231005E-02 
867	 5.12816504155651E-02 
868	 5.06876240384527E-02 
869	 0.050357191423627 
870	 5.14531904893584E-02 
871	 5.07806878755653E-02 
872	 4.98798094763352E-02 
873	 5.01005312525161E-02 
874	 0.049978799750314 
875	 4.92493573383009E-02 
876	 4.91354790786399E-02 
877	 5.01124216487391E-02 
878	 4.79904206301824E-02 
879	 4.83521961583141E-02 
880	 4.95377004863432E-02 
881	 0.047694139391796 
882	 4.83323940789261E-02 
883	 0.048565782066495 
884	 4.78629287179227E-02 
885	 4.76955984992901E-02 
886	 4.74979953605918E-02 
887	 4.71643899796167E-02 
888	 4.69268150862808E-02 
889	 4.72363667127384E-02 
890	 4.62136376522189E-02 
891	 0.045841675335037 
892	 4.72965479777766E-02 
893	 4.86284258110243E-02 
894	 4.74164904897934E-02 
895	 4.67903011301676E-02 
896	 4.91210036799134E-02 
897	 0.046848741860431 
898	 0.046761995267024 
899	 4.74235494805248E-02 
900	 4.59077043906538E-02 
901	 4.55189079291081E-02 
902	 4.49455176604263E-02 
903	 0.046112816754015 
904	 5.00365816490647E-02 
905	 4.75533249672703E-02 
906	 4.55597217724991E-02 
907	 4.56480045131345E-02 
908	 4.48804443877244E-02 
909	 4.23625311686131E-02 
910	 4.29258797257587E-02 
911	 4.63400480813639E-02 
912	 4.73868987195125E-02 
913	 4.43260368504578E-02 
914	 4.11022947320371E-02 
915	 4.10946859314376E-02 
916	 4.48570340769855E-02 
917	 4.61475289927311E-02 
918	 4.45182751144444E-02 
919	 0.042474376677278 
920	 4.45170890888837E-02 
921	 4.41180546050874E-02 
922	 4.24162084706508E-02 
923	 4.14000037851264E-02 
924	 4.16582400831748E-02 
925	 4.59023225912551E-02 
926	 4.71353010550069E-02 
927	 3.97117380695173E-02 
928	 0.040396069273065 
929	 4.47704118186723E-02 
930	 5.52721747392113E-02 
931	 6.97439033282653E-02 
932	 3.08454636745185E-02 
933	 1.11773070037058E-02 
934	 3.63976879362414E-02 
935	 5.83757383525677E-02 
936	 2.09496834011665E-02 
937	 1.44290306666169E-02 
938	 3.48486266403794E-02 
939	 4.82156920042929E-02 
940	 4.26798800280809E-02 
941	 3.15382826935563E-02 
942	 2.34544275038214E-02 
943	 2.00165788681595E-02 
944	 4.21362545137883E-03 
945	 1.90976269760982E-02 
946	 3.73075162530126E-02 
947	 1.19568817096062E-02 
948	 2.03940334519693E-02 
949	 5.53906443154596E-02 
950	 7.55112699494014E-02 
951	 4.70329407662492E-02 
952	 3.76652407802013E-02 
953	 5.18398921368174E-02 
954	 6.48414149378711E-02 
955	 4.55645712080619E-02 
956	 0.029547665343532 
957	 3.86310105443045E-02 
958	 5.16694865807737E-02 
959	 3.49841406063386E-02 
960	 3.99894721824357E-02 
961	 0.041969151172819 
962	 0.035235856314969 
963	 3.18100353360227E-02 
964	 4.55094912736994E-02 
965	 4.77231701781534E-02 
966	 4.10411730523166E-02 
967	 4.58310041202047E-02 
968	 0.046557334523105 
969	 4.26799625615056E-02 
970	 3.83168167608721E-02 
971	 3.90678048763481E-02 
972	 3.58498855042644E-02 
973	 3.51613117723601E-02 
974	 3.90187006492639E-02 
975	 4.28133765710606E-02 
976	 4.32720082290745E-02 
977	 4.15514497977413E-02 
978	 4.19817409540537E-02 
979	 4.81329120851828E-02 
980	 4.61175867984686E-02 
981	 4.26106275667642E-02 
982	 4.02376270130025E-02 
983	 0.037747382885938 
984	 4.07647913868099E-02 
985	 4.08121073387586E-02 
986	 3.84886913932527E-02 
987	 4.05413083086731E-02 
988	 3.76822019701853E-02 
989	 3.90786870402978E-02 
990	 4.36821342368432E-02 
991	 0.043261570481664 
992	 4.29870818444067E-02 
993	 3.64006586066883E-02 
994	 3.11757326002381E-02 
995	 3.95410944729451E-02 
996	 3.94066796358095E-02 
997	 4.36124806819365E-02 
998	 4.95681382609995E-02 
999	 4.63191904415859E-02 
1000	 4.08177796604656E-02 
1001	 3.78243409413809E-02 
1002	 3.96119708963728E-02 
1003	 4.03158575249465E-02 
1004	 4.00050384946024E-02 
1005	 3.98820743830028E-02 
1006	 0.039353391754866 
1007	 3.98481319987687E-02 
1008	 4.03037369425303E-02 
1009	 4.17883182187318E-02 
1010	 4.37704057238022E-02 
1011	 4.38998493003139E-02 
1012	 4.30692426684645E-02 
1013	 4.18317314196627E-02 
1014	 4.14395507997216E-02 
1015	 4.19484204511084E-02 
1016	 4.10581664918424E-02 
1017	 3.94386471499504E-02 
1018	 0.038717107440709 
1019	 3.66716934096044E-02 
1020	 0.036250795740817 
1021	 3.67093804193648E-02 
1022	 0.038709759625145 
1023	 0.042585309509926 
1024	 4.45961094365912E-02 
1025	 4.40733333048833E-02 
1026	 4.33470809591499E-02 
1027	 4.24279323243997E-02 
1028	 3.81346020387214E-02 
1029	 3.77548523061661E-02 
1030	 3.99502920237063E-02 
1031	 4.09037995122075E-02 
1032	 4.27477475737718E-02 
1033	 4.32208115812342E-02 
1034	 4.33822223614016E-02 
1035	 4.31855753276641E-02 
1036	 0.042074940659944 
1037	 4.11705839720836E-02 
1038	 4.02603869534168E-02 
1039	 3.83736090704268E-02 
1040	 3.95241337120289E-02 
1041	 3.84366190052159E-02 
1042	 3.82753623653142E-02 
1043	 3.89682234362741E-02 
1044	 3.95376680915212E-02 
1045	 3.95868675707804E-02 
1046	 4.02163591934917E-02 
1047	 4.26581634215003E-02 
1048	 4.24603408701898E-02 
1049	 3.98717691362709E-02 
1050	 3.94060687466899E-02 
1051	 3.89429480900994E-02 
1052	 3.82847366580634E-02 
1053	 3.83789328283688E-02 
1054	 3.89756226046719E-02 
1055	 3.92827221117242E-02 
1056	 3.96302636550194E-02 
1057	 4.03428474757477E-02 
1058	 4.27425325968187E-02 
1059	 4.29707679079832E-02 
1060	 4.16305640193193E-02 
1061	 4.16554544375849E-02 
1062	 4.18059503694035E-02 
1063	 0.041676050241047 
1064	 4.18209316316783E-02 
1065	 0.041973462152165 
1066	 4.25686967198129E-02 
1067	 4.17813252983423E-02 
1068	 3.89432716180511E-02 
1069	 3.87711080820448E-02 
1070	 3.87161557512764E-02 
1071	 3.91711575279948E-02 
1072	 4.15320548352413E-02 
1073	 4.59343325141433E-02 
1074	 4.61543928487527E-02 
1075	 4.40495440180531E-02 
1076	 4.33784683462152E-02 
1077	 4.08183317706943E-02 
1078	 4.03050998613397E-02 
1079	 0.041908459315768 
1080	 0.041835797572297 
1081	 4.11102404282358E-02 
1082	 4.11238842373975E-02 
1083	 0.040489300789858 
1084	 4.08221974801578E-02 
1085	 4.33172252978558E-02 
1086	 4.38506548571837E-02 
1087	 4.37935158851702E-02 
1088	 4.36676716974537E-02 
1089	 4.22696137426755E-02 
1090	 4.02639246565531E-02 
1091	 3.99906013480391E-02 
1092	 4.09631652117021E-02 
1093	 4.02040791056461E-02 
1094	 3.96355063801304E-02 
1095	 3.87506876421085E-02 
1096	 3.56246785315343E-02 
1097	 0.035773175760367 
1098	 3.88202767405408E-02 
1099	 3.98819185497715E-02 
1100	 0.041612918040982 
1101	 4.23989931570915E-02 
1102	 4.29265797307277E-02 
1103	 4.15542892592075E-02 
1104	 3.71110147495248E-02 
1105	 3.46049849354288E-02 
1106	 3.49620786986446E-02 
1107	 3.62268835548093E-02 
1108	 4.03130506490081E-02 
1109	 4.52595652969987E-02 
1110	 4.70517544795618E-02 
1111	 4.18135971074681E-02 
1112	 4.00411255770816E-02 
1113	 3.99100473137679E-02 
1114	 4.10159652222458E-02 
1115	 0.045182534309671 
1116	 4.35466473541058E-02 
1117	 3.05611528490958E-02 
1118	 2.62277551507183E-02 
1119	 3.40726037716753E-02 
1120	 2.67782085516468E-02 
1121	 0.001227080837042 
1122	 1.38028031314145E-02 
1123	 4.72151395141382E-02 
1124	 0.029872493679744 
1125	 7.56304887311614E-02 
1126	 0.11960970157456 
1127	 3.59820689795223E-02 
1128	 3.27362028438142E-03 
1129	-3.14821385708283E-04 
1130	-3.73692294854902E-03 
1131	 9.39450167745563E-03 
1132	 8.96108502035353E-02 
1133	 7.59089819462682E-02 
1134	 1.38165144116793E-02 
1135	 1.55737907266126E-02 
1136	 2.6614253776636E-03 
1137	 7.76152718935633E-05 
1138	 3.66490084314237E-02 
1139	 5.31942181601312E-02 
1140	 2.23395685493136E-02 
1141	 4.78233705995868E-03 
1142	-5.12467598568741E-03 
1143	 5.2750568209487E-03 
1144	 2.16649900281763E-02 
1145	 9.95898909741285E-03 
1146	-8.06061186946364E-03 
1147	-5.99338561243662E-03 
1148	 1.17183097119095E-02 
1149	 2.91183537466173E-02 
1150	 4.01998267438796E-02 
1151	 5.00483263465922E-02 
1152	 0.053114550066815 
1153	 5.00327425683435E-02 
1154	 5.08313189821273E-02 
1155	 5.50245203107531E-02 
1156	 0.051515129553912 
1157	 4.25060112064919E-02 
1158	 3.20443880647097E-02 
1159	 3.11799513111489E-02 
1160	 3.61310617262707E-02 
1161	 0.038352711896071 
1162	 4.36664557333338E-02 
1163	 4.19591099819115E-02 
1164	 3.48869696773806E-02 
1165	 0.034608217481472 
1166	 0.037041204633634 
1167	 3.74856958566556E-02 
1168	 3.81250752147549E-02 
1169	 3.93876208029449E-02 
1170	 3.93407965556845E-02 
1171	 3.99816744252762E-02 
1172	 4.38640402813106E-02 
1173	 4.39400949752226E-02 
1174	 0.041286479531702 
1175	 4.01230402971079E-02 
1176	 4.06332081845275E-02 
1177	 4.14693193808651E-02 
1178	 4.30725311875922E-02 
1179	 4.28783151282856E-02 
1180	 4.10202975930699E-02 
1181	 3.92134066918503E-02 
1182	 3.78059151523912E-02 
1183	 3.81531258712845E-02 
1184	 3.80676652204636E-02 
1185	 3.76586804774984E-02 
1186	 3.76879876482222E-02 
1187	 3.67168028910074E-02 
1188	 3.77010417621093E-02 
1189	 4.02689404357347E-02 
1190	 4.24031771464117E-02 
1191	 4.37890581789768E-02 
1192	 4.41243503167882E-02 
1193	 4.35012003282308E-02 
1194	 4.17805863113168E-02 
1195	 4.02618541654529E-02 
1196	 4.05205272100052E-02 
1197	 4.11850758932811E-02 
1198	 4.15043240272749E-02 
1199	 4.21003748512842E-02 
1200	 4.15966982463002E-02 
1201	 0.041329021258489 
1202	 4.24892756793192E-02 
1203	 4.21825529518829E-02 
1204	 0.040975461173076 
1205	 4.29647147136161E-02 
1206	 4.28134656094714E-02 
1207	 3.83112316984815E-02 
1208	 3.76530846977229E-02 
1209	 0.038611379472166 
1210	 3.89736245352004E-02 
1211	 4.17321586958027E-02 
1212	 4.28878768296096E-02 
1213	 4.17822448712126E-02 
1214	 4.15959584153358E-02 
1215	 4.05417859988265E-02 
1216	 4.09450036035844E-02 
1217	 4.22801371537924E-02 
1218	 0.042526998070221 
1219	 4.17977902309157E-02 
1220	 4.15580373658825E-02 
1221	 4.15767159377467E-02 
1222	 0.041174705327123 
1223	 4.15619270695979E-02 
1224	 4.18942924307798E-02 
1225	 4.10998743340069E-02 
1226	 0.04113061256633 
1227	 4.12892746385113E-02 
1228	 4.04175139646602E-02 
1229	 3.97424260001122E-02 
1230	 3.97204062500444E-02 
1231	 3.89292466733834E-02 
1232	 3.84089178855734E-02 
1233	 3.97885231919077E-02 
1234	 4.02045388605234E-02 
1235	 4.00588499423948E-02 
1236	 3.95280919163685E-02 
1237	 4.00564104253204E-02 
1238	 4.03616737350632E-02 
1239	 4.03779637487555E-02 
1240	 4.18096767377402E-02 
1241	 4.28898546061055E-02 
1242	 4.19927399033009E-02 
1243	 4.06412963867475E-02 
1244	 3.96918341790077E-02 
1245	 3.88179403838669E-02 
1246	 3.95219545372186E-02 
1247	 4.15179011855433E-02 
1248	 4.12484713686983E-02 
1249	 3.93776753106645E-02 
1250	 3.90055796315093E-02 
1251	 0.038951068131672 
1252	 3.89254000687379E-02 
1253	 3.97543869815557E-02 
1254	 3.93135099248197E-02 
1255	 3.79191081023105E-02 
1256	 3.78213808823802E-02 
1257	 4.02369234258119E-02 
1258	 4.05666769412115E-02 
1259	 3.94622576691627E-02 
1260	 3.91571001364362E-02 
1261	 0.038526191048924 
1262	 3.81323723666631E-02 
1263	 3.76593574731964E-02 
1264	 3.91462005360387E-02 
1265	 4.12075211788707E-02 
1266	 3.98618624519911E-02 
1267	 3.81200662103727E-02 
1268	 3.88553851472087E-02 
1269	 3.82570696713542E-02 
1270	 3.80957809519661E-02 
1271	 4.02000260716381E-02 
1272	 3.93419925680331E-02 
1273	 3.91843888564715E-02 
1274	 4.08290279089731E-02 
1275	 4.04161949998722E-02 
1276	 4.11564155606159E-02 
1277	 4.00186745350546E-02 
1278	 3.74958917921535E-02 
1279	 0.038407496665841 
1280	 0.039532432069113 
1281	 0.039562124595172 
1282	 3.90435201065621E-02 
1283	 3.97970977429785E-02 
1284	 4.12936034445323E-02 
1285	 4.07948490216734E-02 
1286	 3.97228655921207E-02 
1287	 3.98358783743228E-02 
1288	 3.83983511711359E-02 
1289	 3.77581386587516E-02 
1290	 3.83538019552558E-02 
1291	 4.08023856460217E-02 
1292	 4.16985256377493E-02 
1293	 3.97446902062727E-02 
1294	 4.00372476012252E-02 
1295	 4.05586599315795E-02 
1296	 3.81115879755904E-02 
1297	 0.037448913008155 
1298	 0.039337944994498 
1299	 4.01541077523374E-02 
1300	 3.80697915927175E-02 
1301	 3.82652920948065E-02 
1302	 3.96451829577154E-02 
1303	 3.77016100914884E-02 
1304	 3.81862965685721E-02 
1305	 4.15897763279168E-02 
1306	 4.20228744944458E-02 
1307	 3.77161570066734E-02 
1308	 3.79599566294197E-02 
1309	 4.15363266967973E-02 
1310	 4.05984768229834E-02 
1311	 3.82770070149549E-02 
1312	 0.038647682154905 
1313	 3.73120049169524E-02 
1314	 3.65460161328787E-02 
1315	 3.94326421062738E-02 
1316	 4.11577811419019E-02 
1317	 4.13000808507612E-02 
1318	 0.040045108275079 
1319	 0.037696080805294 
1320	 3.79165049731363E-02 
1321	 3.69269256283466E-02 
1322	 3.71353022503227E-02 
1323	 0.041833824716406 
1324	 4.32822140365588E-02 
1325	 3.50021270937101E-02 
1326	 3.31035599228876E-02 
1327	 3.83485001921576E-02 
1328	 3.96342673680346E-02 
1329	 4.23019254853726E-02 
1330	 4.10374008445631E-02 
1331	 3.28379366732812E-02 
1332	 3.08288992349421E-02 
1333	 2.95203302535723E-02 
1334	 2.32667544856455E-02 
1335	 0.024655831436648 
1336	 2.84003589475844E-02 
1337	 3.15400460859571E-02 
1338	 5.16630049834719E-02 
1339	 5.22030508166332E-02 
1340	 2.78904044889059E-02 
1341	 2.46243898012129E-02 
1342	 2.32217824097246E-02 
1343	 1.73412115497298E-02 
1344	 2.18961499210446E-02 
1345	 3.80019727509925E-02 
1346	 8.18343316996327E-02 
1347	 7.51106545195918E-02 
1348	 5.36398064041579E-03 
1349	-6.87214101344298E-03 
1350	-2.29838350569394E-02 
1351	-0.11246512702305 
1352	-0.181745318116055 
1353	-0.160170645852396 
1354	-0.187629903377886 
1355	-0.805140608282098 
1356	-0.251273269572946 
1357	 0.31407290163932 
1358	 0.651533001580074 
1359	 0.179513908881394 
1360	 1.00428008181846 
1361	-3.09692936873872 
1362	 0.178761897439091 
1363	 6.13801375475882E-02 
1364	 7.57307014603115E-02 
1365	 0.510112640937548 
1366	 1.65381800407663 
1367	 4.19392887142462 
1368	 4.62087746017736 
1369	 0.265724570560155 
1370	-5.16533571377069E-02 
1371	-0.14004912807879 
1372	-3.06336817798303 
1373	 4.33801512863426 
1374	 3.04804203261791 
1375	 5.86673447024004 
1376	 2.6730431898518 
1377	-4.15236234914464 
1378	-13.9077732341005 
1379	 1.66291763378758 
1380	 1.71954811983117 
1381	-1.47194514356159 
1382	-1.58759892996812 
1383	-1.21016136106093 
1384	-3.49675029714579 
1385	 1.30224491439937 
1386	 0.444024188665904 
1387	-3.09891119037819 
1388	-3.93461529102296E-02 
1389	-0.631373312712036 
1390	-0.858060048247615 
1391	-4750.54345010702 
1392	 2.30314790360936 
1393	 13.5509348715577 
1394	 1.20165893197343 
1395	 1.00660969353233 
1396	-13.8650436229373 
1397	-1.34371677890223 
1398	 0.323922927023965 
1399	-0.401360533321403 
1400	 0.757883481396922 
1401	-2.09607433090802 
1402	-7.50073069342031E-02 
1403	 0.527892629102453 
1404	 0.584391667126365 
1405	 0.534780068389332 
1406	-0.170853377237592 
1407	-0.322558281526228 
1408	-0.369741315953238 
1409	-0.804428516961689 
1410	-0.283320399092114 
1411	-0.488981658333294 
1412	-4.25593094342191 
1413	 240.852303193056 
1414	 4.31162981937494 
1415	-8.75070874026189 
1416	 7.30759145550126E-02 
1417	 0.187642655815068 
1418	-4.37105789089767E-02 
1419	 0.229061312914052 
1420	 1.39427826678541 
1421	 1.23153432229119 
1422	-2.16528616246301 
1423	-1.04294063699667 
1424	-0.281375916094491 
1425	-0.469975656309734 
1426	 0.218660844071429 
1427	 0.391650392902964 
1428	-1.88861948383573 
1429	 11.0877514896777 
1430	-4.07088961565391 
1431	-3.50947011241562 
1432	-0.629142519549683 
1433	-0.937112599192315 
1434	 0.127909102985364 
1435	 0.234169406815441 
1436	-8.87354234825916E-02 
1437	-7.22845035969554E-02 
1438	-0.245698390311205 
1439	 0.210096758235112 
1440	 1.60038020702333 
1441	 82.1765408068355 
1442	-0.535833513347378 
1443	-0.112361497157479 
1444	 0.028978280914814 
1445	-0.475428392914735 
1446	-0.896434556824281 
1447	-0.225120347280608 
1448	 5.47642788037902E-02 
1449	-0.382795793358768 
1450	-0.123804305066838 
1451	 0.220768940300912 
1452	 0.43205205727165 
1453	 0.39844729904977 
1454	 0.492620481884389 
1455	 1.93250045993577 
1456	 2.26804488626754 
1457	 0.464394596807391 
1458	 0.409516751286761 
1459	 0.448320663451772 
1460	 0.42380744951402 
1461	 0.768896801169955 
1462	 0.55854916600695 
1463	-0.3001693016371 
1464	-0.400236462221527 
1465	-0.299361142009666 
1466	-0.367458006475146 
1467	 1.54793669632554E-02 
1468	 0.095549151513087 
1469	-0.131004792359794 
1470	-0.211454757519098 
1471	-0.361561256289284 
1472	-0.28465815273769 
1473	-0.181520728021476 
1474	-9.18103907167068E-02 
1475	 5.68174391944312E-02 
1476	 0.115136305396624 
1477	 0.214968096514733 
1478	 0.173534215178782 
1479	-2.55997559512761E-02 
1480	-5.41679677332394E-02 
1481	-0.085043039774962 
1482	-0.134442175814765 
1483	-4.79590180595996E-02 
1484	-2.86358825594311E-02 
1485	-0.147807446312901 
1486	-0.149784593498826 
1487	-5.54527540088442E-02 
1488	-1.04944983208184E-02 
1489	 3.96510683203068E-02 
1490	 0.03198008553393 
1491	-7.70847310922896E-03 
1492	-2.00109827374901E-02 
1493	-8.53900807500991E-02 
1494	-7.86611927709227E-02 
1495	 1.71435645217629E-02 
1496	 2.02279627317976E-02 
1497	-2.70873828244514E-02 
1498	-1.35063801392291E-02 
1499	 8.78611079934845E-03 
1500	 1.39970109669079E-03 
1501	 1.19297106151187E-02 
1502	 2.33438056880895E-02 
1503	 9.01039846825393E-03 
1504	-4.13799594020261E-03 
1505	-0.017376496064095 
1506	-4.5884248761982E-03 
1507	 2.20959223062911E-02 
1508	 2.49877374492728E-02 
1509	 3.15617491323084E-02 
1510	 5.37519968853504E-02 
1511	 5.37444049609226E-02 
1512	 4.91575218295623E-02 
1513	 6.08095011624633E-02 
1514	 6.11405864271174E-02 
1515	 3.39033518408143E-02 
1516	 2.48161024920342E-02 
1517	 2.92409584967319E-02 
1518	 3.22448132123592E-02 
1519	 4.60301033684416E-02 
1520	 4.79424569384603E-02 
1521	 5.29153222566094E-02 
1522	 5.19830948236534E-02 
1523	 4.16737425712011E-02 
1524	 4.42824751898815E-02 
1525	 4.32130707152307E-02 
1526	 0.046138528771044 
1527	 4.79613227703449E-02 
1528	 4.35860887219109E-02 
1529	 4.37083206720928E-02 
1530	 0.04172942290058 
1531	 4.25423441468157E-02 
1532	 4.55337849818384E-02 
1533	 3.79073838953548E-02 
1534	 3.44333927655511E-02 
1535	 4.19266901814565E-02 
1536	 4.23172857351035E-02 
1537	 4.37327503198497E-02 
1538	 5.30104775597826E-02 
1539	 5.11027611465274E-02 
1540	 4.35448691183772E-02 
1541	 4.44659342195022E-02 
1542	 4.59691522398838E-02 
1543	 4.51528576818654E-02 
1544	 5.02553813161457E-02 
1545	 5.84004950798715E-02 
1546	 5.39191511037564E-02 
1547	 4.67885517542722E-02 
1548	 4.82953012483008E-02 
1549	 4.80833371874323E-02 
1550	 4.91016771683839E-02 
1551	 5.26547428879483E-02 
1552	 5.33552471907353E-02 
1553	 4.89025594207367E-02 
1554	 0.041453174557731 
1555	 3.99673335611783E-02 
1556	 4.16625843367549E-02 
1557	 4.57868293642908E-02 
1558	 5.14189353522176E-02 
1559	 5.21418282988749E-02 
1560	 5.37089076063065E-02 
1561	 5.32790393096225E-02 
1562	 5.00219496197306E-02 
1563	 4.62549252951149E-02 
1564	 0.039720052460929 
1565	 3.85244260132367E-02 
1566	 3.77281969131269E-02 
1567	 3.24682529295504E-02 
1568	 3.12426805104057E-02 
1569	 3.07128692861451E-02 
1570	 2.90493893819955E-02 
1571	 3.52826762143425E-02 
1572	 4.26377502277179E-02 
1573	 0.042281909297019 
1574	 4.16635065368047E-02 
1575	 4.77799659568787E-02 
1576	 5.56298020377441E-02 
1577	 5.70815701532174E-02 
1578	 5.37637949255885E-02 
1579	 0.042421419039725 
1580	 3.02796281462544E-02 
1581	 2.94741997660617E-02 
1582	 2.97326861343525E-02 
1583	 3.10209074309901E-02 
1584	 3.82437591238669E-02 
1585	 4.74408278716135E-02 
1586	 5.49356156596266E-02 
1587	 5.30670013995761E-02 
1588	 4.87671445829905E-02 
1589	 4.89917049420095E-02 
1590	 4.71022877625344E-02 
1591	 4.71022724838449E-02 
1592	 4.98713211215849E-02 
1593	 4.08937011189347E-02 
1594	 3.40582598040689E-02 
1595	 4.28705864017479E-02 
1596	 4.44572401025768E-02 
1597	 4.41954079636147E-02 
1598	 0.049638652327338 
1599	 4.61428903693385E-02 
1600	 4.43380401895001E-02 
1601	 4.76488612092955E-02 
1602	 4.46553080222908E-02 
1603	 0.042413292713324 
1604	 4.47065000953585E-02 
1605	 4.42026546794417E-02 
1606	 0.042385629179182 
1607	 4.28112963178577E-02 
1608	 4.30932447916741E-02 
1609	 3.97404522194604E-02 
1610	 0.040818650728006 
1611	 4.80050747377674E-02 
1612	 4.63919968908488E-02 
1613	 4.26680902569638E-02 
1614	 4.41904664506139E-02 
1615	 4.39103660619929E-02 
1616	 4.44890651476696E-02 
1617	 0.046388106472988 
1618	 4.71225853552242E-02 
1619	 4.69092068241831E-02 
1620	 4.62187901201988E-02 
1621	 4.45347381671799E-02 
1622	 4.29636891243584E-02 
1623	 4.35542697928191E-02 
1624	 4.51340892623088E-02 
1625	 4.67712334549602E-02 
1626	 4.80367056326149E-02 
1627	 0.04733873732627 
1628	 4.42102626187688E-02 
1629	 4.18468857869937E-02 
1630	 4.08534972088607E-02 
1631	 3.92733777940652E-02 
1632	 3.74745011156998E-02 
1633	 0.03719235058366 
1634	 3.94537999579391E-02 
1635	 4.18160319142009E-02 
1636	 0.042407343596208 
1637	 4.05074549938264E-02 
1638	 0.039512315223996 
1639	 4.36997342509447E-02 
1640	 4.60056850644288E-02 
1641	 4.61547935374363E-02 
1642	 4.90870947807078E-02 
1643	 4.83284964723841E-02 
1644	 4.43120349427561E-02 
1645	 4.42087478404718E-02 
1646	 4.62619838597143E-02 
1647	 4.27496822404293E-02 
1648	 3.75783471068617E-02 
1649	 4.00498683946293E-02 
1650	 4.06307257078319E-02 
1651	 3.54595299717948E-02 
1652	 3.59899255056728E-02 
1653	 4.15851341918345E-02 
1654	 4.02708868283062E-02 
1655	 0.037303491619235 
1656	 3.87115532213257E-02 
1657	 3.79717959873318E-02 
1658	 3.72912222387546E-02 
1659	 4.23189005606188E-02 
1660	 4.60959274283648E-02 
1661	 4.66645871678152E-02 
1662	 4.75820622128009E-02 
1663	 0.053608818851494 
1664	 5.45087898523942E-02 
1665	 0.044526860326876 
1666	 4.11134725975933E-02 
1667	 4.49701849080931E-02 
1668	 5.04758563400477E-02 
1669	 4.44853837887284E-02 
1670	 3.86659097825345E-02 
1671	 3.90162851254094E-02 
1672	 3.43585299394709E-02 
1673	 3.70995399270623E-02 
1674	 5.25360001524011E-02 
1675	 5.79736981942607E-02 
1676	 5.81794215027006E-02 
1677	 6.21574992828652E-02 
1678	 0.052775119270684 
1679	 3.96620334629608E-02 
1680	 0.039386654624368 
1681	 4.05915253961028E-02 
1682	 4.12679261776629E-02 
1683	 4.27792946464765E-02 
1684	 4.06230746011137E-02 
1685	 3.76273289537186E-02 
1686	 3.80738715219573E-02 
1687	 4.06503863046704E-02 
1688	 0.040497937410213 
1689	 0.040850496352448 
1690	 4.47008096717144E-02 
1691	 5.01882297844948E-02 
1692	 5.86912176253307E-02 
1693	 5.96917960142754E-02 
1694	 4.84782958873423E-02 
1695	 3.87499680232449E-02 
1696	 3.48692246729735E-02 
1697	 3.64689913666109E-02 
1698	 4.33776382182149E-02 
1699	 5.02941615550434E-02 
1700	 4.59174381829926E-02 
1701	 3.59493339801321E-02 
1702	 3.75295707465952E-02 
1703	 4.64889529247986E-02 
1704	 4.94412123493615E-02 
1705	 0.047947289111964 
1706	 4.99892144241103E-02 
1707	 4.83502203531264E-02 
1708	 4.66350076990846E-02 
1709	 5.27458367884979E-02 
1710	 5.14534897230616E-02 
1711	 3.90606540192345E-02 
1712	 3.18125033819844E-02 
1713	 4.38520260854115E-02 
1714	 4.83238064802451E-02 
1715	 0.052834360391235 
1716	 4.95114635686382E-02 
1717	 4.04841742441735E-02 
1718	 3.84485545076289E-02 
1719	 5.16860747385778E-02 
1720	 5.66129675031914E-02 
1721	 6.01995285960362E-02 
1722	 5.79878790433765E-02 
1723	 3.88276038169654E-02 
1724	 0.039508588438784 
1725	 4.89884351872915E-02 
1726	 4.44388444883429E-02 
1727	 4.95140509275148E-02 
1728	 4.93980735028373E-02 
1729	 3.73425282779999E-02 
1730	 4.35015675760727E-02 
1731	 5.36507940307716E-02 
1732	 5.33594806096815E-02 
1733	 5.37672156157121E-02 
1734	 4.37044118017807E-02 
1735	 3.26018183341429E-02 
1736	 3.01717508617567E-02 
1737	 2.39025041069512E-02 
1738	 2.88407165863871E-02 
1739	 4.10707548144686E-02 
1740	 4.62014793317115E-02 
1741	 0.058484698463683 
1742	 6.37400279826929E-02 
1743	 5.46204337870587E-02 
1744	 4.48409519023577E-02 
1745	 3.15905072717038E-02 
1746	 2.11514019353995E-02 
1747	 1.75518471665047E-02 
1748	 2.62247872431037E-02 
1749	 3.51620079542714E-02 
1750	 4.70341725223346E-02 
1751	 4.75606173400839E-02 
1752	 4.24667451090141E-02 
1753	 4.55989812445486E-02 
1754	 4.69005765044486E-02 
1755	 5.26240147554754E-02 
1756	 7.43970191534691E-02 
1757	 5.81336054449008E-02 
1758	 3.51871127796285E-02 
1759	 2.85888349527312E-02 
1760	 3.93141076106728E-02 
1761	 5.27975874637044E-02 
1762	 8.18203336101012E-02 
1763	 8.48704067571836E-02 
1764	 6.05573780803229E-02 
1765	 6.38177859189158E-02 
1766	 6.18073883779117E-02 
1767	 8.15274235838938E-02 
1768	 0.112224363297884 
1769	 0.102191202393937 
1770	 9.01439932791764E-02 
1771	 6.13629975852339E-02 
1772	 3.60627246317352E-02 
1773	 6.34112602306651E-02 
1774	 0.082116107421168 
1775	 6.27376848498767E-02 
1776	 7.23750447501994E-02 
1777	 8.70283714953214E-02 
1778	 6.42646276193129E-02 
1779	 4.78417108245977E-02 
1780	 3.15333065829227E-02 
1781	-8.35493744444951E-02 
1782	-7.94056352821381E-02 
1783	 6.39256476521842E-02 
1784	 0.1163878724857 
1785	 0.212867285280903 
1786	 0.245631219995775 
1787	 0.162786829291072 
1788	 0.111537706674571 
1789	 1.32334512215273E-02 
1790	-1.00604196613436E-02 
1791	 0.053916962109756 
1792	-5.14206777718744E-02 
1793	-8.47274484071004E-02 
1794	-4.84720982024927E-02 
1795	-0.184472459616207 
1796	-0.103442453051783 
1797	 8.22691957022553E-02 
1798	-4.77170252867835E-02 
1799	 0.120502084415774 
1800	 0.435887115291852 
1801	 0.454388717669856 
1802	 0.136872790102615 
1803	-0.185333381807876 
1804	-0.981125836992495 
1805	-1.46110798663593 
1806	-5.09146835957966 
1807	-4.56133652953542 
1808	-0.108056848617229 
1809	 0.254390335634149 
1810	 0.233914599215041 
1811	 0.501631738831998 
1812	 1.16056149888249 
1813	 1.00717495312771 
1814	-0.378853622454678 
1815	-3.27664332219353 
1816	 2.10348320520212 
1817	 1.87490273866559 
1818	 0.212215431271276 
1819	-11.5011838171508 
1820	-0.80716272711326 
1821	 8.33941491077568E-03 
1822	 0.081085113149126 
1823	 5.9710714885367 
1824	-0.267061447066476 
1825	 0.445787566136202 
1826	 0.463279726733132 
1827	 8.34631401327932E-02 
1828	 3.18407786105796E-02 
1829	 2.30559132735307 
1830	 0.383707488681444 
1831	 0.159309624041167 
1832	 0.236864581953428 
1833	 0.258039693964222 
1834	 0.193013791434783 
1835	-1.55011060828754 
1836	-19.31217551499 
1837	-0.261370189562085 
1838	-0.162857048973154 
1839	 4.32851358603827E-02 
1840	 0.42148613244974 
1841	-1.14425431913485 
1842	-0.7553234843492 
1843	-0.707642570027826 
1844	-0.494327895756088 
1845	-0.419013053369835 
1846	-0.717988440037971 
1847	-0.659780387045505 
1848	-0.108673481704316 
1849	 0.150952210424603 
1850	 0.184845917879711 
1851	 0.440732453600501 
1852	 0.247411118917106 
1853	 2.71221759247361E-02 
1854	-0.179963868392707 
1855	-11.3782873692178 
1856	 2.65924410200263 
1857	 0.682931775818463 
1858	 0.479177901915255 
1859	 1.13611954720176 
1860	 1.1262372341757 
1861	-2.55814157540084 
1862	 2.93472523773242 
1863	 1.48587152383525 
1864	 1.61486737842163 
1865	 1.67961003902604 
1866	 3.6184905471774 
1867	-4.58373407871854 
1868	-1.46107045520981 
1869	-1.13824301732347 
1870	 259.30359064108 
1871	 1.83413121762361 
1872	 0.462694762518471 
1873	 0.651657412339172 
1874	 0.908786671050458 
1875	 1.16407974777002 
1876	 1.01042063690616 
1877	 0.304751813866468 
1878	 0.03046524669294 
1879	-0.733730988853422 
1880	-1.04828102909391 
1881	-6.4269148316253 
1882	 2.50233904273093 
1883	 1.0251484523196 
1884	 0.409416071294473 
1885	-0.657066666876093 
1886	-2.68167585085211 
1887	-4.14968555608161 
1888	-1.32646185092567 
1889	-1.01862454619794 
1890	-0.470350083175735 
1891	-0.31887220571154 
1892	-0.28542995352509 
1893	 0.74956718571994 
1894	 2.20903988513363 
1895	 1.88118103613512 
1896	 1.31016046198784 
1897	 1.34778033154488 
1898	 1.051330960942 
1899	 0.459110396505072 
1900	 0.726987066825239 
1901	-3.46674923014347 
1902	-2.36105183153277 
1903	-3.76042344299159 
1904	-3.43704917618917 
1905	 0.180475780630687 
1906	-1.35188253085473 
1907	-1.8790039489862 
1908	-1.19517887614289 
1909	-0.709407438264868 
1910	-0.628084872722525 
1911	-0.596817566585108 
1912	-0.284465887518282 
1913	-0.227324536044804 
1914	-0.383399182279087 
1915	-0.458712523074359 
1916	-0.401483409973434 
1917	-1.5748182131968 
1918	 0.800996349129687 
1919	 0.670692318547334 
1920	 1.03835725801359 
1921	 1.57319874667895 
1922	 0.753134007807816 
1923	 2.92483084799221 
1924	-21.2561006726064 
1925	 2.88417739913648 
1926	 8.82097867378943 
1927	 4.08288041540417 
1928	-1.84300418660409 
1929	-1.08595361041169 
1930	-0.831281348134725 
1931	-1.83937434989428 
1932	 0.131817043424811 
1933	-1.55548757953959 
1934	-0.913624726816178 
1935	-0.438562869277091 
1936	-0.521015873477532 
1937	-0.648289976498022 
1938	-1.55491788126699 
1939	-2.11104942608311 
1940	-3.96315483250196 
1941	-4.71801590083406 
1942	-1.90930531178246 
1943	-1.85479701651584 
1944	-3.04239338894531 
1945	-2.97046266302679 
1946	-1.04252473285023 
1947	-0.209590959450164 
1948	-0.044902028334394 
1949	-0.518058156535217 
1950	-1.68902090092342 
1951	-2.96752493111025 
1952	-3.32734911182898 
1953	-1.31166693800991 
1954	 1.53520122231301E-02 
1955	 0.980161417002045 
1956	 14.6535379012941 
1957	-9.92324397206821 
1958	-0.907459088062181 
1959	-0.316372597799632 
1960	-0.192893820552599 
1961	 2.28838860624047E-02 
1962	 0.295484204295288 
1963	 0.459343349408237 
1964	 0.712490931917049 
1965	 0.655652906418671 
1966	 0.886358554788339 
1967	-3.85927614775882E-02 
1968	 0.734111425899794 
1969	 0.549042597582801 
1970	 0.343864580588247 
1971	 0.705333395227668 
1972	 1.05394302677956 
1973	 1.31831651896061 
1974	 5.22721959988351 
1975	 9.52219476599868 
1976	 8.0519529645632 
1977	-5.50576972170822 
1978	-0.817289299395495 
1979	-0.236751336286778 
1980	 3.58152254055805E-02 
1981	-0.209851857395855 
1982	-0.600213077203398 
1983	-105.345641623125 
1984	 0.745842201613016 
1985	 0.309521200248737 
1986	-0.595749112083388 
1987	-0.613671151631557 
1988	-1.11297231926449 
1989	-0.327482824872662 
1990	-0.014383662281625 
1991	 0.210842608443565 
1992	 0.186332397189566 
1993	-0.076418343449627 
1994	-0.144964264267851 
1995	-23.9748181458936 
1996	-1.32268426671164 
1997	-8.42262141443153E-02 
1998	-0.328249687166439 
1999	-0.625226868656859 
2000	-0.621141880152954 
2001	-3.07502090461127 
2002	-4.43338872890572 
2003	-1.14873756521982 
2004	-0.895847028959613 
2005	-0.519718420462592 
2006	-0.125345454910839 
2007	 0.27267549119358 
2008	 0.338334514698249 
2009	 0.42019230061729 
2010	 0.465233995020299 
2011	 0.678465793937642 
2012	 2.67651656850981 
2013	-0.201079665935293 
2014	-1.71519480228096 
2015	-1.46905130552226 
2016	-1.7135319708158 
2017	-3.38848549387009 
2018	-0.797914088296857 
2019	-0.647420112896618 
2020	-0.429855964127653 
2021	-0.231733208677243 
2022	-0.86681143256531 
2023	 0.718385458658392 
2024	 1.55596379117535 
2025	 2.01134145584316 
2026	 2.56654918470377 
2027	 3.41548832902258 
2028	 1.90499607848846 
2029	 1.81184875724985 
2030	 1.29634277614391 
2031	 0.936318317302737 
2032	 0.564633426618148 
2033	-0.173287989007875 
2034	-0.320944420700976 
2035	-0.395545156274947 
2036	-0.941776895582228 
2037	-0.727084459349643 
2038	-0.188351628954503 
2039	-0.212080811819393 
2040	-0.237569059402801 
2041	-0.304956787710323 
2042	-0.752013806780841 
2043	-0.979921420518736 
2044	-1.56808040984599 
2045	-2.1028237257865 
2046	 0.404865370779997 
2047	 1.91976422148513 
2048	 0.131742393917786 
2049	-0.119005835781702 
2050	 4.67060645601834E-02 
2051	 0.187218365190557 
2052	 0.28637783093399 
2053	 0.355783772835558 
2054	 0.256072340654113 
2055	 0.243582786002269 
2056	 0.124211562300337 
2057	-0.188758678749161 
2058	-0.442262176103195 
2059	-0.907851847725459 
2060	-1.26472125592533 
2061	-1.19955821847906 
2062	-0.679281226798097 
2063	-0.72893791872705 
2064	-1.23271378573949 
2065	-1.53452328577443 
2066	-9.08160748737738 
2067	-4.1549142569072 
2068	-0.455235031483125 
2069	-0.16751661377076 
2070	-0.100952648661162 
2071	-5.20388025743097E-02 
2072	-0.196453505706431 
2073	-0.136423478051046 
2074	 3.98717660999294E-02 
2075	 0.159976443897071 
2076	 0.413173248821355 
2077	 0.542332959049774 
2078	 0.582931805227049 
2079	 0.455527459231954 
2080	 2.38555750826258E-02 
2081	 0.20606134836235 
2082	 0.468765518475809 
2083	 0.252686340706243 
2084	 0.317080915453139 
2085	 0.480481913783578 
2086	 0.218946958699776 
2087	 8.25976938462725E-02 
2088	 0.026329961110021 
2089	-0.367535905670161 
2090	-0.531673572688708 
2091	-0.386028149005734 
2092	-7.71899032953767E-03 
2093	 0.424708438375761 
2094	 0.451599857541544 
2095	 0.35585293427159 
2096	 0.292919383061936 
2097	 9.14803182644393E-02 
2098	 1.98455469448528E-02 
2099	-4.91962688454224E-02 
2100	 0.166120067266915 
2101	 0.319969287313104 
2102	 0.393394945100966 
2103	 0.415661408565378 
2104	 0.300627421793915 
2105	 1.90462927861468E-02 
2106	-6.23149288779611E-02 
2107	 2.42960592593748E-02 
2108	-2.09566795257005E-03 
2109	-8.42278236647591E-02 
2110	-8.25028708412483E-02 
2111	-8.92711057127909E-02 
2112	-0.149027254972961 
2113	-0.136939097350908 
2114	 8.99491413599022E-02 
2115	 0.101743541732566 
2116	-3.64666424710667E-02 
2117	-4.78350157266829E-02 
2118	-0.13846622662259 
2119	-6.70014578641493E-02 
2120	 0.154001240155438 
2121	 0.169180668806033 
2122	 0.182345939512694 
2123	 0.250675614658895 
2124	 0.18172736346831 
2125	 6.94230741890935E-02 
2126	 5.66340187305826E-03 
2127	-7.86913038241346E-02 
2128	-0.104347283712863 
2129	-1.15534116630919E-02 
2130	 8.67842552771678E-02 
2131	 0.146814771790973 
2132	 0.21705187072148 
2133	 0.202425787347198 
2134	 0.170210275384101 
2135	 0.131999244708126 
2136	 4.48285373786677E-02 
2137	-0.140391042750104 
2138	-0.140221738817293 
2139	-8.16953264892675E-02 
2140	-6.84560917863719E-02 
2141	 2.87442506460117E-02 
2142	 7.52698300749573E-02 
2143	 5.63636881310256E-02 
2144	 9.14565052569813E-02 
2145	 9.94965476629776E-02 
2146	 9.86438478485947E-04 
2147	-0.145687569402801 
2148	-0.217875567384789 
2149	-0.127289339999861 
2150	-3.47280379158443E-02 
2151	 2.95978829453832E-02 
2152	 3.40621605320908E-02 
2153	-6.03374961888848E-02 
2154	-0.143572743331314 
2155	-9.72242819771491E-02 
2156	-5.15799090745425E-02 
2157	-4.76858944644901E-02 
2158	-3.16497328679491E-02 
2159	 1.83555068239696E-03 
2160	 7.63489161013323E-03 
2161	-1.98066083089552E-02 
2162	 1.93953163512775E-03 
2163	-3.23772470885163E-02 
2164	-0.221427023825113 
2165	-0.275646541807351 
2166	-0.220681402018439 
2167	-0.251374656202017 
2168	-0.251859594435512 
2169	-0.297971181228739 
2170	-0.439243344147916 
2171	-0.705929413114516 
2172	-0.939675171299127 
2173	-0.987577337649343 
2174	-0.768294473178494 
2175	-0.62726420834765 
2176	-0.285274600063262 
2177	-0.020479682918542 
2178	 5.50378895285199E-02 
2179	 0.139697035028538 
2180	 0.219517883290492 
2181	 0.332742828756672 
2182	 0.409474996870069 
2183	 0.24075381942391 
2184	 3.41978264299839E-02 
2185	-2.95741105579081E-02 
2186	 1.21928930967554E-02 
2187	 0.141224182644402 
2188	 0.263420566045794 
2189	 0.717254582916787 
2190	 0.756729703368853 
2191	 0.518068657493236 
2192	 0.50906559139238 
2193	 0.565062456722559 
2194	 0.446660083411775 
2195	 0.176321592220966 
2196	 5.24077642201224E-02 
2197	-0.203612667369552 
2198	-0.332867373545771 
2199	-0.291138569401731 
2200	-0.10758162495154 
2201	-8.54970018307983E-02 
2202	 1.24305367606856E-02 
2203	 0.394638667885524 
2204	 0.878111555040292 
2205	 0.855134042615202 
2206	 0.462032178345696 
2207	 0.129717731541735 
2208	-0.160354286791292 
2209	-2.07514781750242E-02 
2210	 0.141691826864537 
2211	 0.184511299380744 
2212	 0.23620473219692 
2213	 0.192620590408165 
2214	 0.202384656764072 
2215	-5.13711452420892E-02 
2216	-0.394544344089466 
2217	-0.392210772112008 
2218	-0.219685040240112 
2219	-0.218362286478559 
2220	-4.56642601199445E-02 
2221	 5.41235100287849E-02 
2222	 0.092598949839028 
2223	 0.117771379935619 
2224	-4.54789046149954E-02 
2225	-7.87196122166082E-02 
2226	-6.06778060511176E-02 
2227	-9.55242853819112E-02 
2228	-9.39686938872474E-02 
2229	-0.109796812869833 
2230	-0.273849310531721 
2231	-0.288325769381125 
2232	 6.05650826806571E-02 
2233	 0.338776605333895 
2234	 0.731209869529421 
2235	 0.290062988982855 
2236	 1.65285575880113E-03 
2237	-4.30384306558205E-02 
2238	-0.120988034265942 
2239	-0.105854932093908 
2240	 7.88628969535764E-02 
2241	-1.85419450436563E-02 
2242	-0.071483418742405 
2243	-7.70596479554239E-02 
2244	-0.326111683067798 
2245	-0.455559638885611 
2246	 5.74790918001817E-02 
2247	 0.399914451402039 
2248	 0.515360108899643 
2249	 0.446643658045479 
2250	 0.235750155950468 
2251	-1.58594219838818E-02 
2252	-0.252788280436735 
2253	-0.380686744717266 
2254	-0.740180785789459 
2255	-1.11094896262368 
2256	-1.34613558003244 
2257	-1.00506471769418 
2258	-0.438166438062482 
2259	-4.15941262208026E-02 
2260	 0.132060607961299 
2261	 0.393382923481314 
2262	 0.367219107869543 
2263	 2.27943606542591E-02 
2264	-0.262357538869219 
2265	-1.08999392949341 
2266	-1.93791473524379 
2267	-2.23946527922994 
2268	-2.14894432499174 
2269	-2.21496331226323 
2270	-0.743722874033707 
2271	 0.368115240994271 
2272	 0.444400148629408 
2273	 0.334243587802945 
2274	 0.287811416251676 
2275	-0.308032355762842 
2276	-0.827854572469824 
2277	-0.417313490482584 
2278	-0.455147795655697 
2279	-0.670647835320834 
2280	-0.780201426273327 
2281	-0.801804515166265 
2282	-1.72277731028764 
2283	-1.34349304506176 
2284	-1.07775266508762 
2285	-1.77948824529839 
2286	-2.61117096707159 
2287	 9.80696858846524 
2288	 1.74314837768074 
2289	 2.25149810712968 
2290	 2.26419200728431 
2291	-8.28366799885137 
2292	-0.638722465380191 
2293	 2.50482050861234 
2294	 2.41661639716573 
2295	 9.09814445623217 
2296	 31.191945166092 
2297	 3.34352254686447 
2298	 2.94475250884794 
2299	-19.0930117323009 
2300	-0.382330635382125 
2301	 0.76831925459412 
2302	 1.23832849212997 
2303	-2.64794159123921 
2304	-1.12411157518652 
2305	-0.833606379045324 
2306	-1.26261560083583 
2307	-0.710682466204579 
2308	-13.7620126649132 
2309	 1.34672111653312 
2310	 1.62990645693331 
2311	 0.308570920410951 
2312	 0.677114765576006 
2313	 0.160534266292984 
2314	-0.894617523179613 
2315	-20.2761744455623 
2316	-2.09036322951425 
2317	-3.43116165866061 
2318	-0.631753792816464 
2319	-2.86846458527384 
2320	 4.98566172852034 
2321	 27.5086690808018 
2322	 2.24470609483689 
2323	 2.04916557589968 
2324	-31.9339333040803 
2325	-1.69661754204579 
2326	-0.323876719881035 
2327	 0.236219522003534 
2328	 0.239148344814794 
2329	-6.55742043938318E-02 
2330	 4.93177728881087E-02 
2331	-0.104225942217852 
2332	-0.493273055868492 
2333	-0.26978779364812 
2334	-0.676449505897394 
2335	-0.582370995179055 
2336	-0.625841516335054 
2337	-0.986525343077337 
2338	-0.447481464687393 
2339	 3.07053454229414E-02 
2340	-5.6148612338402E-03 
2341	 0.639585144102262 
2342	-2.04730300578205 
2343	-1.66001149614551 
2344	-0.261327754266576 
2345	-0.759901138664249 
2346	-1.71659659279832 
2347	-1.22913599263258 
2348	-0.422872045661905 
2349	-3.18965977574129E-03 
2350	 0.272269861846309 
2351	 0.12742495745588 
2352	-0.517161700124865 
2353	-1.58252890711544 
2354	-1.41201691581266 
2355	 700.018184419445 
2356	-3.26527510509856 
2357	 30.1248561064433 
2358	 3.07561387249261 
2359	 1.04754906898956 
2360	 0.136303443564606 
2361	 0.208393483887049 
2362	-1.63389246234312 
2363	 4.01052936586222 
2364	 1.11281377956703 
2365	 1.52233310670897 
2366	 0.456489129845714 
2367	-1.37943072896447E-02 
2368	-0.114657789931557 
2369	-0.384387264553515 
2370	-0.634549355156125 
2371	 0.545655504945761 
2372	 0.271014275329322 
2373	-2.27435666349199 
2374	-1.17231701645973 
2375	-1.86615996967263 
2376	-5.75454717822656 
2377	-4.30390517917559 
2378	-3.19034940132925 
2379	-3.45216295169271 
2380	-2.39269719330176 
2381	-1.1646475518505 
2382	-0.77822188530014 
2383	-0.408684805309452 
2384	-0.140003725708509 
2385	-0.174652482839958 
2386	 0.285061728303457 
2387	 0.928965849169032 
2388	 1.02911099659912 
2389	-1.22382614897391 
2390	-0.446440064115723 
2391	 0.745682976227513 
2392	 0.899314215722788 
2393	 1.3872898734759 
2394	 6.07939834726001 
2395	-6.86046581270425 
2396	-1.40573937140097 
2397	-0.629848899807441 
2398	-0.200928933933463 
2399	-0.10493579292663 
2400	-7.34273296922859E-02 
2401	 0.198328332461846 
2402	 0.233379087407869 
2403	 0.622037941574253 
2404	 0.881189708884579 
2405	 0.540829353141658 
2406	 0.760152260952831 
2407	 0.947497717275804 
2408	 0.990477499894725 
2409	 3.06577038070641 
2410	 4.71091480266337 
2411	 5.05836346139402 
2412	 3.49844472642044 
2413	 1.22166127128238 
2414	 0.337084157863676 
2415	 0.119767602726532 
2416	-0.050752499943709 
2417	-0.112320394481237 
2418	-7.11047294833064E-02 
2419	 0.405806313669501 
2420	 1.54868323288156 
2421	 5.48916537817522 
2422	 5.56672295187387 
2423	 2.02036338753273 
2424	 2.73160622254441 
2425	-3.06479269096309 
2426	-1.13486601044229 
2427	-10.208178656359 
2428	-2.832914316891 
2429	-0.943309846009289 
2430	-0.237099857710008 
2431	 0.122225496466674 
2432	-1.90012914633359 
2433	 10.8828153897392 
2434	-4.68358045208243 
2435	-4.12373296320226 
2436	-5.31916917018169 
2437	-3.99340536268563 
2438	 1.41946856190538 
2439	 0.531095736288438 
2440	 0.307777974636375 
2441	 0.455694916247401 
2442	 0.467028477735362 
2443	 0.283931819812504 
2444	 0.252476511657024 
2445	-0.896826568083999 
2446	-1.78754495469339 
2447	-1.01920253145924 
2448	-6.59028002945855 
2449	 20.9950518551753 
2450	-5.86231255832011 
2451	 0.937473048923356 
2452	 0.703333187365381 
2453	 0.408944541128264 
2454	-1.30820340347644 
2455	-11.474570648913 
2456	 3.51674846485535 
2457	 2.2927495582016 
2458	 0.873097785277012 
2459	 1.50065826686988 
2460	 0.580777122310717 
2461	 0.892254295307675 
2462	 0.416018442383168 
2463	 0.893064317098479 
2464	 1.72616583884618 
2465	-0.600422991260512 
2466	-0.395399318891249 
2467	-0.217276691660952 
2468	-1.20460497290795 
2469	 2.15559431123915 
2470	 0.815460526271865 
2471	 0.722947876265639 
2472	 0.892040165567079 
2473	 1.68358596853616 
2474	 2.23082101373824 
2475	 3.02037397655196 
2476	 6.34689859640526 
2477	 6.55912718950449 
2478	-7.07663998218568 
2479	-0.718368426710956 
2480	 0.127832623801041 
2481	 0.492718404098321 
2482	 2.14384140861579 
2483	 4.29584784473807 
2484	 0.625948742088172 
2485	-0.898101796573154 
2486	-0.853965695640505 
2487	-0.643070036623678 
2488	-0.880274181558925 
2489	-0.506769684407783 
2490	-1.45415685785029E-02 
2491	 0.119425956318604 
2492	 1.09640913658996 
2493	 1.1221793073994 
2494	 0.9739935041829 
2495	 0.169538685951317 
2496	-6.30548903687722E-02 
2497	-4.12382893486718E-02 
2498	-2.94526405171314E-02 
2499	-0.548579475971996 
2500	-0.494686119726316 
