Wavelength	rt0707far00006.asd
350	 8.08343671458946E-02 
351	 8.14301439560696E-02 
352	 8.17203093210836E-02 
353	 8.20661255163292E-02 
354	 8.21686654531061E-02 
355	 7.99459692061708E-02 
356	 8.12128054526982E-02 
357	 8.31631493656602E-02 
358	 8.20837504192769E-02 
359	 8.29759511104814E-02 
360	 8.24513390980061E-02 
361	 8.10149090658537E-02 
362	 8.16995410494301E-02 
363	 8.31645050487943E-02 
364	 8.31364805827703E-02 
365	 8.19909410035453E-02 
366	 8.42159973515908E-02 
367	 8.38815443529658E-02 
368	 8.27931461636875E-02 
369	 0.083628858211093 
370	 8.46268783148297E-02 
371	 8.44576332214383E-02 
372	 8.34007895399895E-02 
373	 0.08289590585883 
374	 0.084923271935252 
375	 0.085551634385249 
376	 8.41917027231615E-02 
377	 8.55520970061263E-02 
378	 8.64926082708671E-02 
379	 8.65065887358456E-02 
380	 8.60233376735629E-02 
381	 8.62705372274747E-02 
382	 8.72646718776407E-02 
383	 0.088040388099761 
384	 8.74812016037898E-02 
385	 8.70207852058948E-02 
386	 8.70565976907129E-02 
387	 8.78465106305846E-02 
388	 0.089483145666371 
389	 8.90619576656217E-02 
390	 0.087554301301228 
391	 8.68494178496296E-02 
392	 8.91965788527372E-02 
393	 0.090254081541177 
394	 9.02135154158032E-02 
395	 9.06922223846365E-02 
396	 9.05543705966013E-02 
397	 9.05546389652804E-02 
398	 9.10870612471241E-02 
399	 0.092063559370341 
400	 9.14322935116651E-02 
401	 9.08135539999261E-02 
402	 9.12701650120644E-02 
403	 9.14158326576981E-02 
404	 9.14237601779774E-02 
405	 9.15818437269944E-02 
406	 9.21387517973293E-02 
407	 9.27154977983325E-02 
408	 9.32281132316886E-02 
409	 9.34943760321561E-02 
410	 0.093277651172744 
411	 9.38014434741834E-02 
412	 0.094543821982224 
413	 9.48755316553599E-02 
414	 9.46352276541828E-02 
415	 9.48891557441568E-02 
416	 9.53986409553332E-02 
417	 9.55230815682696E-02 
418	 9.58760245098978E-02 
419	 9.61353625442874E-02 
420	 9.63213529955133E-02 
421	 9.68695621344313E-02 
422	 9.74408903089341E-02 
423	 9.80533205404258E-02 
424	 9.86768340864197E-02 
425	 9.89187303823488E-02 
426	 9.92888462203139E-02 
427	 9.98145383656684E-02 
428	 0.100301668376763 
429	 0.100856773055046 
430	 0.101422722571128 
431	 0.102039225213727 
432	 0.102871533516152 
433	 0.103342538828672 
434	 0.103704401094595 
435	 0.104243869932014 
436	 0.104756932746104 
437	 0.105403762809392 
438	 0.106043508421105 
439	 0.106440096782568 
440	 0.107100106675003 
441	 0.107662256692954 
442	 0.1080167356883 
443	 0.108556672137946 
444	 0.109196034464835 
445	 0.109803260126263 
446	 0.110289041013689 
447	 0.110797407662842 
448	 0.111327867395292 
449	 0.111860418048241 
450	 0.112351403448286 
451	 0.112591703714779 
452	 0.112909419070322 
453	 0.113485078438961 
454	 0.114051544773436 
455	 0.114604811333427 
456	 0.11500748955907 
457	 0.115171003812563 
458	 0.115415857580163 
459	 0.115733232488325 
460	 0.116115722684454 
461	 0.11656819811136 
462	 0.117004200281181 
463	 0.117297637121281 
464	 0.117483555278057 
465	 0.118083157626079 
466	 0.118323520577145 
467	 0.11849806703425 
468	 0.11924978003331 
469	 0.119560284716237 
470	 0.11972863007727 
471	 0.119963641789095 
472	 0.120182772562265 
473	 0.120499326859218 
474	 0.120858176487496 
475	 0.121215199718771 
476	 0.121733328780839 
477	 0.122329723263886 
478	 0.122873718357201 
479	 0.123226249366857 
480	 0.123433752539707 
481	 0.123906073530478 
482	 0.124668252396762 
483	 0.124857978868746 
484	 0.125258949804076 
485	 0.12567628521272 
486	 0.125790767707862 
487	 0.12659835156799 
488	 0.127445674294944 
489	 0.127937824029251 
490	 0.128064121427638 
491	 0.128599525266769 
492	 0.129262070832285 
493	 0.129763803043792 
494	 0.130442224434958 
495	 0.131004296859266 
496	 0.131527614258458 
497	 0.132232544843493 
498	 0.132800116939152 
499	 0.133478649602795 
500	 0.134251290793518 
501	 0.134604448336588 
502	 0.135053379750612 
503	 0.135756069809079 
504	 0.136642422431894 
505	 0.13721142559544 
506	 0.137865034633911 
507	 0.138508410718178 
508	 0.13870766672385 
509	 0.139349924854159 
510	 0.140243342294124 
511	 0.141056545168374 
512	 0.141583723733329 
513	 0.141854669340357 
514	 0.142333442325833 
515	 0.143481522916029 
516	 0.14425012731242 
517	 0.144938814632663 
518	 0.14573986830243 
519	 0.146563437451763 
520	 0.147236945380114 
521	 0.147915707339428 
522	 0.148769162532936 
523	 0.149766089715874 
524	 0.150513022051164 
525	 0.151098733037201 
526	 0.151935068685996 
527	 0.152812455837954 
528	 0.153594140141797 
529	 0.154299977509967 
530	 0.15525420093355 
531	 0.156120830138689 
532	 0.156955396587592 
533	 0.157905209655715 
534	 0.158769672653111 
535	 0.159579228179169 
536	 0.160371627241326 
537	 0.161169351250509 
538	 0.161997231347851 
539	 0.162900783629797 
540	 0.163880223873539 
541	 0.164786482400291 
542	 0.16570772550523 
543	 0.166620565138592 
544	 0.167455165727781 
545	 0.168411214413903 
546	 0.169264953334059 
547	 0.169948985463111 
548	 0.170795844043383 
549	 0.171661844221442 
550	 0.17249461769015 
551	 0.173286366963064 
552	 0.174098172496802 
553	 0.175041836805648 
554	 0.17602480018682 
555	 0.176727844064791 
556	 0.177493281596363 
557	 0.178446533928202 
558	 0.1795203767138 
559	 0.180247137464304 
560	 0.180951325222454 
561	 0.181745680622347 
562	 0.182601000824841 
563	 0.183453623482361 
564	 0.184259323521475 
565	 0.18494523515216 
566	 0.185353015516993 
567	 0.185871639233558 
568	 0.186456618465661 
569	 0.186964375328035 
570	 0.187745017106525 
571	 0.188363559368137 
572	 0.188721490870189 
573	 0.189125580897365 
574	 0.189616098150756 
575	 0.189981071332068 
576	 0.190078612624392 
577	 0.190207358853788 
578	 0.190239802027463 
579	 0.190282656083052 
580	 0.190528312057851 
581	 0.190542422868587 
582	 0.190579106074024 
583	 0.190680078314265 
584	 0.190321615760955 
585	 0.189935673859216 
586	 0.189770911495698 
587	 0.189888325445883 
588	 0.189561883737312 
589	 0.18934727512888 
590	 0.189217062786625 
591	 0.188451008547788 
592	 0.187868580193152 
593	 0.187386815379676 
594	 0.186754513729059 
595	 0.185782035569528 
596	 0.184455139379446 
597	 0.182955833329135 
598	 0.181580470858846 
599	 0.180410405997168 
600	 0.179317320817586 
601	 0.17834194875941 
602	 0.177879560289868 
603	 0.177436434129333 
604	 0.177092932486616 
605	 0.177016068948682 
606	 0.176753407280271 
607	 0.176814135856798 
608	 0.177164291594438 
609	 0.177176605947328 
610	 0.176968710266243 
611	 0.176757574906635 
612	 0.176722335253027 
613	 0.176856250258018 
614	 0.176951035278166 
615	 0.176961468014945 
616	 0.176956321573215 
617	 0.17709896978365 
618	 0.176934605537842 
619	 0.176543921979876 
620	 0.177003315139533 
621	 0.177005059932323 
622	 0.176659759240989 
623	 0.176509408972161 
624	 0.176768006274471 
625	 0.176801122438556 
626	 0.176616629928438 
627	 0.176836379339714 
628	 0.176869632463785 
629	 0.176656320100604 
630	 0.176350425910961 
631	 0.176345352315944 
632	 0.176616850904186 
633	 0.17677497549521 
634	 0.176378734335375 
635	 0.176101909771753 
636	 0.175930494425318 
637	 0.17591166645368 
638	 0.17630051300679 
639	 0.176170856414212 
640	 0.175792921848137 
641	 0.175653881223801 
642	 0.175469428881769 
643	 0.175429148325445 
644	 0.175468768174058 
645	 0.175315449135855 
646	 0.175061302539202 
647	 0.174704544916829 
648	 0.174375215942843 
649	 0.174550793208294 
650	 0.174297335341322 
651	 0.173520548232074 
652	 0.172583337395225 
653	 0.172171922390328 
654	 0.171757157143304 
655	 0.170984241043205 
656	 0.169981149760664 
657	 0.169061239600109 
658	 0.168375938152072 
659	 0.167909106043429 
660	 0.167381766098001 
661	 0.167028422165506 
662	 0.166770770345574 
663	 0.166369635277615 
664	 0.165987334875335 
665	 0.165873122773508 
666	 0.166000797940415 
667	 0.16586474354736 
668	 0.165454725323715 
669	 0.165176304435409 
670	 0.165370732752947 
671	 0.165264308742904 
672	 0.16508172534336 
673	 0.164928487800361 
674	 0.164771154579296 
675	 0.165006217772849 
676	 0.164952737501081 
677	 0.164414586461945 
678	 0.165013806056636 
679	 0.165072823346992 
680	 0.164671239287586 
681	 0.16459610530781 
682	 0.164420389238101 
683	 0.164308737992848 
684	 0.164425800825277 
685	 0.1649202968225 
686	 0.164269803906724 
687	 0.163407682029615 
688	 0.163503955903534 
689	 0.163041018633296 
690	 0.162604837826841 
691	 0.162331380822794 
692	 0.162018910716037 
693	 0.160774190747143 
694	 0.159658137270504 
695	 0.159050630595479 
696	 0.157679760007101 
697	 0.156610790711413 
698	 0.15569733770826 
699	 0.154562381490358 
700	 0.152983032677818 
701	 0.151557954647815 
702	 0.150271578162918 
703	 0.148589792073206 
704	 0.147229589709376 
705	 0.145788731614627 
706	 0.143993938105342 
707	 0.142046171493124 
708	 0.139941138506813 
709	 0.137896313372391 
710	 0.136026935155584 
711	 0.133351869223092 
712	 0.130879376329458 
713	 0.128838499684249 
714	 0.126467768226315 
715	 0.124371304232427 
716	 0.122298366846461 
717	 0.119982147137862 
718	 0.116964572474248 
719	 0.113297240429268 
720	 0.110270161995334 
721	 0.108011384146352 
722	 0.10581862522188 
723	 0.103259306788542 
724	 0.10066398188815 
725	 9.82935912974065E-02 
726	 9.56145536037125E-02 
727	 9.25905269948887E-02 
728	 8.94176640101608E-02 
729	 8.65794021436565E-02 
730	 8.35695691854233E-02 
731	 8.06522109997822E-02 
732	 7.80796688747898E-02 
733	 7.59174685218414E-02 
734	 7.42699432728726E-02 
735	 7.30230789490719E-02 
736	 7.16936086183099E-02 
737	 7.06959449932578E-02 
738	 0.070056060517863 
739	 6.96412888709219E-02 
740	 6.90541657367794E-02 
741	 6.88269887121676E-02 
742	 6.87203599922504E-02 
743	 6.82138757747366E-02 
744	 6.79830297710821E-02 
745	 6.77140986025703E-02 
746	 6.74235131179002E-02 
747	 6.76834753637248E-02 
748	 6.76957956340032E-02 
749	 6.74383097175696E-02 
750	 6.71570195396349E-02 
751	 6.72736504813904E-02 
752	 6.71490113398428E-02 
753	 6.68556724776551E-02 
754	 6.68230451290813E-02 
755	 6.67968669634507E-02 
756	 0.067030981248781 
757	 6.74293442160191E-02 
758	 6.72510789103902E-02 
759	 6.70447874554216E-02 
760	 6.72233350360627E-02 
761	 6.76443273476879E-02 
762	 6.74389848337774E-02 
763	 0.067715447418386 
764	 6.79040976820149E-02 
765	 6.73910876073004E-02 
766	 6.72436412566957E-02 
767	 6.74756232197747E-02 
768	 6.76870424954079E-02 
769	 6.71381991980122E-02 
770	 6.74532095573989E-02 
771	 0.067835508245826 
772	 6.76038305036395E-02 
773	 0.067714772509376 
774	 6.81261884503175E-02 
775	 6.84995697769963E-02 
776	 0.068466957933899 
777	 6.84154837773012E-02 
778	 6.86806050269828E-02 
779	 6.91754273808381E-02 
780	 6.94076678491455E-02 
781	 6.93449504735251E-02 
782	 6.99031827912053E-02 
783	 7.11861364357261E-02 
784	 7.10362514152627E-02 
785	 7.12789969372857E-02 
786	 7.19283942447852E-02 
787	 7.24109199489869E-02 
788	 7.28728544094486E-02 
789	 7.30541441930729E-02 
790	 7.31915218988541E-02 
791	 7.38213851895223E-02 
792	 7.40267140621014E-02 
793	 7.44520687110726E-02 
794	 7.53400884154803E-02 
795	 7.59310289537678E-02 
796	 7.60886407644901E-02 
797	 7.63004202945165E-02 
798	 7.69925196717485E-02 
799	 7.76981912432846E-02 
800	 7.80905988960488E-02 
801	 7.83613708840751E-02 
802	 7.89069016247404E-02 
803	 7.90513951827374E-02 
804	 7.91412935514309E-02 
805	 7.92158247452661E-02 
806	 7.89149249074222E-02 
807	 7.87793329766829E-02 
808	 7.87930451163418E-02 
809	 7.89441992495599E-02 
810	 7.96268238856118E-02 
811	 7.96358624109171E-02 
812	 7.95499334843991E-02 
813	 8.03160274912501E-02 
814	 7.90377857417256E-02 
815	 7.79604782802086E-02 
816	 7.77795788061653E-02 
817	 7.73313239993356E-02 
818	 7.59822283337367E-02 
819	 7.54564394795138E-02 
820	 0.075547962302279 
821	 7.36579508250279E-02 
822	 7.27093403352814E-02 
823	 0.071878976288609 
824	 7.00979152382602E-02 
825	 6.77466152193393E-02 
826	 6.60318736890456E-02 
827	 6.48781663737879E-02 
828	 6.37205508019763E-02 
829	 6.21129479557304E-02 
830	 6.10063710069261E-02 
831	 6.03101620584471E-02 
832	 5.92155809185353E-02 
833	 5.76234150626754E-02 
834	 5.68445034160671E-02 
835	 5.70464429877518E-02 
836	 5.68777137012974E-02 
837	 0.056638053983308 
838	 5.61884752879604E-02 
839	 5.55917117810612E-02 
840	 5.55879253977307E-02 
841	 5.55389872766438E-02 
842	 5.50642698870402E-02 
843	 5.42235619079422E-02 
844	 5.45579730787284E-02 
845	 5.43410512943615E-02 
846	 5.36262885766597E-02 
847	 5.36043098864803E-02 
848	 5.32543577906948E-02 
849	 0.053032987734462 
850	 0.053145144907581 
851	 5.32486299374114E-02 
852	 5.26963041707843E-02 
853	 5.22282744631704E-02 
854	 5.23594824320439E-02 
855	 5.24442609272623E-02 
856	 5.26939992675734E-02 
857	 5.27294656963713E-02 
858	 5.22924108420356E-02 
859	 5.21025039740292E-02 
860	 0.051248448923149 
861	 5.07586066586216E-02 
862	 5.19536045526035E-02 
863	 5.17801974624706E-02 
864	 5.08295151124746E-02 
865	 0.049950214575374 
866	 4.99181148901848E-02 
867	 0.050695281358815 
868	 5.06610049161624E-02 
869	 5.00472354898273E-02 
870	 5.15488916693366E-02 
871	 0.051113560315175 
872	 0.050057434779497 
873	 4.98281160868969E-02 
874	 4.94232906270572E-02 
875	 4.92348207737159E-02 
876	 4.93290855242468E-02 
877	 4.95186165486147E-02 
878	 0.049043875938167 
879	 4.91843294119449E-02 
880	 4.92832863355642E-02 
881	 4.81960592821238E-02 
882	 4.75908003118368E-02 
883	 4.79706618392701E-02 
884	 4.85655207580672E-02 
885	 4.80234692265266E-02 
886	 4.84226214022596E-02 
887	 4.79203201208203E-02 
888	 4.67666193619269E-02 
889	 4.77734196206445E-02 
890	 4.75514180555979E-02 
891	 4.75829901142541E-02 
892	 4.87299566609442E-02 
893	 4.88079175768152E-02 
894	 4.81883161677605E-02 
895	 4.71028511041982E-02 
896	 0.046085657158706 
897	 0.046271195333686 
898	 0.046525156575229 
899	 4.71153008650385E-02 
900	 4.81270509182914E-02 
901	 4.73117367944755E-02 
902	 4.74614509855579E-02 
903	 4.89486453019522E-02 
904	 5.04762086410306E-02 
905	 4.73868626568222E-02 
906	 4.74323596407957E-02 
907	 4.85814165995426E-02 
908	 4.27497889920534E-02 
909	 0.041478445370436 
910	 0.045560027554688 
911	 4.91499004521343E-02 
912	 4.39160524581418E-02 
913	 4.27969354636577E-02 
914	 4.38249176562073E-02 
915	 4.50393954696434E-02 
916	 4.66581250737482E-02 
917	 4.58528794705563E-02 
918	 4.46758309025208E-02 
919	 4.47570143843501E-02 
920	 4.62350304039781E-02 
921	 4.52753262871664E-02 
922	 4.37335218615551E-02 
923	 4.39582051000567E-02 
924	 4.69089120503694E-02 
925	 4.92382008795895E-02 
926	 4.78341622489519E-02 
927	 4.18996902768655E-02 
928	 4.03613559721198E-02 
929	 4.69102600317195E-02 
930	 5.61749577365984E-02 
931	 5.37756195821364E-02 
932	 3.58321770904156E-02 
933	 3.82679749142965E-02 
934	 5.07384566913851E-02 
935	 3.83970648394898E-02 
936	 3.15372232928347E-02 
937	 2.79858072410699E-02 
938	 3.56584010179874E-02 
939	 5.11877768457884E-02 
940	 1.82613344366617E-02 
941	 2.66320166153382E-02 
942	 5.41985730032405E-02 
943	 3.43701658510499E-02 
944	 1.50622318448972E-02 
945	 2.37546824589836E-02 
946	 4.36031748089879E-02 
947	 4.05198937739182E-02 
948	 3.49299421649635E-02 
949	 4.47402226001422E-02 
950	 5.62375521957688E-02 
951	 4.55354833429748E-02 
952	 3.46243980858271E-02 
953	 4.90429884684103E-02 
954	 6.15186173499485E-02 
955	 0.027480089255741 
956	 2.64064322655286E-02 
957	 3.70998314757562E-02 
958	 4.23548335406572E-02 
959	 3.79072455227486E-02 
960	 4.07669341283429E-02 
961	 4.24207997276372E-02 
962	 4.07990493340664E-02 
963	 4.00336541721928E-02 
964	 4.80124913544509E-02 
965	 0.046435953790558 
966	 3.76430421644074E-02 
967	 3.67156902728146E-02 
968	 4.43397177539509E-02 
969	 4.37096716274853E-02 
970	 3.76883093336751E-02 
971	 4.31109922711756E-02 
972	 4.19261086130258E-02 
973	 4.22402316672693E-02 
974	 0.04367276001857 
975	 3.72848682929752E-02 
976	 3.76349226006235E-02 
977	 3.57401224425656E-02 
978	 3.40001036262915E-02 
979	 4.29426064396352E-02 
980	 4.66451174612097E-02 
981	 4.54873530332189E-02 
982	 4.19537760890785E-02 
983	 3.92708792851846E-02 
984	 4.34820905405417E-02 
985	 4.31053951530973E-02 
986	 4.00205645507766E-02 
987	 4.44150572759981E-02 
988	 4.04199721742498E-02 
989	 3.64640160468321E-02 
990	 3.85876307946854E-02 
991	 4.58466019947206E-02 
992	 3.86841652177351E-02 
993	 3.34685538081106E-02 
994	 0.035515012146048 
995	 3.92407022745405E-02 
996	 4.07594100973181E-02 
997	 0.042077640463942 
998	 4.38482741866257E-02 
999	 0.04507744825179 
1000	 4.30873168330815E-02 
1001	 0.039405514361327 
1002	 4.10663206759975E-02 
1003	 4.12197750870325E-02 
1004	 4.16329712590624E-02 
1005	 4.14889887609394E-02 
1006	 4.06885956215056E-02 
1007	 0.039435230264572 
1008	 0.037619356277949 
1009	 3.72241689800212E-02 
1010	 3.77013362395485E-02 
1011	 3.75875129569414E-02 
1012	 4.00496234703575E-02 
1013	 4.21527465934586E-02 
1014	 4.19370843164946E-02 
1015	 3.97447277533574E-02 
1016	 3.93002387098664E-02 
1017	 3.68157880499912E-02 
1018	 3.70994156940645E-02 
1019	 4.12990344539404E-02 
1020	 4.23554815300552E-02 
1021	 4.30526074890985E-02 
1022	 4.26965297036578E-02 
1023	 4.16100007121332E-02 
1024	 3.97567932696545E-02 
1025	 0.039744406350654 
1026	 4.11204705992481E-02 
1027	 4.19527871341642E-02 
1028	 4.39000542799771E-02 
1029	 0.044638976321716 
1030	 4.43479817068705E-02 
1031	 0.044747783804494 
1032	 4.57763722572931E-02 
1033	 4.53371972928095E-02 
1034	 4.42083588988058E-02 
1035	 4.37174561746575E-02 
1036	 4.20876322909101E-02 
1037	 0.041226257031094 
1038	 4.07596990715361E-02 
1039	 4.14622051012077E-02 
1040	 4.30125780837691E-02 
1041	 0.041978776653523 
1042	 4.18359990824377E-02 
1043	 4.18011487413714E-02 
1044	 4.20420415724657E-02 
1045	 4.15062879822288E-02 
1046	 4.27148631146781E-02 
1047	 4.64715022225832E-02 
1048	 0.047019192211218 
1049	 4.69815769036257E-02 
1050	 4.63686130251868E-02 
1051	 4.27257527455543E-02 
1052	 4.12692098956125E-02 
1053	 4.02964060716215E-02 
1054	 4.02256571476282E-02 
1055	 4.19678898670557E-02 
1056	 4.27692010583889E-02 
1057	 4.35565826083286E-02 
1058	 4.51278038180828E-02 
1059	 4.53269146490125E-02 
1060	 4.44088132082381E-02 
1061	 4.39528765368609E-02 
1062	 4.30004122185329E-02 
1063	 4.26215352731018E-02 
1064	 4.24830428765911E-02 
1065	 4.22509824524133E-02 
1066	 4.22834267033352E-02 
1067	 4.21587562947364E-02 
1068	 4.21480843977218E-02 
1069	 4.17193595037135E-02 
1070	 3.99669778175022E-02 
1071	 0.040006406987571 
1072	 4.17183705507231E-02 
1073	 4.18006178771854E-02 
1074	 4.25845069765269E-02 
1075	 4.50231281145811E-02 
1076	 4.54399903511644E-02 
1077	 4.41934466838233E-02 
1078	 4.40890931944769E-02 
1079	 4.41493165462413E-02 
1080	 4.38497355741175E-02 
1081	 4.30525629617462E-02 
1082	 4.33548706008555E-02 
1083	 4.44552759193805E-02 
1084	 4.46426493643989E-02 
1085	 4.54478631702091E-02 
1086	 4.55295077164475E-02 
1087	 4.42193438294901E-02 
1088	 0.04336382843188 
1089	 4.17903300400052E-02 
1090	 4.14780442497364E-02 
1091	 4.21250136305824E-02 
1092	 4.37765591953754E-02 
1093	 4.39504992790486E-02 
1094	 0.044991087930472 
1095	 0.045056863958188 
1096	 4.29670085083102E-02 
1097	 4.27893487735926E-02 
1098	 4.48912727610094E-02 
1099	 4.45372548452752E-02 
1100	 4.14771241719618E-02 
1101	 4.10220117343106E-02 
1102	 4.19086610211141E-02 
1103	 4.13322252988037E-02 
1104	 4.14411819712402E-02 
1105	 4.20750314945607E-02 
1106	 4.14793581948843E-02 
1107	 4.04760532528404E-02 
1108	 4.39410220627397E-02 
1109	 0.04788630577495 
1110	 0.049570171662813 
1111	 0.050388052931632 
1112	 5.09099260342734E-02 
1113	 4.73767998543552E-02 
1114	 4.70644709579612E-02 
1115	 4.71938020703918E-02 
1116	 4.60602623898003E-02 
1117	 4.78350098451397E-02 
1118	 0.0492642666813 
1119	 4.30615035909491E-02 
1120	 5.17966778042045E-02 
1121	 9.16150548776623E-02 
1122	 0.120640637009156 
1123	 0.112792462360007 
1124	 9.52926457354728E-02 
1125	 4.36722845679297E-02 
1126	 1.83476087950002E-02 
1127	 7.66579071729107E-02 
1128	 0.122199158857882 
1129	 0.116811866353228 
1130	 6.99312364434874E-02 
1131	 6.97360141585288E-02 
1132	 5.44628220232632E-02 
1133	 5.89502067073296E-02 
1134	 0.113381625532808 
1135	 0.10388223891667 
1136	 5.30260005346659E-02 
1137	 5.24094669642127E-02 
1138	 0.068601726856723 
1139	 4.00425129039316E-02 
1140	 0.037474119057699 
1141	 4.71098407791838E-02 
1142	 2.11054493746005E-02 
1143	 3.85429748718197E-02 
1144	 9.26861049263168E-02 
1145	 0.087409266263478 
1146	 8.22121418474159E-02 
1147	 6.47760143875224E-02 
1148	 1.62995110009278E-02 
1149	 2.98348505739215E-02 
1150	 4.32621562873411E-02 
1151	 7.87136471311376E-02 
1152	 7.60658882505737E-02 
1153	 6.40049883338288E-02 
1154	 5.69938253550555E-02 
1155	 3.79309497871647E-02 
1156	 3.79663301000967E-02 
1157	 4.62572228377865E-02 
1158	 5.29533152142805E-02 
1159	 5.09908805663974E-02 
1160	 4.70154146673781E-02 
1161	 4.55593006502027E-02 
1162	 5.03843575222954E-02 
1163	 5.85933894248929E-02 
1164	 5.52432811103553E-02 
1165	 5.01089010901671E-02 
1166	 4.93115460200031E-02 
1167	 4.63311021122628E-02 
1168	 4.57503986409447E-02 
1169	 4.75085187994888E-02 
1170	 4.63455883499331E-02 
1171	 4.61342766316374E-02 
1172	 4.67920919912524E-02 
1173	 4.66781787025187E-02 
1174	 4.72003663784481E-02 
1175	 4.44320216214961E-02 
1176	 4.31136699107111E-02 
1177	 4.49665093764401E-02 
1178	 4.68209303213851E-02 
1179	 0.047824030144005 
1180	 4.73198140511654E-02 
1181	 4.49413400387257E-02 
1182	 4.39586815275456E-02 
1183	 4.49836085099072E-02 
1184	 4.52973007966967E-02 
1185	 4.38156119823198E-02 
1186	 4.26417186917103E-02 
1187	 4.40228511254658E-02 
1188	 4.53409488966302E-02 
1189	 0.043932362997319 
1190	 4.20547761687637E-02 
1191	 4.19306051564175E-02 
1192	 4.18874709177249E-02 
1193	 4.22917390981232E-02 
1194	 4.45767008328034E-02 
1195	 4.81040193065289E-02 
1196	 4.71010052096812E-02 
1197	 4.42998967282014E-02 
1198	 4.52612726001731E-02 
1199	 4.39150306144068E-02 
1200	 0.040489547500402 
1201	 4.21436054448251E-02 
1202	 4.38486472640208E-02 
1203	 4.23016239044375E-02 
1204	 4.31945846617583E-02 
1205	 4.53784804694769E-02 
1206	 4.50945112619793E-02 
1207	 0.043992609804598 
1208	 4.51631595810749E-02 
1209	 4.63958708809455E-02 
1210	 4.46300174274707E-02 
1211	 4.36877205039136E-02 
1212	 0.044564828915705 
1213	 4.30492228284952E-02 
1214	 4.21972808348146E-02 
1215	 4.17095024316387E-02 
1216	 0.044130647667827 
1217	 4.46110245930863E-02 
1218	 4.35562409307801E-02 
1219	 4.39475452478474E-02 
1220	 4.47269171706976E-02 
1221	 4.41853595361277E-02 
1222	 4.41700665060689E-02 
1223	 0.044485165846024 
1224	 0.0428216624621 
1225	 4.11767627019109E-02 
1226	 4.03841536930957E-02 
1227	 0.040583625880824 
1228	 4.22931785085257E-02 
1229	 4.26402712316063E-02 
1230	 4.23687471681236E-02 
1231	 4.31691407562647E-02 
1232	 4.22808285837129E-02 
1233	 4.14785031668477E-02 
1234	 4.17940389419216E-02 
1235	 4.19123148304535E-02 
1236	 4.23195559580931E-02 
1237	 0.041821817579434 
1238	 4.06678361444779E-02 
1239	 4.03065358309357E-02 
1240	 4.10562729728748E-02 
1241	 0.040331844981318 
1242	 4.12575851705195E-02 
1243	 4.22090235106209E-02 
1244	 4.20261263776669E-02 
1245	 4.19754789017667E-02 
1246	 4.04432599447371E-02 
1247	 3.94887777586717E-02 
1248	 4.01718018804298E-02 
1249	 4.06013287819097E-02 
1250	 4.07035037911922E-02 
1251	 4.17201831307678E-02 
1252	 4.22280496947702E-02 
1253	 4.10308681053975E-02 
1254	 4.10468080512238E-02 
1255	 4.21666339886902E-02 
1256	 4.21521508281625E-02 
1257	 4.01067994371375E-02 
1258	 4.01548387517328E-02 
1259	 4.13540871593307E-02 
1260	 4.17653326446336E-02 
1261	 4.30100155709705E-02 
1262	 0.043503580946618 
1263	 4.35159332039878E-02 
1264	 4.29387653366906E-02 
1265	 4.17413962738654E-02 
1266	 4.00924208899183E-02 
1267	 3.93518778519575E-02 
1268	 3.91200007248919E-02 
1269	 0.039554796191209 
1270	 4.03308901474891E-02 
1271	 4.06202785565036E-02 
1272	 4.13437442737375E-02 
1273	 4.14157219302901E-02 
1274	 4.04702260340025E-02 
1275	 4.21870772263663E-02 
1276	 4.36090246507288E-02 
1277	 4.20736253193304E-02 
1278	 4.27189109259849E-02 
1279	 4.34228168292878E-02 
1280	 4.20507654679972E-02 
1281	 4.17057767085387E-02 
1282	 4.33821770961983E-02 
1283	 4.38045213574027E-02 
1284	 4.32500383391833E-02 
1285	 4.35112121224267E-02 
1286	 4.46229656872879E-02 
1287	 4.45268571802962E-02 
1288	 4.27040053336072E-02 
1289	 4.24656415079546E-02 
1290	 4.22012203818981E-02 
1291	 4.39156936979229E-02 
1292	 4.43326258351903E-02 
1293	 4.45540772501437E-02 
1294	 0.044359746539193 
1295	 4.33287463058216E-02 
1296	 4.30950090950211E-02 
1297	 4.36567863404463E-02 
1298	 4.45142312241469E-02 
1299	 4.21668167479088E-02 
1300	 0.039509509979415 
1301	 4.05764462440079E-02 
1302	 0.040713715808481 
1303	 4.03074498213861E-02 
1304	 4.33272419845333E-02 
1305	 4.50119726841619E-02 
1306	 4.59890489159395E-02 
1307	 0.045492397682969 
1308	 4.63670820883808E-02 
1309	 4.80013226660883E-02 
1310	 4.78325248444439E-02 
1311	 4.50612999383461E-02 
1312	 0.045383766132697 
1313	 4.78634263110539E-02 
1314	 4.80326126412789E-02 
1315	 4.93400359699412E-02 
1316	 4.95700090481046E-02 
1317	 4.51860296770238E-02 
1318	 4.35821350296043E-02 
1319	 4.57661714869979E-02 
1320	 4.55793495272413E-02 
1321	 4.49928031432817E-02 
1322	 4.27878827540749E-02 
1323	 4.06823296066448E-02 
1324	 4.20189020280631E-02 
1325	 4.28600195714651E-02 
1326	 4.18148863821734E-02 
1327	 4.59662197232722E-02 
1328	 4.94782880173205E-02 
1329	 0.049885632954153 
1330	 5.48765431488836E-02 
1331	 5.70977531536415E-02 
1332	 5.31161194898377E-02 
1333	 5.60066902590089E-02 
1334	 5.89073467356002E-02 
1335	 6.26383615752927E-02 
1336	 6.99083135797254E-02 
1337	 7.42681593876375E-02 
1338	 0.076168819469056 
1339	 7.74968283845463E-02 
1340	 7.72796042211078E-02 
1341	 7.81105260624685E-02 
1342	 8.11419605131293E-02 
1343	 7.74899845961756E-02 
1344	 5.87489839767539E-02 
1345	 5.13016521654094E-02 
1346	 4.52257382881291E-02 
1347	 4.82274602510364E-02 
1348	 9.90410207124342E-02 
1349	 0.127624050991278 
1350	 0.123973055634457 
1351	 0.138796079954944 
1352	 0.113488923059612 
1353	 0.119733251867617 
1354	 0.222623434358871 
1355	 0.491557110428713 
1356	 7.66450775480776E-02 
1357	-0.050190389233639 
1358	 0.372892853534428 
1359	 0.911724944974461 
1360	 1.43567377627985 
1361	-12.4527242220329 
1362	 4.32393011766074 
1363	 0.556190324684378 
1364	 0.710920027672507 
1365	 1.29492133391394 
1366	 1.58262831858562 
1367	 3.56819047701267 
1368	 4.74074158412982 
1369	 1.29742013950893 
1370	 0.955011075245136 
1371	 1.02809579039635 
1372	 2.48110133480988 
1373	-0.94805171787915 
1374	-0.637451564135783 
1375	-7.82405089419801 
1376	-6.3070417781869 
1377	-0.437268246330281 
1378	 1.66980851657627 
1379	-1.57705815058707 
1380	-1.85814751637902 
1381	-0.482552203409421 
1382	-1.57141045744306 
1383	 5.25932906808027 
1384	 18.1324362978809 
1385	 2.46691697955035 
1386	 0.894932021906639 
1387	 6.92117125052253 
1388	-1.31190099026 
1389	-0.675425050147608 
1390	-0.917776610325537 
1391	-3382.07432153595 
1392	 0.442579074710664 
1393	-4.35070016237115 
1394	-0.404919055819968 
1395	 0.704006916420817 
1396	-11.6312879287072 
1397	-1.96192960471957 
1398	 5.69776901113248 
1399	 2.80021609235968 
1400	-2.48124705786378 
1401	 6.6406418025657 
1402	 0.824047104253575 
1403	 0.827365780275513 
1404	 0.49581861813659 
1405	 0.637848329041883 
1406	 1.80655206102724 
1407	 2.48425595070709 
1408	 4.27529707033989 
1409	 7.49081919028364 
1410	 4.39228108213781 
1411	 3.67293008283282 
1412	 5.04195991206803 
1413	-200.396393971232 
1414	-6.56334800149807 
1415	 9.9826777732488 
1416	-0.693393455597948 
1417	-0.792981154293094 
1418	-1.48135284931716 
1419	-1.21891816548586 
1420	 1.17642722827046 
1421	 2.58118006971854 
1422	 3.46085711656614 
1423	 1.40264367917677 
1424	 0.440714998354217 
1425	-0.127435976505009 
1426	-2.39380480940424 
1427	-2.42962553849485 
1428	-3.34974026628882 
1429	 10.798739317008 
1430	-1.8365804557301 
1431	 0.722284766704975 
1432	-0.707172826292156 
1433	-0.631967428356365 
1434	 1.25021542644061 
1435	 0.982423242264453 
1436	-7.00309913412936E-03 
1437	-0.330254041314148 
1438	-0.418328921131506 
1439	-0.130255479681811 
1440	 1.74732222770702 
1441	 294.511879867607 
1442	 0.8354468039991 
1443	 0.545220685966943 
1444	 2.44245176804503 
1445	 0.801751730371098 
1446	 0.156761682645712 
1447	 0.839608492654478 
1448	 0.733564518793254 
1449	 0.344681572785507 
1450	 0.360376906740016 
1451	 0.228334241062177 
1452	-0.143282641080751 
1453	-0.111473137762695 
1454	-2.75686144881697E-02 
1455	 1.06165808017914 
1456	 1.89923821850564 
1457	 1.46684494194737 
1458	 0.919439063825867 
1459	-0.14595594314796 
1460	-0.204843337387302 
1461	-0.10539183448552 
1462	-0.171966221098935 
1463	 0.123743444871546 
1464	 0.157657656684571 
1465	-0.290026917641951 
1466	-0.272688432615325 
1467	 0.451767322049084 
1468	 0.407284289105927 
1469	 0.148098943127241 
1470	 4.83688378219845E-02 
1471	-0.3262371869518 
1472	-0.318226005891561 
1473	-0.14768957755208 
1474	-0.128652533255749 
1475	-0.141609527083043 
1476	-7.99336581587042E-02 
1477	 9.62306976960789E-02 
1478	 0.122810071654284 
1479	 0.115799887235895 
1480	 0.203987727791174 
1481	 0.286241541276008 
1482	 0.115455041436908 
1483	-9.25495903300952E-02 
1484	-5.58797486043511E-02 
1485	-4.41634773371407E-02 
1486	-9.79817353406765E-02 
1487	-5.48149473244158E-02 
1488	 3.90187351780049E-04 
1489	-4.20970741944203E-02 
1490	-4.54820152297244E-02 
1491	 0.022513050944647 
1492	 6.67108333379976E-02 
1493	 0.100010310973434 
1494	 8.34033493089867E-02 
1495	 5.19936896364013E-02 
1496	 6.17580961637951E-02 
1497	 6.35923249919952E-02 
1498	 4.93424452948848E-02 
1499	 5.57797073470624E-02 
1500	 5.82755295901613E-02 
1501	 2.22234471267208E-02 
1502	 1.97035247281592E-02 
1503	 4.81448916436743E-02 
1504	 6.69874565632064E-02 
1505	 9.52943625370389E-02 
1506	 0.106692383330612 
1507	 0.096372907453119 
1508	 9.98828666577712E-02 
1509	 9.70000639218672E-02 
1510	 8.88745813389897E-02 
1511	 8.11393766084279E-02 
1512	 6.65668868982126E-02 
1513	 0.047764211682813 
1514	 4.21067547811007E-02 
1515	 5.51436715761513E-02 
1516	 6.33611066085295E-02 
1517	 5.52149891328073E-02 
1518	 0.04849449758245 
1519	 5.55128914804451E-02 
1520	 6.11720415584325E-02 
1521	 6.22723124461244E-02 
1522	 6.41824040383743E-02 
1523	 6.17775768180569E-02 
1524	 0.059509998903049 
1525	 0.068671123412115 
1526	 7.89738485853686E-02 
1527	 8.45283919765958E-02 
1528	 8.23628746173248E-02 
1529	 6.97353672163963E-02 
1530	 6.39563246666383E-02 
1531	 6.46482108539575E-02 
1532	 6.72712980641254E-02 
1533	 7.20627564680756E-02 
1534	 6.59218426131562E-02 
1535	 5.43978722027404E-02 
1536	 0.047023726762197 
1537	 4.36450200781209E-02 
1538	 4.61649079456395E-02 
1539	 4.88843598676922E-02 
1540	 5.15803015755771E-02 
1541	 6.16325649405289E-02 
1542	 6.63143304839936E-02 
1543	 5.98377994912697E-02 
1544	 6.08573040161038E-02 
1545	 6.25165055978102E-02 
1546	 5.63523753432043E-02 
1547	 5.42921941782671E-02 
1548	 5.00211320402435E-02 
1549	 4.75503065793025E-02 
1550	 5.57648412217856E-02 
1551	 5.75542942651975E-02 
1552	 5.49894754727756E-02 
1553	 5.60294373839616E-02 
1554	 5.58879100018851E-02 
1555	 0.061253441556479 
1556	 6.75074947531229E-02 
1557	 6.58050763241844E-02 
1558	 5.98504212974055E-02 
1559	 5.50723035370465E-02 
1560	 0.056835172303709 
1561	 6.02571716857656E-02 
1562	 5.85756783072075E-02 
1563	 5.44479342663588E-02 
1564	 5.15643967144896E-02 
1565	 5.05681643053069E-02 
1566	 4.69424492049407E-02 
1567	 5.05205428197063E-02 
1568	 5.69940958360569E-02 
1569	 4.93015681880425E-02 
1570	 4.71513752397964E-02 
1571	 5.14455408667234E-02 
1572	 5.06395528727868E-02 
1573	 0.056604978091087 
1574	 5.75546292729813E-02 
1575	 4.89391711865136E-02 
1576	 0.05015846101648 
1577	 5.01143497933508E-02 
1578	 4.41378194189627E-02 
1579	 4.75529286661201E-02 
1580	 4.88863560957948E-02 
1581	 0.04997950773002 
1582	 6.04738627889353E-02 
1583	 6.38978420779955E-02 
1584	 6.07995463552412E-02 
1585	 6.26717167301557E-02 
1586	 5.88191574259689E-02 
1587	 4.83566643745035E-02 
1588	 4.52626445824519E-02 
1589	 4.63869979140104E-02 
1590	 4.79750745653745E-02 
1591	 5.21326672333903E-02 
1592	 5.05225422483712E-02 
1593	 5.07477877214622E-02 
1594	 5.77381409013492E-02 
1595	 5.67668217458203E-02 
1596	 5.46054395932652E-02 
1597	 5.81961713618245E-02 
1598	 5.60045608922033E-02 
1599	 5.26860918065123E-02 
1600	 5.56093058708593E-02 
1601	 5.44810680762549E-02 
1602	 4.83460134660279E-02 
1603	 4.65515858877878E-02 
1604	 5.19976247383994E-02 
1605	 5.51815235543444E-02 
1606	 5.05906409617792E-02 
1607	 4.96987613690543E-02 
1608	 5.39967802951006E-02 
1609	 5.81690663040092E-02 
1610	 0.058998465243648 
1611	 0.05761232107284 
1612	 6.16961260212382E-02 
1613	 5.87657413046611E-02 
1614	 0.052469491501035 
1615	 5.87073827318008E-02 
1616	 0.061524861583838 
1617	 5.72156102348827E-02 
1618	 5.18401903505038E-02 
1619	 4.78035759838395E-02 
1620	 0.046842126024939 
1621	 4.52976819697865E-02 
1622	 4.90753430499654E-02 
1623	 4.94856667914995E-02 
1624	 4.08839378094292E-02 
1625	 3.93941550357483E-02 
1626	 4.49529322457512E-02 
1627	 4.89365041190947E-02 
1628	 5.25185547149237E-02 
1629	 5.42726036034702E-02 
1630	 5.06501520091343E-02 
1631	 4.79147160971816E-02 
1632	 5.00429495253821E-02 
1633	 4.91827147653841E-02 
1634	 4.49227751436729E-02 
1635	 4.48599549764929E-02 
1636	 4.42657006933912E-02 
1637	 4.29821912438383E-02 
1638	 4.61522947750306E-02 
1639	 4.61960950843552E-02 
1640	 4.06208939606872E-02 
1641	 3.62604124982343E-02 
1642	 4.06514186142758E-02 
1643	 4.87903995363474E-02 
1644	 5.12049111695136E-02 
1645	 5.38142366154077E-02 
1646	 5.45535343148388E-02 
1647	 4.64522132232016E-02 
1648	 3.97424853942952E-02 
1649	 3.80798633718474E-02 
1650	 3.62682442544439E-02 
1651	 0.036539532657254 
1652	 0.038031262997065 
1653	 4.45463620331997E-02 
1654	 4.41764770814056E-02 
1655	 3.95186660163809E-02 
1656	 4.05050068375322E-02 
1657	 4.00242144388929E-02 
1658	 3.78132418755225E-02 
1659	 4.00129595399152E-02 
1660	 4.22053577149084E-02 
1661	 3.90768803118128E-02 
1662	 0.038557655391823 
1663	 4.64147221844321E-02 
1664	 4.82399701915242E-02 
1665	 0.042387772473335 
1666	 4.14853615138312E-02 
1667	 4.15937501001452E-02 
1668	 4.25603486869826E-02 
1669	 4.50753309385698E-02 
1670	 4.35492165893205E-02 
1671	 4.50847363635019E-02 
1672	 4.71389513436055E-02 
1673	 0.043257061242145 
1674	 4.56024113511751E-02 
1675	 5.21571460890229E-02 
1676	 5.45808023185402E-02 
1677	 5.71694107709257E-02 
1678	 5.56808118941088E-02 
1679	 0.052709158354477 
1680	 5.54451638812969E-02 
1681	 5.66889443475411E-02 
1682	 5.93622093507515E-02 
1683	 6.21397903947494E-02 
1684	 0.05538327098803 
1685	 5.45948296435107E-02 
1686	 6.35122868077403E-02 
1687	 6.57197027207014E-02 
1688	 0.056454309050674 
1689	 4.60772435374734E-02 
1690	 4.73320616201502E-02 
1691	 4.77281152469217E-02 
1692	 0.050864211142054 
1693	 6.15679466554983E-02 
1694	 5.76466410490672E-02 
1695	 5.37106743805822E-02 
1696	 6.17398061399481E-02 
1697	 6.45732742978648E-02 
1698	 6.21616696930785E-02 
1699	 5.83133821923975E-02 
1700	 5.31403241822277E-02 
1701	 4.69517646324122E-02 
1702	 4.61560753647491E-02 
1703	 5.36144880361506E-02 
1704	 5.29331587747109E-02 
1705	 5.16571846512068E-02 
1706	 5.94920972926633E-02 
1707	 5.19084291459829E-02 
1708	 3.57113150140209E-02 
1709	 3.84516443577068E-02 
1710	 0.044998461116638 
1711	 4.27687945257254E-02 
1712	 5.07474075430317E-02 
1713	 4.58674378683606E-02 
1714	 4.45143739630173E-02 
1715	 5.42282118503184E-02 
1716	 5.27482103063452E-02 
1717	 5.11423326714422E-02 
1718	 5.77679919908921E-02 
1719	 5.15512803299983E-02 
1720	 4.36364037414532E-02 
1721	 4.49103504306452E-02 
1722	 4.01645437485902E-02 
1723	 3.29833712204932E-02 
1724	 3.18424227422653E-02 
1725	 0.040972523172295 
1726	 5.56321632556993E-02 
1727	 5.93338250303666E-02 
1728	 5.87467141943161E-02 
1729	 0.056249131563527 
1730	 4.69359463336347E-02 
1731	 5.05401556396249E-02 
1732	 5.44648852876472E-02 
1733	 4.53729180187579E-02 
1734	 4.10387915623368E-02 
1735	 4.14467550334803E-02 
1736	 5.43246320941185E-02 
1737	 7.42247913813299E-02 
1738	 7.20601320234082E-02 
1739	 5.86975239966439E-02 
1740	 6.07009087325008E-02 
1741	 6.15656894504962E-02 
1742	 5.47932689281422E-02 
1743	 6.13389055263585E-02 
1744	 7.09558749239011E-02 
1745	 6.03792565930381E-02 
1746	 5.46986218360332E-02 
1747	 6.16938371520319E-02 
1748	 6.43294594645686E-02 
1749	 5.76648123195892E-02 
1750	 0.055742325555525 
1751	 6.07363430249651E-02 
1752	 5.67232177061295E-02 
1753	 0.056489490574311 
1754	 8.21680241371473E-02 
1755	 8.06454715802561E-02 
1756	 3.81623632336229E-02 
1757	 4.90490515101698E-02 
1758	 0.062478474773822 
1759	 6.97128335071137E-02 
1760	 8.04088221794398E-02 
1761	 6.49223831510525E-02 
1762	 5.04354604628522E-02 
1763	 5.47420258213944E-02 
1764	 0.051931886928598 
1765	 4.23491020104992E-02 
1766	 3.33523498988688E-02 
1767	 3.27180430775386E-02 
1768	 4.71519571315079E-02 
1769	 0.068622897379021 
1770	 8.50754362944135E-02 
1771	 7.78523348150688E-02 
1772	 5.83520774299857E-02 
1773	 4.66372550728287E-02 
1774	 3.97560789816264E-02 
1775	 5.61695464100513E-02 
1776	 6.04115791186205E-02 
1777	 6.17584693875086E-02 
1778	 6.17318467388508E-02 
1779	 4.17358467093491E-02 
1780	 3.83406197822794E-02 
1781	 3.72313403104617E-02 
1782	 4.71336528523553E-02 
1783	 9.49859333156393E-02 
1784	 0.107491664938325 
1785	 9.95258501478995E-02 
1786	 0.105798791595236 
1787	 8.76125168451117E-02 
1788	 0.054969870756912 
1789	 6.10889542816222E-02 
1790	 4.68568596077203E-04 
1791	-0.107402670646124 
1792	 1.15921181551498E-02 
1793	 2.11655935855617E-02 
1794	-4.59534256418439E-02 
1795	 2.18569552619847E-02 
1796	 1.02014843385219E-02 
1797	 2.66856082004456E-02 
1798	 0.213858445280466 
1799	 0.367643295747428 
1800	 0.286381583105368 
1801	 8.70379378701596E-02 
1802	-0.488305601616478 
1803	-0.461916644939149 
1804	 0.288275171670104 
1805	 0.571709384016195 
1806	 5.65376370941711 
1807	 7.30270922353049 
1808	 0.459194993606735 
1809	 9.29619114391867E-02 
1810	 0.153789160613756 
1811	 0.276421540160875 
1812	 0.805124049211979 
1813	 1.5873045450442 
1814	 3.53018849029238 
1815	 10.0445806436862 
1816	-0.171298887538616 
1817	 0.970956041574648 
1818	 1.06174903932078 
1819	 7.87875688569026 
1820	 1.86865701306973 
1821	 1.97238445924478 
1822	 1.73172173623764 
1823	-1.37138588669569 
1824	 0.809983715601667 
1825	 0.335066991005501 
1826	 0.324457918891751 
1827	 8.68620600217498E-02 
1828	-0.15503122025325 
1829	 4.75302945525873 
1830	 1.39438313753651 
1831	-2.66117322222604 
1832	-1.75734775365188 
1833	 0.43445224988166 
1834	 1.6722564411436 
1835	 3.49242024199205 
1836	 45.6833727115378 
1837	 0.284400120593571 
1838	 0.517146874095553 
1839	 0.200132681278397 
1840	-0.422859012861393 
1841	 0.132108465046583 
1842	-0.080849438120502 
1843	-0.119978889981173 
1844	-0.475289533449544 
1845	-0.438574889081155 
1846	-0.060645933173599 
1847	 0.103091586205258 
1848	 0.192029408197188 
1849	 0.351066595181175 
1850	 0.234120222377161 
1851	 5.16536321212025E-02 
1852	 0.130456584728373 
1853	 0.328671103087365 
1854	 0.308803305848435 
1855	-1.88680482817137 
1856	 0.480336247722412 
1857	 0.40494068023206 
1858	 0.719731179152816 
1859	-3.52853330192439 
1860	-0.556829698118618 
1861	-2.21206133282263 
1862	 1.91254823196244 
1863	 0.269783758121507 
1864	 0.541912100259936 
1865	 0.855402017204907 
1866	 6.25233668166377 
1867	-14.4442248592687 
1868	-5.47062451848651 
1869	-5.79488550152085 
1870	 1593.5506797467 
1871	 7.7973913196836 
1872	 1.06707269090516 
1873	 0.709553283697381 
1874	 1.12909786695488 
1875	 0.62971286011098 
1876	 0.174094752627 
1877	-0.231952878134967 
1878	-9.52018269264668E-02 
1879	 1.33242896612405 
1880	 1.39992972658124 
1881	 6.00981298388102 
1882	-5.76445769708405 
1883	-2.65110417930608 
1884	-2.76735645863656 
1885	-1.84319663496729 
1886	-1.87968288947909 
1887	-0.740422445174123 
1888	 0.21488140442842 
1889	 0.278520320604407 
1890	 0.121587975960382 
1891	 4.34145817305946E-02 
1892	-0.057303164677297 
1893	-1.33226856957185 
1894	-2.70385084602098 
1895	-2.70869858044465 
1896	-1.70663418973327 
1897	-1.41505762066843 
1898	-2.79777238817415 
1899	-3.19263806852679 
1900	-4.71755040102298 
1901	 7.10391153319087 
1902	 4.87080003834725 
1903	 5.85065527625592 
1904	 8.73644822210898 
1905	-6.90643178485406 
1906	-2.4720270503 
1907	-2.99907204319135 
1908	-2.1572561350444 
1909	-1.13645592160628 
1910	-1.05957319804196 
1911	-1.10321404168444 
1912	-0.649781586034856 
1913	-0.459701500514402 
1914	-0.410748340331997 
1915	-0.405637277980993 
1916	-0.173049986135001 
1917	 0.218024399993599 
1918	 0.378790790025565 
1919	 0.250440075266981 
1920	 0.287832284019983 
1921	 1.25582198882913 
1922	 3.10815268972018 
1923	-1.7370925384001 
1924	 0.208241457168841 
1925	 1.17425891813004 
1926	 4.53175774198578 
1927	 2.59445954499569 
1928	-0.668176695161308 
1929	 0.204961166466591 
1930	 0.289554649901866 
1931	 7.96754770143889E-02 
1932	 0.698770848897562 
1933	 1.06666679199499 
1934	 1.34234915179166 
1935	 1.46754660935492 
1936	 1.59335727940563 
1937	 2.24661757995016 
1938	 2.64244338649134 
1939	 2.54563039067156 
1940	 2.77907265222248 
1941	 1.24593931480817 
1942	 0.42243082173217 
1943	 1.28919244648075 
1944	 0.317800658327879 
1945	-0.979908351481046 
1946	-1.07364950237753 
1947	-1.58109789385356 
1948	-1.89384185100089 
1949	-3.94563282840461 
1950	-5.2692548306802 
1951	-4.09837505435946 
1952	-4.38350631800596 
1953	-3.73420331346362 
1954	-1.59001201921239 
1955	-1.53662968136516 
1956	-8.51111455799698 
1957	 4.05080714051299 
1958	 0.508966957153907 
1959	 0.231652034758232 
1960	 0.509798378746792 
1961	 0.460631970062907 
1962	 0.446895070762163 
1963	 0.950102689631412 
1964	 1.38679431187532 
1965	 2.5688439342259 
1966	 5.39737667904854 
1967	 1.39013802271977 
1968	-0.67013423973855 
1969	-0.227272568080264 
1970	-0.512477545435756 
1971	-1.31963690283438 
1972	-1.00729601433289 
1973	-0.717072629743013 
1974	-1.87677938104177 
1975	-2.52364609863297 
1976	-7.32162099519994 
1977	 6.78597989145843 
1978	 0.866683296633673 
1979	 0.759927273697899 
1980	 1.1231270182639 
1981	 1.235538888073 
1982	 1.65098967093782 
1983	 237.235044646877 
1984	-0.589730510190736 
1985	 1.48488833651614 
1986	 2.84458377952844 
1987	 0.994000646601582 
1988	 0.90662416117169 
1989	 0.703795412984461 
1990	 0.450058960549576 
1991	 0.434036932441382 
1992	 0.185705468767046 
1993	-6.52973187097993E-02 
1994	-0.298778825462619 
1995	-35.0498919599731 
1996	 2.32334262002052 
1997	-2.18472180800658 
1998	-1.82398464114769 
1999	 3.78590952004255 
2000	 2.73847047817249E-02 
2001	-5.22538769203442 
2002	-7.3273472499784 
2003	-1.14757863031168 
2004	-0.734234380209623 
2005	-0.589594216965141 
2006	-9.03852654027097E-02 
2007	 0.15207462892966 
2008	 0.334516053819129 
2009	 0.442843087604271 
2010	 0.37722874116062 
2011	 0.158786250992491 
2012	-4.32387883798291 
2013	 1.95350960296318 
2014	 5.81146503880391 
2015	 3.34772793399496 
2016	 1.03322222311885 
2017	 0.481793229141515 
2018	-0.528779763107895 
2019	-0.405128033742469 
2020	 0.323509125326144 
2021	 0.847362927052553 
2022	 2.96646629662613 
2023	 4.79227270367166 
2024	 4.62406833639568 
2025	 3.28974008602056 
2026	 3.66879782644993 
2027	 4.11480722069695 
2028	 2.55360282739767 
2029	 1.61378595031295 
2030	 1.01843312162864 
2031	 0.872926691706999 
2032	 3.15785726938252E-02 
2033	-0.208963502033167 
2034	-0.196670608761484 
2035	-0.679859864143001 
2036	-0.576744761600011 
2037	 0.508650313451549 
2038	 0.61095904930015 
2039	 0.680897102873839 
2040	 0.512040988871352 
2041	 0.542153308287837 
2042	 0.505532479056622 
2043	 0.605310437220187 
2044	 1.09228007852462 
2045	 3.11874005955202 
2046	-7.99222798138115 
2047	 8.72076017750765 
2048	 1.56604405525952 
2049	 0.733503669115815 
2050	 0.327041311298388 
2051	 0.290747375501486 
2052	 0.236320277908058 
2053	-9.66703771834416E-02 
2054	 2.90084093490477E-03 
2055	 0.348793035154683 
2056	 0.432260174375172 
2057	 0.791238049620506 
2058	 0.849072840572144 
2059	-0.136296530216253 
2060	-0.623083810660576 
2061	-0.75675354446021 
2062	-0.763770924256407 
2063	-0.43989904180404 
2064	 0.384465592920802 
2065	 1.41884197248308 
2066	 14.4261591172179 
2067	 5.19203622664089 
2068	 0.406729623015979 
2069	-0.203483410302735 
2070	-0.231516113180722 
2071	-1.5112323596834E-03 
2072	 1.94908668274807E-02 
2073	-6.37442199575006E-03 
2074	 0.155751980482816 
2075	 0.144664262138878 
2076	-0.332521433625473 
2077	-0.43749978442031 
2078	-0.249132671102198 
2079	-0.241149200265704 
2080	-0.162141180073965 
2081	-5.21967958191557E-02 
2082	-0.304303904333275 
2083	-0.614896890739797 
2084	-0.237692905702469 
2085	 0.162752161097702 
2086	 0.314139434984916 
2087	 0.616161336182957 
2088	 0.64765135623814 
2089	 0.185890709290627 
2090	 0.154894906459786 
2091	 6.68215072122375E-02 
2092	-0.102254242179977 
2093	 4.77365360797742E-02 
2094	 7.23584514189683E-02 
2095	 1.45128287045268E-02 
2096	 5.79974538624756E-02 
2097	 0.115740849317175 
2098	 0.103921249949603 
2099	 0.115009860561513 
2100	 6.82852621196245E-02 
2101	-0.066783469746025 
2102	 5.41355705456617E-02 
2103	-6.92163265258541E-02 
2104	-9.61449205332373E-02 
2105	 3.29231518984354E-02 
2106	-4.53752610818219E-02 
2107	 9.69205485302446E-02 
2108	 0.127864245075479 
2109	 2.13576546343963E-03 
2110	-0.06705768215546 
2111	-0.114887300465225 
2112	-3.97874011445318E-02 
2113	-1.48893354948166E-02 
2114	 0.107771998176046 
2115	 0.196405565797807 
2116	 0.154002806134375 
2117	 0.159232361026645 
2118	 0.215177765519123 
2119	 0.242484011699253 
2120	 0.274614801654831 
2121	 0.190497279874693 
2122	 0.291529402784206 
2123	 0.382755646433621 
2124	 0.407644350428783 
2125	 0.748542910467715 
2126	 0.628138019416684 
2127	 0.332828095783079 
2128	 0.638233096569061 
2129	 0.567935224296622 
2130	 0.450599480989047 
2131	 0.468883527419314 
2132	 0.347854472134405 
2133	 0.160249368339831 
2134	 5.36436187481725E-02 
2135	 6.65379874730186E-02 
2136	-1.61764414237144E-03 
2137	-0.130878946538589 
2138	-0.163058902522184 
2139	-0.1845773658467 
2140	-0.168398940702328 
2141	-4.56517313438739E-02 
2142	 9.74830364133299E-03 
2143	 3.59891802643469E-02 
2144	 0.065377943994832 
2145	 0.161139700546454 
2146	 0.224451001497013 
2147	 0.247003029647903 
2148	 0.304554833422302 
2149	 0.366329209969572 
2150	 0.44854948676941 
2151	 0.523605184679112 
2152	 0.481321298238834 
2153	 0.456429004462444 
2154	 0.38792126294156 
2155	 0.259528531082286 
2156	 0.147261174513738 
2157	 0.081903125015908 
2158	-5.61363353445368E-03 
2159	-5.97938326524533E-02 
2160	-6.37164510363486E-02 
2161	-0.034665289367777 
2162	-0.02299768297286 
2163	 1.99254513318066E-02 
2164	 0.227626653490394 
2165	 0.285605488550794 
2166	 0.240056217184076 
2167	 0.229719170174731 
2168	 0.142110741527738 
2169	 5.15910050040353E-02 
2170	-8.50513557332052E-02 
2171	-0.208985859142302 
2172	-0.441416363365093 
2173	-0.532615048496773 
2174	-0.3158620680855 
2175	-0.308196436549097 
2176	-0.115697489930042 
2177	 4.71675518022892E-02 
2178	-5.83230329038696E-02 
2179	-9.0058461148819E-03 
2180	 4.52872424493415E-02 
2181	-5.31775697386023E-02 
2182	-3.85948872562964E-03 
2183	 1.82313488223963E-02 
2184	 2.66996912009814E-02 
2185	 0.212735748538535 
2186	 0.304636385984903 
2187	 0.339743890487699 
2188	 0.367596001153902 
2189	 0.418534358035571 
2190	 0.349286401577951 
2191	 0.135077595670024 
2192	 9.59242251696026E-02 
2193	 0.152012316526539 
2194	 0.145326372916017 
2195	 0.173308048049341 
2196	 0.177089461315132 
2197	 6.61173955265704E-02 
2198	 3.08705169185753E-02 
2199	 4.97901427933494E-03 
2200	 0.114717408795796 
2201	 0.170740174193529 
2202	 0.272376783822312 
2203	 6.42846792012524E-02 
2204	-0.133561276192497 
2205	 9.39549381797489E-02 
2206	 3.80081524759673E-02 
2207	 0.200183454158527 
2208	 0.431159657331827 
2209	 5.54537314106654E-02 
2210	-0.26336380594806 
2211	-0.146162457013925 
2212	-0.169890520289017 
2213	-3.99276211810334E-02 
2214	 0.232760061240562 
2215	 0.327602792886855 
2216	 0.422496495859681 
2217	 0.3464522893652 
2218	 0.162299017982466 
2219	 0.104685760313612 
2220	-6.12011271288982E-02 
2221	-0.173994928862511 
2222	-0.409683947103027 
2223	-0.538708651496189 
2224	-0.473651635754297 
2225	-0.388901066913374 
2226	-0.175692521634486 
2227	-0.042912540167686 
2228	-2.98247525702473E-03 
2229	 7.32474413588956E-02 
2230	 0.364111398096168 
2231	 0.431368096307942 
2232	 0.519883449774814 
2233	 0.427429909631612 
2234	-9.11719871096315E-02 
2235	-0.43040223395012 
2236	-0.428274741496006 
2237	-0.365233540051704 
2238	-0.233863199145514 
2239	-4.46637995646525E-02 
2240	 0.104555268418897 
2241	 0.155798899208367 
2242	 6.64792564771528E-02 
2243	 0.107691377372955 
2244	 0.280720132833006 
2245	 0.405320946450327 
2246	 0.554947414897214 
2247	 0.294838664918326 
2248	 1.73384940562178E-02 
2249	 1.90333298671309E-02 
2250	-4.08184761238219E-02 
2251	 1.21228892680339E-02 
2252	 0.188268931809686 
2253	 0.48585300917882 
2254	 0.523932216348236 
2255	 0.694160992351938 
2256	 0.882061517049587 
2257	 0.142291062489664 
2258	 3.11837572929204E-02 
2259	 2.81101365713995E-02 
2260	-2.11583605467814E-02 
2261	-8.32433079062131E-02 
2262	-0.09416836211056 
2263	-0.166758547967093 
2264	-0.201257263578948 
2265	-0.348062470199839 
2266	 0.186910547161183 
2267	 1.88054424412686 
2268	 1.91683745509115 
2269	 0.960849101724818 
2270	 0.451277958808155 
2271	 0.057411407028156 
2272	-2.50546765335619E-02 
2273	 0.182992253545679 
2274	 0.182097387967212 
2275	-0.077791151778928 
2276	-0.205832428623664 
2277	 5.53029679914149E-02 
2278	-9.62212427254951E-02 
2279	-0.691790832712247 
2280	-0.988000920224148 
2281	-1.5642589180462 
2282	-2.63247124534843 
2283	-1.01628507401775 
2284	-4.11490620409934E-02 
2285	 0.445461428402302 
2286	 1.22428378570277 
2287	-7.04429359342908 
2288	-1.31091203209608 
2289	-1.800817802607 
2290	-1.55850511253008 
2291	 2.36317800701807 
2292	 0.8391423422649 
2293	 0.763790181593914 
2294	-0.275565138522874 
2295	-0.467434866825243 
2296	-3.4967987224385 
2297	-1.25268837652855 
2298	-0.979518006242241 
2299	 2.9393422328817 
2300	 0.595461177601737 
2301	-2.49157560506917E-03 
2302	-1.12430667033568 
2303	 1.38773609598997 
2304	 0.492076957340663 
2305	 0.537954815283695 
2306	-0.371401668835715 
2307	-1.70723058359421 
2308	 72.9432129249527 
2309	-27.107788391748 
2310	-14.0276590474424 
2311	 1.52433048817393 
2312	-1.26999723800475 
2313	-1.2131601200316 
2314	-2.15467512411694 
2315	-8.64586190535583 
2316	-15.5959257555343 
2317	-8.76244783979054 
2318	-4.40579967688017 
2319	-10.2355281799871 
2320	 8.50690834763203 
2321	 21.291353648214 
2322	 1.44650371956359 
2323	 2.35680349438958 
2324	-38.7366468935739 
2325	-1.68307337433483 
2326	-8.16772966999077E-02 
2327	 0.436346006337405 
2328	 0.47586229492147 
2329	 0.322447704959767 
2330	 7.92974110535107E-02 
2331	-0.195843054565667 
2332	-1.20718976654847 
2333	-2.98797675429233 
2334	-2.98760452654956 
2335	-1.65884270888173 
2336	-1.00804434110319 
2337	-0.607280341932823 
2338	 0.539908286686526 
2339	-2.06551672603265 
2340	 1.46082572600148 
2341	-2.73103993017146E-02 
2342	-1.55713706805094 
2343	-2.19746713589303 
2344	 1.50016022467186 
2345	 0.522231971142231 
2346	 1.38805003080473 
2347	 1.96572270396119 
2348	 1.26307087158513 
2349	 0.924392019610037 
2350	 0.814214244595597 
2351	 0.515144915091164 
2352	 0.123114150302365 
2353	 0.419723987057972 
2354	 1.41782875830155 
2355	 1176.24456953801 
2356	-1.36541260467125 
2357	 18.0672954723289 
2358	 1.54141428899292 
2359	 0.810706715167693 
2360	 1.34583202349916 
2361	 1.52098620111229 
2362	 7.50179411825871 
2363	-15.3323973260917 
2364	 1.15821589400162 
2365	 0.744711632982954 
2366	 0.570528049358095 
2367	 0.519615541079007 
2368	 0.621018358252775 
2369	 0.478135140529723 
2370	 0.389747537082097 
2371	 0.51886429343182 
2372	 0.225932145949279 
2373	-0.122836724581231 
2374	 0.477613577505232 
2375	 0.392544667723609 
2376	 0.653459914505935 
2377	 0.687997483042295 
2378	-0.799594799822747 
2379	-2.00705348537055 
2380	-1.16987943721976 
2381	 7.14625183500194E-02 
2382	 0.396579593439691 
2383	 0.576528560717152 
2384	 0.229951295541645 
2385	-0.192386629473787 
2386	-0.42737179381672 
2387	-0.498203234284759 
2388	-1.36408026580247 
2389	 3.65295775231906 
2390	 2.58435381665452 
2391	 2.37406637540805 
2392	 0.56589304281385 
2393	 0.990630395240728 
2394	 4.03555802989688 
2395	-1.41886022569539 
2396	-0.110178127671736 
2397	 0.282816717791392 
2398	 0.709723332328041 
2399	 1.07950787600538 
2400	 1.25060779248592 
2401	 0.988117026086554 
2402	 0.854933216620855 
2403	 0.634642482942326 
2404	-2.93822056348002E-02 
2405	-0.767301958338486 
2406	-1.00033205094879 
2407	-1.10172301796837 
2408	-1.135844147744 
2409	-1.34440205830204 
2410	-0.890599459092627 
2411	-3.00134545894882E-02 
2412	 9.18064566362006E-02 
2413	 0.546829291340536 
2414	 0.631847700405142 
2415	 0.32023403249949 
2416	 0.165813261419935 
2417	 1.43290415056385E-02 
2418	-0.442656809064267 
2419	-1.66822680079694 
2420	-2.76023061019768 
2421	-6.18327900821193 
2422	-3.27716727297406 
2423	-2.26103385169444 
2424	-4.2949649691084 
2425	 2.32068408490139 
2426	 1.96795712201889 
2427	 7.89642309949465 
2428	-0.351703558350438 
2429	 0.108769365224242 
2430	-0.167661800391303 
2431	-0.745121161270014 
2432	-1.54428252119924 
2433	 1.70141987662753 
2434	-0.341907241661842 
2435	-1.75855662877758 
2436	-1.0916096452289 
2437	 0.292099203822402 
2438	 0.402885653939442 
2439	-0.210667335805338 
2440	-0.697741238257558 
2441	-0.341835858474958 
2442	 0.214132262884585 
2443	 0.457854353794186 
2444	 1.02888081165965 
2445	 1.53742434589779 
2446	-0.261769230989989 
2447	-0.508629491899491 
2448	-1.73397984391294 
2449	 4.19454421501107 
2450	 3.79570832654263 
2451	 5.44006261343818 
2452	 2.41501138126401 
2453	 1.89912452625822 
2454	 1.25944904693639 
2455	-1.72211522944578 
2456	 2.93270006032948 
2457	 1.22409268177705 
2458	-0.251463282710657 
2459	-4.71296660023731 
2460	 2.31943598254623 
2461	 1.05377883903523 
2462	 0.408665194601585 
2463	 0.295244547534299 
2464	 1.07329278204529 
2465	 1.17190322370202 
2466	 0.927624468689546 
2467	 0.812226439862371 
2468	 0.672596477007717 
2469	 2.04544283721737 
2470	 0.702524508003332 
2471	 0.187170153791104 
2472	-0.145585612226213 
2473	-1.51080290349725 
2474	-2.55311438446878 
2475	-1.4696899688227 
2476	-2.85915709441743 
2477	-3.59846414540462 
2478	 4.3801024679632 
2479	 0.809360698484136 
2480	 0.339140852202202 
2481	 9.99623915221412E-02 
2482	-0.743498550839058 
2483	-0.874457592367854 
2484	-0.848667832172997 
2485	-1.29940771048618 
2486	-0.771283276594454 
2487	-0.789532836246227 
2488	-0.889665860379296 
2489	-0.783077552943995 
2490	-0.427603072474213 
2491	-3.62632798519982E-02 
2492	-4.27087354273335E-02 
2493	-0.477925583812521 
2494	-0.388735499125258 
2495	 5.46169131175388E-02 
2496	 0.118342696788525 
2497	 0.072254679395964 
2498	-0.520149595902596 
2499	-0.942629254377948 
2500	-0.100753070677622 
