Wavelength	rt0707close00003.asd
350	 8.15213238488547E-02 
351	 8.17647294111801E-02 
352	 8.25681662136457E-02 
353	 8.27295944952199E-02 
354	 8.17118888527795E-02 
355	 8.07005200000874E-02 
356	 8.18274974604989E-02 
357	 8.32795026140276E-02 
358	 8.28413996805795E-02 
359	 8.23893992107974E-02 
360	 0.082021823998412 
361	 8.18195094903264E-02 
362	 8.18885189048201E-02 
363	 8.27051209284337E-02 
364	 8.26452671146607E-02 
365	 8.18825055892521E-02 
366	 8.36623010606571E-02 
367	 8.35998571293686E-02 
368	 8.27147483778336E-02 
369	 8.28981948419322E-02 
370	 8.37817103741107E-02 
371	 0.083934816467599 
372	 8.34397137062756E-02 
373	 8.32855255683862E-02 
374	 0.083387827770999 
375	 8.41165757349492E-02 
376	 8.48631097589801E-02 
377	 8.37570420226696E-02 
378	 8.44268806191284E-02 
379	 8.54692687431248E-02 
380	 8.52390844297769E-02 
381	 8.52874128181254E-02 
382	 8.58618139972737E-02 
383	 8.65045131979949E-02 
384	 8.64806770003957E-02 
385	 8.59297614483036E-02 
386	 8.62190086812897E-02 
387	 8.74997118412763E-02 
388	 8.84534506285565E-02 
389	 0.0874945917154 
390	 8.63018269754384E-02 
391	 0.086492211049765 
392	 8.80245763941046E-02 
393	 8.88987483762977E-02 
394	 8.88680116852876E-02 
395	 8.85452549543455E-02 
396	 8.86311869004435E-02 
397	 8.91566357501195E-02 
398	 8.98159628608209E-02 
399	 9.01229195917313E-02 
400	 9.03817472231329E-02 
401	 9.04667134591152E-02 
402	 9.02773262752763E-02 
403	 8.97691420710481E-02 
404	 9.01733053733927E-02 
405	 9.09454525982121E-02 
406	 9.10811411979513E-02 
407	 9.11804134626876E-02 
408	 9.17076274410411E-02 
409	 9.23933463101607E-02 
410	 9.23341100524012E-02 
411	 9.22421685636967E-02 
412	 9.26019555808892E-02 
413	 9.33701020179028E-02 
414	 9.33870133983422E-02 
415	 9.34576855881231E-02 
416	 9.37286545061262E-02 
417	 9.40509202402185E-02 
418	 0.094203495670667 
419	 9.43631759232143E-02 
420	 9.47916857218324E-02 
421	 9.57669235858822E-02 
422	 9.58816817965946E-02 
423	 9.60033254844985E-02 
424	 9.68449129828008E-02 
425	 9.73296700301544E-02 
426	 0.097659185251648 
427	 9.81452711128012E-02 
428	 9.90133104141242E-02 
429	 0.099335748370834 
430	 9.99370218250221E-02 
431	 0.100941784525143 
432	 0.101485792023597 
433	 0.101752140053921 
434	 0.102073373105217 
435	 0.1026364615238 
436	 0.103079547864705 
437	 0.103621298875996 
438	 0.104283409507596 
439	 0.104949676753497 
440	 0.105335602551063 
441	 0.105921117891104 
442	 0.106702174127989 
443	 0.106833624358864 
444	 0.107402085580595 
445	 0.10816452312286 
446	 0.108652898357927 
447	 0.109050067951771 
448	 0.109440116755356 
449	 0.109881959908336 
450	 0.110394108108534 
451	 0.110750476656159 
452	 0.111088814614578 
453	 0.111486139331641 
454	 0.111750974592727 
455	 0.112382082761115 
456	 0.112942136823123 
457	 0.112906587468355 
458	 0.113217789819546 
459	 0.113531015501563 
460	 0.113828613952322 
461	 0.114450348802894 
462	 0.114724083281687 
463	 0.114920011869189 
464	 0.115318369642327 
465	 0.115691962148702 
466	 0.115969014808888 
467	 0.116249444250441 
468	 0.116694352068432 
469	 0.117187173367233 
470	 0.117487304948465 
471	 0.11758553103008 
472	 0.117786508028594 
473	 0.118011133742923 
474	 0.118303266576051 
475	 0.118704168297971 
476	 0.119163106018073 
477	 0.119697760227818 
478	 0.12016783635154 
479	 0.120387370502441 
480	 0.120886917132183 
481	 0.121423561418161 
482	 0.121793004972755 
483	 0.12207040937048 
484	 0.122397074887338 
485	 0.122900116547875 
486	 0.123592510535141 
487	 0.123988818701308 
488	 0.124585054590772 
489	 0.125277976655617 
490	 0.125392176042177 
491	 0.125730849179782 
492	 0.126411978467336 
493	 0.127240083562493 
494	 0.127540302762653 
495	 0.128130127633321 
496	 0.128908139801295 
497	 0.129381791862574 
498	 0.130060324922336 
499	 0.130697955275689 
500	 0.131163528451946 
501	 0.131612621320019 
502	 0.132168874890819 
503	 0.13294875553814 
504	 0.1338687771786 
505	 0.134103039049017 
506	 0.134526508518493 
507	 0.135315570857092 
508	 0.13604721999591 
509	 0.13651998102632 
510	 0.137185873441377 
511	 0.138170816375745 
512	 0.138600799611737 
513	 0.138867390963218 
514	 0.139422278430958 
515	 0.140578424991047 
516	 0.141344433383797 
517	 0.142021505046203 
518	 0.142777108024672 
519	 0.143468131862439 
520	 0.144415640801433 
521	 0.145225154572394 
522	 0.145649944531456 
523	 0.146498232734304 
524	 0.147397427753245 
525	 0.148238591531182 
526	 0.149094180336823 
527	 0.149726943397576 
528	 0.150555193165139 
529	 0.151668737895109 
530	 0.152332087377871 
531	 0.153054058152369 
532	 0.153945216406403 
533	 0.154957669727475 
534	 0.156058307013753 
535	 0.156806063531388 
536	 0.157305904970075 
537	 0.158278429693401 
538	 0.159168805674956 
539	 0.160044086275598 
540	 0.161017673043569 
541	 0.161849733191081 
542	 0.162818649906283 
543	 0.163847448874735 
544	 0.164675341752019 
545	 0.165604661036019 
546	 0.166445619552409 
547	 0.167134056169519 
548	 0.167961105312276 
549	 0.168833893779029 
550	 0.169700724371252 
551	 0.170539965456674 
552	 0.171426623643042 
553	 0.172480021858864 
554	 0.173529009420571 
555	 0.174088619042183 
556	 0.174949968590131 
557	 0.176018310136487 
558	 0.176997329445571 
559	 0.177715130483056 
560	 0.178506549639218 
561	 0.179343128349542 
562	 0.180021187695231 
563	 0.18107403632834 
564	 0.181919048183271 
565	 0.182305119406348 
566	 0.182883980225954 
567	 0.183682718748496 
568	 0.18437180221265 
569	 0.184648637870454 
570	 0.1853408775439 
571	 0.185891907081968 
572	 0.18624354551312 
573	 0.186939916366498 
574	 0.187388611118561 
575	 0.187598465090258 
576	 0.18774353888767 
577	 0.188057436702641 
578	 0.18829721067645 
579	 0.188444605469979 
580	 0.188611908646917 
581	 0.188707151635259 
582	 0.188776265022469 
583	 0.188806389628277 
584	 0.188636444382557 
585	 0.188467351405547 
586	 0.188315005585591 
587	 0.188117660865382 
588	 0.187794086843266 
589	 0.187551083095528 
590	 0.187383009342842 
591	 0.187020802708178 
592	 0.186491638314543 
593	 0.185919509323291 
594	 0.185366268952732 
595	 0.184637442640761 
596	 0.183499294545043 
597	 0.182146422717512 
598	 0.181000931388832 
599	 0.179997473448106 
600	 0.178995585501607 
601	 0.178058416249166 
602	 0.177626986573627 
603	 0.177281299493478 
604	 0.176995365379853 
605	 0.176851190665624 
606	 0.176762855912155 
607	 0.176899201514777 
608	 0.17715338123008 
609	 0.17714090917793 
610	 0.177206111466374 
611	 0.177160835795999 
612	 0.17691344440754 
613	 0.176968971023121 
614	 0.177103557878662 
615	 0.177194077447742 
616	 0.17718668698289 
617	 0.177183445707549 
618	 0.177189526386588 
619	 0.177248771969891 
620	 0.177511185689822 
621	 0.177369599370716 
622	 0.177087384446678 
623	 0.177090245795901 
624	 0.177019514161304 
625	 0.177037822519354 
626	 0.17726049736429 
627	 0.177686025148233 
628	 0.177188858982518 
629	 0.176661588634923 
630	 0.176819890722045 
631	 0.17686586107884 
632	 0.1770407345829 
633	 0.177249373336998 
634	 0.177250969195896 
635	 0.176860677705665 
636	 0.176656109392987 
637	 0.176811595343796 
638	 0.176838494603809 
639	 0.176740427033234 
640	 0.176591784180284 
641	 0.176459223708149 
642	 0.176159787780894 
643	 0.176214568067395 
644	 0.176383473506517 
645	 0.175856463737668 
646	 0.17580197958385 
647	 0.175716195194245 
648	 0.175263446746898 
649	 0.175286563257308 
650	 0.17499961507012 
651	 0.174431816201321 
652	 0.173903806423257 
653	 0.173267590953328 
654	 0.17271009969439 
655	 0.172178749889743 
656	 0.171342908311989 
657	 0.170563576855143 
658	 0.169936201772672 
659	 0.169417765011378 
660	 0.168772219254896 
661	 0.168587658450861 
662	 0.168529395504663 
663	 0.167836217992292 
664	 0.167728785478375 
665	 0.167918491463148 
666	 0.16795770752057 
667	 0.167449286748061 
668	 0.167037051976586 
669	 0.166934591392691 
670	 0.167135851554441 
671	 0.167428164443475 
672	 0.167225903397583 
673	 0.1667410006007 
674	 0.166887827237096 
675	 0.167108437477751 
676	 0.167155905564219 
677	 0.16701137836806 
678	 0.16709488877495 
679	 0.167050515315392 
680	 0.166848778399424 
681	 0.166647934683269 
682	 0.166781372469223 
683	 0.166877885966062 
684	 0.166799970862202 
685	 0.166802120554959 
686	 0.166355107263751 
687	 0.16570872846199 
688	 0.165336867061328 
689	 0.165226284206472 
690	 0.164726227226201 
691	 0.164061214373224 
692	 0.163915219564505 
693	 0.163283964161448 
694	 0.162234027218371 
695	 0.161092144878756 
696	 0.160058377209608 
697	 0.159134290520859 
698	 0.158048419919421 
699	 0.1566849535355 
700	 0.155711528370842 
701	 0.154263302655263 
702	 0.152473219818313 
703	 0.151168136705473 
704	 0.150103415717007 
705	 0.148678291928184 
706	 0.146747962523054 
707	 0.14511389569361 
708	 0.143294987152736 
709	 0.14125985221456 
710	 0.139124836507814 
711	 0.136822630566929 
712	 0.134446307817443 
713	 0.132042299735545 
714	 0.129528227615412 
715	 0.127057835969795 
716	 0.124672776442526 
717	 0.122516588982636 
718	 0.119399043539593 
719	 0.11585126366027 
720	 0.113074430278347 
721	 0.11098837227309 
722	 0.108865839688174 
723	 0.106371020422815 
724	 0.103681479423879 
725	 0.100648874830139 
726	 0.097955188919682 
727	 9.51699531046557E-02 
728	 9.19404777425305E-02 
729	 8.88137604472924E-02 
730	 8.55820105554235E-02 
731	 8.24778415851841E-02 
732	 7.96496935371894E-02 
733	 0.077761635528147 
734	 7.61970188842569E-02 
735	 7.46995671361829E-02 
736	 7.34712380424459E-02 
737	 7.21486313733548E-02 
738	 7.10474044624912E-02 
739	 7.04850342353805E-02 
740	 7.02860379021116E-02 
741	 7.02065762364079E-02 
742	 0.070005012227138 
743	 6.95424018056419E-02 
744	 6.93327269568789E-02 
745	 6.92607247255403E-02 
746	 6.92315186929307E-02 
747	 6.92672866917629E-02 
748	 6.90013580447957E-02 
749	 6.87189986473503E-02 
750	 6.87120489869276E-02 
751	 6.87218253345929E-02 
752	 6.85624706017525E-02 
753	 6.84339543186879E-02 
754	 6.86377275753645E-02 
755	 6.83915757466751E-02 
756	 6.82356656823034E-02 
757	 0.068340420998571 
758	 6.81209577213891E-02 
759	 6.78552993819842E-02 
760	 6.79114854354065E-02 
761	 6.84009531936421E-02 
762	 6.88257837051284E-02 
763	 0.069210768079632 
764	 6.92014363413953E-02 
765	 6.87447274440651E-02 
766	 6.89602490944492E-02 
767	 6.91747501647752E-02 
768	 6.90919044478676E-02 
769	 0.068758440401243 
770	 6.91001544993665E-02 
771	 0.069420716823461 
772	 6.92365692989318E-02 
773	 6.95606458032079E-02 
774	 6.99535458634021E-02 
775	 7.02097206655302E-02 
776	 0.0702608402118 
777	 7.02014459427393E-02 
778	 7.04934908697143E-02 
779	 7.11333395530716E-02 
780	 7.16137342273414E-02 
781	 7.14335789923894E-02 
782	 7.17570866062733E-02 
783	 0.072926174776006 
784	 7.26617890073854E-02 
785	 7.29781431191456E-02 
786	 0.073680295705958 
787	 7.39864774051354E-02 
788	 7.46736051002684E-02 
789	 7.52381568523518E-02 
790	 7.55521953833152E-02 
791	 7.58793521660465E-02 
792	 7.64167904157223E-02 
793	 7.70551408569035E-02 
794	 7.76553405081322E-02 
795	 7.80681618205196E-02 
796	 0.078527497734143 
797	 0.078989757251208 
798	 7.93766709541356E-02 
799	 7.96598043674187E-02 
800	 8.01959833801339E-02 
801	 8.07631333378336E-02 
802	 8.08919847320297E-02 
803	 8.09424845648036E-02 
804	 8.13111757982695E-02 
805	 8.17340265704812E-02 
806	 8.13250359438051E-02 
807	 8.10960459903442E-02 
808	 8.12714976397252E-02 
809	 8.17534336658809E-02 
810	 0.082050713046245 
811	 8.19403463719738E-02 
812	 8.20017329209116E-02 
813	 0.082767327233793 
814	 8.14394595295387E-02 
815	 8.04623406934305E-02 
816	 8.01631812292276E-02 
817	 7.88746418935214E-02 
818	 7.79206033503919E-02 
819	 7.75401584526716E-02 
820	 7.72291083095643E-02 
821	 7.57945265841305E-02 
822	 7.44386017861707E-02 
823	 7.32222402807103E-02 
824	 7.18043997576991E-02 
825	 6.94700600104667E-02 
826	 6.72385357741466E-02 
827	 6.56583248242398E-02 
828	 6.48684696408328E-02 
829	 6.30052443714813E-02 
830	 6.14944104021451E-02 
831	 6.04097256234277E-02 
832	 5.89312988189263E-02 
833	 5.81947612085245E-02 
834	 5.76879809846671E-02 
835	 5.71437049066647E-02 
836	 5.68530730362995E-02 
837	 5.63495718366791E-02 
838	 5.59075872908564E-02 
839	 5.58096191681056E-02 
840	 5.60500270478274E-02 
841	 5.56932383191656E-02 
842	 5.48892010477259E-02 
843	 5.42763205472164E-02 
844	 5.45396421161186E-02 
845	 5.46268132984844E-02 
846	 5.40977376177993E-02 
847	 5.31773251613798E-02 
848	 5.34710918287944E-02 
849	 0.053523901646258 
850	 5.30304552183273E-02 
851	 5.35067877650843E-02 
852	 5.30259222154362E-02 
853	 0.052328575150172 
854	 5.21950817166001E-02 
855	 5.22006354091713E-02 
856	 5.26168204659212E-02 
857	 5.26582482297603E-02 
858	 5.18510688784576E-02 
859	 5.17767147765679E-02 
860	 5.14421184288336E-02 
861	 5.10588239545243E-02 
862	 5.12684944918617E-02 
863	 5.14163880815674E-02 
864	 5.08350357979259E-02 
865	 4.99601368780718E-02 
866	 5.00675199376498E-02 
867	 5.00972250543475E-02 
868	 0.050134690765176 
869	 5.02198918346968E-02 
870	 5.01472226061413E-02 
871	 4.99760901472416E-02 
872	 0.049910293812396 
873	 4.98540802893039E-02 
874	 4.89658194647075E-02 
875	 0.048115931944435 
876	 4.82591605048061E-02 
877	 4.94795490187622E-02 
878	 4.89415918833975E-02 
879	 4.82852480572328E-02 
880	 4.79307436120528E-02 
881	 4.76661844355716E-02 
882	 4.74400029415753E-02 
883	 4.76282330608218E-02 
884	 4.75862912852665E-02 
885	 4.63576035662443E-02 
886	 4.73221745901919E-02 
887	 4.69879609352664E-02 
888	 4.53066601196234E-02 
889	 4.66036940924224E-02 
890	 4.60385001748446E-02 
891	 4.57669349071915E-02 
892	 0.04722800123883 
893	 4.78379354800646E-02 
894	 0.047420244916957 
895	 4.58989085815277E-02 
896	 4.42631302321108E-02 
897	 4.60510872836299E-02 
898	 0.047411649144433 
899	 4.73497863947514E-02 
900	 4.62725380043463E-02 
901	 0.044043636419891 
902	 4.36271638911695E-02 
903	 0.045436588882586 
904	 4.79281942183106E-02 
905	 4.54456552442391E-02 
906	 4.44953945656309E-02 
907	 4.50129514696272E-02 
908	 4.23212434613982E-02 
909	 4.12087459657978E-02 
910	 4.31838768571542E-02 
911	 4.52915218216481E-02 
912	 4.23699495900064E-02 
913	 4.33954055277996E-02 
914	 4.34483202539861E-02 
915	 4.23560828962659E-02 
916	 4.61626543613739E-02 
917	 4.61274509839373E-02 
918	 4.34911806783881E-02 
919	 4.19252351069833E-02 
920	 4.57453719698977E-02 
921	 4.40366531707546E-02 
922	 4.12273791680139E-02 
923	 0.041544003489227 
924	 0.042197466796654 
925	 4.26770001863765E-02 
926	 4.17743708752133E-02 
927	 3.93735953493599E-02 
928	 4.11595094537626E-02 
929	 3.64915253123822E-02 
930	 3.59087566850025E-02 
931	 5.81137700554699E-02 
932	 4.45914918565208E-02 
933	 3.54988745865203E-02 
934	 4.41828340471539E-02 
935	 5.03740282245485E-02 
936	 4.01047878114738E-02 
937	 2.35562387813653E-02 
938	 2.49550747678872E-02 
939	 4.86703226469839E-02 
940	 2.62866380488087E-02 
941	 1.59697993849994E-02 
942	 2.10401245531431E-02 
943	 1.82471079795491E-02 
944	 2.42032149359531E-02 
945	 0.031850621390616 
946	 3.73472027455624E-02 
947	 0.040695117439235 
948	 3.46656243507162E-02 
949	 4.36071399494999E-02 
950	 5.80877453286231E-02 
951	 5.40945259388787E-02 
952	 4.87966016200796E-02 
953	 4.23451080401302E-02 
954	 3.11165244506672E-02 
955	 1.52632179238196E-02 
956	 2.75019009498146E-02 
957	 3.96803233063466E-02 
958	 3.65716323485581E-02 
959	 2.10079039278678E-02 
960	 0.034359438230609 
961	 4.27497363525479E-02 
962	 3.73579719082951E-02 
963	 3.11602921018374E-02 
964	 4.13853648638357E-02 
965	 4.52877383105954E-02 
966	 4.19330604239761E-02 
967	 4.43171402664595E-02 
968	 4.64756172489329E-02 
969	 4.16044236549105E-02 
970	 3.56689695571141E-02 
971	 4.19021742627434E-02 
972	 3.97696282510333E-02 
973	 3.68825564732282E-02 
974	 3.66099090594937E-02 
975	 3.54079353051073E-02 
976	 3.66614430700401E-02 
977	 0.035611931018867 
978	 3.44935614108855E-02 
979	 0.039912445857636 
980	 4.29736152140236E-02 
981	 0.041435061301333 
982	 3.74723153793605E-02 
983	 0.035994087291222 
984	 0.040263246995557 
985	 3.86733271082627E-02 
986	 3.53963377658305E-02 
987	 4.29818504770535E-02 
988	 3.74089212363221E-02 
989	 3.21233084176202E-02 
990	 3.56896835995869E-02 
991	 4.64500411969697E-02 
992	 4.38391300010531E-02 
993	 0.038122760547833 
994	 3.54049846574222E-02 
995	 3.59126716223395E-02 
996	 3.73509143579295E-02 
997	 4.03137475833825E-02 
998	 0.043655212108937 
999	 4.52137383059238E-02 
1000	 4.46409036516873E-02 
1001	 3.36848365002685E-02 
1002	 3.51983438983896E-02 
1003	 3.59999438988136E-02 
1004	 3.69478696994937E-02 
1005	 3.68878977447535E-02 
1006	 3.61989363143577E-02 
1007	 3.60123282804476E-02 
1008	 3.48880721146335E-02 
1009	 3.52716660408619E-02 
1010	 3.64709633622996E-02 
1011	 3.70087665605597E-02 
1012	 3.87722752538704E-02 
1013	 3.99380519474136E-02 
1014	 4.05384077361389E-02 
1015	 0.041485130520467 
1016	 4.15445804583963E-02 
1017	 3.96333323175166E-02 
1018	 3.90408410296375E-02 
1019	 3.83865001381109E-02 
1020	 3.85268507106391E-02 
1021	 0.039014013738925 
1022	 4.08469721868624E-02 
1023	 4.36187185938723E-02 
1024	 4.38481807281502E-02 
1025	 4.35773328081713E-02 
1026	 4.25421550089769E-02 
1027	 4.10844817362155E-02 
1028	 3.76624682966838E-02 
1029	 3.65915722377108E-02 
1030	 3.60577081511774E-02 
1031	 3.65022003592395E-02 
1032	 3.88057910113257E-02 
1033	 3.93632569866324E-02 
1034	 3.96162805166916E-02 
1035	 3.95824763721174E-02 
1036	 3.82350587555086E-02 
1037	 3.83116146191139E-02 
1038	 3.91914981944564E-02 
1039	 4.02034358994405E-02 
1040	 0.040733000521259 
1041	 4.14224763802861E-02 
1042	 4.12320984698829E-02 
1043	 4.00089322821134E-02 
1044	 3.92860219571406E-02 
1045	 3.81988397281425E-02 
1046	 3.76085122073671E-02 
1047	 3.68564093122568E-02 
1048	 3.69327077372635E-02 
1049	 3.74364371679728E-02 
1050	 3.84155920660376E-02 
1051	 4.10276209129592E-02 
1052	 4.20429435318441E-02 
1053	 4.27457531045009E-02 
1054	 4.31690894351325E-02 
1055	 4.30832302759909E-02 
1056	 0.042076473042512 
1057	 4.05486380034327E-02 
1058	 3.81930886617114E-02 
1059	 3.73111820655848E-02 
1060	 3.55738253962033E-02 
1061	 3.55976016091373E-02 
1062	 3.78001835537295E-02 
1063	 0.03894123603771 
1064	 4.12376321004077E-02 
1065	 0.041260054578289 
1066	 3.96519372745008E-02 
1067	 3.90599542153357E-02 
1068	 3.61416702802157E-02 
1069	 3.57676898784474E-02 
1070	 3.91473790572958E-02 
1071	 3.99719926575719E-02 
1072	 0.040356539330451 
1073	 4.07420148305145E-02 
1074	 4.02900749532075E-02 
1075	 3.75026427663096E-02 
1076	 3.70027336789018E-02 
1077	 3.75353599594118E-02 
1078	 3.78747476715373E-02 
1079	 3.89944548572351E-02 
1080	 3.93586501869145E-02 
1081	 3.91848809460358E-02 
1082	 0.03942652252402 
1083	 3.98469835890591E-02 
1084	 3.99744992531683E-02 
1085	 4.06473899692193E-02 
1086	 4.06159926226393E-02 
1087	 3.86928560414996E-02 
1088	 3.83920479615203E-02 
1089	 3.88303801219118E-02 
1090	 3.98292649124304E-02 
1091	 3.97238481601981E-02 
1092	 3.99799087597876E-02 
1093	 0.040149871281986 
1094	 3.95375865319653E-02 
1095	 3.83441483418906E-02 
1096	 0.03659529399773 
1097	 3.72156638666219E-02 
1098	 3.91349437050557E-02 
1099	 0.038779463270127 
1100	 3.82448242219936E-02 
1101	 3.88514482815334E-02 
1102	 3.77077846365707E-02 
1103	 3.71308418491114E-02 
1104	 3.89715531075555E-02 
1105	 4.25535333713754E-02 
1106	 4.21138049124673E-02 
1107	 3.86184891542875E-02 
1108	 3.61389758074524E-02 
1109	 3.69010730817073E-02 
1110	 3.74275187296853E-02 
1111	 3.99372143111681E-02 
1112	 3.95372672484364E-02 
1113	 3.81486708868969E-02 
1114	 3.80283761267863E-02 
1115	 3.74703071696878E-02 
1116	 3.58595814058663E-02 
1117	 3.10817154706791E-02 
1118	 3.12426173946832E-02 
1119	 3.74453211854812E-02 
1120	 3.50034667638956E-02 
1121	 3.31135630418241E-02 
1122	 4.20782393621146E-02 
1123	 1.84324029103044E-02 
1124	-3.33454457620138E-02 
1125	-3.80471588686317E-02 
1126	-1.97290488287188E-02 
1127	-4.34632817709523E-02 
1128	-4.08391644249812E-02 
1129	-3.70088184969831E-02 
1130	-6.68218899178484E-02 
1131	-4.41518862825624E-02 
1132	 3.43478707361803E-02 
1133	 4.55936090046744E-02 
1134	 0.050520064008089 
1135	 5.07642404282612E-02 
1136	 2.70049547485244E-03 
1137	-1.42273036877006E-03 
1138	 1.64344849696742E-02 
1139	 3.78944568359871E-02 
1140	 0.03605706536041 
1141	 3.75490513832147E-02 
1142	 2.67632592284002E-02 
1143	 2.05511070959672E-02 
1144	 3.16104280498585E-02 
1145	 5.53850259153424E-02 
1146	 0.077038330695667 
1147	 5.61761375594737E-02 
1148	 2.47107777090304E-02 
1149	 0.012579627667622 
1150	 1.19850708712046E-02 
1151	 1.78882021427087E-02 
1152	 2.36592358462997E-02 
1153	 4.81574414959827E-02 
1154	 4.41896143597663E-02 
1155	 2.65130083665332E-02 
1156	 2.05422432176746E-02 
1157	 2.28074387703782E-02 
1158	 2.39726880822974E-02 
1159	 0.034733304963771 
1160	 4.47253797880241E-02 
1161	 0.042005412429219 
1162	 0.03675836739967 
1163	 3.75895049971019E-02 
1164	 3.93524376799197E-02 
1165	 3.87744826975237E-02 
1166	 3.83585663945631E-02 
1167	 3.70659578060209E-02 
1168	 3.59245859030337E-02 
1169	 3.70532583900524E-02 
1170	 3.98071168294269E-02 
1171	 4.06537929736823E-02 
1172	 0.039497893005512 
1173	 3.93391626278314E-02 
1174	 0.039022998739216 
1175	 3.88476695956675E-02 
1176	 4.00844727635215E-02 
1177	 3.94106279257742E-02 
1178	 3.49323618553459E-02 
1179	 3.37936280958363E-02 
1180	 3.55457557935602E-02 
1181	 0.037601337948105 
1182	 4.21641886468109E-02 
1183	 4.43557323010029E-02 
1184	 4.11031459662461E-02 
1185	 0.038502302345334 
1186	 3.82612087857058E-02 
1187	 3.83669209024022E-02 
1188	 3.73791102916593E-02 
1189	 3.64409694641789E-02 
1190	 3.79211111729253E-02 
1191	 3.96726303981945E-02 
1192	 3.96405153076402E-02 
1193	 4.05880167258846E-02 
1194	 4.01205915917283E-02 
1195	 3.80161366219184E-02 
1196	 3.77458334189602E-02 
1197	 3.86463975614633E-02 
1198	 3.90065668153257E-02 
1199	 0.038615424935467 
1200	 3.78193550209301E-02 
1201	 3.77444488021427E-02 
1202	 3.80072298243056E-02 
1203	 3.84511576389907E-02 
1204	 3.82776498960169E-02 
1205	 3.79214625261066E-02 
1206	 3.97774951492474E-02 
1207	 4.11753354619758E-02 
1208	 3.93371344104271E-02 
1209	 3.81861699050156E-02 
1210	 4.00293933173281E-02 
1211	 4.03308984505036E-02 
1212	 3.91565942674895E-02 
1213	 3.96439713724865E-02 
1214	 3.98565171782917E-02 
1215	 3.81826797577765E-02 
1216	 3.81004291657034E-02 
1217	 3.95360756608521E-02 
1218	 3.87125066052569E-02 
1219	 3.87843697047706E-02 
1220	 3.86349859589483E-02 
1221	 0.038256086578863 
1222	 3.97421420681121E-02 
1223	 3.95001154770518E-02 
1224	 3.80832122016619E-02 
1225	 3.74942351718454E-02 
1226	 3.65737293122785E-02 
1227	 3.68299631983732E-02 
1228	 3.82912894511027E-02 
1229	 3.90134603428987E-02 
1230	 3.95369464477464E-02 
1231	 3.94823666356059E-02 
1232	 3.86108879608998E-02 
1233	 3.87940550196016E-02 
1234	 4.01147639296892E-02 
1235	 4.05179298824966E-02 
1236	 4.02024225145451E-02 
1237	 3.99979756018539E-02 
1238	 3.96406611657943E-02 
1239	 3.93108362876086E-02 
1240	 3.88321289775088E-02 
1241	 3.84154561253869E-02 
1242	 3.81939990892773E-02 
1243	 3.77152480178334E-02 
1244	 3.80102047302669E-02 
1245	 0.039548667680501 
1246	 3.96417309914078E-02 
1247	 3.96764297750055E-02 
1248	 0.039727900513777 
1249	 3.82995954160813E-02 
1250	 0.038136287566644 
1251	 3.87762304802256E-02 
1252	 3.82242583027403E-02 
1253	 0.038006182922093 
1254	 3.88870829441089E-02 
1255	 3.83249019842265E-02 
1256	 3.84005358275657E-02 
1257	 3.97113698270606E-02 
1258	 4.03361443410082E-02 
1259	 4.00592279917735E-02 
1260	 3.96670953055356E-02 
1261	 0.03941372243881 
1262	 3.87860262558877E-02 
1263	 3.66841442877752E-02 
1264	 3.71027156839692E-02 
1265	 3.88679944247671E-02 
1266	 0.038286923753639 
1267	 3.77432419747291E-02 
1268	 0.03899664987272 
1269	 3.95281049449913E-02 
1270	 3.81687251648192E-02 
1271	 3.71747022056874E-02 
1272	 3.74100394485389E-02 
1273	 3.77749373743511E-02 
1274	 3.76981644846767E-02 
1275	 3.72792102111538E-02 
1276	 3.71262838052222E-02 
1277	 3.71995873687187E-02 
1278	 3.78802195315511E-02 
1279	 3.96535181989908E-02 
1280	 0.03943125855877 
1281	 3.92816830542913E-02 
1282	 3.83378675914747E-02 
1283	 3.78823085861966E-02 
1284	 3.70647615809503E-02 
1285	 0.037138798250803 
1286	 3.75055189946217E-02 
1287	 3.73982254701497E-02 
1288	 3.78139586242826E-02 
1289	 3.82647531768263E-02 
1290	 0.038982091373977 
1291	 3.84754740996112E-02 
1292	 3.73266881477778E-02 
1293	 3.66613012721598E-02 
1294	 3.52051645916655E-02 
1295	 3.52507466162746E-02 
1296	 3.86640200498682E-02 
1297	 3.99323985669931E-02 
1298	 4.00310879570618E-02 
1299	 4.02994174791845E-02 
1300	 3.82433173263306E-02 
1301	 3.70922789958283E-02 
1302	 3.68750796685218E-02 
1303	 3.74488426734394E-02 
1304	 3.92299698530934E-02 
1305	 3.86276998068949E-02 
1306	 3.89671998134342E-02 
1307	 4.17490871370146E-02 
1308	 4.08969595478927E-02 
1309	 3.43510256124688E-02 
1310	 3.38691412167098E-02 
1311	 0.036432795256911 
1312	 3.65411145028889E-02 
1313	 3.97779644123219E-02 
1314	 4.04269195894474E-02 
1315	 3.57725527408752E-02 
1316	 3.47976811264265E-02 
1317	 3.63950062176403E-02 
1318	 3.74792569824843E-02 
1319	 4.07543476677994E-02 
1320	 4.07979812204311E-02 
1321	 3.47857073120534E-02 
1322	 3.64216767683284E-02 
1323	 4.37666319560037E-02 
1324	 3.85851162898014E-02 
1325	 3.02801106919894E-02 
1326	 3.28271889810173E-02 
1327	 3.24547377205006E-02 
1328	 3.11425004756359E-02 
1329	 0.03466225823734 
1330	 3.65322944505857E-02 
1331	 3.26207636706254E-02 
1332	 2.50367096201926E-02 
1333	 2.51060946798155E-02 
1334	 0.022635960796495 
1335	 2.29604642307262E-02 
1336	 2.81493116400852E-02 
1337	 3.38179978188261E-02 
1338	 4.74805706699013E-02 
1339	 4.66412344692569E-02 
1340	 2.65912174115983E-02 
1341	 2.93587038278402E-02 
1342	 5.06579163796334E-02 
1343	 4.13954395859049E-02 
1344	 2.15004362220327E-02 
1345	 2.30545739444555E-02 
1346	-7.52725369645957E-03 
1347	-4.58093709916206E-02 
1348	-0.032805192043034 
1349	-2.54386604328677E-02 
1350	-9.30995115140649E-02 
1351	-0.143380322486913 
1352	-0.015639427874049 
1353	 3.40618209858925E-02 
1354	-0.185011166849221 
1355	-0.543466899127241 
1356	-0.495592441313717 
1357	-0.452899111443513 
1358	-0.557540407617074 
1359	-0.433386853824818 
1360	-0.791559023132181 
1361	 5.63045020236823 
1362	-1.72327084163865 
1363	-0.258932853816612 
1364	-0.336899365672134 
1365	-1.01784694565533 
1366	-2.73967837243757 
1367	-6.5300474633642 
1368	-8.22712435514355 
1369	-1.69193303352973 
1370	-1.42825218397456 
1371	-1.80112883239043 
1372	-4.19967208802836 
1373	 3.50579621139643 
1374	 3.03521777712926 
1375	 8.86557894096999 
1376	 8.43847269931526 
1377	 5.191015388076 
1378	 11.8874134935481 
1379	-2.89863048604133 
1380	-4.15966194221105 
1381	 1.84851909189214 
1382	 2.11980754484297 
1383	-3.49228690858879 
1384	-10.1495313184847 
1385	-1.91074298188478 
1386	-0.99871620873137 
1387	-15.9993214891711 
1388	 3.0644176669222 
1389	 0.279878173708338 
1390	-0.079771062884573 
1391	-3630.13030595008 
1392	 2.53564178518908 
1393	 24.3434923157387 
1394	 3.13066411100394 
1395	 0.266360916086007 
1396	 1.39458289274852 
1397	 0.664075934946194 
1398	-3.91930944638352 
1399	-1.01080373744224 
1400	-1.92055107527 
1401	 0.100600886431926 
1402	-1.55481279810362 
1403	-1.86547767465983 
1404	-1.50233480371889 
1405	-1.92716017930801 
1406	-1.58771648379385 
1407	-0.748787529628333 
1408	-1.18717941744265 
1409	-2.51984496658608 
1410	-0.486949324385964 
1411	-7.48596475213491E-02 
1412	-4.64292500333308 
1413	 216.557024270722 
1414	-1.32262910679569 
1415	 8.62982605432864 
1416	 0.952825113138677 
1417	 0.490856699523509 
1418	-0.94745520816686 
1419	-0.786621173418047 
1420	-0.514757267786432 
1421	-1.00482478141367 
1422	-0.141646800525158 
1423	 0.359814448612373 
1424	-0.472810195112573 
1425	-0.531839563429414 
1426	 0.286399584826056 
1427	 0.39501499369145 
1428	 0.521253490735925 
1429	-2.43399446706903 
1430	 0.317108643083183 
1431	 0.345745793859942 
1432	-0.342746397299189 
1433	-0.548738447350956 
1434	 1.32366195933443 
1435	 0.642567822185499 
1436	-0.350353448609223 
1437	-0.526405624647227 
1438	 1.00438188808571E-02 
1439	 0.480546280577866 
1440	 0.763484314534355 
1441	 180.179006511999 
1442	-0.300375270430151 
1443	-1.2289191179674 
1444	-0.453877010295446 
1445	 0.471143865934847 
1446	 0.561703547800538 
1447	 9.31437118359306E-02 
1448	-0.241966596039754 
1449	-0.258152445598742 
1450	 5.67932688485353E-02 
1451	-0.351273570504574 
1452	-0.642847749833978 
1453	-0.111848909690456 
1454	-0.100850721252375 
1455	-0.645312046968633 
1456	-0.465752495894067 
1457	 0.28908895928304 
1458	 0.200959870717774 
1459	 8.05991184706631E-02 
1460	 0.191875025927651 
1461	 0.205980521080125 
1462	 9.47244817618121E-02 
1463	 0.169065178904016 
1464	-8.23049405442999E-02 
1465	-0.887609106539513 
1466	-0.879508033311343 
1467	-0.270778263716627 
1468	-0.133434898940065 
1469	 0.065216164456235 
1470	 0.168137615948616 
1471	-9.96642842152603E-02 
1472	-0.167203269617707 
1473	 0.118225026243635 
1474	 7.63708227853791E-02 
1475	-0.22639874374484 
1476	-0.203377552517805 
1477	-7.70619979503741E-02 
1478	-3.27688501243247E-02 
1479	 0.275678999731179 
1480	 0.222110582021896 
1481	-0.353900486230778 
1482	-0.395629482756408 
1483	-0.320419578590299 
1484	-0.293726820818877 
1485	-1.68923849028741E-02 
1486	 8.19756454272944E-02 
1487	 0.059028204680123 
1488	 0.046732793403995 
1489	 6.27899811294633E-02 
1490	 3.32217609102861E-02 
1491	-6.43704297016208E-02 
1492	-7.38060453943146E-02 
1493	-0.064546296699894 
1494	-6.73908408135528E-02 
1495	-2.98284712928342E-02 
1496	-1.05205156720573E-02 
1497	-1.97624786870966E-02 
1498	-9.18117890076349E-03 
1499	 0.030630632950033 
1500	 2.74627889027773E-02 
1501	-1.26599869528875E-02 
1502	-1.14201947211642E-02 
1503	 6.79936222612877E-03 
1504	-1.86826095675207E-03 
1505	-1.66675887804924E-02 
1506	-9.83489457907685E-03 
1507	 3.20018287411281E-03 
1508	-5.52862351702325E-05 
1509	 8.18722147007169E-03 
1510	 3.18919908481099E-02 
1511	 4.25060051164051E-02 
1512	 4.57062871128816E-02 
1513	 6.00891243425304E-02 
1514	 0.072820022467601 
1515	 5.28604767724365E-02 
1516	 0.041784333448827 
1517	 4.48357154437483E-02 
1518	 2.93805832521783E-02 
1519	 2.09584486397118E-02 
1520	 2.37896091757141E-02 
1521	 0.031823499967155 
1522	 3.65004554061151E-02 
1523	 3.37905498190641E-02 
1524	 3.44641570015309E-02 
1525	 3.11754479923814E-02 
1526	 0.0283064495629 
1527	 3.61811585799837E-02 
1528	 4.18208037865316E-02 
1529	 2.99004468726354E-02 
1530	 2.40817975932629E-02 
1531	 3.35724311683877E-02 
1532	 2.75838459205209E-02 
1533	 0.019839451685682 
1534	 2.45890164445111E-02 
1535	 2.16753368798218E-02 
1536	 2.30985692414642E-02 
1537	 0.025606123444705 
1538	 1.77026076755653E-02 
1539	 1.73397948350643E-02 
1540	 2.13295775072483E-02 
1541	 2.49289234791354E-02 
1542	 3.07554902145643E-02 
1543	 2.77035170366233E-02 
1544	 1.88543182952929E-02 
1545	 2.01761889705831E-02 
1546	 3.01411949908215E-02 
1547	 3.54582638676847E-02 
1548	 3.83777587803038E-02 
1549	 4.36429996230149E-02 
1550	 4.44542377427935E-02 
1551	 4.12662305905863E-02 
1552	 4.04455217449467E-02 
1553	 0.037844580404888 
1554	 3.20761723181097E-02 
1555	 3.37043151580098E-02 
1556	 3.63619277366796E-02 
1557	 3.44176288529375E-02 
1558	 3.27533538445403E-02 
1559	 2.94005101234076E-02 
1560	 3.26957184275218E-02 
1561	 3.89469813689922E-02 
1562	 3.83480366263069E-02 
1563	 4.15193716805439E-02 
1564	 0.046071431224056 
1565	 4.05507812403394E-02 
1566	 3.53771182028847E-02 
1567	 3.58299997748418E-02 
1568	 3.32645942491688E-02 
1569	 0.034353129837338 
1570	 4.15962340064576E-02 
1571	 4.41201114497229E-02 
1572	 3.99535256155162E-02 
1573	 3.71722116753433E-02 
1574	 3.80861958228785E-02 
1575	 3.58802529717084E-02 
1576	 3.57259592885085E-02 
1577	 3.88749565241684E-02 
1578	 3.94867131216532E-02 
1579	 3.89124375482351E-02 
1580	 3.82517410411693E-02 
1581	 3.85531018029186E-02 
1582	 3.89415826593703E-02 
1583	 3.87338895483683E-02 
1584	 4.07397354430799E-02 
1585	 4.16006085124702E-02 
1586	 4.04774413627028E-02 
1587	 3.92082071552772E-02 
1588	 0.039588840476016 
1589	 4.33848083658992E-02 
1590	 3.95384827354646E-02 
1591	 3.16899326805127E-02 
1592	 2.43350287930557E-02 
1593	 0.018211058070894 
1594	 0.021439033389527 
1595	 3.29490999430779E-02 
1596	 4.22596837548235E-02 
1597	 3.73761181246494E-02 
1598	 3.37712693728382E-02 
1599	 3.74226162924959E-02 
1600	 3.96432840525972E-02 
1601	 0.044201166562329 
1602	 4.35801752110395E-02 
1603	 3.66271636180072E-02 
1604	 3.24751406869239E-02 
1605	 0.03505738529062 
1606	 0.041161700670917 
1607	 4.26518578118807E-02 
1608	 4.32608153239519E-02 
1609	 0.041796256227568 
1610	 3.74525098708016E-02 
1611	 4.24545261221466E-02 
1612	 0.04591879559396 
1613	 4.31115726327837E-02 
1614	 4.40418738322914E-02 
1615	 3.59500631802175E-02 
1616	 2.93177913687327E-02 
1617	 3.83047267619393E-02 
1618	 4.04494510891675E-02 
1619	 3.38217655967379E-02 
1620	 3.36409153928003E-02 
1621	 3.68086095758413E-02 
1622	 0.038660125123833 
1623	 4.08833717794943E-02 
1624	 4.28534069610212E-02 
1625	 0.040346634549863 
1626	 3.40579502848314E-02 
1627	 3.82403517201547E-02 
1628	 4.70631876607293E-02 
1629	 4.31943035851027E-02 
1630	 4.00405425748551E-02 
1631	 4.09340826059869E-02 
1632	 3.66858319510138E-02 
1633	 3.61770421262718E-02 
1634	 3.55757275761807E-02 
1635	 3.12586730730619E-02 
1636	 2.82674536902499E-02 
1637	 2.58041113629479E-02 
1638	 2.80934852532046E-02 
1639	 2.93628506191768E-02 
1640	 2.93666273430645E-02 
1641	 0.035274225427862 
1642	 4.09009786073491E-02 
1643	 0.043793937283771 
1644	 4.23882494709886E-02 
1645	 3.72817070528886E-02 
1646	 3.59638231030545E-02 
1647	 3.75606310367598E-02 
1648	 3.92804984158506E-02 
1649	 4.20351541544995E-02 
1650	 3.86831544598178E-02 
1651	 3.30829535111548E-02 
1652	 3.58448295528825E-02 
1653	 3.71989806956838E-02 
1654	 3.61503836089795E-02 
1655	 3.36165834387809E-02 
1656	 3.46445495411077E-02 
1657	 3.72078038158223E-02 
1658	 3.41783635592246E-02 
1659	 3.21281175514015E-02 
1660	 0.031198604951445 
1661	 2.42171636102529E-02 
1662	 2.27119757540744E-02 
1663	 2.68117365795485E-02 
1664	 2.79931994229251E-02 
1665	 2.70530742718204E-02 
1666	 3.18979921895177E-02 
1667	 4.21691764802413E-02 
1668	 3.99614524765951E-02 
1669	 4.21569722746125E-02 
1670	 4.57833416861734E-02 
1671	 4.43830627647695E-02 
1672	 4.14044691395333E-02 
1673	 4.23779129588574E-02 
1674	 0.044143826429214 
1675	 4.21719797098507E-02 
1676	 4.24823785442891E-02 
1677	 4.48809575484786E-02 
1678	 4.04455075192513E-02 
1679	 0.033657160292901 
1680	 3.40505935798466E-02 
1681	 3.64497239865305E-02 
1682	 3.30781261305279E-02 
1683	 0.031878736666038 
1684	 0.039559235224059 
1685	 3.74219036432988E-02 
1686	 2.75751474702628E-02 
1687	 3.58868536345623E-02 
1688	 3.82621752894807E-02 
1689	 2.78507406399104E-02 
1690	 3.76126529045656E-02 
1691	 4.38515665759327E-02 
1692	 3.05759958157001E-02 
1693	 3.07189532155039E-02 
1694	 3.97953583318103E-02 
1695	 3.64161871476491E-02 
1696	 3.65066539762716E-02 
1697	 4.11859153436742E-02 
1698	 3.41580146538459E-02 
1699	 2.57572280835788E-02 
1700	 0.02487676554621 
1701	 2.39802282799467E-02 
1702	 2.18115215974363E-02 
1703	 1.80973640991542E-02 
1704	 1.66613113131905E-02 
1705	 2.23810644040891E-02 
1706	 2.31569106877583E-02 
1707	 0.024324205177425 
1708	 3.09317763668337E-02 
1709	 2.71447941081287E-02 
1710	 2.77226605346461E-02 
1711	 3.94570590191061E-02 
1712	 3.77686682613407E-02 
1713	 3.12220459516654E-02 
1714	 2.97594262625023E-02 
1715	 1.90630408434089E-02 
1716	 1.86457383600101E-02 
1717	 2.72855165654821E-02 
1718	 3.10275349442599E-02 
1719	 3.18547565263693E-02 
1720	 0.03049733465585 
1721	 0.023330494313635 
1722	 3.17593216864645E-02 
1723	 0.039018591562586 
1724	 3.05748367966553E-02 
1725	 0.036813238095617 
1726	 3.89574766357479E-02 
1727	 3.21933534745522E-02 
1728	 3.09467585799329E-02 
1729	 2.30984717855609E-02 
1730	 1.87618250127846E-02 
1731	 1.56901441450102E-02 
1732	 2.21184038858633E-02 
1733	 3.30861500882307E-02 
1734	 1.64449442911877E-02 
1735	 2.99686433563597E-03 
1736	 5.63467610127385E-03 
1737	 1.1867707026493E-03 
1738	 7.82594487194316E-03 
1739	 1.68462052869967E-02 
1740	 1.21970845480451E-02 
1741	 1.69342721888085E-02 
1742	 1.90067379677558E-02 
1743	 1.70188296993587E-02 
1744	 2.89612913759838E-02 
1745	 3.00725217808502E-02 
1746	 0.01978940029353 
1747	 2.12803185006103E-02 
1748	 1.58830398500862E-02 
1749	 1.29486828407952E-02 
1750	 2.50205570791249E-02 
1751	 3.22278513097583E-02 
1752	 3.58826657920507E-02 
1753	 3.49137441628587E-02 
1754	 3.42379591461572E-02 
1755	 3.22247129806433E-02 
1756	 1.86907341941694E-02 
1757	 1.71287273255218E-02 
1758	 1.44839906983008E-02 
1759	 9.85240476535598E-03 
1760	 1.70373119031593E-02 
1761	 4.77944920487501E-02 
1762	 5.97445125378313E-02 
1763	 0.027249549289256 
1764	 6.01871821323184E-03 
1765	-8.40632401195268E-03 
1766	-2.07341964558756E-02 
1767	 3.58010986429071E-02 
1768	 7.03192421576717E-02 
1769	 1.77467560916528E-02 
1770	-6.89447447459837E-03 
1771	 4.40445895438849E-05 
1772	-8.11417981947426E-03 
1773	 3.62823198144048E-02 
1774	 7.35444237241018E-02 
1775	 4.82519409276899E-03 
1776	 2.31593223914948E-03 
1777	 5.43596854878741E-02 
1778	 4.66449277041829E-02 
1779	 1.06733596839757E-02 
1780	 2.42577763476734E-02 
1781	 0.047579607249769 
1782	 3.58737152613309E-02 
1783	 7.47188831474301E-02 
1784	 6.34721543375207E-02 
1785	-0.105730841039769 
1786	-0.120929721068213 
1787	 5.2619001359575E-03 
1788	 3.77470719559752E-02 
1789	 0.112005513990103 
1790	 0.132548678184777 
1791	 9.30819459496762E-02 
1792	 9.42687031737018E-02 
1793	-7.17438136154551E-02 
1794	-0.169124066652653 
1795	-0.236987651266084 
1796	-0.339598716424755 
1797	-0.113424760603772 
1798	-2.09820800402118E-03 
1799	 6.39497564056009E-02 
1800	 0.283989996462933 
1801	 0.235531776203459 
1802	 0.059911170122121 
1803	-4.34281419562646E-02 
1804	-0.737562356464348 
1805	-1.04690011818936 
1806	-1.73684860514554 
1807	-2.09982066582434 
1808	-0.671336551633617 
1809	-0.548149914551501 
1810	-0.627138746216214 
1811	-0.558410413819834 
1812	-0.536162365887955 
1813	-0.320228373798603 
1814	 2.93535957050263E-02 
1815	 4.05006346755386 
1816	-2.94543586347776 
1817	-1.98214979855106 
1818	-1.03958817288097 
1819	 9.24787708151872 
1820	-2.61651991230896 
1821	-2.26019120412733 
1822	-1.98382693137395 
1823	-16.8482707398678 
1824	 0.33599006639624 
1825	-0.115643570083089 
1826	-4.10608145065975E-02 
1827	 0.639965451460755 
1828	 0.903456420765913 
1829	-8.35159652344985 
1830	-2.15836383279029 
1831	-0.309815944654499 
1832	-0.340903343612444 
1833	 0.617024949712721 
1834	 0.688322630077812 
1835	-1.12155380391322 
1836	-15.572693445223 
1837	 0.199204904351733 
1838	 0.525170618482215 
1839	 0.880452598799744 
1840	 1.29869918389211 
1841	-2.72406397146427 
1842	-1.16211925514965 
1843	-0.895298405903488 
1844	-0.393072465148367 
1845	-0.233227063819712 
1846	-0.34051726685097 
1847	-0.447212224389518 
1848	-0.553493916676284 
1849	-0.474477700430589 
1850	-0.752682746808667 
1851	-0.695017084749968 
1852	-0.300555258134702 
1853	-0.429397465721535 
1854	-0.334676008213043 
1855	 2.05761858544976 
1856	-2.2766069395331 
1857	-2.39478928960272 
1858	-3.13757839072272 
1859	 13.4430447245953 
1860	 8.28297600295874 
1861	 10.529386674693 
1862	-1.73457499213197 
1863	 2.98455960498705E-02 
1864	 0.313220399576303 
1865	 0.517283515792656 
1866	-0.651514954911577 
1867	 2.53295431134127 
1868	 0.21048486436137 
1869	-0.556206483065563 
1870	 562.455920163552 
1871	 4.82271688291991 
1872	 2.75625607946693 
1873	 2.50965159058218 
1874	 2.55261241222418 
1875	 3.47070999345163 
1876	 2.69359008255509 
1877	 0.621318552450475 
1878	 0.62350068167176 
1879	 2.2588746892354 
1880	 2.63155624736273 
1881	 13.915986459998 
1882	-20.7677591269139 
1883	 8.06380040349995 
1884	 2.89745912561115 
1885	 1.73691798805398 
1886	 3.22650199438786 
1887	 2.79730865341203 
1888	 0.656940437452587 
1889	 0.411740095709952 
1890	 0.545192823185528 
1891	 0.42327419082586 
1892	-0.084500027828215 
1893	-1.16120636863592 
1894	-0.823910179863544 
1895	-1.58113021826243 
1896	-0.936761021393631 
1897	-0.597187061224262 
1898	-1.95923973908254 
1899	-2.11831270326501 
1900	-2.46866661154984 
1901	-0.179399777107525 
1902	 0.354483084771599 
1903	 4.30417457599643 
1904	 7.2171749861857 
1905	-5.07146567596219 
1906	-2.08255737240538 
1907	-0.689301433601223 
1908	 1.82587304329283E-03 
1909	-0.1338372984114 
1910	-0.227603883495266 
1911	-0.297036466131066 
1912	-0.172538296448045 
1913	-0.103503688867321 
1914	 0.207232343289816 
1915	 0.239097444193048 
1916	 4.89567282792218E-02 
1917	-0.203728805064216 
1918	 0.282569865635539 
1919	 0.625814120976805 
1920	 0.626226036887959 
1921	 0.612258316515539 
1922	-0.127945847437197 
1923	 3.44790578551093 
1924	-19.0458866847731 
1925	 3.44903722326089 
1926	 7.78691817546878 
1927	 1.37532585309953 
1928	 1.01145546857643 
1929	 1.07657214765682 
1930	 0.196482132224162 
1931	 0.213825963300274 
1932	-1.94710002554489 
1933	-1.51484585178103 
1934	-1.1601038745828 
1935	-1.0590270561294 
1936	-0.333436398936658 
1937	-4.08156954692182E-02 
1938	-9.44515418509514E-02 
1939	 0.194623376688372 
1940	-9.05987728212121E-02 
1941	 0.098747419822191 
1942	 0.543245347260165 
1943	 0.651003282400593 
1944	 1.4860391743595 
1945	 2.84431549004853 
1946	 1.79578871140392 
1947	 0.891746923433598 
1948	 0.5344607076365 
1949	 0.543192028943802 
1950	 0.452329385085747 
1951	-0.121568759445882 
1952	-0.671178704702732 
1953	-0.2592733281652 
1954	-0.246448481553135 
1955	-0.824132265140381 
1956	-7.52843326651246 
1957	 4.41882551871634 
1958	 0.543316226774957 
1959	 0.405892069101928 
1960	 0.470882205634111 
1961	 0.495919211330136 
1962	 0.61108736607658 
1963	 0.889701299278322 
1964	 1.23101353857465 
1965	 1.88478613091699 
1966	 3.29881754635991 
1967	 0.985242175845598 
1968	-2.09265909625925E-02 
1969	 0.512356354373051 
1970	 0.884907517717158 
1971	 1.08299168899184 
1972	 0.571019805137091 
1973	 0.173587208189633 
1974	-1.97487371275779E-02 
1975	-0.14525047167958 
1976	 2.68279981982051 
1977	-7.49881883381202 
1978	-1.94421376098039 
1979	-1.44839984016557 
1980	-0.911174532233889 
1981	-0.618733829621769 
1982	-0.118647620652126 
1983	-85.4583229459183 
1984	 0.500906660453032 
1985	-0.525538022095493 
1986	-2.38361629899797E-02 
1987	-0.709781138047507 
1988	-2.12427890021477 
1989	-1.11903162120915 
1990	-1.31244726878293 
1991	-3.19107052830811 
1992	-1.42070597121203 
1993	-1.36247149109837 
1994	-2.1323383237176 
1995	-144.263018707737 
1996	-4.72727113744335 
1997	 2.86766201273011 
1998	 3.80037363543094 
1999	-13.8804132276728 
2000	-6.65105963657677 
2001	-19.5979205620153 
2002	-8.76436878017717 
2003	-1.2653440724655 
2004	-0.941831042720991 
2005	-0.735806573792357 
2006	-0.600843691100533 
2007	-0.652228125515759 
2008	-0.481502502055526 
2009	-0.482067566792342 
2010	-0.594698258387908 
2011	-0.768394865061953 
2012	-4.77960842074986 
2013	 1.31700595312811 
2014	 1.49930908202987 
2015	 2.21419170756037 
2016	 1.54006818092098 
2017	 1.61505468179825 
2018	 0.736223771257685 
2019	 0.199130582275304 
2020	-8.86631521744044E-02 
2021	 0.193876085654762 
2022	 0.499922970895577 
2023	 0.984235210900002 
2024	 0.809655617592069 
2025	 0.498549924819343 
2026	 7.44016031194512E-02 
2027	-1.20646558565385 
2028	-1.02752934201157 
2029	-0.750833000541233 
2030	-0.437929273629323 
2031	 0.109073926714179 
2032	 0.254935195967402 
2033	 0.121800300917868 
2034	 0.262692171647622 
2035	 5.72403371649557E-02 
2036	-0.364568972054493 
2037	-0.872263222002273 
2038	-0.90726314109388 
2039	-0.75461825277296 
2040	-0.212898876538024 
2041	 1.05458383292507E-02 
2042	 0.281378303342477 
2043	 0.512198705065384 
2044	 1.22748430782437 
2045	 3.24558953184827 
2046	-7.26097078483634 
2047	 8.7076302401278 
2048	 1.38970082733045 
2049	 0.143382043720453 
2050	-0.241248609391365 
2051	-0.176483975530531 
2052	-0.307881824448063 
2053	-0.427846898216149 
2054	-0.355266255894371 
2055	-0.384083198865283 
2056	-0.343618695829328 
2057	-0.184161539474003 
2058	-8.54204618398006E-02 
2059	 2.16728956989877E-02 
2060	 0.279818203152566 
2061	 0.309245441439918 
2062	 0.325847013721487 
2063	 0.71963688984216 
2064	 1.11668598413822 
2065	 1.16058485447479 
2066	 4.39303643932831 
2067	-1.63973981210523 
2068	-0.9068549182046 
2069	-0.700944706546237 
2070	-0.499457470283297 
2071	-0.151234191182675 
2072	-3.07716036751336E-02 
2073	 2.93369742810391E-02 
2074	 0.122235755995706 
2075	 0.018555530331455 
2076	-0.43052014131721 
2077	-0.520426706485456 
2078	-0.600349527925593 
2079	-0.558275917373909 
2080	-0.222984562692764 
2081	-9.93469740722112E-02 
2082	-7.23716469918783E-03 
2083	 0.125472114181875 
2084	 0.074864599922278 
2085	 3.77298909877412E-02 
2086	-8.40585008075479E-02 
2087	-0.236916666644353 
2088	-0.27189376263897 
2089	-0.335667107720574 
2090	-0.506882399671777 
2091	-0.433271513363977 
2092	-0.124168587393672 
2093	-5.62691700486822E-02 
2094	 9.63047694477764E-02 
2095	 0.650255130618537 
2096	 0.60168176288508 
2097	 0.334621836326675 
2098	 0.299486843197271 
2099	 0.13270054917381 
2100	 6.32917709151133E-02 
2101	 0.218915382158859 
2102	 0.320473579532136 
2103	 0.292975938182385 
2104	 0.256321247244062 
2105	 0.155291736446655 
2106	-6.08476723262895E-02 
2107	-0.167432670606651 
2108	-0.23934043005903 
2109	-0.277113779727717 
2110	-0.152180582060343 
2111	-3.34449000765104E-02 
2112	-2.26728344961798E-02 
2113	-2.84727901675063E-02 
2114	-3.69803207722213E-02 
2115	-0.126239516361083 
2116	-0.468831541424258 
2117	-0.496546903174511 
2118	-0.386973166153185 
2119	-0.320902197117753 
2120	-0.196510824814922 
2121	 1.37971804028265E-02 
2122	 0.130052385778356 
2123	 0.18077866404232 
2124	 0.29569294664657 
2125	 0.504333185922704 
2126	 0.412898894892894 
2127	 0.49972415219922 
2128	 0.53292031437498 
2129	 4.35448860056768E-02 
2130	-6.96145035044571E-02 
2131	-0.12203453119016 
2132	-0.17457209641419 
2133	-0.100650301500187 
2134	-5.38151790270936E-02 
2135	 0.109327693545301 
2136	 0.109045665914997 
2137	 7.43003095657119E-03 
2138	-2.48472798193023E-02 
2139	-0.138861109695132 
2140	-0.186462925824856 
2141	-0.147286550042069 
2142	-0.135394349076394 
2143	-0.136809087019058 
2144	-0.093338735747542 
2145	-6.43290362483025E-02 
2146	-0.111847079491487 
2147	-3.98027167117761E-02 
2148	 6.00840436655311E-02 
2149	 0.172791272462534 
2150	 0.384213102342182 
2151	 0.34827854145887 
2152	 0.279880351706978 
2153	 0.294629299785771 
2154	 0.255038972043786 
2155	 0.367285086809325 
2156	 0.456967861182262 
2157	 0.456786875790485 
2158	 0.439721682813368 
2159	 0.362779252726885 
2160	 0.149955670553904 
2161	 6.47396865693157E-02 
2162	-9.14906231741012E-04 
2163	-0.027968033885362 
2164	 0.036025921128223 
2165	 3.32209543607222E-02 
2166	 1.11254545330595E-03 
2167	-1.72424875377889E-02 
2168	-5.46134996152341E-02 
2169	-8.96203655752243E-02 
2170	-0.136101173303707 
2171	-0.220986525578539 
2172	-4.14470132377631E-02 
2173	 6.09818531925501E-02 
2174	 0.300117717592623 
2175	 0.80240117162776 
2176	 0.760786645609411 
2177	 0.7190367820522 
2178	 0.828141612736643 
2179	 0.67545816147065 
2180	 0.400103125190712 
2181	 0.222098161617696 
2182	 0.212938930800508 
2183	 5.85552862780154E-02 
2184	 6.52038555148785E-02 
2185	 0.177037566840534 
2186	 0.258143285933992 
2187	 0.282266148038821 
2188	 0.369412989517555 
2189	 0.678916354458182 
2190	 0.645293563558012 
2191	 0.405646902459786 
2192	 0.301424043335202 
2193	 0.154739135986427 
2194	 8.83923489210653E-02 
2195	 1.54343134443967E-02 
2196	 4.70337301226601E-02 
2197	 0.167404770151596 
2198	 0.231667152203641 
2199	 0.387127750120152 
2200	 0.470013834151706 
2201	 0.508792733179358 
2202	 0.461054706520431 
2203	 0.390059095775257 
2204	 0.271609305688483 
2205	-5.85421329619117E-02 
2206	 0.167541230309275 
2207	 0.290777313823789 
2208	 0.211658843072615 
2209	 0.187754600003435 
2210	-8.32034736807599E-02 
2211	-0.282354740787312 
2212	-0.275832098317597 
2213	-0.23884868317598 
2214	-0.312166232489244 
2215	-0.389268159693338 
2216	-0.408066252838595 
2217	-0.313680567091164 
2218	-6.71359889956379E-02 
2219	-3.24716966929454E-02 
2220	-3.78023824754955E-02 
2221	-2.58422799903511E-02 
2222	-0.151150020742913 
2223	-0.383696084830555 
2224	-0.696276278722239 
2225	-0.659040609178979 
2226	-0.693309245451199 
2227	-0.542219978872355 
2228	-8.10571576088961E-02 
2229	 2.91150605982898E-02 
2230	 0.06734442422477 
2231	 0.244699109034028 
2232	 0.914861971595219 
2233	 1.08151110008659 
2234	 0.776952745720384 
2235	 0.20756256838045 
2236	-1.43315319495917E-02 
2237	-8.70144779158846E-03 
2238	 0.263740740174104 
2239	 0.759335734043012 
2240	 0.939310854409653 
2241	 0.707726857787797 
2242	 0.530635523713666 
2243	 0.384441539368472 
2244	 0.252177934537523 
2245	 0.262524359457432 
2246	 0.258989686184823 
2247	 0.311109620054108 
2248	 0.219788370965976 
2249	-1.16764033792411E-03 
2250	-2.09871982100715E-03 
2251	 5.26214120227488E-02 
2252	 0.199050670500937 
2253	 0.961400677539588 
2254	 1.89782401759295 
2255	 1.56550814078643 
2256	 0.997585728827983 
2257	 0.349558854862827 
2258	 0.216629719999549 
2259	 0.196222851985713 
2260	 1.21133532937863E-02 
2261	-0.224272514088785 
2262	-0.429152419134583 
2263	-1.23099711556826 
2264	-1.4844899893118 
2265	-0.542757041290161 
2266	-0.361627166376818 
2267	-0.36554709156739 
2268	-0.664989479522857 
2269	-3.1164979195003 
2270	-1.79356652370786 
2271	-0.510733478998745 
2272	-0.449581310050156 
2273	-0.484305828780866 
2274	-0.304433146553831 
2275	-0.131091315405175 
2276	 9.05807672476656E-02 
2277	 0.325319268099192 
2278	 0.549815613968157 
2279	 0.903854110690709 
2280	 1.0133905968232 
2281	 1.08257040553138 
2282	 2.07343692783942 
2283	 1.33808948454022 
2284	 0.561349638016627 
2285	 0.755503669151956 
2286	 1.30336626448261 
2287	-3.2694127366178 
2288	-0.356278080331324 
2289	 0.664500504947748 
2290	 1.26683671812028 
2291	 1.10382176015792 
2292	-0.283207680383886 
2293	-5.93236210115779E-02 
2294	 0.248728163617163 
2295	-0.566377433231819 
2296	-2.22987962860823 
2297	-1.36935639920455 
2298	-1.50099423614419 
2299	 5.71417457620558 
2300	 1.2799942202085 
2301	-0.338081841154301 
2302	-0.834161193523705 
2303	 0.360698592804058 
2304	 0.361365465759797 
2305	 0.425695833921729 
2306	 0.468190861634505 
2307	 0.338056194845311 
2308	-9.17489381932127 
2309	 0.367061204727486 
2310	-1.63449203468103 
2311	 1.28033580546088 
2312	 2.06558994858871 
2313	 2.16285067333361 
2314	 4.02025361782863 
2315	 19.625665485783 
2316	-5.56149989535153 
2317	-5.89331944760661 
2318	-4.16366513082546 
2319	-7.68204141758144 
2320	 8.1783646180793 
2321	 23.0468449766091 
2322	-0.073656928926239 
2323	 0.333786451749797 
2324	-22.4754861424751 
2325	-1.61104374063062 
2326	-0.628342074929075 
2327	 0.123236863717567 
2328	 0.800409697405425 
2329	 0.897385719636349 
2330	 0.473214740959515 
2331	 0.32180446700395 
2332	 0.814833987474685 
2333	 1.56385232935261 
2334	 1.52821346753523 
2335	 0.936133560314302 
2336	 0.347347280115521 
2337	 0.398442884602603 
2338	 1.19167623210514 
2339	-2.0179564747617 
2340	 1.39679250228428 
2341	 0.484485680649518 
2342	 4.09934489911952 
2343	 4.19343565850618 
2344	-1.84920529118265 
2345	-0.266553731353248 
2346	 0.63048219293203 
2347	 0.519213922507969 
2348	 0.139808485755613 
2349	 4.72392655171235E-02 
2350	-0.274773495459291 
2351	-0.24118713022905 
2352	 2.58252562395365E-02 
2353	 1.09098445538322E-02 
2354	 1.20407567089303 
2355	 1321.2626073583 
2356	-2.35083550155878 
2357	 27.8118933244095 
2358	 3.05639103969127 
2359	 1.86198171428369 
2360	 0.764668978217073 
2361	 1.18981901616071 
2362	 9.89958746429042 
2363	-17.5689772668937 
2364	 5.03664032732771 
2365	 2.56618653179922 
2366	 0.477829662310515 
2367	 0.325700383356278 
2368	 5.29105907957725E-02 
2369	 2.30112127999579E-02 
2370	 0.334197787161274 
2371	 0.17306551733082 
2372	 0.32551695790665 
2373	-2.11991755696632 
2374	-1.00629401292862 
2375	-0.894118727542242 
2376	-2.22356383782476 
2377	-0.642626435425147 
2378	-0.252016819118752 
2379	-0.128575377798799 
2380	-0.258713733158044 
2381	-0.390142032880973 
2382	-9.37927162059431E-02 
2383	 0.324909746909287 
2384	 0.749588450609852 
2385	 1.47152461316089 
2386	 2.620184897897 
2387	 1.59621920309582 
2388	 1.49892032515391 
2389	-0.27500566175435 
2390	 1.98630955446063 
2391	 1.34600630413289 
2392	 0.169599690252188 
2393	-0.609523881001524 
2394	-2.73858301406195 
2395	 3.58135426201516 
2396	 0.554866283160005 
2397	-0.101018209889945 
2398	-0.165181403720427 
2399	-0.454357278515646 
2400	-0.509308021145489 
2401	-0.355814340141058 
2402	-0.550792758271111 
2403	-0.363605884410193 
2404	-0.360809817065304 
2405	-0.550112071959561 
2406	-0.300497622745759 
2407	-0.34510204618456 
2408	-0.421763891889714 
2409	 0.495456345935696 
2410	 1.17838062211588 
2411	 1.29705340355574 
2412	 1.16429240693731 
2413	 0.511996384290949 
2414	 0.179163549366062 
2415	-5.09567188712364E-02 
2416	-0.380577328831707 
2417	-0.664656614112278 
2418	-1.25233675111138 
2419	-3.14102912732682 
2420	-2.55377727529058 
2421	-1.55751993802001 
2422	-0.193261148136982 
2423	-0.197014857955054 
2424	-1.64773041876284E-02 
2425	 0.769649134516542 
2426	 2.27658299107608 
2427	 10.6133801488362 
2428	 2.12107605942142 
2429	 1.75368210358903 
2430	 1.44127335558498 
2431	 1.48921888443819 
2432	 4.09918792355283 
2433	-4.82490970409262 
2434	 1.32377623037469 
2435	 3.45864589707818E-02 
2436	-1.4310267936614 
2437	-0.647599223510322 
2438	-0.482727164315602 
2439	-0.306943278535346 
2440	-0.642626808996856 
2441	-0.715540290214747 
2442	-0.299134245863944 
2443	-0.199971369844224 
2444	 3.62582080245711E-02 
2445	 0.445374524950889 
2446	-0.41542273019314 
2447	-3.10376556428886 
2448	-11.4081386032758 
2449	 14.4607408117369 
2450	-5.99883621631857 
2451	-1.58966559876209 
2452	-1.48856242164531 
2453	-1.73271029072587 
2454	-1.43452313441213 
2455	-3.1027788176451 
2456	-6.00872371324726E-02 
2457	-0.720187795130437 
2458	 2.71095927204067E-02 
2459	 2.59203952295905 
2460	-0.489188157899403 
2461	-0.211594403029952 
2462	-0.206235867289405 
2463	-0.600925233790293 
2464	-1.97978298506164 
2465	-1.75670972889731 
2466	-1.55381860147371 
2467	-0.794320841872401 
2468	-0.991782138814513 
2469	-0.233568425771958 
2470	-0.114043296313653 
2471	 0.206887521413981 
2472	 0.134707489646606 
2473	 0.457330111434129 
2474	 0.613454676867532 
2475	-1.47581548526931 
2476	-5.21520772440998 
2477	-1.87849484896802 
2478	 1.16748485019015 
2479	 0.202342824989815 
2480	 0.354610003999029 
2481	 0.572317247073271 
2482	 1.9078246820202 
2483	 2.51366562582856 
2484	-0.269194367320025 
2485	-0.608407425862937 
2486	-0.28805220370127 
2487	-0.193680348145994 
2488	-0.129466646597694 
2489	-2.08310284730387E-02 
2490	 0.147537220874747 
2491	 0.355079923363963 
2492	 1.70986277508068 
2493	 1.35292449825419 
2494	 1.65647108224536 
2495	 0.808757427378388 
2496	 0.329570640480476 
2497	 0.556507575367353 
2498	 1.37028725869264 
2499	 1.20747342144526 
2500	 1.65043781182868 
