Wavelength	rt0707close00006.asd
350	 8.16159226444927E-02 
351	 8.10853898421792E-02 
352	 0.0818357445459 
353	 8.21703269632126E-02 
354	 8.09500562362204E-02 
355	 0.079647524521082 
356	 8.06842171051868E-02 
357	 8.20695688503084E-02 
358	 8.14794240300997E-02 
359	 8.17124210483356E-02 
360	 8.19449482293549E-02 
361	 8.15539817394416E-02 
362	 0.080431671793415 
363	 8.13986945939828E-02 
364	 8.21855887883453E-02 
365	 8.20337810980675E-02 
366	 8.34472588689831E-02 
367	 8.29823571981668E-02 
368	 8.22555678335747E-02 
369	 8.31258916106338E-02 
370	 8.33892952186576E-02 
371	 8.32960785728292E-02 
372	 8.29507433539631E-02 
373	 8.25422111853556E-02 
374	 8.34396299833122E-02 
375	 8.46343992276335E-02 
376	 8.50471051538867E-02 
377	 8.39606647642918E-02 
378	 8.36356886981394E-02 
379	 8.40596636773552E-02 
380	 8.47691078570475E-02 
381	 8.59834486527841E-02 
382	 0.086512362228795 
383	 8.62709143420971E-02 
384	 8.58302394191448E-02 
385	 0.085582902746123 
386	 8.67383812736063E-02 
387	 8.84585915662522E-02 
388	 8.77917537760844E-02 
389	 8.69471137136677E-02 
390	 8.62322252260849E-02 
391	 8.59663878341216E-02 
392	 8.76135499155793E-02 
393	 8.85584548294196E-02 
394	 8.85273200490427E-02 
395	 8.83249264545256E-02 
396	 8.89539643565768E-02 
397	 8.91153682125106E-02 
398	 0.088945699378365 
399	 8.97958171911678E-02 
400	 8.99933505126456E-02 
401	 8.99566839915513E-02 
402	 9.00927428492475E-02 
403	 8.99967664140048E-02 
404	 8.99404962064792E-02 
405	 9.03477334421665E-02 
406	 9.13192817604351E-02 
407	 9.08133819883444E-02 
408	 9.09236894235458E-02 
409	 9.18375714622344E-02 
410	 9.17371138158371E-02 
411	 9.20728458577019E-02 
412	 9.26151901269925E-02 
413	 9.29611562983177E-02 
414	 9.29950893279425E-02 
415	 9.32023683102107E-02 
416	 9.36722221389016E-02 
417	 9.42368729892307E-02 
418	 9.43477741563179E-02 
419	 9.44932722000176E-02 
420	 9.49715964360195E-02 
421	 9.57676349909339E-02 
422	 9.58840936969085E-02 
423	 9.60392081293277E-02 
424	 9.67458661796693E-02 
425	 9.68736073643092E-02 
426	 9.71577364619306E-02 
427	 9.77782181161917E-02 
428	 9.85745599034248E-02 
429	 9.91091229921537E-02 
430	 9.95434725078092E-02 
431	 0.100086291604908 
432	 0.100916066012893 
433	 0.101412613521819 
434	 0.101765780908629 
435	 0.102254675423487 
436	 0.102864312485847 
437	 0.103322150814373 
438	 0.103878188202057 
439	 0.104904977022619 
440	 0.105171199624619 
441	 0.105476603539531 
442	 0.106168711005208 
443	 0.106601519869232 
444	 0.107148450667071 
445	 0.107764275298007 
446	 0.108306011436193 
447	 0.10867434478601 
448	 0.109207214033919 
449	 0.109802187962632 
450	 0.110069656546967 
451	 0.110399135379072 
452	 0.110759880668432 
453	 0.111093806046711 
454	 0.111373523477856 
455	 0.112192823289067 
456	 0.11289314022022 
457	 0.112703442921773 
458	 0.112835378577064 
459	 0.113234127767901 
460	 0.113709136339268 
461	 0.114005490343164 
462	 0.114124574126382 
463	 0.11443632103646 
464	 0.115104865496646 
465	 0.115579616047169 
466	 0.115645268928914 
467	 0.115741252636133 
468	 0.11647086480739 
469	 0.116871578516629 
470	 0.117216366054214 
471	 0.117537190385236 
472	 0.11738946692423 
473	 0.117659530556121 
474	 0.11824940857419 
475	 0.118850349652891 
476	 0.119495444755036 
477	 0.11981580170778 
478	 0.119883511905159 
479	 0.120078077258547 
480	 0.120461703250627 
481	 0.120905805002274 
482	 0.121368716573104 
483	 0.122065487054499 
484	 0.122638432205495 
485	 0.123006525480058 
486	 0.123255497973348 
487	 0.123634769777421 
488	 0.12431683613112 
489	 0.124935087640041 
490	 0.124708888641762 
491	 0.125195561682394 
492	 0.126121530277855 
493	 0.126944492828946 
494	 0.127439506361752 
495	 0.128018216246722 
496	 0.128711618614084 
497	 0.129340808959063 
498	 0.129746825592308 
499	 0.130269390331409 
500	 0.130943840131159 
501	 0.131250287287074 
502	 0.131866714792154 
503	 0.132657975445834 
504	 0.133327696292326 
505	 0.133969167856189 
506	 0.13457611690998 
507	 0.135205036332191 
508	 0.135936170579625 
509	 0.136392964289474 
510	 0.136957114322576 
511	 0.137790939601275 
512	 0.138271414263441 
513	 0.138698107061429 
514	 0.139291623273559 
515	 0.140177010666572 
516	 0.14099602398677 
517	 0.141695141504777 
518	 0.142362322437613 
519	 0.143218301869963 
520	 0.144021676107203 
521	 0.144807828628612 
522	 0.145650573446975 
523	 0.146539439613951 
524	 0.147181317685894 
525	 0.14780835223359 
526	 0.148938857213956 
527	 0.149724260323855 
528	 0.150441321431209 
529	 0.151287307565434 
530	 0.151958461272918 
531	 0.152754571368471 
532	 0.153808166188423 
533	 0.155058222961656 
534	 0.15580322971384 
535	 0.156391129130372 
536	 0.157070192878427 
537	 0.157884369625124 
538	 0.158905837689939 
539	 0.159910686240791 
540	 0.160729537909617 
541	 0.161607979079283 
542	 0.162534312723857 
543	 0.163520592776633 
544	 0.164565271317559 
545	 0.165348300180289 
546	 0.166052513945778 
547	 0.166867707911007 
548	 0.167891236193985 
549	 0.168772788776712 
550	 0.169524296179837 
551	 0.170313264679725 
552	 0.17132805332769 
553	 0.172310882988785 
554	 0.173126701286252 
555	 0.173811162367368 
556	 0.174820845934886 
557	 0.175854850546482 
558	 0.176611902590218 
559	 0.177485705915665 
560	 0.178215498596918 
561	 0.178912412641148 
562	 0.179881969340456 
563	 0.180822445531589 
564	 0.181641426371271 
565	 0.182292243551052 
566	 0.182733479623001 
567	 0.183369896957001 
568	 0.184032634119536 
569	 0.184441986278389 
570	 0.185063772163012 
571	 0.185783165532623 
572	 0.186401168741397 
573	 0.186682454879022 
574	 0.187111183086597 
575	 0.187589062975399 
576	 0.187905323706094 
577	 0.187947047369707 
578	 0.188041370115899 
579	 0.188198327935848 
580	 0.188254096325969 
581	 0.188494767846088 
582	 0.188654664606228 
583	 0.188555191354611 
584	 0.188263256152699 
585	 0.188203828734517 
586	 0.188198278936113 
587	 0.187904316236855 
588	 0.187601033968814 
589	 0.187361033074109 
590	 0.187164969951607 
591	 0.186884483188478 
592	 0.186368612502999 
593	 0.185696325066999 
594	 0.184993630638688 
595	 0.184363615718646 
596	 0.183353603530332 
597	 0.182039142311959 
598	 0.180805067994047 
599	 0.179751487837982 
600	 0.178662143903143 
601	 0.177689270319349 
602	 0.177738329888185 
603	 0.177315999134758 
604	 0.176732927414847 
605	 0.176704804668874 
606	 0.176741374748192 
607	 0.176837115569152 
608	 0.176944144612281 
609	 0.176957560462569 
610	 0.176937210705201 
611	 0.176828490531151 
612	 0.176661194265914 
613	 0.176761456055244 
614	 0.177063075069061 
615	 0.177296282574544 
616	 0.177128532129312 
617	 0.176829090989224 
618	 0.17680161943219 
619	 0.177127035608483 
620	 0.177393335174715 
621	 0.177257511231604 
622	 0.177004110890411 
623	 0.177013635486032 
624	 0.176894590979352 
625	 0.176917143899104 
626	 0.177152645245095 
627	 0.177431098105782 
628	 0.177117446945724 
629	 0.176831344501842 
630	 0.177001709265745 
631	 0.176891039049238 
632	 0.176924900977152 
633	 0.177047548381291 
634	 0.176995007749415 
635	 0.176749528896884 
636	 0.176503286416295 
637	 0.176471763908234 
638	 0.176890835781938 
639	 0.176869357612012 
640	 0.176517446244988 
641	 0.176218729512112 
642	 0.176042375374624 
643	 0.175992564403589 
644	 0.175991675128722 
645	 0.175905501145018 
646	 0.175889100417911 
647	 0.175586602418058 
648	 0.174976684722321 
649	 0.175008602979392 
650	 0.174753404798948 
651	 0.174329961230534 
652	 0.174125956074684 
653	 0.173402307022477 
654	 0.172545109804132 
655	 0.171793342254609 
656	 0.171164517243543 
657	 0.170531203688734 
658	 0.170004496471644 
659	 0.169593173226565 
660	 0.168854293368989 
661	 0.168397469770823 
662	 0.168187600633819 
663	 0.167829458896665 
664	 0.167605212261088 
665	 0.167678696491704 
666	 0.167866123763824 
667	 0.167373394194914 
668	 0.167078849963766 
669	 0.167101168390818 
670	 0.167242589409956 
671	 0.16713103722843 
672	 0.166807917609956 
673	 0.166635750477969 
674	 0.16717270106647 
675	 0.167253981785323 
676	 0.166945149871273 
677	 0.166632081192477 
678	 0.1668846964819 
679	 0.167090015158437 
680	 0.166993314017368 
681	 0.166607873128818 
682	 0.166485125945085 
683	 0.166671793441187 
684	 0.166940498680378 
685	 0.166765716737681 
686	 0.166056903749682 
687	 0.165566932205932 
688	 0.165794946629711 
689	 0.165344838003553 
690	 0.164710139359355 
691	 0.164149046976706 
692	 0.16374459226497 
693	 0.162988913097583 
694	 0.161915438461361 
695	 0.160787034863674 
696	 0.159835777778124 
697	 0.159079300308064 
698	 0.158141331068394 
699	 0.156754128355607 
700	 0.155507855265659 
701	 0.154163030548155 
702	 0.152666767938641 
703	 0.151100758799099 
704	 0.149910024151664 
705	 0.148634250292375 
706	 0.14697657830592 
707	 0.145145326401706 
708	 0.14310332212925 
709	 0.141147547259471 
710	 0.139454068129806 
711	 0.13678359065918 
712	 0.134170806925202 
713	 0.131982085608588 
714	 0.129678981762458 
715	 0.127320831804118 
716	 0.124775004487648 
717	 0.122212151530194 
718	 0.119599468690913 
719	 0.116124382668524 
720	 0.113096893870828 
721	 0.110991166183181 
722	 0.108800701184008 
723	 0.106251813122391 
724	 0.103565912415479 
725	 0.100539582717912 
726	 9.78629450693157E-02 
727	 0.095071107265481 
728	 9.17804841830375E-02 
729	 0.088534479953587 
730	 8.51419487277852E-02 
731	 8.20897664324883E-02 
732	 7.96422197170905E-02 
733	 7.75676816146253E-02 
734	 7.57365017677655E-02 
735	 7.41669252399403E-02 
736	 0.072986005858925 
737	 7.20437954420541E-02 
738	 7.12196457287554E-02 
739	 7.04978385832962E-02 
740	 0.070047502950841 
741	 6.99514588677391E-02 
742	 6.98462556674685E-02 
743	 6.92892196325681E-02 
744	 6.91334328062638E-02 
745	 6.90481567087997E-02 
746	 6.89167510825014E-02 
747	 6.90625468972505E-02 
748	 6.88177849286075E-02 
749	 6.85026107071297E-02 
750	 6.84832487077591E-02 
751	 6.83874577910744E-02 
752	 6.83378297441564E-02 
753	 6.82996683525067E-02 
754	 6.81836706796521E-02 
755	 6.81872285068983E-02 
756	 6.81338308854169E-02 
757	 0.068050125937488 
758	 6.84054408486809E-02 
759	 6.83274235578671E-02 
760	 6.82447676646536E-02 
761	 6.89568375292794E-02 
762	 6.84575211003074E-02 
763	 6.86365570300838E-02 
764	 6.89598753109731E-02 
765	 6.85994813169546E-02 
766	 6.87264750400585E-02 
767	 6.88151957840889E-02 
768	 6.87339459554639E-02 
769	 6.87219847694501E-02 
770	 6.89138013637126E-02 
771	 6.91500246943146E-02 
772	 6.92946620233944E-02 
773	 6.94539564786393E-02 
774	 6.96188553640444E-02 
775	 6.98748620497637E-02 
776	 7.02202901310458E-02 
777	 6.98334972597963E-02 
778	 7.00350905291327E-02 
779	 7.08200939045461E-02 
780	 7.07826470095338E-02 
781	 7.09281153267802E-02 
782	 7.16611825730307E-02 
783	 7.27378389127844E-02 
784	 7.26655956019073E-02 
785	 7.29920395082659E-02 
786	 7.36305772152844E-02 
787	 7.39688874424845E-02 
788	 7.40719887605459E-02 
789	 7.46661938683798E-02 
790	 7.54864879513448E-02 
791	 7.55798818197592E-02 
792	 7.58717823114626E-02 
793	 7.67628381429711E-02 
794	 7.78805749858473E-02 
795	 7.76535519621676E-02 
796	 7.79891764283207E-02 
797	 7.88168716994415E-02 
798	 7.95235370888506E-02 
799	 7.96379385245111E-02 
800	 8.00529373206885E-02 
801	 8.07563803466938E-02 
802	 8.11934158987097E-02 
803	 0.081238715782579 
804	 8.13575192768171E-02 
805	 8.16871214769112E-02 
806	 8.19443599496415E-02 
807	 8.14761547894464E-02 
808	 8.11513935814876E-02 
809	 8.14943434017409E-02 
810	 0.081093808186064 
811	 8.18936451314361E-02 
812	 8.30194432557196E-02 
813	 8.24931406033609E-02 
814	 8.14555616973102E-02 
815	 8.07969509809326E-02 
816	 8.02340124560785E-02 
817	 7.87252747638457E-02 
818	 7.80077434703966E-02 
819	 7.75454403645923E-02 
820	 7.68972460148588E-02 
821	 7.60344411804217E-02 
822	 7.46089012442829E-02 
823	 7.28509772361883E-02 
824	 7.11968869168638E-02 
825	 6.98756029226131E-02 
826	 6.80573643877647E-02 
827	 6.61145996934152E-02 
828	 6.47960392193921E-02 
829	 6.29164482524852E-02 
830	 6.12432719320975E-02 
831	 6.01835485125433E-02 
832	 5.96532868984383E-02 
833	 5.77458816831919E-02 
834	 5.67570448074948E-02 
835	 5.71765960054284E-02 
836	 5.67686316727245E-02 
837	 5.63893930472863E-02 
838	 5.59848808590279E-02 
839	 5.55309893926746E-02 
840	 5.55205018634191E-02 
841	 0.055408864413808 
842	 5.48240019105138E-02 
843	 5.38085693012654E-02 
844	 5.38051734972284E-02 
845	 5.38750595875791E-02 
846	 5.36838482834807E-02 
847	 5.33776206175719E-02 
848	 5.28601984710078E-02 
849	 5.26752793939076E-02 
850	 5.28724891541966E-02 
851	 5.28078513846227E-02 
852	 5.26914521890404E-02 
853	 5.25506956874946E-02 
854	 5.23791184121273E-02 
855	 5.21202933926688E-02 
856	 0.052440549295693 
857	 5.25108985328319E-02 
858	 5.16374394847667E-02 
859	 5.10711271325962E-02 
860	 5.04581865732163E-02 
861	 5.02472728920353E-02 
862	 5.09119516358902E-02 
863	 5.07401705725032E-02 
864	 5.01940164630478E-02 
865	 4.97380706365175E-02 
866	 4.96626628914973E-02 
867	 0.049955878376203 
868	 4.98364560753529E-02 
869	 4.93544827206604E-02 
870	 4.96810210852049E-02 
871	 4.91959714122809E-02 
872	 4.86904188198495E-02 
873	 4.88037723390879E-02 
874	 4.86376835909369E-02 
875	 4.85719632470955E-02 
876	 4.87415867198342E-02 
877	 4.89525547604369E-02 
878	 4.80624507276877E-02 
879	 4.78207515793333E-02 
880	 4.80704184686304E-02 
881	 4.78039774835697E-02 
882	 4.71132206891721E-02 
883	 4.72454132833367E-02 
884	 4.74478559972557E-02 
885	 4.60120678086949E-02 
886	 4.71513599464839E-02 
887	 0.047262579590583 
888	 4.56670630780641E-02 
889	 4.58165118181871E-02 
890	 4.59734900315905E-02 
891	 4.59051335550563E-02 
892	 4.60447298356904E-02 
893	 4.76794931937909E-02 
894	 4.74698333987152E-02 
895	 4.55280549158078E-02 
896	 4.37555299531295E-02 
897	 4.52127625015206E-02 
898	 4.56385610947507E-02 
899	 4.50792132882128E-02 
900	 4.50834010393518E-02 
901	 4.57523824253284E-02 
902	 4.42685464909632E-02 
903	 4.35138424089691E-02 
904	 4.63723454554762E-02 
905	 4.50973918217767E-02 
906	 4.42208241667035E-02 
907	 4.39226597581986E-02 
908	 4.15302793667066E-02 
909	 0.041731653677675 
910	 4.36982125315876E-02 
911	 4.50338235535118E-02 
912	 4.32653267597549E-02 
913	 4.18884738532493E-02 
914	 3.98897992683096E-02 
915	 3.96524077907261E-02 
916	 4.60561877358632E-02 
917	 4.50009460492069E-02 
918	 4.20418000341928E-02 
919	 4.11762495224191E-02 
920	 4.09362334400897E-02 
921	 4.11818582122977E-02 
922	 4.11207933557228E-02 
923	 4.07740467941536E-02 
924	 4.21250782934722E-02 
925	 4.61667260226376E-02 
926	 4.67039307890142E-02 
927	 3.91527240873133E-02 
928	 3.86575957631487E-02 
929	 3.65556379861061E-02 
930	 4.02544350843849E-02 
931	 6.07597250156358E-02 
932	 4.45379560174557E-02 
933	 3.09969400796865E-02 
934	 0.04365579895044 
935	 0.062905383176527 
936	 3.50500941447515E-02 
937	 2.60697384504837E-02 
938	 3.49292483762405E-02 
939	 3.85617615418883E-02 
940	 2.67982144421422E-02 
941	 3.00110476195018E-02 
942	 3.85100092082748E-02 
943	 2.72002981445511E-02 
944	 1.39454537866876E-02 
945	 2.62963761525214E-02 
946	 4.48946674019283E-02 
947	 3.56457273035339E-02 
948	 3.59205088080936E-02 
949	 4.48808728739729E-02 
950	 5.35544055142137E-02 
951	 0.052622849511059 
952	 4.41155567915681E-02 
953	 3.74079522400516E-02 
954	 3.40903438540822E-02 
955	 3.13690891542115E-02 
956	 3.90029802933847E-02 
957	 4.50399666046206E-02 
958	 4.31282083738723E-02 
959	 3.43429651590953E-02 
960	 3.67074947251298E-02 
961	 4.01130292832236E-02 
962	 3.91544250790373E-02 
963	 3.49045137463923E-02 
964	 3.63347115786399E-02 
965	 3.44493112389414E-02 
966	 3.21527086965592E-02 
967	 3.85067538008191E-02 
968	 4.45832519897229E-02 
969	 4.26004406624162E-02 
970	 3.75760184038444E-02 
971	 0.042110178506415 
972	 4.13988717478142E-02 
973	 3.94519786054892E-02 
974	 3.80976031181436E-02 
975	 3.59335872012203E-02 
976	 4.10439948892299E-02 
977	 4.24570695772842E-02 
978	 3.90546752239876E-02 
979	 3.90919331123611E-02 
980	 4.05552010151216E-02 
981	 4.18634083866056E-02 
982	 4.11278014735944E-02 
983	 3.75767680038466E-02 
984	 3.97249269933026E-02 
985	 3.75167703677126E-02 
986	 0.034144336540778 
987	 4.04899991976102E-02 
988	 3.86310436436948E-02 
989	 3.59048317827546E-02 
990	 3.69927777616347E-02 
991	 4.09840142861269E-02 
992	 3.77409119861573E-02 
993	 3.51168377616096E-02 
994	 0.035879258870797 
995	 3.75015963606676E-02 
996	 3.71269095994554E-02 
997	 3.75420331687282E-02 
998	 0.040336841228654 
999	 0.043952062212612 
1000	 3.70501548103274E-02 
1001	 3.99313604640001E-02 
1002	 3.86372368177988E-02 
1003	 3.91095105601822E-02 
1004	 4.07174308340853E-02 
1005	 4.15113541570658E-02 
1006	 4.37599971581504E-02 
1007	 4.49111610761705E-02 
1008	 4.34473013495151E-02 
1009	 4.08027541789421E-02 
1010	 3.73072679584831E-02 
1011	 3.67224017716362E-02 
1012	 3.87198332866923E-02 
1013	 3.98750840736208E-02 
1014	 4.01116299719516E-02 
1015	 4.04728178847168E-02 
1016	 4.02789159516095E-02 
1017	 3.81186138868001E-02 
1018	 3.80093436916787E-02 
1019	 3.99984953599861E-02 
1020	 4.02589285041015E-02 
1021	 4.02923473660937E-02 
1022	 3.93099070996323E-02 
1023	 3.88846367516301E-02 
1024	 3.94750322307444E-02 
1025	 4.02243517499149E-02 
1026	 4.23764989685134E-02 
1027	 4.31247053406312E-02 
1028	 0.043581047407004 
1029	 4.27657295851806E-02 
1030	 4.05866713408234E-02 
1031	 3.95863206097418E-02 
1032	 3.76877316253813E-02 
1033	 3.71511724907592E-02 
1034	 3.78066707704356E-02 
1035	 3.86300308743553E-02 
1036	 4.03823180753616E-02 
1037	 4.14002295570053E-02 
1038	 4.30588386185916E-02 
1039	 0.043721198816309 
1040	 4.40123385492936E-02 
1041	 4.31899398385705E-02 
1042	 4.23762252997664E-02 
1043	 4.10840123166812E-02 
1044	 4.01946820079933E-02 
1045	 3.88530863512433E-02 
1046	 3.78208067904549E-02 
1047	 3.70956553386211E-02 
1048	 3.63496286202149E-02 
1049	 3.51258115875503E-02 
1050	 0.034922918234835 
1051	 3.48408745079889E-02 
1052	 3.56906165575527E-02 
1053	 3.90256780207454E-02 
1054	 4.00182405836847E-02 
1055	 4.02860953549231E-02 
1056	 4.06298711560386E-02 
1057	 4.03803976513486E-02 
1058	 3.78433417772621E-02 
1059	 3.80949293256525E-02 
1060	 4.02822153956616E-02 
1061	 4.05194824489208E-02 
1062	 4.13449393779628E-02 
1063	 4.05868393126094E-02 
1064	 3.72936756194354E-02 
1065	 0.036140191348988 
1066	 3.44996396874381E-02 
1067	 0.034510824004309 
1068	 3.70761408311399E-02 
1069	 3.81384770914858E-02 
1070	 3.98267484335845E-02 
1071	 0.040662803306433 
1072	 3.99714115496571E-02 
1073	 3.99309078409817E-02 
1074	 3.97735644224953E-02 
1075	 0.039496613335129 
1076	 3.91364530995659E-02 
1077	 3.87005060427788E-02 
1078	 3.85992872128211E-02 
1079	 3.85893373719872E-02 
1080	 3.83551297159452E-02 
1081	 3.78255469828464E-02 
1082	 3.80726624357126E-02 
1083	 3.89697718483476E-02 
1084	 3.94066169047126E-02 
1085	 4.05666687390006E-02 
1086	 4.08779439119513E-02 
1087	 3.94959880834523E-02 
1088	 0.039159488720912 
1089	 3.84599035906981E-02 
1090	 3.97875724605717E-02 
1091	 4.02409802696892E-02 
1092	 4.13629293439434E-02 
1093	 4.15601936599792E-02 
1094	 4.13717082752672E-02 
1095	 4.10510084935741E-02 
1096	 3.92972910369139E-02 
1097	 3.98781795681417E-02 
1098	 4.18486111910324E-02 
1099	 4.31647360365971E-02 
1100	 4.76513219579769E-02 
1101	 4.88681950003195E-02 
1102	 4.62924783450224E-02 
1103	 4.52188417692811E-02 
1104	 0.0430276598125 
1105	 4.05136393353962E-02 
1106	 4.01333320038012E-02 
1107	 4.48839074288012E-02 
1108	 4.69680188048104E-02 
1109	 0.044937999703282 
1110	 4.48197638349011E-02 
1111	 4.12537524921438E-02 
1112	 4.16886729385836E-02 
1113	 4.71511756108642E-02 
1114	 5.14873494267561E-02 
1115	 6.07457800300499E-02 
1116	 6.21078680194847E-02 
1117	 5.52921889302959E-02 
1118	 5.32844131982069E-02 
1119	 4.00258351299369E-02 
1120	 3.15557430798101E-02 
1121	 3.30028408675135E-02 
1122	 2.87270672855942E-02 
1123	 6.44090995374307E-02 
1124	 0.100836698282861 
1125	 0.111914042081333 
1126	 0.100674818026546 
1127	 5.86347905084937E-02 
1128	 7.67867969876049E-02 
1129	 7.46337912051391E-02 
1130	 9.26346030007144E-02 
1131	 0.094467219902518 
1132	 6.93596290403193E-02 
1133	 5.96708567312352E-02 
1134	 0.089066891383914 
1135	 8.62600040310816E-02 
1136	 4.57461821162509E-02 
1137	 0.040503698231439 
1138	 4.67459155076943E-02 
1139	 3.93949161669876E-02 
1140	 2.64703661424091E-02 
1141	 4.62541316031368E-02 
1142	 6.05406982866939E-02 
1143	 2.67721191944163E-02 
1144	 2.28099643945704E-02 
1145	 7.02937703603686E-02 
1146	 7.63291520449006E-02 
1147	 6.29853621458066E-02 
1148	 0.068590458800318 
1149	 4.74786691154219E-02 
1150	 4.06483024592536E-02 
1151	 4.91173451121366E-02 
1152	 5.34734366532318E-02 
1153	 5.18642272978357E-02 
1154	 5.28427191491792E-02 
1155	 5.65066212765995E-02 
1156	 5.75930137837999E-02 
1157	 5.24007248220888E-02 
1158	 4.98766724062796E-02 
1159	 0.050083454781712 
1160	 4.61394357784504E-02 
1161	 4.38324768607896E-02 
1162	 4.61271937818311E-02 
1163	 4.36270783504566E-02 
1164	 3.85590848619779E-02 
1165	 3.73843394297195E-02 
1166	 0.038827045076979 
1167	 4.00472603147355E-02 
1168	 3.90281335007083E-02 
1169	 3.79665105891036E-02 
1170	 3.62572329397871E-02 
1171	 3.65187534435969E-02 
1172	 3.94659812625776E-02 
1173	 4.12781012350282E-02 
1174	 4.53346872528656E-02 
1175	 4.34955721909079E-02 
1176	 3.82019118571913E-02 
1177	 3.57546412630579E-02 
1178	 3.57552152399396E-02 
1179	 3.59103958360655E-02 
1180	 4.07489991071783E-02 
1181	 4.40899565899817E-02 
1182	 4.14130149111121E-02 
1183	 4.06085135512095E-02 
1184	 4.07772973396376E-02 
1185	 3.85306534072543E-02 
1186	 0.037355196475636 
1187	 3.89226020896095E-02 
1188	 0.040103241452653 
1189	 3.96373229195059E-02 
1190	 3.98040770783805E-02 
1191	 4.06998691335121E-02 
1192	 0.040928247701391 
1193	 4.04126132495776E-02 
1194	 0.040740484475091 
1195	 4.27920319696216E-02 
1196	 4.27135378286773E-02 
1197	 4.09098764505458E-02 
1198	 4.18584119636039E-02 
1199	 4.25806724808905E-02 
1200	 4.15467741081789E-02 
1201	 4.15820629895038E-02 
1202	 0.041020351126366 
1203	 3.96926816050768E-02 
1204	 3.98327873055556E-02 
1205	 4.03776260763548E-02 
1206	 4.03482209697185E-02 
1207	 4.04509024962709E-02 
1208	 4.13415087254901E-02 
1209	 4.10000731896334E-02 
1210	 3.96004073435632E-02 
1211	 3.93669655979211E-02 
1212	 3.86510369119618E-02 
1213	 3.77594126383371E-02 
1214	 3.71157980126185E-02 
1215	 3.75226763262362E-02 
1216	 0.037628297366825 
1217	 3.81666084789358E-02 
1218	 3.80728129366889E-02 
1219	 3.91989115151055E-02 
1220	 0.040993524384676 
1221	 3.94675916116277E-02 
1222	 3.80328223354407E-02 
1223	 3.80754515760979E-02 
1224	 3.64280101094908E-02 
1225	 3.63553291457957E-02 
1226	 3.87851988028916E-02 
1227	 4.03413324389179E-02 
1228	 4.08010193793173E-02 
1229	 4.01717713367748E-02 
1230	 4.01711119202342E-02 
1231	 4.07360399265153E-02 
1232	 4.03955235538957E-02 
1233	 4.06124564679116E-02 
1234	 4.16237821439748E-02 
1235	 4.16484831138927E-02 
1236	 4.05788495614591E-02 
1237	 4.02579802101512E-02 
1238	 4.02484767901695E-02 
1239	 3.99817513358043E-02 
1240	 3.89698275097973E-02 
1241	 0.039064801289419 
1242	 3.97296126295503E-02 
1243	 0.03860054267022 
1244	 3.80244950119671E-02 
1245	 3.88310708020649E-02 
1246	 3.99215459372088E-02 
1247	 4.04838325465841E-02 
1248	 3.91935245644163E-02 
1249	 3.83419575451534E-02 
1250	 3.75951341692866E-02 
1251	 3.72434389862204E-02 
1252	 3.78738670045926E-02 
1253	 3.85555086252444E-02 
1254	 4.06918687041466E-02 
1255	 4.10381164851269E-02 
1256	 0.040199829941426 
1257	 3.79598236887785E-02 
1258	 3.83784838612575E-02 
1259	 3.88519054383108E-02 
1260	 3.89307793806129E-02 
1261	 4.14992813041513E-02 
1262	 4.17854134162397E-02 
1263	 3.95168974492042E-02 
1264	 3.74246096644564E-02 
1265	 3.88395269199472E-02 
1266	 4.06761814951381E-02 
1267	 4.02812628884589E-02 
1268	 0.040456829326048 
1269	 4.15662331717198E-02 
1270	 4.15142920061113E-02 
1271	 4.08690923527755E-02 
1272	 4.15429286885249E-02 
1273	 4.07222552452855E-02 
1274	 3.89376046026317E-02 
1275	 3.89286326013609E-02 
1276	 3.84608770932151E-02 
1277	 3.81186177338117E-02 
1278	 3.89511567719661E-02 
1279	 0.040498747907657 
1280	 4.23417760252672E-02 
1281	 0.042763573676243 
1282	 0.040527615294996 
1283	 4.03472961261425E-02 
1284	 4.15886545718456E-02 
1285	 4.16974813566804E-02 
1286	 4.18761712234925E-02 
1287	 4.16591009606343E-02 
1288	 3.98224681832547E-02 
1289	 3.89425633160657E-02 
1290	 3.81010209060519E-02 
1291	 3.87514631457319E-02 
1292	 3.92640173026451E-02 
1293	 4.03128355711626E-02 
1294	 4.10506636201702E-02 
1295	 0.041529182548427 
1296	 4.37129570082576E-02 
1297	 4.38383607386758E-02 
1298	 3.98836412397551E-02 
1299	 3.96977845225131E-02 
1300	 4.14605747777556E-02 
1301	 3.96231569701199E-02 
1302	 4.05525070315187E-02 
1303	 4.34495358184318E-02 
1304	 4.47278316615018E-02 
1305	 4.43078695251912E-02 
1306	 4.31512938782838E-02 
1307	 4.18033321159039E-02 
1308	 0.042364340695951 
1309	 4.11640476210947E-02 
1310	 4.04931252800879E-02 
1311	 4.35225487002458E-02 
1312	 4.43763073117111E-02 
1313	 4.37583844910039E-02 
1314	 4.24413710243513E-02 
1315	 3.80229479309322E-02 
1316	 3.82131299972481E-02 
1317	 4.19274128713395E-02 
1318	 4.13725035246798E-02 
1319	 3.98204839326607E-02 
1320	 4.23925362556795E-02 
1321	 4.43041393344688E-02 
1322	 4.52047298423321E-02 
1323	 4.31340612913837E-02 
1324	 4.92461659353555E-02 
1325	 5.40555632722526E-02 
1326	 4.30543119397028E-02 
1327	 4.30428182393283E-02 
1328	 6.12983461194762E-02 
1329	 5.90778013886144E-02 
1330	 4.15053897750709E-02 
1331	 3.66350428492265E-02 
1332	 4.00053953543207E-02 
1333	 5.62003618425429E-02 
1334	 6.61320279639484E-02 
1335	 6.62961035422648E-02 
1336	 0.051066940905298 
1337	 0.049947038665257 
1338	 4.80923958817879E-02 
1339	 0.041962477752526 
1340	 3.92045676372428E-02 
1341	 4.00655164961838E-02 
1342	 3.05010410013866E-02 
1343	 2.82401364661576E-02 
1344	 5.43414416776243E-02 
1345	 6.25541954735525E-02 
1346	 4.85565625270887E-02 
1347	 3.82917457178685E-02 
1348	-1.50828738083958E-03 
1349	 5.43314757415883E-03 
1350	 0.129047823601461 
1351	 0.1570743253508 
1352	 0.126424442602508 
1353	 0.200421077385385 
1354	 0.304131206204001 
1355	-0.666601955642532 
1356	-0.689810545756394 
1357	-0.471485302052465 
1358	-1.14601910523557 
1359	-1.290855675186 
1360	-0.265155399940512 
1361	-3.33085712819683 
1362	 0.722912014519095 
1363	 0.197577626388766 
1364	 0.48821130792882 
1365	 1.12256519075235 
1366	 2.22256214920621 
1367	 1.7684102316824 
1368	 1.95781223517493 
1369	 0.675085176884529 
1370	 0.375648948629929 
1371	 0.295337685040579 
1372	 0.669862145119468 
1373	 0.480755019834957 
1374	 1.20830117037851 
1375	 6.92625352190687 
1376	 5.03193759450387 
1377	 1.6174096447476 
1378	 3.89090262518264 
1379	-0.148036744744949 
1380	 0.856109906775934 
1381	-0.716233027425149 
1382	-0.884978584578332 
1383	 1.31494191957665 
1384	 4.44384831032568 
1385	 0.951608759586844 
1386	 9.35260129220181E-02 
1387	-3.5195977411601 
1388	 0.371091318429357 
1389	-0.358375742350831 
1390	-0.461402920971422 
1391	-2936.30552451925 
1392	 0.714745907164312 
1393	 1.67710683041952 
1394	-0.852546670290455 
1395	-0.850041462041422 
1396	 2.32287255637372 
1397	-0.106510757781815 
1398	-1.35276315657464 
1399	-0.62650789000866 
1400	-6.31770387379807E-02 
1401	-2.14501377976472 
1402	-0.636219902697009 
1403	 0.539557350865687 
1404	 1.05289495034909 
1405	 0.939672109216972 
1406	 0.349179422267843 
1407	 0.357406846334137 
1408	-1.62588536793271 
1409	-2.43206364818962 
1410	 2.17069785044759 
1411	 2.50493619126825 
1412	 3.8153798945591 
1413	-164.733642487482 
1414	-2.15021799343591 
1415	 2.59320338995441 
1416	-0.332623828775993 
1417	-8.20759250098197E-03 
1418	 0.899995855900579 
1419	 0.998980786574702 
1420	 2.21244333439449 
1421	 3.10427468777181 
1422	 2.4684013138491 
1423	 1.12616749313618 
1424	 0.897792724695743 
1425	 0.764769812424391 
1426	-0.013359065945207 
1427	 2.57723108564213E-02 
1428	 1.98326879579789 
1429	-6.05025209403784 
1430	 1.84272561734767 
1431	 3.43295991457998 
1432	-1.64055936314899 
1433	-1.31655052094595 
1434	-3.60561445045206E-02 
1435	 0.027822430018883 
1436	-0.167690180906447 
1437	-0.194078450513118 
1438	 0.643106138514251 
1439	 2.03739489702148 
1440	 1.21186017713184 
1441	-24.0195302495244 
1442	-1.4724200603046 
1443	-0.82595204890869 
1444	 6.55141194857665E-03 
1445	-6.67520641812611E-03 
1446	-3.59087041575986E-02 
1447	 0.168288633642805 
1448	 4.56933622462863E-02 
1449	 0.106958794207052 
1450	 0.233776935334867 
1451	 0.286565619030053 
1452	 0.804921434591797 
1453	 0.536900242991215 
1454	 0.492761954669715 
1455	 1.04765101929024 
1456	 1.08895624638733 
1457	-0.285747796560842 
1458	-9.66337626108874E-02 
1459	 0.694439365320248 
1460	 0.63196547184262 
1461	 0.495255619686952 
1462	 0.453045022473271 
1463	-3.14539569908752E-02 
1464	-0.130446984516423 
1465	 7.92437338948945E-02 
1466	 0.222335533764645 
1467	 0.851415808293068 
1468	 0.619633546763615 
1469	 0.20146363624253 
1470	 0.274563230073616 
1471	 0.329135261405011 
1472	 0.229304200440078 
1473	 0.426511831450688 
1474	 0.395019339787358 
1475	 7.93940567013687E-02 
1476	 2.24632796165127E-02 
1477	 7.26622844124869E-02 
1478	 5.55853898336677E-02 
1479	-6.97121711063492E-02 
1480	-0.034476705142454 
1481	 0.136535097002506 
1482	 0.149684045581606 
1483	 0.175784585965924 
1484	 0.158771530074688 
1485	 5.45983328819765E-02 
1486	 3.78368206013334E-02 
1487	 5.90273923105283E-02 
1488	 1.94230856790592E-02 
1489	-4.70358917535035E-02 
1490	-3.98345535208179E-02 
1491	-1.75153115688025E-02 
1492	 6.46801070467485E-03 
1493	 8.35313118374441E-02 
1494	 0.102240686475826 
1495	 6.95602883861637E-02 
1496	 7.20197618927047E-02 
1497	 7.86688599479923E-02 
1498	 7.74130501611176E-02 
1499	 9.18686134800884E-02 
1500	 9.45719077292532E-02 
1501	 8.71985564697067E-02 
1502	 7.91673375194529E-02 
1503	 5.40453253091026E-02 
1504	 5.11052051911319E-02 
1505	 6.44161871973384E-02 
1506	 6.25441400670367E-02 
1507	 0.063677365762605 
1508	 8.69631177561999E-02 
1509	 6.22207355113737E-02 
1510	 4.67828477812106E-02 
1511	 5.42648175884018E-02 
1512	 4.74889080698162E-02 
1513	 5.15149068530335E-02 
1514	 5.07804907581855E-02 
1515	 2.41473552687955E-02 
1516	 7.07909288231294E-03 
1517	 2.20925299195856E-02 
1518	 3.28144300969964E-02 
1519	 2.98512794015446E-02 
1520	 0.035622557155588 
1521	 0.04075853506593 
1522	 3.63392056194028E-02 
1523	 3.60752237025904E-02 
1524	 4.02425791064504E-02 
1525	 3.66245352281944E-02 
1526	 3.29281144720136E-02 
1527	 3.54538375768441E-02 
1528	 4.09740061379306E-02 
1529	 3.78960992535282E-02 
1530	 0.033657954152984 
1531	 4.88694736375516E-02 
1532	 6.62905175126423E-02 
1533	 6.40443345135304E-02 
1534	 5.23929882128308E-02 
1535	 3.56191951186218E-02 
1536	 2.42619506578225E-02 
1537	 2.76742380857941E-02 
1538	 0.024396391601574 
1539	 2.62487075898199E-02 
1540	 3.94365868840381E-02 
1541	 4.38602620441923E-02 
1542	 5.08834455085495E-02 
1543	 5.40141220539746E-02 
1544	 4.78349880378105E-02 
1545	 4.51902305867966E-02 
1546	 4.17111425883926E-02 
1547	 4.36302877976434E-02 
1548	 0.046796924382569 
1549	 5.00255282312112E-02 
1550	 5.75488673833231E-02 
1551	 5.19360649509031E-02 
1552	 4.85392378778424E-02 
1553	 4.76039145217368E-02 
1554	 3.83682704444446E-02 
1555	 4.24058101518117E-02 
1556	 0.04609399791731 
1557	 3.74243750244222E-02 
1558	 3.72680712052359E-02 
1559	 4.55272404851451E-02 
1560	 4.74575804426393E-02 
1561	 4.42648164463547E-02 
1562	 4.30983050490218E-02 
1563	 0.046087470230501 
1564	 4.71902356519252E-02 
1565	 4.42244482911242E-02 
1566	 4.62765788245305E-02 
1567	 4.13607972525552E-02 
1568	 3.25273379955497E-02 
1569	 0.045385914478147 
1570	 5.44132264315343E-02 
1571	 4.76514540123137E-02 
1572	 4.86334491552173E-02 
1573	 4.94088785946623E-02 
1574	 4.84133272194441E-02 
1575	 4.89431339536476E-02 
1576	 4.68264866354629E-02 
1577	 4.64599199101425E-02 
1578	 4.71909935059854E-02 
1579	 4.80522610660187E-02 
1580	 4.70183535457978E-02 
1581	 4.22850963196663E-02 
1582	 0.039765721499156 
1583	 4.11337499202769E-02 
1584	 4.40169691904951E-02 
1585	 4.53536200148447E-02 
1586	 3.99081600968128E-02 
1587	 3.79943837868382E-02 
1588	 4.40861239014308E-02 
1589	 0.044147656133538 
1590	 4.08485113443005E-02 
1591	 4.32094290406331E-02 
1592	 4.50406654845268E-02 
1593	 3.80355145072073E-02 
1594	 3.41703062998865E-02 
1595	 3.76522159530247E-02 
1596	 3.75948654032788E-02 
1597	 4.23919284262252E-02 
1598	 5.04483511181865E-02 
1599	 4.96507894037918E-02 
1600	 4.79027338996454E-02 
1601	 4.97091161963849E-02 
1602	 5.16920068482672E-02 
1603	 5.32436179101421E-02 
1604	 4.99223629254923E-02 
1605	 4.56189547187355E-02 
1606	 4.52935028182118E-02 
1607	 4.46143426961685E-02 
1608	 4.57083793472004E-02 
1609	 4.95299619780528E-02 
1610	 4.64328417190965E-02 
1611	 4.07250688798204E-02 
1612	 0.040357290766987 
1613	 4.19831210776581E-02 
1614	 4.38414593380443E-02 
1615	 0.040875245346112 
1616	 3.88778795263857E-02 
1617	 4.43622123543333E-02 
1618	 4.75554621372176E-02 
1619	 4.68999455187216E-02 
1620	 4.67908708878656E-02 
1621	 4.01245568982806E-02 
1622	 3.37739203780185E-02 
1623	 3.71055341534364E-02 
1624	 3.79790681494328E-02 
1625	 0.035503489418983 
1626	 0.033590119761441 
1627	 3.24366300369828E-02 
1628	 3.39526228923973E-02 
1629	 0.036918036415263 
1630	 3.92943813077955E-02 
1631	 4.23076699053076E-02 
1632	 4.65961149101944E-02 
1633	 4.20262228628914E-02 
1634	 3.49399476170678E-02 
1635	 3.53876341092561E-02 
1636	 3.67999591184949E-02 
1637	 3.71152855530854E-02 
1638	 3.87341709423742E-02 
1639	 3.80879486605494E-02 
1640	 3.03636786320572E-02 
1641	 2.58386805458193E-02 
1642	 0.029530625967734 
1643	 3.25785346360356E-02 
1644	 3.27393881108103E-02 
1645	 3.35365766778465E-02 
1646	 3.26499303591315E-02 
1647	 2.96729248169507E-02 
1648	 2.98395406631075E-02 
1649	 3.43765438810919E-02 
1650	 3.65332571981721E-02 
1651	 3.39463546026273E-02 
1652	 3.79126209175067E-02 
1653	 4.05970791391623E-02 
1654	 4.09218668595713E-02 
1655	 4.14541429498855E-02 
1656	 4.07170045783024E-02 
1657	 3.76558166557656E-02 
1658	 3.77771968385333E-02 
1659	 3.90717231385211E-02 
1660	 4.04497310943686E-02 
1661	 4.21839160539816E-02 
1662	 4.18466557726663E-02 
1663	 4.42835343732887E-02 
1664	 4.34609740742683E-02 
1665	 3.63215631715592E-02 
1666	 3.72467086034948E-02 
1667	 4.26093310910685E-02 
1668	 4.18951020252783E-02 
1669	 3.92527912822885E-02 
1670	 3.02256647421647E-02 
1671	 2.63656408152065E-02 
1672	 2.89157663902653E-02 
1673	 3.13066495440925E-02 
1674	 3.27723350088716E-02 
1675	 3.31943719605646E-02 
1676	 3.64650432671025E-02 
1677	 4.58878062247799E-02 
1678	 0.050324330378488 
1679	 4.29029632644342E-02 
1680	 3.51463948947963E-02 
1681	 0.034402367277351 
1682	 4.07763248209473E-02 
1683	 4.51217331072395E-02 
1684	 4.17140822012215E-02 
1685	 3.74002078560776E-02 
1686	 3.31564049637916E-02 
1687	 3.59837997418912E-02 
1688	 4.23901793930804E-02 
1689	 3.70785224804937E-02 
1690	 3.51439112980056E-02 
1691	 4.37629973191555E-02 
1692	 4.74215946697174E-02 
1693	 5.07232227191943E-02 
1694	 4.94325604332143E-02 
1695	 3.67101038642065E-02 
1696	 2.81702891411717E-02 
1697	 2.45169538794514E-02 
1698	 2.06466162704926E-02 
1699	 2.77079445894061E-02 
1700	 4.18240668054735E-02 
1701	 4.36235204932583E-02 
1702	 3.69015477599544E-02 
1703	 0.030417547512585 
1704	 2.49525803438587E-02 
1705	 3.35166170626014E-02 
1706	 4.74920362071276E-02 
1707	 4.42869309367784E-02 
1708	 3.47744756462315E-02 
1709	 3.23407166023611E-02 
1710	 3.27983757320262E-02 
1711	 3.64606470119017E-02 
1712	 4.03811964742381E-02 
1713	 3.50574716003548E-02 
1714	 3.42992616954005E-02 
1715	 0.047862488473267 
1716	 0.053664181617629 
1717	 0.045180269009838 
1718	 0.043287599912186 
1719	 4.14017498915551E-02 
1720	 0.034598219808834 
1721	 3.69497579661499E-02 
1722	 4.37792239305273E-02 
1723	 4.83043957478799E-02 
1724	 5.17294866090267E-02 
1725	 4.46042181935932E-02 
1726	 3.98789736450947E-02 
1727	 3.80640490744192E-02 
1728	 3.42156448977942E-02 
1729	 4.72983236474347E-02 
1730	 5.22112817304645E-02 
1731	 3.60138113387628E-02 
1732	 2.25567420280935E-02 
1733	 1.84628136959802E-02 
1734	 1.76566615139415E-02 
1735	 2.47270551737055E-02 
1736	 3.80668335163844E-02 
1737	 3.66583009494429E-02 
1738	 3.73150614015199E-02 
1739	 0.049239149453461 
1740	 4.06189187005355E-02 
1741	 2.53348170893897E-02 
1742	 1.78281113698269E-02 
1743	 7.41853582861851E-03 
1744	 1.60196860066825E-02 
1745	 4.01495934201233E-02 
1746	 3.96155949595859E-02 
1747	 4.01137213941468E-02 
1748	 2.83351260331402E-02 
1749	 2.74890770201932E-02 
1750	 4.57505064554762E-02 
1751	 5.62336809358093E-02 
1752	 7.22369413738801E-02 
1753	 6.87804102358529E-02 
1754	 3.65800508856215E-02 
1755	 2.87442206388403E-02 
1756	 2.48605121188509E-02 
1757	 3.96009528684429E-02 
1758	 4.96082634188311E-02 
1759	 4.05530132384242E-02 
1760	 2.98808047243547E-02 
1761	 2.83983397484874E-02 
1762	 3.35496426657614E-02 
1763	 4.89734712499767E-02 
1764	 6.42108378350947E-02 
1765	 6.04447921668935E-02 
1766	 3.79925459962831E-02 
1767	 0.027923750052656 
1768	 2.97966047919387E-02 
1769	 1.67151884677585E-02 
1770	 3.20871990182142E-02 
1771	 4.31915862235062E-02 
1772	 8.11785574146987E-03 
1773	 1.79113659102623E-02 
1774	 6.51178832649451E-02 
1775	 6.57382022882119E-02 
1776	 6.49829107009964E-02 
1777	-2.75941644311307E-03 
1778	-1.54299620130457E-02 
1779	 0.066534010090445 
1780	 0.08281732466732 
1781	 7.63653744461447E-02 
1782	 8.73635706921519E-02 
1783	 4.64793847044328E-02 
1784	 2.65149733909669E-02 
1785	 9.07118253417061E-02 
1786	 0.10541533026439 
1787	 0.031749132464435 
1788	 4.17352171305607E-02 
1789	 0.115385759770258 
1790	 4.44547535217786E-02 
1791	 6.60579287550356E-02 
1792	-4.13080119361485E-03 
1793	-0.213311447777108 
1794	-9.92202156897044E-02 
1795	 6.03540935210463E-02 
1796	-1.33075409421555E-02 
1797	 0.183894743052701 
1798	 0.266875922243583 
1799	-0.157892542905673 
1800	 0.120499081615449 
1801	 0.236147612030964 
1802	 0.281303852853967 
1803	 0.356647426143441 
1804	 0.240919520260027 
1805	 9.26487614341205E-02 
1806	-0.620762434855631 
1807	-1.69840418477471 
1808	-1.06446779406886 
1809	-0.688273563812933 
1810	 0.368603819133893 
1811	 0.427881378601815 
1812	 0.98214514466615 
1813	 1.06333276336791 
1814	-1.34405869303751 
1815	-6.64613412066237 
1816	 1.09814676797028 
1817	 0.369664427319608 
1818	-9.41965331821417E-02 
1819	-1.79133177260468 
1820	-0.769046271801316 
1821	-1.15513170522524 
1822	-0.891559015087072 
1823	 11.5335561000299 
1824	-1.0195016009836 
1825	-0.182895806874261 
1826	-0.202023658559743 
1827	-0.204566314370785 
1828	 9.98573352965573E-02 
1829	-4.48541482997961 
1830	-1.26543620170073 
1831	-2.54961673378119 
1832	-1.93999597450452 
1833	-1.32908284715219 
1834	-1.44230753133566 
1835	-0.639247499817455 
1836	 2.76319042919783 
1837	 0.676627368337527 
1838	 0.739496344470033 
1839	 0.772545677188322 
1840	 1.46577901470868E-03 
1841	 0.570505835600792 
1842	 0.171892285662501 
1843	 0.174903215795449 
1844	 0.194848927590971 
1845	 0.179916121503615 
1846	 0.266825178119573 
1847	 0.170537574687948 
1848	-0.217246944179065 
1849	-0.201906478359216 
1850	-0.311454850389117 
1851	-0.56526963210681 
1852	-0.307261731584145 
1853	-0.229485306567949 
1854	-0.462543210303714 
1855	-15.3425305400027 
1856	 3.51516123752278 
1857	 2.23085571258799 
1858	 2.34188338834633 
1859	-7.11273312557542 
1860	-1.24494496297123 
1861	 1.99176187884896 
1862	-2.20902612961555 
1863	-1.00779970980792 
1864	-0.971534593497285 
1865	-0.928218000572672 
1866	-1.34736950540518 
1867	-0.168382240351849 
1868	-7.17562235208852E-02 
1869	-1.24084947724994 
1870	 1167.19678227848 
1871	 8.44214305280362 
1872	 2.22205418896641 
1873	 1.66784474495567 
1874	 1.63571519861569 
1875	 1.24086966794274 
1876	 0.860281695687121 
1877	 1.0805176685822 
1878	 1.4082583715995 
1879	 2.71075920916026 
1880	 2.44117836685989 
1881	 6.20259435668989 
1882	 1.97018372830324 
1883	-3.95018657937432 
1884	-1.29410714155559 
1885	-0.594928722881924 
1886	-1.19036851311899 
1887	-1.42376011813708 
1888	-0.485526374303481 
1889	-0.530547990437923 
1890	-0.756637410767734 
1891	-0.628128684951961 
1892	-0.282809081129227 
1893	-0.363153743651609 
1894	 0.783456712258946 
1895	 2.59314210304514 
1896	 2.21463824815645 
1897	 2.94977185360288 
1898	 4.30571837131881 
1899	 2.20041214256921 
1900	 2.72988207451197 
1901	-2.43645311759055 
1902	 2.75507783410372E-02 
1903	 3.13042161860702 
1904	 3.18978676357409 
1905	-3.84946851108179 
1906	-2.53367686634746 
1907	-0.727385766006755 
1908	 1.00372393374811 
1909	 1.26501270216656 
1910	 1.72249746465384 
1911	 1.91089134656555 
1912	 1.36148053483081 
1913	 1.14376607091014 
1914	 0.782245395717966 
1915	 0.88683890001972 
1916	 1.15458931495965 
1917	 3.16109857868252 
1918	-1.26280153270384 
1919	-1.21803620872755 
1920	-1.47661862707904 
1921	-2.37300088882638 
1922	-6.24887464598988 
1923	 4.72508930943781 
1924	-25.4559141851484 
1925	 6.34748443412828 
1926	 21.1296874086211 
1927	 12.0044167461929 
1928	-5.04333124809175 
1929	-3.8097583518968 
1930	-1.94183381884737 
1931	-3.31307107776938 
1932	 4.38542638282592 
1933	 2.38411821605171 
1934	 1.02086711161362 
1935	 0.728607310203501 
1936	 0.233139341196739 
1937	-0.679741555940704 
1938	 0.223676087347832 
1939	 1.6248928897288 
1940	 4.1685058105274 
1941	 5.94372386493655 
1942	 4.27900400921031 
1943	 3.43363972662129 
1944	 2.17101639296212 
1945	 0.571817060707975 
1946	-4.87794787383897E-02 
1947	 0.215051664009874 
1948	 0.757022383711244 
1949	 1.93430559383778 
1950	 2.04210465560462 
1951	 3.17187040413067 
1952	 3.9236384176957 
1953	 2.3158244041094 
1954	 1.36542582010822 
1955	 2.94361137749953 
1956	 23.1006151071419 
1957	-16.9015308574078 
1958	-1.94417918254288 
1959	-1.08108362118401 
1960	-0.299661285712853 
1961	 0.201431696545233 
1962	 0.155905665848603 
1963	 0.241248866416735 
1964	 0.198911135782305 
1965	 0.531848260849325 
1966	 1.29984067295802 
1967	 3.39035671527987 
1968	-1.56615280753133 
1969	 0.790030022043126 
1970	 1.11859167039051 
1971	 1.56330070793174 
1972	 1.17856096781398 
1973	 0.553827162637681 
1974	 0.967640057350601 
1975	 2.6743305203607 
1976	 5.78680782613369 
1977	-10.3969054664372 
1978	-3.83670264645743 
1979	-3.25318274200244 
1980	-2.93595526920835 
1981	-2.93394361859113 
1982	-2.20215833264369 
1983	-274.940063864703 
1984	 2.2254548647405 
1985	 3.60373903110362 
1986	 2.06651536643533 
1987	 1.83316911622181 
1988	 1.74067132965522 
1989	 0.439042860736115 
1990	 0.335129427402343 
1991	 0.620232961385053 
1992	 0.615167133344343 
1993	 1.12566307523217 
1994	 2.15521596670592 
1995	 167.020274906297 
1996	 10.3936792510402 
1997	-2.87383018208464 
1998	-1.54754274290356 
1999	 6.11977389787984 
2000	 1.72409619460208 
2001	 2.3991633661077E-04 
2002	-0.871123147104464 
2003	-0.466190011873363 
2004	-0.56841311575437 
2005	-0.107563839120399 
2006	 0.119848314898072 
2007	 0.280783836069813 
2008	 0.466025027377663 
2009	 0.645920311804123 
2010	 0.864750876923732 
2011	 1.40029207263454 
2012	 9.0001816696158 
2013	-3.04408107005807 
2014	-5.28610249050591 
2015	-4.25080631394797 
2016	-3.56197263004398 
2017	-0.9205735558769 
2018	-9.3534317816337E-03 
2019	-0.323751902477451 
2020	-0.200678633088171 
2021	-0.174885955555782 
2022	-0.914330293000963 
2023	-0.995467244647747 
2024	-1.19611443913665 
2025	-1.99674789918026 
2026	-2.15002113713016 
2027	-1.44799955595874 
2028	-0.834304401863765 
2029	-0.352352456349268 
2030	 0.287068471038344 
2031	 0.230603838102325 
2032	 0.430697035908391 
2033	 0.719174455763284 
2034	 0.884987022823876 
2035	 0.566131280050594 
2036	 0.072538025750278 
2037	-0.641086195482073 
2038	-1.00259610545414 
2039	-1.04178982792545 
2040	-0.460574308172238 
2041	-0.472862789664519 
2042	-0.697576890092258 
2043	-0.863399793997278 
2044	-1.55648864101988 
2045	-3.20538805190574 
2046	 5.3775977176609 
2047	-7.39871869661792 
2048	-0.836176405296723 
2049	-0.418594808283201 
2050	-0.378934207456762 
2051	-0.112196605665914 
2052	 0.129769443545371 
2053	 0.299380034098318 
2054	 0.329899577976499 
2055	 0.187732957198022 
2056	 0.157652937778339 
2057	 3.37223671329912E-02 
2058	-0.14555304658731 
2059	-3.32639857071412E-02 
2060	-0.115739601582413 
2061	-0.438893682515448 
2062	-0.423741719292543 
2063	-0.161504732571379 
2064	-0.192597781349497 
2065	 3.99658806893469E-02 
2066	 2.89491840072886 
2067	 0.516401552392837 
2068	-0.191497817978061 
2069	 4.49077070921904E-02 
2070	 0.164719262508381 
2071	 0.104613775907521 
2072	 3.79976779396977E-02 
2073	-0.117963181860064 
2074	-0.471929773409503 
2075	-0.633467488382 
2076	-0.986247301785898 
2077	-1.04171358875859 
2078	-0.741423581684333 
2079	-0.590016545601507 
2080	-0.341916465540235 
2081	-0.311759862366176 
2082	-0.328833129927738 
2083	-0.303769180163822 
2084	-0.367083853587556 
2085	-0.401571600579276 
2086	-0.237844612952505 
2087	-0.145279337388318 
2088	-0.136802829835964 
2089	 3.30592792824299E-02 
2090	-8.24808196638758E-02 
2091	-0.933628113475123 
2092	-0.966424203551161 
2093	-0.33947989488933 
2094	-0.298579225648198 
2095	-0.369173564647783 
2096	-0.260960537139635 
2097	-0.102373205435863 
2098	-8.24046448381833E-02 
2099	-0.073718606354342 
2100	 0.035207252927846 
2101	-7.14983986822987E-02 
2102	-0.338872803163378 
2103	-0.485578739166874 
2104	-0.406204081514968 
2105	-0.350278577881476 
2106	-0.434275760189005 
2107	-0.344466212715141 
2108	-0.394542933074526 
2109	-0.524454057377911 
2110	-0.407942693283166 
2111	-0.34715283736975 
2112	-0.386767813088895 
2113	-0.391976787156064 
2114	-0.248071255865459 
2115	-0.32578404700718 
2116	-0.729367578955693 
2117	-0.805382129465571 
2118	-0.788708360975548 
2119	-0.760821559341496 
2120	-0.658128464538286 
2121	-0.431741066123173 
2122	-0.407840014143515 
2123	-0.27899338259808 
2124	-0.20384550018356 
2125	-0.164118932967956 
2126	 4.12218929605411E-02 
2127	 1.54526793561114E-02 
2128	 0.285596780750719 
2129	 0.273187629129803 
2130	 1.40588926277363E-02 
2131	-6.93326899147278E-02 
2132	-0.264615818537031 
2133	-0.433688773058028 
2134	-0.49860439768166 
2135	-0.493125833082666 
2136	-0.456471416350173 
2137	-0.339057904446279 
2138	-0.291235071433694 
2139	-0.21111582168426 
2140	-0.163411265707302 
2141	-0.12023607879864 
2142	-0.117002989790974 
2143	-0.1550816867749 
2144	-0.193567391719021 
2145	-0.16304314345437 
2146	-0.134859000250718 
2147	-0.123224610872947 
2148	-0.171282189632469 
2149	-0.180958772846704 
2150	-0.196311133033543 
2151	-0.196578861844345 
2152	-7.82677115878525E-02 
2153	-0.132712909374082 
2154	-0.259972207963298 
2155	-0.285586401772309 
2156	-0.308268954421616 
2157	-0.319428931786613 
2158	-0.283898475930325 
2159	-0.27864506586794 
2160	-0.288884412878461 
2161	-0.302641446803509 
2162	-0.369072097727661 
2163	-0.320674862468043 
2164	-0.165911694612683 
2165	-9.29445669988241E-02 
2166	 1.40554467825696E-02 
2167	 0.100125554691817 
2168	 0.136895715388489 
2169	 0.145569070151543 
2170	 0.196656908101169 
2171	 0.172761264384505 
2172	 2.19659285660406E-02 
2173	-9.17250725645741E-02 
2174	-0.154759165472271 
2175	-0.112480030690286 
2176	-6.46044957448342E-02 
2177	-0.200767058282164 
2178	-0.27967531505786 
2179	-0.229837799673583 
2180	-0.292673381853803 
2181	-0.403612006007786 
2182	-0.432987956917672 
2183	-0.434628362354283 
2184	-0.491342249699038 
2185	-0.600654752055307 
2186	-0.597412176136362 
2187	-0.53815351957508 
2188	-0.497478459364138 
2189	-0.29131625300524 
2190	-0.172081604641818 
2191	-0.223452399276848 
2192	-0.216362641689263 
2193	-0.222076559287663 
2194	-0.191034080619052 
2195	-1.50648063176015E-02 
2196	 3.22834835960235E-02 
2197	-6.46803303698205E-02 
2198	-0.050234335028038 
2199	-4.74897239549305E-02 
2200	-4.88954302180243E-03 
2201	 3.79087714817354E-03 
2202	 0.163332231288339 
2203	-3.07117983149667E-02 
2204	-0.429902384281714 
2205	-0.313300272046123 
2206	-0.273147700326993 
2207	-0.229329951731415 
2208	-8.82695735173042E-02 
2209	-0.253833026032504 
2210	-0.422685480524747 
2211	-0.36881115091497 
2212	-0.398030536419005 
2213	-0.407705373465055 
2214	-0.329872465416134 
2215	-0.404471655055183 
2216	-0.528806064307911 
2217	-0.481172052560494 
2218	-0.351589212613656 
2219	-0.319275180831042 
2220	-0.223263140658161 
2221	-0.170533575081775 
2222	-0.43839858369607 
2223	-0.651184393178871 
2224	-0.417869298146108 
2225	-0.389462963818275 
2226	-0.467349489943586 
2227	-0.413751441038723 
2228	-0.342603418420617 
2229	-0.478230810608673 
2230	-0.879540252441764 
2231	-1.04096858482856 
2232	-1.67399382514618 
2233	-1.86257180751336 
2234	-0.933119479092973 
2235	-0.402696871589699 
2236	-0.272940131515432 
2237	-0.124807123595702 
2238	-3.82272013546108E-02 
2239	-0.130375351960161 
2240	-0.18343233557644 
2241	-0.170669988080223 
2242	-0.229864219377974 
2243	-0.099951958111802 
2244	 2.04934447673586E-02 
2245	-0.448213393217507 
2246	-0.847397740609696 
2247	-1.00545721867427 
2248	-1.24329784061471 
2249	-0.999557727068931 
2250	-0.603286459605593 
2251	-0.698798848633843 
2252	-1.19777568887039 
2253	-1.65455843195752 
2254	-2.0196858578926 
2255	-1.92528089878654 
2256	-0.919198633408754 
2257	-3.93476692490755E-02 
2258	-0.167265787061015 
2259	-0.060757898257445 
2260	-7.81715406991735E-02 
2261	-0.146382204927846 
2262	-0.255373925324539 
2263	-0.751480405818644 
2264	-1.02195324839856 
2265	-1.15494078698142 
2266	-1.38524645461405 
2267	-0.774145467908887 
2268	-0.546615709635333 
2269	-1.49420042912082 
2270	-0.57417049333044 
2271	 2.15122811758584E-02 
2272	 0.25757925481818 
2273	 0.688707445636081 
2274	 0.773787076034139 
2275	 1.31542036595962 
2276	 1.63791769763479 
2277	 0.706221166720637 
2278	 0.520627625043719 
2279	 0.450480474197719 
2280	 0.304043751644767 
2281	-3.63840534102944E-02 
2282	-3.25412604938477E-02 
2283	 6.01992839782323E-02 
2284	-0.386720172764991 
2285	-0.353398805432525 
2286	-0.78620319548606 
2287	 6.55799533428289 
2288	 8.70922232416059E-02 
2289	-0.378751040571181 
2290	-0.459719969357581 
2291	 1.39270727979317 
2292	-0.454877773445391 
2293	-0.552276909568653 
2294	-0.83704659660092 
2295	-3.73823335477609 
2296	-10.8205842946826 
2297	-2.31341203327689 
2298	-3.77458549194153 
2299	 19.7591393124477 
2300	 1.40897964385598 
2301	 0.738521590908806 
2302	 1.60038183553597 
2303	-1.72324282850508 
2304	-0.764394026991973 
2305	-1.10403884351887 
2306	-1.39138488901532 
2307	-1.22315569263245 
2308	 26.7731446461902 
2309	-3.18302152553786 
2310	 10.0119954699958 
2311	-3.32804679991727 
2312	-1.35480620027983 
2313	-1.18663545637269 
2314	-1.9560125428541 
2315	-21.1877397237088 
2316	 16.8770440848306 
2317	 9.00333875948314 
2318	 3.01235975050048 
2319	-0.69832062749347 
2320	 10.0719047862625 
2321	 45.0493870546482 
2322	 2.25901300427359 
2323	 1.18681832318572 
2324	 6.90177146985677 
2325	-0.787618133708835 
2326	-0.812290228036859 
2327	-6.78829764657013E-02 
2328	-0.509260959437223 
2329	-1.00025331975685 
2330	-0.988355270719858 
2331	-1.47682205937269 
2332	-1.77507749124123 
2333	-0.876836573948721 
2334	-0.137439754673999 
2335	 1.61064348774548E-02 
2336	-0.116016947612327 
2337	-9.25775209705321E-02 
2338	-0.613633443174062 
2339	 4.76110131173397 
2340	-11.4215594423088 
2341	-7.02468956385452 
2342	-30.4343700356268 
2343	-17.1594665103237 
2344	 6.78296193345479 
2345	 2.18736023691379 
2346	 2.96573306903897 
2347	 1.50816234333481 
2348	 0.118657494733291 
2349	 3.37371058201455E-02 
2350	 0.285341668531952 
2351	 0.807892999057498 
2352	 1.4565807614984 
2353	 2.75560402644327 
2354	 2.71427999575228 
2355	 2326.33344620083 
2356	-5.20633586466475 
2357	 43.6560847826744 
2358	 3.84514094030292 
2359	 1.9048082337677 
2360	 1.29590726550083 
2361	 1.89793735902194 
2362	 12.1527050814016 
2363	-27.8236758359552 
2364	 4.60173729434325 
2365	 2.5421986819692 
2366	 1.16725968815091 
2367	 0.574867961144696 
2368	 0.148373166029109 
2369	-0.332409255570449 
2370	-1.42755488590626 
2371	-1.80352313188516 
2372	-1.02281240411213 
2373	-0.876248660166692 
2374	 0.610276676950713 
2375	 0.672960865663978 
2376	 0.330452561364409 
2377	 0.45088869861282 
2378	 0.213171584459041 
2379	 0.333842375283617 
2380	 0.669725865865749 
2381	 0.131581402886432 
2382	 0.295805533139466 
2383	 0.481648290263538 
2384	 0.34895112324384 
2385	 0.339519180078035 
2386	-1.88456244418035E-02 
2387	-0.276597215898453 
2388	-0.215529522327212 
2389	-1.54801869633634 
2390	-2.19454800124573 
2391	-2.13444363695566 
2392	-1.36696653524087 
2393	-2.02162679343789 
2394	-5.75619755640641 
2395	 5.00494061511731 
2396	 0.874955561723722 
2397	 0.346969530723013 
2398	 0.264729548689684 
2399	 0.34454033657266 
2400	 0.663277869441058 
2401	 0.779354632955409 
2402	 0.9592501149168 
2403	 1.18813170972165 
2404	 0.732998761479082 
2405	 5.22869431785634E-02 
2406	-0.299646676144502 
2407	-0.462300907519786 
2408	-0.358965813827841 
2409	 0.892136347300005 
2410	 2.0166541236314 
2411	 2.63910628985638 
2412	 2.30327266449243 
2413	 1.59988887362936 
2414	 1.42137658831647 
2415	 1.13577856158747 
2416	 1.03981705579678 
2417	 1.01115550909568 
2418	 1.27619681795225 
2419	 2.60771620817181 
2420	 1.97814498690031 
2421	 2.56730181891125 
2422	 2.15696551127051 
2423	 1.45698986687178 
2424	 5.45619639649553 
2425	-5.22529037662606 
2426	-2.94695640595689 
2427	-24.8388574640489 
2428	-4.74679805436066 
2429	-0.829033342706443 
2430	-0.61911792088151 
2431	-0.253386234088892 
2432	 0.489417902228988 
2433	 2.33381265298854 
2434	-0.261429777056723 
2435	 1.25226510781045 
2436	 1.49607722817577 
2437	 1.67072452842 
2438	-1.11991767117163 
2439	-0.219977171662143 
2440	-0.225305434776453 
2441	-0.109451021834862 
2442	 5.04448604866412E-02 
2443	 0.194611087219663 
2444	 0.366208325927653 
2445	 4.15610510691018E-02 
2446	-0.343934441341986 
2447	-0.802763076265698 
2448	-2.75913585744801 
2449	 2.47864314147529 
2450	 0.819332885706405 
2451	 0.335948108080439 
2452	 0.788901852138305 
2453	 1.49830551333666 
2454	 1.38927157220993 
2455	 11.3139972288006 
2456	-4.52884534012798 
2457	-0.948139404424067 
2458	-0.19341267826201 
2459	 1.84591229355345 
2460	-1.57659809607966 
2461	-0.388495888310044 
2462	 0.540256226717728 
2463	 1.60425983724772 
2464	 4.46630170594321 
2465	 3.43835021195939 
2466	 0.845000600836824 
2467	-6.13659030106851E-03 
2468	 1.42990368163316 
2469	-3.65073196181579 
2470	-0.431087847214921 
2471	-2.93862185683832E-02 
2472	 0.187899702627048 
2473	 8.69340219868812E-03 
2474	-2.19226970313916 
2475	-2.87932015115589 
2476	-7.97839835572718 
2477	-7.91742445514208 
2478	 4.57580142447179 
2479	 0.561391249262478 
2480	-5.48943892984454E-02 
2481	-0.28738904294212 
2482	-0.603297249285477 
2483	-0.950961872358062 
2484	 0.843512213300326 
2485	 0.993381362332468 
2486	 0.252624727693412 
2487	 0.351061588960884 
2488	 0.384185218036428 
2489	 0.194338976451104 
2490	 3.34570355072408E-03 
2491	-1.96783150586701E-02 
2492	-0.170462116673319 
2493	-0.498566291675115 
2494	-8.84383585267152E-04 
2495	 0.165408567498196 
2496	 0.252508721006715 
2497	 0.771118890191381 
2498	 1.29084040848193 
2499	 2.30012873544579 
2500	 3.43439288063914 
