Wavelength	rt0707far00009.asd
350	 8.37449088026727E-02 
351	 8.24777479249688E-02 
352	 8.26233463908257E-02 
353	 8.27832308868255E-02 
354	 8.18207915690056E-02 
355	 8.12426049424669E-02 
356	 8.26669491687068E-02 
357	 8.39854896261464E-02 
358	 8.31216442669715E-02 
359	 8.35030191343424E-02 
360	 8.35015220589736E-02 
361	 8.27906469768757E-02 
362	 8.21654281624069E-02 
363	 8.31296758733599E-02 
364	 8.39998666619375E-02 
365	 8.40763997952783E-02 
366	 8.47519352203208E-02 
367	 8.42828762454507E-02 
368	 8.37868761351874E-02 
369	 8.44617343998294E-02 
370	 0.085072465658754 
371	 8.53955465338739E-02 
372	 8.54907632054354E-02 
373	 8.55586222082635E-02 
374	 8.50980219678754E-02 
375	 8.58407889245268E-02 
376	 8.74541266416395E-02 
377	 0.086624926026732 
378	 8.60517233355825E-02 
379	 0.086336630336766 
380	 8.71693157021108E-02 
381	 8.71004781795088E-02 
382	 8.71651407435672E-02 
383	 8.77189812157761E-02 
384	 8.85181856100158E-02 
385	 0.087714008839644 
386	 8.80635671430729E-02 
387	 8.96893534811274E-02 
388	 8.95089557635417E-02 
389	 8.90181835833965E-02 
390	 0.088816662138027 
391	 8.91749629399211E-02 
392	 9.01010053285852E-02 
393	 0.090510139062543 
394	 9.07124708704654E-02 
395	 0.091224559643847 
396	 9.04104487179535E-02 
397	 9.05374569160745E-02 
398	 0.091523552593534 
399	 9.12656877069658E-02 
400	 9.15256228546285E-02 
401	 9.15882337290551E-02 
402	 9.11783159347472E-02 
403	 9.19071214716806E-02 
404	 9.22385509416424E-02 
405	 9.23368824441565E-02 
406	 9.27808123207212E-02 
407	 0.0925321465241 
408	 9.29072375836772E-02 
409	 9.38895507998664E-02 
410	 9.40991956099208E-02 
411	 9.41365007200357E-02 
412	 9.43323899290837E-02 
413	 9.47327549257636E-02 
414	 9.47909490555448E-02 
415	 9.51211154083617E-02 
416	 9.56124971712509E-02 
417	 9.59075475095139E-02 
418	 9.61301481151741E-02 
419	 9.62704488123601E-02 
420	 9.65358301287394E-02 
421	 9.73371365556728E-02 
422	 9.77213514911041E-02 
423	 0.098064715937659 
424	 9.87008209367319E-02 
425	 9.90257376027675E-02 
426	 9.93680329204159E-02 
427	 9.99096268035443E-02 
428	 0.100681318904959 
429	 0.101207872358248 
430	 0.101828248241785 
431	 0.102582868648626 
432	 0.10308301287271 
433	 0.103379055107901 
434	 0.103817969345734 
435	 0.104563031588481 
436	 0.10506445076515 
437	 0.105517170030972 
438	 0.106079928674212 
439	 0.106837327097145 
440	 0.107440634533207 
441	 0.108010869268859 
442	 0.108556335511552 
443	 0.108830474014011 
444	 0.109352903854736 
445	 0.110054519307518 
446	 0.110706042687311 
447	 0.111165826396999 
448	 0.111674308619551 
449	 0.112231815022264 
450	 0.11266128015025 
451	 0.112974154599947 
452	 0.113269308507763 
453	 0.113621485735138 
454	 0.114001430246902 
455	 0.114792430738377 
456	 0.115388929010884 
457	 0.115192874825936 
458	 0.115664414793756 
459	 0.116051326235817 
460	 0.116258876085155 
461	 0.116924280798791 
462	 0.117354934157261 
463	 0.117656754959304 
464	 0.117993134605331 
465	 0.118200369304771 
466	 0.118566779007297 
467	 0.119020588957356 
468	 0.119363051342139 
469	 0.119946447299463 
470	 0.120416843241078 
471	 0.120630927619687 
472	 0.120807427486715 
473	 0.121005904133292 
474	 0.121325726762905 
475	 0.121796956954904 
476	 0.122213705795764 
477	 0.12271638078029 
478	 0.123204027634722 
479	 0.123454145737617 
480	 0.123822119849073 
481	 0.1242296699628 
482	 0.12464244854078 
483	 0.125239072800325 
484	 0.125919740627207 
485	 0.126432568433884 
486	 0.126639517217073 
487	 0.127266428724595 
488	 0.127942023721517 
489	 0.128419222010448 
490	 0.128660614950125 
491	 0.129140288775009 
492	 0.129793869639657 
493	 0.130448731180143 
494	 0.130973037143221 
495	 0.131457982978176 
496	 0.131993403706878 
497	 0.132653065178602 
498	 0.133374177684627 
499	 0.133976027976104 
500	 0.134442641218919 
501	 0.13502137964056 
502	 0.135650547593788 
503	 0.136294616535237 
504	 0.136933730913158 
505	 0.137605508410511 
506	 0.138248640307885 
507	 0.138856718263648 
508	 0.139459567062809 
509	 0.139850529789227 
510	 0.140549797132735 
511	 0.141649348264652 
512	 0.141973076956666 
513	 0.142448639000886 
514	 0.143111031721374 
515	 0.143682548498713 
516	 0.144531255410996 
517	 0.145426628840372 
518	 0.14622490119024 
519	 0.146967619135475 
520	 0.147624171203559 
521	 0.148293791632979 
522	 0.149074025835801 
523	 0.149974289517065 
524	 0.150750871611474 
525	 0.151446000987345 
526	 0.152287547497413 
527	 0.153028432775975 
528	 0.153886721785619 
529	 0.154871877654957 
530	 0.155423367327122 
531	 0.156236887563892 
532	 0.157272398638085 
533	 0.15823044387388 
534	 0.159107780520992 
535	 0.15986345312263 
536	 0.160566123322419 
537	 0.161396275690785 
538	 0.16226191575073 
539	 0.163104787780125 
540	 0.16389677221671 
541	 0.164656721546449 
542	 0.165644016003187 
543	 0.166701271094393 
544	 0.167462940507431 
545	 0.168294702116428 
546	 0.169148299391469 
547	 0.169931978532122 
548	 0.170549240707292 
549	 0.171402596261529 
550	 0.172362273855729 
551	 0.173160519813598 
552	 0.173951176609746 
553	 0.174792758609251 
554	 0.175667466779917 
555	 0.176475121847912 
556	 0.177377966936883 
557	 0.178270701378072 
558	 0.179051144972837 
559	 0.179872458831286 
560	 0.180669637572667 
561	 0.181405007741522 
562	 0.182083508988458 
563	 0.182912285616102 
564	 0.183653503162132 
565	 0.184203098984265 
566	 0.184828292738905 
567	 0.185496194726299 
568	 0.18605391948898 
569	 0.186410376269492 
570	 0.187152832729696 
571	 0.187697075215147 
572	 0.187981137171269 
573	 0.188561408375762 
574	 0.189072086016835 
575	 0.18932611219871 
576	 0.189308822053908 
577	 0.189423234047685 
578	 0.189406824670396 
579	 0.189356208084862 
580	 0.189533561334505 
581	 0.189543498391088 
582	 0.1894378869951 
583	 0.189289115575428 
584	 0.189099776088493 
585	 0.188839349847572 
586	 0.1886677722235 
587	 0.188704220324772 
588	 0.188357986961717 
589	 0.187995892318281 
590	 0.187667476729805 
591	 0.186992038058459 
592	 0.186401467220732 
593	 0.185726341380913 
594	 0.184798778126166 
595	 0.183802452407176 
596	 0.182517880329746 
597	 0.181104587022077 
598	 0.179885909707022 
599	 0.178449381280182 
600	 0.177070380719695 
601	 0.176077955280692 
602	 0.175799617509596 
603	 0.175295388186433 
604	 0.174860413749115 
605	 0.174962553647028 
606	 0.174655101153647 
607	 0.174682834824213 
608	 0.175015629604827 
609	 0.174777373794779 
610	 0.174520711916948 
611	 0.174392637263354 
612	 0.174412943181696 
613	 0.174493027029249 
614	 0.174554545921251 
615	 0.174539312852863 
616	 0.174451196018951 
617	 0.174676160300377 
618	 0.174742666336759 
619	 0.174524327290614 
620	 0.174598635630834 
621	 0.174529649550725 
622	 0.174305528359314 
623	 0.174115759394125 
624	 0.174445677077746 
625	 0.174518805661893 
626	 0.174288542924896 
627	 0.174422489418634 
628	 0.174359404305513 
629	 0.174105524182408 
630	 0.173837567182661 
631	 0.173873904573121 
632	 0.174029541987832 
633	 0.174194583112071 
634	 0.174242541073378 
635	 0.173664167477379 
636	 0.173191481675747 
637	 0.173267126030118 
638	 0.173782631207393 
639	 0.173675873726208 
640	 0.173147249367207 
641	 0.172751826434547 
642	 0.172620223281706 
643	 0.172794271269269 
644	 0.172964399320902 
645	 0.172568999324572 
646	 0.17214296844307 
647	 0.171811373049472 
648	 0.171645623086093 
649	 0.171828401686446 
650	 0.171383288524247 
651	 0.17049617951766 
652	 0.169788613391735 
653	 0.169074007448817 
654	 0.168631983824582 
655	 0.168227124640942 
656	 0.166972837910218 
657	 0.166065088272827 
658	 0.165423849956953 
659	 0.164776115174251 
660	 0.164205782224761 
661	 0.163686898587635 
662	 0.163276657955276 
663	 0.163069404186636 
664	 0.162887771975782 
665	 0.162741710362253 
666	 0.162644412448328 
667	 0.16259012644046 
668	 0.162248936871886 
669	 0.161962729329682 
670	 0.162078035572504 
671	 0.161712060106229 
672	 0.161608110315114 
673	 0.161854390862313 
674	 0.161879962542997 
675	 0.161918571748001 
676	 0.161638593084251 
677	 0.161089707985502 
678	 0.161593439215391 
679	 0.161696899838282 
680	 0.16131182696609 
681	 0.160979452286825 
682	 0.160755969874887 
683	 0.16099387592604 
684	 0.161500436514828 
685	 0.161349216212991 
686	 0.160738082045082 
687	 0.160182068976229 
688	 0.160037126877955 
689	 0.159472398280154 
690	 0.15895242700211 
691	 0.158603895973771 
692	 0.158296689870649 
693	 0.157366201293134 
694	 0.156177779910097 
695	 0.155067950703107 
696	 0.153817134207805 
697	 0.152800984838488 
698	 0.151749918253163 
699	 0.150396460309057 
700	 0.149006764916276 
701	 0.147568951793355 
702	 0.146110448373206 
703	 0.144621311597256 
704	 0.143088591434181 
705	 0.141487541558703 
706	 0.139823258796574 
707	 0.138006566425172 
708	 0.135994561545989 
709	 0.134002352353537 
710	 0.132162955431177 
711	 0.129484844415734 
712	 0.126910050863908 
713	 0.124717989229515 
714	 0.122315751947822 
715	 0.120068261213762 
716	 0.117887647461945 
717	 0.115735529841619 
718	 0.112744264077633 
719	 0.109455912807044 
720	 0.106769974852659 
721	 0.10445486978805 
722	 0.102156713047424 
723	 0.099824326350046 
724	 9.76556889078504E-02 
725	 9.49993475294698E-02 
726	 9.20688757883234E-02 
727	 0.089248283809204 
728	 0.086694600749699 
729	 8.37873323842602E-02 
730	 8.08062882837674E-02 
731	 0.078062343238123 
732	 7.55712422440877E-02 
733	 7.35961092464494E-02 
734	 7.21546325818352E-02 
735	 7.10182524972388E-02 
736	 6.95756593695518E-02 
737	 6.87157147401747E-02 
738	 6.81833644067912E-02 
739	 6.76213814980995E-02 
740	 6.71043777524414E-02 
741	 6.69479799366478E-02 
742	 6.68205238537104E-02 
743	 6.62211366745266E-02 
744	 6.61553997477699E-02 
745	 6.61607329399282E-02 
746	 6.60132803471089E-02 
747	 6.60018303438024E-02 
748	 6.56016049977508E-02 
749	 6.53940809664761E-02 
750	 6.57713194192689E-02 
751	 6.56018088580553E-02 
752	 6.51920545643592E-02 
753	 6.49933591832972E-02 
754	 6.53629527535053E-02 
755	 6.52132558691346E-02 
756	 6.51176324273391E-02 
757	 6.53294475856747E-02 
758	 6.54461129799372E-02 
759	 6.55549207557223E-02 
760	 6.60337843357812E-02 
761	 6.66035956674221E-02 
762	 6.56661350980143E-02 
763	 6.59980256166512E-02 
764	 6.64771547783571E-02 
765	 6.56419014142247E-02 
766	 0.065634275221474 
767	 6.55890375551614E-02 
768	 6.53717464228992E-02 
769	 6.55474695962533E-02 
770	 6.57208500673571E-02 
771	 6.58367294064932E-02 
772	 6.58883465744914E-02 
773	 6.57549618285458E-02 
774	 0.066112966563767 
775	 6.66307789402639E-02 
776	 6.66168150642535E-02 
777	 6.60975414732658E-02 
778	 6.64038006292644E-02 
779	 0.067362317629532 
780	 6.72896906643362E-02 
781	 6.72634362600951E-02 
782	 6.76902288157085E-02 
783	 6.84425911376143E-02 
784	 6.84093804574333E-02 
785	 6.90393044856877E-02 
786	 6.97154332957573E-02 
787	 6.94699235615346E-02 
788	 6.99214098834252E-02 
789	 0.070471866485954 
790	 0.070933617331613 
791	 7.14948577109216E-02 
792	 7.14675786840594E-02 
793	 7.18219444709417E-02 
794	 7.28242907702751E-02 
795	 7.32375655969941E-02 
796	 7.32066672341676E-02 
797	 0.073573579122066 
798	 7.47441273424102E-02 
799	 7.49184600695078E-02 
800	 7.49688967979225E-02 
801	 7.52424386560573E-02 
802	 7.56808139205589E-02 
803	 7.57466363610344E-02 
804	 7.58019946019258E-02 
805	 7.59783917556141E-02 
806	 7.60692660445692E-02 
807	 7.58004807233516E-02 
808	 7.58001719617281E-02 
809	 7.63733452367094E-02 
810	 7.64123371037185E-02 
811	 7.66167686821879E-02 
812	 7.69814032683985E-02 
813	 7.71587179576411E-02 
814	 7.69230448314589E-02 
815	 7.61244991324192E-02 
816	 7.50167348430299E-02 
817	 0.07412904848023 
818	 7.37210565423046E-02 
819	 7.30415578899594E-02 
820	 7.20646175762512E-02 
821	 7.17603344020815E-02 
822	 0.07084736792438 
823	 6.92889670703176E-02 
824	 6.75665094051417E-02 
825	 0.066012278345811 
826	 6.42808195708374E-02 
827	 6.29295243713724E-02 
828	 6.25505472686563E-02 
829	 6.11619779406506E-02 
830	 5.96261969848656E-02 
831	 5.84956671995637E-02 
832	 5.78531298663904E-02 
833	 5.62043014223781E-02 
834	 0.055882239214944 
835	 5.68603958182952E-02 
836	 5.58442230947314E-02 
837	 5.50892605240279E-02 
838	 5.49588634327025E-02 
839	 5.52330229723822E-02 
840	 5.53748355330878E-02 
841	 5.47721554395771E-02 
842	 5.40265683516227E-02 
843	 5.39603020610043E-02 
844	 5.40976996073437E-02 
845	 5.36648423701816E-02 
846	 5.29869704492772E-02 
847	 0.052990343576357 
848	 0.052673622675315 
849	 5.21181662353422E-02 
850	 5.17591580133113E-02 
851	 0.052231002647108 
852	 5.26328297659397E-02 
853	 0.05237744163049 
854	 5.16725504060694E-02 
855	 0.052154156851482 
856	 5.19088486844214E-02 
857	 5.15882277207882E-02 
858	 5.18974279031326E-02 
859	 5.10049942552307E-02 
860	 5.11784415290574E-02 
861	 5.18274514245737E-02 
862	 5.12501977550467E-02 
863	 5.08002302597608E-02 
864	 5.03631613601455E-02 
865	 5.00515013987375E-02 
866	 5.02031944406893E-02 
867	 5.07359643814846E-02 
868	 5.08139472314972E-02 
869	 5.04664507880867E-02 
870	 5.08745069919188E-02 
871	 5.02914625356605E-02 
872	 4.96541510932851E-02 
873	 4.97290511582136E-02 
874	 0.049583084514091 
875	 4.91384567372485E-02 
876	 4.91716006248785E-02 
877	 5.00297881563398E-02 
878	 4.95454904471064E-02 
879	 4.91470379334972E-02 
880	 4.88970199847391E-02 
881	 4.83253513569416E-02 
882	 4.80063850448366E-02 
883	 4.81510514504365E-02 
884	 4.82691074787883E-02 
885	 4.76783533657612E-02 
886	 4.87762946683433E-02 
887	 4.83198102657899E-02 
888	 4.66846261368418E-02 
889	 4.85458673458746E-02 
890	 4.76873388958797E-02 
891	 4.73203633227834E-02 
892	 4.90281785766654E-02 
893	 4.76327473927093E-02 
894	 4.80435733809918E-02 
895	 4.90232110313317E-02 
896	 4.83689500284423E-02 
897	 4.79316635966002E-02 
898	 4.88916333196035E-02 
899	 4.93663047988244E-02 
900	 4.79574596940799E-02 
901	 4.88185169172632E-02 
902	 4.76553626355833E-02 
903	 4.68924205445964E-02 
904	 4.95456568746509E-02 
905	 4.88693360608463E-02 
906	 4.79588456042909E-02 
907	 4.76788164728566E-02 
908	 4.69753216268768E-02 
909	 4.51594173617138E-02 
910	 4.64707833271193E-02 
911	 4.94052962555091E-02 
912	 4.78539415855709E-02 
913	 4.70781234096075E-02 
914	 4.57176809747068E-02 
915	 4.47234354771058E-02 
916	 4.76445710206868E-02 
917	 4.95019500068781E-02 
918	 4.75364622201652E-02 
919	 0.043895444866048 
920	 0.045636684815447 
921	 4.52707165133916E-02 
922	 4.42402595356542E-02 
923	 4.45442497477438E-02 
924	 4.56958367558457E-02 
925	 4.76174971268231E-02 
926	 4.78553698125725E-02 
927	 4.49097310618133E-02 
928	 0.045429428702443 
929	 4.54825540432562E-02 
930	 4.97687169936182E-02 
931	 6.44435890489144E-02 
932	 5.69562614787707E-02 
933	 4.94719161453797E-02 
934	 4.80514337850781E-02 
935	 0.042539479163895 
936	 3.08779299984595E-02 
937	 3.05747576493218E-02 
938	 4.00500073179469E-02 
939	 4.83931711432457E-02 
940	 3.51192733961123E-02 
941	 3.26002062820199E-02 
942	 3.80333347661568E-02 
943	 3.30610757577986E-02 
944	 3.07233824942669E-02 
945	 3.53207151405766E-02 
946	 4.20165300389458E-02 
947	 4.36292814340416E-02 
948	 4.63447628244895E-02 
949	 5.08477119826251E-02 
950	 5.97959641051678E-02 
951	 7.19355722607045E-02 
952	 0.05189928606226 
953	 5.68034595431799E-02 
954	 6.77847929956503E-02 
955	 3.06285247324475E-02 
956	 3.78826661645543E-02 
957	 5.80897001537922E-02 
958	 5.95457742465342E-02 
959	 3.15351674638768E-02 
960	 4.93198926861102E-02 
961	 5.36755360816392E-02 
962	 3.98954267702891E-02 
963	 0.040548664746099 
964	 4.40551127896757E-02 
965	 0.048279439755037 
966	 4.82843798553552E-02 
967	 0.039970986948363 
968	 4.09059611064527E-02 
969	 4.17378461159451E-02 
970	 0.040491808868567 
971	 0.041891905725734 
972	 0.036238993371968 
973	 3.69569323136211E-02 
974	 4.30194424509215E-02 
975	 3.94394184079322E-02 
976	 4.16568768256212E-02 
977	 4.34930163282062E-02 
978	 4.34552323792045E-02 
979	 4.54898790825478E-02 
980	 0.047348058739499 
981	 4.34051144204215E-02 
982	 3.97103767914697E-02 
983	 4.70972189026767E-02 
984	 4.31655487001505E-02 
985	 3.74687829084413E-02 
986	 3.79460340145142E-02 
987	 4.53998076491143E-02 
988	 4.04858370434097E-02 
989	 3.70109641023463E-02 
990	 0.041902228343739 
991	 5.11198605022888E-02 
992	 4.42528959844982E-02 
993	 3.71344080332359E-02 
994	 3.77618135203502E-02 
995	 4.32284690681237E-02 
996	 3.94827508027222E-02 
997	 4.15445677190781E-02 
998	 4.69530155119152E-02 
999	 4.44726943384945E-02 
1000	 4.64952934343726E-02 
1001	 0.044454447889561 
1002	 4.73588341094475E-02 
1003	 4.68282148297839E-02 
1004	 4.39523766823005E-02 
1005	 4.28310363169662E-02 
1006	 4.01240777608183E-02 
1007	 4.04175210631538E-02 
1008	 4.24565368605269E-02 
1009	 4.40760461174542E-02 
1010	 4.63827543827737E-02 
1011	 4.74011893864617E-02 
1012	 4.59487292974986E-02 
1013	 0.044397231218029 
1014	 0.043167258158715 
1015	 3.99213104862412E-02 
1016	 0.039202965905578 
1017	 3.94682166277718E-02 
1018	 0.041265924751512 
1019	 0.047252204046745 
1020	 4.88724176860663E-02 
1021	 5.01421384712795E-02 
1022	 4.93230939839309E-02 
1023	 4.73713217650762E-02 
1024	 4.48096403779272E-02 
1025	 4.36074648626537E-02 
1026	 4.46385477903603E-02 
1027	 0.045006203677278 
1028	 4.53077471995618E-02 
1029	 4.51505903572013E-02 
1030	 4.53602616243218E-02 
1031	 4.54681412190323E-02 
1032	 4.51817057933522E-02 
1033	 4.49177278602485E-02 
1034	 4.50277442071784E-02 
1035	 4.49194584862562E-02 
1036	 4.35969931645085E-02 
1037	 4.34311777587059E-02 
1038	 4.45595762602821E-02 
1039	 4.46168080329468E-02 
1040	 4.53297632703124E-02 
1041	 4.72066415479325E-02 
1042	 0.047291245587461 
1043	 4.68555123070617E-02 
1044	 4.63792386467695E-02 
1045	 4.46007585119896E-02 
1046	 4.40473198012218E-02 
1047	 4.37191478550561E-02 
1048	 0.043793031617648 
1049	 4.51671701333336E-02 
1050	 4.50730682145045E-02 
1051	 4.43159191420173E-02 
1052	 4.41575623879509E-02 
1053	 4.34997008013658E-02 
1054	 4.29275200671675E-02 
1055	 4.28996485791542E-02 
1056	 4.27054617000772E-02 
1057	 4.23784782430816E-02 
1058	 4.14603848384763E-02 
1059	 4.11633477524088E-02 
1060	 4.10042698901788E-02 
1061	 4.14079721726151E-02 
1062	 4.23687650624866E-02 
1063	 4.28599103111805E-02 
1064	 4.34340275499956E-02 
1065	 4.43537505948586E-02 
1066	 4.62216381918822E-02 
1067	 4.61073145169434E-02 
1068	 4.52799917104941E-02 
1069	 4.45613427792475E-02 
1070	 4.06530716394645E-02 
1071	 3.96511885486939E-02 
1072	 4.10007324412964E-02 
1073	 4.25565426929974E-02 
1074	 4.28678989435696E-02 
1075	 4.38921278202606E-02 
1076	 4.39674598699573E-02 
1077	 4.15418478952691E-02 
1078	 4.19074315457236E-02 
1079	 4.46371046171275E-02 
1080	 4.53463611067588E-02 
1081	 0.04684648083178 
1082	 4.67529503210514E-02 
1083	 4.34208323664206E-02 
1084	 4.24935690401397E-02 
1085	 4.16261639335623E-02 
1086	 4.17579639623855E-02 
1087	 0.045767962643446 
1088	 4.65440232008916E-02 
1089	 4.46004256426183E-02 
1090	 4.39954449107816E-02 
1091	 4.47978869355418E-02 
1092	 4.48117784773923E-02 
1093	 4.47726181004013E-02 
1094	 4.80438049815747E-02 
1095	 4.82129359611651E-02 
1096	 4.44611139330308E-02 
1097	 4.39491004552585E-02 
1098	 0.04454496282012 
1099	 4.50076310419333E-02 
1100	 4.70830182110984E-02 
1101	 0.047675195048491 
1102	 4.74388057440843E-02 
1103	 4.77512979684543E-02 
1104	 4.69445665088351E-02 
1105	 4.75780843099088E-02 
1106	 4.87448893059422E-02 
1107	 4.90350915225552E-02 
1108	 5.21157759456977E-02 
1109	 5.33820576646165E-02 
1110	 5.34989065633299E-02 
1111	 5.38133265242838E-02 
1112	 5.16926615860885E-02 
1113	 4.18156058257244E-02 
1114	 0.040743405785338 
1115	 4.77738839122528E-02 
1116	 4.73028514051006E-02 
1117	 4.52378320091387E-02 
1118	 4.53619850674954E-02 
1119	 0.038807404178161 
1120	 0.036938558025433 
1121	 5.20828727738349E-02 
1122	 7.21923060796214E-02 
1123	 0.102776409055788 
1124	 9.16476564159443E-02 
1125	 1.77871769842705E-02 
1126	-1.20783345189671E-02 
1127	 5.49336711723924E-02 
1128	 0.081703312704726 
1129	 8.86841468301119E-02 
1130	 0.156661881185256 
1131	 0.143403225615387 
1132	 3.18849068693561E-02 
1133	 3.22649337479938E-02 
1134	 8.01207945295518E-02 
1135	 8.82451818736716E-02 
1136	 0.103194404324352 
1137	 0.105480896653607 
1138	 8.67807296680691E-02 
1139	 8.97371705294828E-02 
1140	 6.52618416238433E-02 
1141	 5.36866213687678E-02 
1142	 7.13381358553802E-02 
1143	 6.82351774993351E-02 
1144	 0.071429533925877 
1145	 9.01003038146838E-02 
1146	 0.058397809794929 
1147	 2.28252698199817E-02 
1148	 3.76518373823114E-02 
1149	 0.051437140285473 
1150	 5.45859007904368E-02 
1151	 6.96235488767563E-02 
1152	 5.91822293243975E-02 
1153	 2.53399058805196E-02 
1154	 0.025064582587125 
1155	 0.030187558306791 
1156	 3.44300411104229E-02 
1157	 4.75900730569122E-02 
1158	 4.93241120559173E-02 
1159	 4.61699177098275E-02 
1160	 5.06731161968639E-02 
1161	 5.21488643117335E-02 
1162	 5.13807704210425E-02 
1163	 4.97540388685262E-02 
1164	 4.47554795717997E-02 
1165	 4.42592748980781E-02 
1166	 4.71824339869044E-02 
1167	 4.70581347822664E-02 
1168	 4.65494097374495E-02 
1169	 4.51006233919768E-02 
1170	 4.29407409838549E-02 
1171	 4.32067095361974E-02 
1172	 4.79452248935923E-02 
1173	 4.78593284575526E-02 
1174	 0.046233058214947 
1175	 0.044950555687522 
1176	 4.46401059177618E-02 
1177	 4.49178702296164E-02 
1178	 4.78765278357014E-02 
1179	 5.05214998786223E-02 
1180	 4.97374623334728E-02 
1181	 4.91970429037477E-02 
1182	 4.92810144043368E-02 
1183	 4.90446270877714E-02 
1184	 4.82022486607041E-02 
1185	 4.62409616502892E-02 
1186	 4.47101373666933E-02 
1187	 4.53548208379576E-02 
1188	 0.04801784912844 
1189	 4.94552068954979E-02 
1190	 4.96419066116229E-02 
1191	 4.81220441041956E-02 
1192	 4.70706087190592E-02 
1193	 4.43520645645102E-02 
1194	 4.45666344419595E-02 
1195	 4.53043434079345E-02 
1196	 4.45374988466101E-02 
1197	 4.32209190793996E-02 
1198	 4.17469502764126E-02 
1199	 0.041770272342859 
1200	 4.41113636919031E-02 
1201	 4.58438775605499E-02 
1202	 4.53399216467021E-02 
1203	 0.043889419991687 
1204	 4.37360257716149E-02 
1205	 4.49961299173519E-02 
1206	 4.56813090637147E-02 
1207	 4.52297139411874E-02 
1208	 4.28295533486246E-02 
1209	 4.05538939799215E-02 
1210	 4.03417283628444E-02 
1211	 4.20849075561799E-02 
1212	 4.50191940783581E-02 
1213	 4.53051010031346E-02 
1214	 4.55916639141674E-02 
1215	 4.51805514918829E-02 
1216	 4.54049146717703E-02 
1217	 4.50557933493769E-02 
1218	 4.67020442677193E-02 
1219	 4.77894093637221E-02 
1220	 0.045643805345004 
1221	 4.34098165550312E-02 
1222	 4.33075751060676E-02 
1223	 4.39732187977828E-02 
1224	 4.49502818776607E-02 
1225	 4.50288716751913E-02 
1226	 4.38886440095313E-02 
1227	 4.36012264994785E-02 
1228	 4.36128800399234E-02 
1229	 4.45572862709987E-02 
1230	 4.51900808542954E-02 
1231	 4.32746646224468E-02 
1232	 4.16050873748845E-02 
1233	 4.21945085764257E-02 
1234	 4.31333198648626E-02 
1235	 4.33302031231708E-02 
1236	 4.47578172411083E-02 
1237	 4.50994392480185E-02 
1238	 4.44812937823934E-02 
1239	 4.22894988782668E-02 
1240	 4.16553155187069E-02 
1241	 4.22824663565021E-02 
1242	 4.28652554517935E-02 
1243	 4.32193579299534E-02 
1244	 4.37984865334072E-02 
1245	 0.043322260179308 
1246	 4.34791280360492E-02 
1247	 4.50474732274069E-02 
1248	 4.55255072169829E-02 
1249	 4.67776056640593E-02 
1250	 4.74425344509461E-02 
1251	 4.65022919312413E-02 
1252	 4.75711009343593E-02 
1253	 4.77282093143217E-02 
1254	 4.56279163025601E-02 
1255	 4.43852521072514E-02 
1256	 4.39087885055489E-02 
1257	 4.37547477664384E-02 
1258	 4.37091672877578E-02 
1259	 4.47850136231019E-02 
1260	 4.49736165488656E-02 
1261	 4.41294728361054E-02 
1262	 4.39388344302739E-02 
1263	 4.41527594608024E-02 
1264	 4.44341451855992E-02 
1265	 4.32277333773626E-02 
1266	 4.25724994910901E-02 
1267	 4.30191347801071E-02 
1268	 4.27732918983639E-02 
1269	 0.04082136326565 
1270	 4.07103600521741E-02 
1271	 4.28669205952485E-02 
1272	 4.26362984539595E-02 
1273	 4.37302596906331E-02 
1274	 4.63021924955774E-02 
1275	 4.42396434557695E-02 
1276	 4.20521770482072E-02 
1277	 4.29375330081395E-02 
1278	 4.26993942433347E-02 
1279	 4.22555367935206E-02 
1280	 4.23798155641524E-02 
1281	 4.25821122369734E-02 
1282	 4.32184525775875E-02 
1283	 4.35130924241304E-02 
1284	 4.37545249436579E-02 
1285	 4.43912673545909E-02 
1286	 4.50704357743008E-02 
1287	 4.52249344861109E-02 
1288	 4.50891115047691E-02 
1289	 0.045459226150615 
1290	 4.61208470810972E-02 
1291	 4.63580133818961E-02 
1292	 4.56074050993726E-02 
1293	 4.40677184125196E-02 
1294	 4.19273101691632E-02 
1295	 0.041177864477385 
1296	 4.25674231738754E-02 
1297	 4.48456197351434E-02 
1298	 4.48344705697585E-02 
1299	 4.43302565148275E-02 
1300	 4.56345652911231E-02 
1301	 4.65502631907985E-02 
1302	 4.67287430927132E-02 
1303	 4.58134384569096E-02 
1304	 0.04277844688713 
1305	 4.28194016929906E-02 
1306	 4.23955732250752E-02 
1307	 4.33187921420681E-02 
1308	 4.35946666310347E-02 
1309	 4.37408291710396E-02 
1310	 4.26100767990023E-02 
1311	 4.17889758985451E-02 
1312	 4.29124987116041E-02 
1313	 4.29839025957789E-02 
1314	 4.40914312635116E-02 
1315	 4.96550808137295E-02 
1316	 5.01388856381684E-02 
1317	 0.044520114825164 
1318	 4.58838658822015E-02 
1319	 5.25007232761065E-02 
1320	 0.052221612596676 
1321	 5.28720653523307E-02 
1322	 5.09993596807384E-02 
1323	 4.32291995421504E-02 
1324	 3.97552426370076E-02 
1325	 4.11897226384398E-02 
1326	 0.040981876831527 
1327	 4.19348343302992E-02 
1328	 4.08007784046799E-02 
1329	 3.84603522933846E-02 
1330	 4.30801877043393E-02 
1331	 4.16484481260076E-02 
1332	 3.96379678335702E-02 
1333	 0.052478969264591 
1334	 5.47731488099233E-02 
1335	 0.053651108045067 
1336	 4.79038055388972E-02 
1337	 5.11673684583785E-02 
1338	 0.05042554057866 
1339	 5.35422818640639E-02 
1340	 7.12050948442054E-02 
1341	 6.92932496911669E-02 
1342	 0.039802486361693 
1343	 0.042793910807433 
1344	 7.36577137135096E-02 
1345	 8.36770093772464E-02 
1346	 0.103467681983373 
1347	 0.141511418782979 
1348	 0.175379600379364 
1349	 0.187022854178917 
1350	 0.207341354983656 
1351	 0.247694994096024 
1352	 0.203619736314253 
1353	 0.154158501824761 
1354	 0.175197308019256 
1355	 0.364590276200017 
1356	 0.476615656430154 
1357	 0.354976173469357 
1358	 0.707874768543046 
1359	 1.28216570361391 
1360	 0.734051301500366 
1361	-0.610571787861101 
1362	 1.27058686004919 
1363	 0.285222223880747 
1364	-5.47719049663238E-02 
1365	 1.24024669630394E-02 
1366	 1.45486112568339 
1367	 3.66314774185317 
1368	 4.80010483943134 
1369	 1.60164825931035 
1370	 1.95250491616505 
1371	 3.27533879877831 
1372	 5.80252987267111 
1373	-2.16684170721505 
1374	-2.21951395695637 
1375	-6.96027083394678 
1376	-3.28798584643559 
1377	-2.80688296275547 
1378	-7.80252812031138 
1379	 0.203295146886463 
1380	 0.165894501258737 
1381	-2.30003780031001 
1382	-4.0695890585043 
1383	 4.04318299320445 
1384	 11.4871016470094 
1385	 3.89097344783257 
1386	 1.52755220143642 
1387	-0.541834984085273 
1388	 4.37693268982912E-02 
1389	-0.493059026814257 
1390	-0.729416962196726 
1391	-4711.44350467733 
1392	 2.87043660781718 
1393	 17.3126267764641 
1394	 1.24649125131858 
1395	 0.23178735259482 
1396	-3.85692588377117 
1397	-1.59315233900783 
1398	 4.83014619898181 
1399	 3.32293831071189 
1400	-1.8489228574071 
1401	 2.3196138425266 
1402	 0.191345775076181 
1403	 0.320285166470593 
1404	 0.589567627643167 
1405	 0.87556750490595 
1406	 1.57798567653564 
1407	 1.4788738738145 
1408	 1.04551043953909 
1409	 1.93985906540427 
1410	 1.56263065148908 
1411	 1.2432341669767 
1412	 3.44089237880671 
1413	-186.258935826048 
1414	-1.53800199659473 
1415	 3.99341584531799 
1416	 1.28346089173836 
1417	 1.73347135471914 
1418	 1.87974424495203 
1419	 1.49198540359441 
1420	 1.46668658726896 
1421	 1.74710264208923 
1422	 2.01871261725705 
1423	 0.289387618503006 
1424	-0.207212903444602 
1425	-6.10779477473817E-02 
1426	 0.179648945851237 
1427	 0.53686513000614 
1428	 8.18919279366817 
1429	-28.0151054898998 
1430	 1.18351290003047 
1431	 0.730375982504743 
1432	-1.0215776659919 
1433	-0.47797034790456 
1434	-0.646524757091688 
1435	-2.69096238823227E-02 
1436	 0.744940263004755 
1437	 0.145997672356397 
1438	 0.1199371546909 
1439	 0.299863699715669 
1440	-1.06471029493209 
1441	-276.467649834623 
1442	-1.61391218754533 
1443	 0.553368065355733 
1444	 1.18363940866324 
1445	 0.289571840574802 
1446	 0.355513321707112 
1447	 0.137348822447365 
1448	 0.124078115867901 
1449	 0.410451949413734 
1450	 1.26887823004322E-02 
1451	 8.01113558306591E-02 
1452	 0.475547356958881 
1453	 0.182757063245259 
1454	 4.05091183138332E-02 
1455	-4.62651300244751E-02 
1456	 0.454852595579033 
1457	 0.257165708141446 
1458	 0.165292093398744 
1459	 0.504348977522865 
1460	 0.71670770257478 
1461	 0.591888277628987 
1462	 0.490911672489207 
1463	 0.698120632976564 
1464	 0.778145392731761 
1465	 0.470287721488023 
1466	 0.387191054484666 
1467	 0.978252631122426 
1468	 0.745651462269969 
1469	 0.11997983550249 
1470	 0.112074496757556 
1471	 0.388198872642545 
1472	 0.36440874236021 
1473	 0.443620678328717 
1474	 0.447325302143311 
1475	 0.288580109545156 
1476	 0.197486838390423 
1477	 4.15344942609516E-02 
1478	 8.70191520385384E-03 
1479	-4.55026655878012E-02 
1480	-7.89258806779706E-02 
1481	 0.111214728236125 
1482	 0.153302678344879 
1483	-1.64882938330714E-02 
1484	 1.91225591841439E-02 
1485	 0.169489929641503 
1486	 0.201223395531794 
1487	 0.236307934579518 
1488	 0.251425046460375 
1489	 0.237654612081735 
1490	 0.223609057211022 
1491	 0.184244886650362 
1492	 0.186886616454908 
1493	 0.242128919654273 
1494	 0.207296973078775 
1495	 0.158045585701899 
1496	 0.121781949568344 
1497	-9.90795916090504E-03 
1498	-2.35092597561606E-02 
1499	 6.89527247195986E-02 
1500	 8.14566738650724E-02 
1501	 8.80489319924763E-02 
1502	 0.102140553688027 
1503	 8.01297236664182E-02 
1504	 7.45909371844347E-02 
1505	 0.108572513264212 
1506	 0.101493910490464 
1507	 0.101176064219952 
1508	 9.39573515909949E-02 
1509	 5.83712449676574E-02 
1510	 6.23547665129006E-02 
1511	 5.92227943578988E-02 
1512	 2.81073081418855E-02 
1513	 1.37081738735236E-02 
1514	 2.22884695352507E-02 
1515	 4.75311171407428E-02 
1516	 6.81436989566268E-02 
1517	 7.29030779670714E-02 
1518	 7.99517467602059E-02 
1519	 8.82118425933736E-02 
1520	 9.24330353909617E-02 
1521	 8.53195884544115E-02 
1522	 0.071888582354015 
1523	 6.81354541960139E-02 
1524	 5.22142126618067E-02 
1525	 4.41401853201315E-02 
1526	 5.65476374442258E-02 
1527	 6.16618518913201E-02 
1528	 5.59207939988996E-02 
1529	 0.047531515672429 
1530	 4.47514165006465E-02 
1531	 4.87836658025581E-02 
1532	 0.046196873925365 
1533	 4.99369833628336E-02 
1534	 7.09597346215166E-02 
1535	 6.88582724911782E-02 
1536	 5.26600376255791E-02 
1537	 4.89898627995871E-02 
1538	 4.60304073958162E-02 
1539	 5.18113090043433E-02 
1540	 6.30486979180777E-02 
1541	 0.06332193521126 
1542	 5.78740941823474E-02 
1543	 5.30728852533667E-02 
1544	 4.77438186897393E-02 
1545	 4.85827442792599E-02 
1546	 5.26158764934769E-02 
1547	 0.05380027803556 
1548	 5.82882484425748E-02 
1549	 5.99520108718677E-02 
1550	 5.98613532102412E-02 
1551	 5.57947394930313E-02 
1552	 4.84357080336405E-02 
1553	 5.20394356540646E-02 
1554	 5.35550333928779E-02 
1555	 4.86610133078445E-02 
1556	 4.82903883178515E-02 
1557	 4.80272074122243E-02 
1558	 5.01051292271029E-02 
1559	 5.71265870907351E-02 
1560	 5.89412307717332E-02 
1561	 5.64708764604396E-02 
1562	 5.06227928983935E-02 
1563	 4.48736216806439E-02 
1564	 4.99119906987677E-02 
1565	 5.08056775444919E-02 
1566	 4.98312549804726E-02 
1567	 5.80013780071129E-02 
1568	 5.93231103828055E-02 
1569	 6.27052310428478E-02 
1570	 6.91109406344421E-02 
1571	 6.27004027221624E-02 
1572	 6.21910547354619E-02 
1573	 6.58200601120801E-02 
1574	 5.89656924417998E-02 
1575	 5.92598265923302E-02 
1576	 6.22253771854366E-02 
1577	 0.056974354312082 
1578	 5.32205118052732E-02 
1579	 0.051771502635769 
1580	 5.27802780768344E-02 
1581	 5.24722745144802E-02 
1582	 5.16954220966247E-02 
1583	 5.32669627501312E-02 
1584	 5.09734347067099E-02 
1585	 4.98230752175386E-02 
1586	 5.22792807077972E-02 
1587	 5.67077885408308E-02 
1588	 6.33962065702904E-02 
1589	 6.48420504945038E-02 
1590	 5.95916245937355E-02 
1591	 5.52088097597319E-02 
1592	 5.12529882265002E-02 
1593	 4.77076700834098E-02 
1594	 0.047773511637435 
1595	 4.70789090813197E-02 
1596	 4.69086754132134E-02 
1597	 4.87385525071961E-02 
1598	 0.052256561641853 
1599	 5.73512113908019E-02 
1600	 5.50958020580672E-02 
1601	 5.15450037780251E-02 
1602	 5.51514112268654E-02 
1603	 5.91968784983526E-02 
1604	 5.89889226071239E-02 
1605	 5.46125722971353E-02 
1606	 5.13297719460649E-02 
1607	 5.03742048877158E-02 
1608	 4.96445811964581E-02 
1609	 5.01349806738686E-02 
1610	 5.11463709460172E-02 
1611	 4.80541875303808E-02 
1612	 4.59292039495695E-02 
1613	 5.13315960236081E-02 
1614	 0.055754519296145 
1615	 5.71657746261119E-02 
1616	 5.65906994574511E-02 
1617	 4.99972297227851E-02 
1618	 4.74428641557991E-02 
1619	 5.58330658542538E-02 
1620	 5.68177947178501E-02 
1621	 0.049351503266289 
1622	 4.76520821802999E-02 
1623	 4.52417118951178E-02 
1624	 4.36368581049423E-02 
1625	 4.91755210118241E-02 
1626	 5.22992916222106E-02 
1627	 4.80330805782264E-02 
1628	 4.59772920149267E-02 
1629	 4.57296565762957E-02 
1630	 4.44731903882632E-02 
1631	 4.43872272714165E-02 
1632	 4.11078556529594E-02 
1633	 4.27958962361425E-02 
1634	 4.65656749931496E-02 
1635	 4.30216088647959E-02 
1636	 4.40536520821392E-02 
1637	 4.61911699866459E-02 
1638	 4.49725995343501E-02 
1639	 4.51415430142373E-02 
1640	 4.33562848461826E-02 
1641	 4.14247446108742E-02 
1642	 4.16678976916389E-02 
1643	 0.043688595881822 
1644	 4.71644878968438E-02 
1645	 5.17690728460114E-02 
1646	 5.15945546303497E-02 
1647	 4.97572116724756E-02 
1648	 0.052536693354287 
1649	 5.17170567328877E-02 
1650	 5.02419323980033E-02 
1651	 5.17675881075839E-02 
1652	 4.99167538848045E-02 
1653	 5.22158213567269E-02 
1654	 5.29554129546469E-02 
1655	 5.06978574851418E-02 
1656	 4.90317349253293E-02 
1657	 4.64992379704416E-02 
1658	 0.047263079959399 
1659	 0.053235802690397 
1660	 5.29610994254012E-02 
1661	 4.81989819453564E-02 
1662	 4.79612290680847E-02 
1663	 4.74564575679024E-02 
1664	 4.47555909728788E-02 
1665	 0.044124560968904 
1666	 4.51405807842267E-02 
1667	 4.19248307647553E-02 
1668	 4.52641492928759E-02 
1669	 5.09254268981389E-02 
1670	 4.70547578171616E-02 
1671	 4.91201361741872E-02 
1672	 5.77274080824783E-02 
1673	 5.75195059668777E-02 
1674	 5.53237886495563E-02 
1675	 0.052405801233979 
1676	 4.72543128082543E-02 
1677	 5.22025887377497E-02 
1678	 6.00325402963719E-02 
1679	 5.84563709436666E-02 
1680	 5.84631106047154E-02 
1681	 5.35058445839636E-02 
1682	 4.38175259530565E-02 
1683	 4.49489614830969E-02 
1684	 5.24582346121238E-02 
1685	 5.28118685170321E-02 
1686	 0.048586349558604 
1687	 5.05014332658483E-02 
1688	 4.41487467167297E-02 
1689	 4.49361316360512E-02 
1690	 6.06199534912579E-02 
1691	 5.83731819438818E-02 
1692	 5.48309761606138E-02 
1693	 5.67420930240145E-02 
1694	 4.97442207001379E-02 
1695	 0.053180874444184 
1696	 5.80264757591966E-02 
1697	 5.33035317818954E-02 
1698	 5.34672691609344E-02 
1699	 5.61078695068411E-02 
1700	 5.71713725156397E-02 
1701	 5.41818115686969E-02 
1702	 5.09054082357583E-02 
1703	 5.25769842094763E-02 
1704	 5.42219267780309E-02 
1705	 5.60567620467321E-02 
1706	 5.59513144102282E-02 
1707	 5.41273974374425E-02 
1708	 5.27720248906615E-02 
1709	 4.96288137329818E-02 
1710	 4.96506471919077E-02 
1711	 4.95610197751189E-02 
1712	 4.69892112999608E-02 
1713	 5.87966668431429E-02 
1714	 6.32939718393408E-02 
1715	 6.19960189689713E-02 
1716	 6.20753202218108E-02 
1717	 5.75083608055873E-02 
1718	 4.67472342046249E-02 
1719	 4.32040270422972E-02 
1720	 4.84402713548318E-02 
1721	 5.20556571348807E-02 
1722	 5.12424142353092E-02 
1723	 4.80400085293056E-02 
1724	 4.32000431728114E-02 
1725	 0.036731538109395 
1726	 4.00337327837597E-02 
1727	 4.70135021756882E-02 
1728	 4.26005273037393E-02 
1729	 3.89047551867773E-02 
1730	 3.15183569521891E-02 
1731	 2.68777628002855E-02 
1732	 4.14100940265398E-02 
1733	 5.27636332494272E-02 
1734	 5.58005254352053E-02 
1735	 5.89794549079334E-02 
1736	 5.56301958945947E-02 
1737	 5.06802844471271E-02 
1738	 4.54642798341494E-02 
1739	 0.042580781597992 
1740	 0.046780996219912 
1741	 4.80244300468971E-02 
1742	 5.42431340950854E-02 
1743	 6.27785612953045E-02 
1744	 4.63617711040076E-02 
1745	 3.49119183820704E-02 
1746	 6.30498393642481E-02 
1747	 6.94858887482088E-02 
1748	 8.53758148617361E-02 
1749	 9.01061055971281E-02 
1750	 6.16820474515215E-02 
1751	 4.80791361596263E-02 
1752	 4.15464327528527E-02 
1753	 4.08770929446922E-02 
1754	 5.31531424500276E-02 
1755	 5.48975390932659E-02 
1756	 4.64632956936329E-02 
1757	 5.81404706535206E-02 
1758	 7.90700765570103E-02 
1759	 0.09552690111692 
1760	 0.110122009326705 
1761	 9.48239045422193E-02 
1762	 4.78111356693932E-02 
1763	 3.22119000525368E-02 
1764	 4.17036634004506E-02 
1765	 3.77600885770176E-02 
1766	 6.04937296112314E-02 
1767	 8.97795794030755E-02 
1768	 7.19098967168288E-02 
1769	 5.19259046179899E-02 
1770	 5.45670293229716E-02 
1771	 5.33715129833456E-02 
1772	 5.40712786087358E-02 
1773	 6.03982580021241E-02 
1774	 4.94322080437113E-02 
1775	 2.39885204567409E-02 
1776	 0.037814110936651 
1777	 0.114527604714098 
1778	 0.14392071332347 
1779	 0.168639567916629 
1780	 0.15485194758115 
1781	 6.82562281532293E-02 
1782	 0.044236127397519 
1783	 3.43440860108085E-02 
1784	 0.017201797626802 
1785	 4.85833030969829E-02 
1786	 2.66683026883715E-02 
1787	-7.28974836596141E-02 
1788	-8.76600440293165E-02 
1789	-8.66661208443735E-02 
1790	-0.128231201707176 
1791	-1.1454618480466E-03 
1792	-4.36344514729824E-02 
1793	-7.56064642128261E-02 
1794	 8.81544231631761E-02 
1795	 9.71340800270637E-02 
1796	 0.065303070391767 
1797	 0.280819686751812 
1798	 0.355975899440618 
1799	 0.476250455140609 
1800	 0.571624979690623 
1801	 0.457628490419673 
1802	-0.406043204565056 
1803	-0.972649479360652 
1804	-0.888282379808706 
1805	-0.830328135038784 
1806	-0.245205752207295 
1807	 1.75102910610748 
1808	 0.809689216119101 
1809	 1.03968638031072 
1810	 1.62836103561579 
1811	 1.072991281371 
1812	-0.033051050748221 
1813	-0.901134320173055 
1814	-3.48973261410099 
1815	-12.7892145502678 
1816	 1.25376589030203 
1817	-0.812000151321386 
1818	-1.14591191354519 
1819	 40.7770785481978 
1820	 0.930260544106447 
1821	-1.00527869702428 
1822	-1.34394625603254 
1823	-13.220778209095 
1824	 0.253868619390483 
1825	-0.533862333758558 
1826	-0.644351619130533 
1827	-0.587026657113272 
1828	-0.466255020505814 
1829	-6.30083587561741 
1830	-1.03443786568869 
1831	 2.13520769579619 
1832	 1.88042000142891 
1833	 4.65702721852963 
1834	 6.14589790165627 
1835	 4.78548308136141 
1836	 39.7905804940699 
1837	-0.263177968052233 
1838	 0.235167001248855 
1839	 0.243531235693183 
1840	 3.47342442741292E-02 
1841	 0.392084761025582 
1842	 0.525234210560302 
1843	 0.386931927727962 
1844	 0.144567292558357 
1845	 0.117454697522146 
1846	 3.50387115132192E-02 
1847	 9.35084367649588E-03 
1848	 0.103746876457173 
1849	 0.439401819539756 
1850	 0.456555224027413 
1851	 0.230635695275053 
1852	 0.282866622068285 
1853	 0.210373314318422 
1854	 0.22040894701063 
1855	 3.9309199790389 
1856	-0.935026372930781 
1857	-0.207815704036095 
1858	-0.307988097028383 
1859	 2.5169265432882 
1860	 2.19232135030934 
1861	 3.60917075396989 
1862	-1.91246235688771 
1863	-0.844410849060354 
1864	-1.0976141711525 
1865	-1.38742210153313 
1866	-9.97949439584289 
1867	 20.6321499293369 
1868	 5.17159295132286 
1869	 4.85704221322374 
1870	-1207.57554051291 
1871	-6.15642058765625 
1872	-1.01906873990204 
1873	-7.92681374913469E-02 
1874	-0.622675619567446 
1875	-0.750639644375263 
1876	-0.75899858237875 
1877	-1.21730957738573 
1878	-1.29002202694435 
1879	-0.38801168316565 
1880	-0.441497173052719 
1881	-6.41147014234779 
1882	 6.71157893948606 
1883	-2.05651909402389 
1884	-1.09914795243558 
1885	-1.15642584201894 
1886	-2.4205075164451 
1887	-3.17366609141836 
1888	-0.737337347836608 
1889	-0.51310452508556 
1890	 0.155639357508608 
1891	 0.20246476622151 
1892	 4.29488564408924E-02 
1893	-1.45258651155792 
1894	-3.44465973517836 
1895	-3.14203206161559 
1896	-2.1653785078262 
1897	-1.66557522995183 
1898	-0.635271895488045 
1899	-0.968832906952653 
1900	-0.402850366173248 
1901	-4.01811492860682 
1902	-3.17619036403127 
1903	-2.54257376617501 
1904	-3.23429230940925 
1905	 2.50776496459222 
1906	 0.643626283452281 
1907	 0.117406977619595 
1908	-0.12756748641093 
1909	-0.53739717030058 
1910	-0.892467707246144 
1911	-0.759509145196197 
1912	-0.551661793429899 
1913	-0.448420875971284 
1914	-0.246874223968741 
1915	-0.286659994913111 
1916	-0.386038970289445 
1917	-1.78673165010862 
1918	 1.08746166611395 
1919	 0.98620120134235 
1920	 1.47435599263171 
1921	 1.43265704349477 
1922	-2.24614024398214 
1923	 0.782918408466112 
1924	 5.75470418268454 
1925	-0.211178606332279 
1926	-0.448809780657624 
1927	-1.61979217242976 
1928	-0.491755879867548 
1929	-0.903609893194498 
1930	-0.545629633518682 
1931	-0.504261749237655 
1932	-0.230336693951212 
1933	 8.55507520573913E-02 
1934	-0.444393408860177 
1935	-0.658040320631621 
1936	-0.53512027640628 
1937	-1.01707630088746 
1938	-2.18019339550477 
1939	-2.36380241094312 
1940	-1.60086361264769 
1941	-1.42034369819585 
1942	-1.2682759798553 
1943	-1.66455810821179 
1944	-3.76671775610752 
1945	-6.04533798349297 
1946	-2.97967177630702 
1947	-1.26660737725498 
1948	-0.791018733395952 
1949	-0.965928589279492 
1950	-0.56485075838055 
1951	 5.79509423156148E-02 
1952	 1.38213879761801 
1953	 1.81782528577688 
1954	 1.28997440039988 
1955	 2.00784718538428 
1956	 18.7329045097245 
1957	-9.56238417375304 
1958	-0.401323181918434 
1959	-0.140957981448259 
1960	-0.141513966014411 
1961	-3.62087015577709E-02 
1962	 0.131276060826957 
1963	 4.62289085718114E-02 
1964	-1.17956266874084E-02 
1965	 0.431123162201251 
1966	-1.98449872693339E-03 
1967	-3.75679551439607 
1968	 8.77963982263564 
1969	 1.33635960517817 
1970	 0.273216617568314 
1971	-0.582984049655942 
1972	-1.10564753905414 
1973	-0.946049752330744 
1974	-0.831686669432633 
1975	-4.52349211293906E-02 
1976	-1.6561614684837 
1977	 2.202930778726 
1978	 0.555310031229796 
1979	 0.327850229173696 
1980	 6.70321803338417E-02 
1981	-0.378733316079935 
1982	-0.627901994551323 
1983	-21.7191252242899 
1984	-0.158661031767201 
1985	 0.252765179704538 
1986	 0.940221292687764 
1987	 0.655528255753634 
1988	 0.782644335284918 
1989	 0.877677023769249 
1990	 0.605094564480555 
1991	 0.626996860503908 
1992	 0.960063793874095 
1993	 1.66668572497619 
1994	 2.80628178822918 
1995	 170.750043604911 
1996	 9.95808785189964 
1997	-3.07387747169998 
1998	-0.61180498432727 
1999	-0.338022865391311 
2000	 0.965468409732471 
2001	 1.12320929893276 
2002	 0.823293298975907 
2003	 0.292002888539711 
2004	-2.86776678274834E-04 
2005	-6.62542839953603E-02 
2006	-0.164880969339511 
2007	-9.86675918687842E-02 
2008	-0.174888655979023 
2009	-0.294870891600605 
2010	-0.204819240608833 
2011	-0.100300015340836 
2012	-3.16783521600017 
2013	 0.254953240748614 
2014	-5.24945204518439 
2015	-8.23624396826887 
2016	-10.3454816987061 
2017	-10.4450391763251 
2018	-2.14336401676611 
2019	-1.53095991874199 
2020	-0.361061090312703 
2021	 0.250691216993585 
2022	 0.391902008845157 
2023	 0.662343807768814 
2024	 0.702402796811254 
2025	-0.443029267527227 
2026	-1.04564009869355 
2027	-1.24624710149525 
2028	-0.54769595211045 
2029	-0.626190102119907 
2030	-0.72652508595934 
2031	-0.532139620718469 
2032	-0.300864735491544 
2033	-4.86863318865177E-02 
2034	 6.99293458736688E-02 
2035	 1.40828876604592E-02 
2036	 0.231139304127267 
2037	-0.118995368938645 
2038	-0.509869241286268 
2039	-0.545481679848717 
2040	-0.281792633111195 
2041	-0.354391712056865 
2042	-0.508355590399363 
2043	-0.690035035206028 
2044	-1.30509424364687 
2045	-3.76397857091409 
2046	 10.2590954407756 
2047	-7.47841412980605 
2048	-0.516078570288807 
2049	 0.059888886098173 
2050	 0.173816719499488 
2051	-0.160506012806179 
2052	-0.362541781036748 
2053	-0.46388646498678 
2054	-0.717696372346225 
2055	-0.915609146358443 
2056	-0.991295084274092 
2057	-1.16336592466556 
2058	-1.2772210400849 
2059	-1.01373969250472 
2060	-0.73323623108068 
2061	-0.464717878172308 
2062	-0.44474861694627 
2063	-0.65599578294137 
2064	-0.582528454330256 
2065	-0.797301203358787 
2066	-10.5084917262224 
2067	-2.63330592439231 
2068	 1.81120499751953E-02 
2069	 0.487926741742908 
2070	 0.73997351284822 
2071	 0.644640503490032 
2072	 0.414231746587106 
2073	 0.226645466733201 
2074	-0.259268019868415 
2075	-0.378604101888916 
2076	-0.378934668961377 
2077	-0.355691899616036 
2078	-0.169751650998593 
2079	-7.42162931807152E-02 
2080	-2.88064753838587E-02 
2081	 4.77274720687374E-02 
2082	 0.227433458005043 
2083	 0.328976347294654 
2084	 0.373763248325616 
2085	 0.390853362213845 
2086	 0.238813855349555 
2087	 0.22768237803262 
2088	 0.36182392284366 
2089	 0.398357050612976 
2090	 0.140642299725718 
2091	-0.175765445122701 
2092	-0.511343384057227 
2093	-0.649498609658966 
2094	-0.61180929934281 
2095	-0.287553899316792 
2096	-0.261759594246117 
2097	-0.323310392569111 
2098	-0.318600927953829 
2099	-0.351723885767831 
2100	-0.407366602946234 
2101	-0.483340454871569 
2102	-0.501167037809384 
2103	-0.537184942077298 
2104	-0.558428569556072 
2105	-0.31849430145331 
2106	-0.124113344966554 
2107	 0.149253362591376 
2108	 0.398200619572237 
2109	 0.354411965491628 
2110	 0.292113020863561 
2111	 0.322821667184549 
2112	 0.32601334237062 
2113	 0.289405660327361 
2114	 0.312196806068679 
2115	 0.285016760813467 
2116	 5.67975080067664E-02 
2117	 2.80356952726037E-02 
2118	 0.181335628952389 
2119	 0.1954632198617 
2120	 0.258558785610667 
2121	 0.167610060688381 
2122	-1.99408590465515E-02 
2123	-0.015798479544873 
2124	 0.15006681450153 
2125	 0.312825750445514 
2126	 0.556334093262632 
2127	 0.827007156661422 
2128	 0.614557326154828 
2129	 0.354329004118494 
2130	 0.284522572715538 
2131	 0.117037467650715 
2132	 3.37035098347981E-02 
2133	 0.106414329451834 
2134	 0.132954381243038 
2135	 0.201843685033708 
2136	 0.231645157007415 
2137	 0.257422359458366 
2138	 0.187624552670149 
2139	-1.73527835798573E-02 
2140	-0.04742743363701 
2141	-4.04244406383603E-02 
2142	 0.02298510785782 
2143	 0.257511369811595 
2144	 0.36590660904482 
2145	 0.320270928657545 
2146	 0.230119496180235 
2147	 5.04994389963562E-02 
2148	-5.96434071131546E-02 
2149	-2.20873059415523E-02 
2150	 1.18602793430406E-02 
2151	 6.40748318498621E-02 
2152	 9.07440125514737E-02 
2153	 3.25335917328453E-02 
2154	-0.100642214758844 
2155	-0.205634948473786 
2156	-0.275504919616099 
2157	-0.31200150005416 
2158	-0.313249613250646 
2159	-0.279418015369794 
2160	-0.222470382277879 
2161	-0.158862727700965 
2162	-1.74261911647218E-02 
2163	 3.06806831188405E-02 
2164	 8.05695813979273E-02 
2165	 8.87853383684804E-02 
2166	-3.40969526325986E-02 
2167	-9.61677489164953E-02 
2168	-0.12540845749969 
2169	-0.180598152595434 
2170	-0.377663057787805 
2171	-0.351206316615175 
2172	-0.147421472100202 
2173	-0.237199955422743 
2174	-0.334074091856886 
2175	-0.2632903754659 
2176	-0.153428937923023 
2177	-0.185029795650274 
2178	-0.069001868020174 
2179	-9.28982028653735E-02 
2180	-0.128241725993373 
2181	-0.110866459016923 
2182	-0.238508524432327 
2183	-0.169938556077565 
2184	-5.14473165859048E-02 
2185	-9.9657068857339E-03 
2186	-2.79652266032474E-02 
2187	-2.73004076882878E-02 
2188	-2.18583419341823E-02 
2189	-0.218851064093608 
2190	-0.204147472575577 
2191	 3.38109087161095E-02 
2192	 5.96257350662648E-02 
2193	-1.65422764825033E-03 
2194	-9.57386283561476E-03 
2195	-7.42954669605938E-02 
2196	-7.52007326877843E-02 
2197	-8.5552558836754E-03 
2198	 5.23004337362972E-02 
2199	 0.170564571140041 
2200	 0.226653619307687 
2201	 0.26298171097175 
2202	 0.375083006772536 
2203	 0.36934149460915 
2204	 0.493993899035757 
2205	 0.703832974377404 
2206	 0.459832972473644 
2207	 0.165608776944444 
2208	 0.140412581926349 
2209	 0.171387008609294 
2210	 0.170208908919846 
2211	 0.314372302593879 
2212	 0.37265992248016 
2213	 0.483999787052201 
2214	 0.619313239268601 
2215	 0.626775952414069 
2216	 0.5113672165637 
2217	 0.41669247835591 
2218	 0.297698942560433 
2219	 0.179369326332551 
2220	-0.039016967480641 
2221	-0.133144265521617 
2222	-0.478384048056046 
2223	-0.466301380375366 
2224	 0.120807387374336 
2225	 0.274038716937566 
2226	 0.399317709589426 
2227	 0.451576143903999 
2228	 0.281106716846887 
2229	 0.310099477480751 
2230	 0.559987606561635 
2231	 0.667764686945668 
2232	 1.07116731879797 
2233	 1.1794248096512 
2234	 0.930754636636634 
2235	 0.133560790526197 
2236	-0.093714240067961 
2237	-9.76785035877975E-02 
2238	-0.138639329132726 
2239	-0.246524181462829 
2240	-6.14863661121029E-02 
2241	 5.74225605871364E-02 
2242	 0.188094270081749 
2243	 0.398246705186085 
2244	 0.249634691847837 
2245	-3.56175704866217E-02 
2246	-0.18953701735023 
2247	-0.563025375476919 
2248	-0.337398418581968 
2249	-0.159128381043415 
2250	-0.36694372927245 
2251	-0.602594720135085 
2252	-1.04462691900716 
2253	-1.87867676078584 
2254	-2.95447220732276 
2255	-3.03932578447087 
2256	-2.38630569964032 
2257	-1.79913514770846 
2258	-1.08674756766437 
2259	-0.820842352181053 
2260	-0.511260947759212 
2261	 8.11473500150868E-02 
2262	 0.201307206745691 
2263	 0.309496424569819 
2264	 0.345416871515057 
2265	-1.32299880043672 
2266	-1.88534711455395 
2267	 0.318785536550804 
2268	 1.04405323860603 
2269	 2.2161029238885 
2270	 1.14860305839571 
2271	 0.150977825085205 
2272	-4.21720037135199E-02 
2273	-0.297301620896005 
2274	-0.31527951864417 
2275	-8.25707298662076E-02 
2276	 0.123784660744569 
2277	 0.210214755224428 
2278	 0.200141652786394 
2279	-3.68542889003125E-02 
2280	 3.72056466595152E-02 
2281	 0.403661213656701 
2282	 1.09251432205351 
2283	 0.916802820289343 
2284	 0.56730628808603 
2285	 9.76494254065209E-02 
2286	-0.752329035878185 
2287	 2.95022487697512 
2288	 0.879633655215347 
2289	 1.40939102136813 
2290	 0.475248056828896 
2291	-1.25981007523879 
2292	-0.544687351543708 
2293	-0.497549622814581 
2294	-0.709721686021304 
2295	 0.180099290935794 
2296	 5.25664430573634 
2297	 0.845952203720295 
2298	 0.986768643082772 
2299	 2.20526827577831 
2300	 1.070349681689 
2301	 0.82449216411667 
2302	 1.59720640961299 
2303	-1.63588265189261 
2304	-0.803949879817751 
2305	-0.957013815557595 
2306	-0.846373408034821 
2307	-1.28811564239863 
2308	 13.4347351311652 
2309	-0.992195375189351 
2310	-8.16442649667914 
2311	 1.83417483650202 
2312	 1.26866044975712 
2313	 2.53060578163864 
2314	 5.07509689023626 
2315	 40.753776300453 
2316	-20.0055913348153 
2317	-5.87280560651118 
2318	-1.71148261546779 
2319	-6.62993897381984 
2320	 4.83889473776177 
2321	-4.66428973159062 
2322	-0.689067234149107 
2323	-0.619701169312979 
2324	-4.69320433563246 
2325	-1.70700982804221 
2326	-1.82159817855326 
2327	-1.41383177707711 
2328	-1.58598479690335 
2329	-1.85958752897458 
2330	-1.27105499587256 
2331	-0.698915667865682 
2332	-0.322575159845969 
2333	-6.15136857743943E-02 
2334	-0.460246423347842 
2335	-0.607830097470841 
2336	-0.578050298942034 
2337	-0.698614501756778 
2338	-1.58718670157871 
2339	 3.13343102452037 
2340	-1.5544434421134 
2341	-0.459814655850364 
2342	-5.08139869547145 
2343	-2.1230793464971 
2344	 1.19054816080524 
2345	 1.25347304631695 
2346	 0.831340467306316 
2347	 1.03513539868399 
2348	 1.04060200970076 
2349	 0.544072612025043 
2350	 0.529101374395465 
2351	 0.775996939385824 
2352	 0.928835525714385 
2353	 1.14283491511232 
2354	 1.02120708299121 
2355	-660.012331135391 
2356	 2.97465029930156 
2357	-11.3290626314476 
2358	-1.0161914828122 
2359	-0.670810949926703 
2360	-0.379135775506704 
2361	-0.885484840515855 
2362	 0.232230190626726 
2363	-5.52976302606703 
2364	 0.816895156230906 
2365	 1.32511048603197 
2366	 0.462110346942539 
2367	 0.157504354774511 
2368	 6.01120599403107E-03 
2369	-0.159563623171095 
2370	-0.695966312908741 
2371	-0.855151583515674 
2372	 0.237739181217022 
2373	 0.642270913781908 
2374	 1.88650916186996E-02 
2375	 4.33828382779332E-02 
2376	-0.237066117598995 
2377	 0.858195077740464 
2378	 1.07338410559219 
2379	 0.619934963027292 
2380	 0.670132871202074 
2381	 0.307583997673063 
2382	-4.42345995914426E-02 
2383	-0.168277589334918 
2384	-0.184498699031822 
2385	-0.218963695752972 
2386	 0.076991679235352 
2387	 0.412281958828076 
2388	 0.594888853459601 
2389	-0.449604395211662 
2390	 0.717901077680853 
2391	 0.881949946252054 
2392	 0.42805608616823 
2393	 0.315989022349327 
2394	-0.742387055656992 
2395	 2.25444181776551 
2396	 0.502266081292354 
2397	 0.383303178519857 
2398	 0.347151825415186 
2399	 0.116640397374904 
2400	 0.201921794614029 
2401	 0.362717494052849 
2402	 0.306112505818261 
2403	 0.351784568662856 
2404	 0.128884499511628 
2405	 9.28124061892365E-02 
2406	 0.593498348743879 
2407	 0.681847631432668 
2408	 0.857272914200086 
2409	 1.16694111437736 
2410	-0.39673947801473 
2411	-1.51498157240661 
2412	-0.232487982565724 
2413	-5.51133326395317E-03 
2414	 3.72189755300297E-02 
2415	 0.539773073940199 
2416	 0.581548726574087 
2417	 0.228361052738484 
2418	 0.106105571389664 
2419	-1.00787217766188 
2420	-2.70351943222047 
2421	-1.37319648417445 
2422	 0.3046306048518 
2423	-1.31112713382173 
2424	-4.34068044419154 
2425	 2.81653287935467 
2426	 1.01021135000953 
2427	-10.3838868285056 
2428	-4.10637325839255 
2429	-1.36999954151757 
2430	-0.809624066491832 
2431	 0.5778857653274 
2432	 3.51169154811023 
2433	-7.85446020967772 
2434	 3.4863664582193 
2435	 2.35271383204854 
2436	-0.748074248862928 
2437	-2.13206243968266 
2438	 1.81308446928956 
2439	 0.703045957021387 
2440	 0.52600223953454 
2441	 0.408855984093946 
2442	 0.460886654514713 
2443	 0.777080330829074 
2444	 1.12401382386741 
2445	 1.96050277743314 
2446	 3.58818316869454 
2447	 1.092236640336 
2448	 1.99359914263609 
2449	 7.32738563685405 
2450	-4.71386217067884 
2451	 1.17341753846723 
2452	 0.686921296216041 
2453	 0.936631636323441 
2454	 1.40119807517258 
2455	 7.15199963327789 
2456	-1.56261486663874 
2457	-0.127079999180292 
2458	 0.509874466394285 
2459	-0.160400094497468 
2460	 0.713916330409079 
2461	-0.267795245884493 
2462	-0.529005680972555 
2463	-1.01003833158361 
2464	-3.21677864189659 
2465	-1.86625619015811 
2466	 0.235907946056064 
2467	 0.394794228276909 
2468	 1.26586126961129 
2469	-3.49913549598411 
2470	-0.151809928614882 
2471	 2.43558613290345E-02 
2472	-6.93033805548238E-02 
2473	 5.39305966650549E-02 
2474	-1.08896222636224 
2475	-0.404813612772841 
2476	 6.06872345771951 
2477	 6.22788650522927 
2478	-4.26446679030443 
2479	-0.111418035754764 
2480	 0.350238219378829 
2481	 0.375854154827513 
2482	 1.15888586924785 
2483	 1.58823688405411 
2484	 1.01258184718963 
2485	 1.32834477760647 
2486	 0.51673110900226 
2487	 6.15369968534261E-02 
2488	 5.81646682120761E-02 
2489	 0.293808780904547 
2490	 0.264940239456494 
2491	 0.388040915435925 
2492	 0.486773686923061 
2493	-0.122039911099979 
2494	 0.523283791671486 
2495	 0.342736488465647 
2496	 0.78252136555528 
2497	 1.51121495437867 
2498	 1.48310538091628 
2499	 2.0944873601741 
2500	 1.65994537372952 
