Wavelength	rt0707close00000.asd
350	 8.33556082439511E-02 
351	 8.38308707714834E-02 
352	 8.43166677110174E-02 
353	 8.33659205567175E-02 
354	 8.10417378015519E-02 
355	 0.080932419287464 
356	 0.082596370010234 
357	 8.39919989882351E-02 
358	 8.34669190632243E-02 
359	 8.33399396414623E-02 
360	 0.083188237578451 
361	 8.26565612577213E-02 
362	 0.081790586859025 
363	 8.38755500639753E-02 
364	 0.084945668513297 
365	 8.37140956751298E-02 
366	 8.41762424526658E-02 
367	 8.43337281125503E-02 
368	 8.42603943992932E-02 
369	 8.44325196985144E-02 
370	 8.50272982228922E-02 
371	 8.45998822647036E-02 
372	 8.38398864853672E-02 
373	 8.43913934139834E-02 
374	 8.39586354009785E-02 
375	 8.48985733290599E-02 
376	 8.69258372261969E-02 
377	 0.085684348261061 
378	 8.53312797867443E-02 
379	 8.59267128591873E-02 
380	 8.65848458389465E-02 
381	 8.67210621230766E-02 
382	 8.72871519039415E-02 
383	 8.76320864724289E-02 
384	 8.68144916219359E-02 
385	 8.75950319702076E-02 
386	 8.83776680109356E-02 
387	 8.85190645858807E-02 
388	 8.88316915819965E-02 
389	 8.91030246372318E-02 
390	 8.88536482840904E-02 
391	 8.83053518387086E-02 
392	 8.95353106748029E-02 
393	 9.05233682679832E-02 
394	 9.06092159748143E-02 
395	 0.090026529699661 
396	 9.03792826075355E-02 
397	 9.06884129411751E-02 
398	 9.07398100102764E-02 
399	 0.09109698352409 
400	 9.17231227209585E-02 
401	 9.20742527998669E-02 
402	 0.091925784905174 
403	 9.18456610347784E-02 
404	 9.18267060132527E-02 
405	 9.21231500801863E-02 
406	 9.28302944119397E-02 
407	 9.26838714353127E-02 
408	 9.29200391389888E-02 
409	 9.36448285044765E-02 
410	 9.37606031430962E-02 
411	 9.36733100390049E-02 
412	 9.39628370094995E-02 
413	 9.46955636474975E-02 
414	 9.46307645260158E-02 
415	 9.47816593191626E-02 
416	 9.52093565036399E-02 
417	 9.55953067454713E-02 
418	 9.58806586580389E-02 
419	 9.60682651267732E-02 
420	 9.63092738405485E-02 
421	 9.68837213748839E-02 
422	 0.097342975242873 
423	 9.76559346237032E-02 
424	 9.79613296090646E-02 
425	 9.86644029859875E-02 
426	 9.88292737455997E-02 
427	 9.90287989656463E-02 
428	 0.100247924225303 
429	 0.100710795094554 
430	 0.101231944556377 
431	 0.102100940234212 
432	 0.102716704551151 
433	 0.102757391513145 
434	 0.103097997814947 
435	 0.104188235677459 
436	 0.104419098759418 
437	 0.104737204449138 
438	 0.105467681429303 
439	 0.106467241364143 
440	 0.106818991379304 
441	 0.107194079979661 
442	 0.107855155829108 
443	 0.108199002332907 
444	 0.108631247341425 
445	 0.109231832100893 
446	 0.109889176332313 
447	 0.110075837139861 
448	 0.110628319778944 
449	 0.111408334185856 
450	 0.111615703698661 
451	 0.111964858575309 
452	 0.112296715067011 
453	 0.112550984821728 
454	 0.113137063111883 
455	 0.113674568729754 
456	 0.114069466862846 
457	 0.114341789148271 
458	 0.114494739878197 
459	 0.114684092918637 
460	 0.115062656448986 
461	 0.115734859042281 
462	 0.115972449294435 
463	 0.116087362172162 
464	 0.116432735613256 
465	 0.116874760659595 
466	 0.117172405894812 
467	 0.117438176572259 
468	 0.117910474221318 
469	 0.118267607299742 
470	 0.118610651632254 
471	 0.118902020571266 
472	 0.118866410490314 
473	 0.119213321804176 
474	 0.119685483026616 
475	 0.119955907002279 
476	 0.120424548354261 
477	 0.12105789976222 
478	 0.121582945358705 
479	 0.121659766694921 
480	 0.122070048842944 
481	 0.122583896417037 
482	 0.122974532103186 
483	 0.123290332714259 
484	 0.12379381283864 
485	 0.124313074517456 
486	 0.124644489767961 
487	 0.125405348110391 
488	 0.125912904929139 
489	 0.126112452781972 
490	 0.126597909526893 
491	 0.127137084994717 
492	 0.127752542606644 
493	 0.128391415844363 
494	 0.128623126855129 
495	 0.129311255828299 
496	 0.130260473021128 
497	 0.130801132456073 
498	 0.131316091004809 
499	 0.131850286374727 
500	 0.132378349535702 
501	 0.132801933242549 
502	 0.133669663692874 
503	 0.134549694223848 
504	 0.13497414575517 
505	 0.135539887729454 
506	 0.136213603853591 
507	 0.136879632952523 
508	 0.137394197117746 
509	 0.138064702722885 
510	 0.1388015506982 
511	 0.139502459281495 
512	 0.140213191832226 
513	 0.140796929307123 
514	 0.141330084396876 
515	 0.14197240312358 
516	 0.142695369828664 
517	 0.143629454299921 
518	 0.144668142988726 
519	 0.145427146267363 
520	 0.146008303400384 
521	 0.146747315515677 
522	 0.147826198798919 
523	 0.148748880125818 
524	 0.149474776620866 
525	 0.150099177659364 
526	 0.150821181080016 
527	 0.151737193830316 
528	 0.152758738960619 
529	 0.153720280167822 
530	 0.154326652544959 
531	 0.155156370488863 
532	 0.156207326742217 
533	 0.15723656183163 
534	 0.158073823175214 
535	 0.158854416725145 
536	 0.159635588363764 
537	 0.160357014302932 
538	 0.161344660744607 
539	 0.162476380831446 
540	 0.163519072090873 
541	 0.16425048547222 
542	 0.165191925932307 
543	 0.166351188525145 
544	 0.167408437052315 
545	 0.168271208393582 
546	 0.169153000645196 
547	 0.17008846505923 
548	 0.170643564556826 
549	 0.171614900131859 
550	 0.172816841444218 
551	 0.173759852587822 
552	 0.174421489274152 
553	 0.175227276886956 
554	 0.176321153534771 
555	 0.177488500839886 
556	 0.178373637776867 
557	 0.179119856626701 
558	 0.17994374678289 
559	 0.180844529617132 
560	 0.18181380769542 
561	 0.18274650876806 
562	 0.183520886460683 
563	 0.184432685658263 
564	 0.18529623958462 
565	 0.185966244087138 
566	 0.186468972946423 
567	 0.187300982028665 
568	 0.188150586519843 
569	 0.188543035567751 
570	 0.189014289521741 
571	 0.189705032304896 
572	 0.190441160841718 
573	 0.190756538982878 
574	 0.191158654676012 
575	 0.191724291205117 
576	 0.192283699148463 
577	 0.192205823033773 
578	 0.192221889342812 
579	 0.192559376189615 
580	 0.193037283036337 
581	 0.192900739317783 
582	 0.192866440116303 
583	 0.193258000949258 
584	 0.193369981304225 
585	 0.193026745918982 
586	 0.192730626442689 
587	 0.193022140292261 
588	 0.192721302823599 
589	 0.192418558255578 
590	 0.192347284605403 
591	 0.192176914376769 
592	 0.191749390698199 
593	 0.191215808030489 
594	 0.190662851110251 
595	 0.189723737638355 
596	 0.188713960003188 
597	 0.187699232494552 
598	 0.186624538029827 
599	 0.185627658651777 
600	 0.184658504038678 
601	 0.183816492208497 
602	 0.183509041948772 
603	 0.183268677831987 
604	 0.183053165006269 
605	 0.18293246455457 
606	 0.182743971266972 
607	 0.182920471157806 
608	 0.183293862560713 
609	 0.183087933394015 
610	 0.183026194374695 
611	 0.18313437371336 
612	 0.183274848768721 
613	 0.183275552839784 
614	 0.183346216032284 
615	 0.18342716742799 
616	 0.183344575827858 
617	 0.183381023440384 
618	 0.183374652372751 
619	 0.18333974353744 
620	 0.183680480290219 
621	 0.183572104367906 
622	 0.183281008545436 
623	 0.183331232193208 
624	 0.183597386878619 
625	 0.183660688260474 
626	 0.183558120456253 
627	 0.183742825756746 
628	 0.183617268819527 
629	 0.183273132979316 
630	 0.183047233098186 
631	 0.18361292406731 
632	 0.183895848685121 
633	 0.183765132763676 
634	 0.183552513412639 
635	 0.183191466811561 
636	 0.182980771043708 
637	 0.183090625422967 
638	 0.18349386753641 
639	 0.183422613346428 
640	 0.183188664746208 
641	 0.183234198062974 
642	 0.183032736591759 
643	 0.182939253851508 
644	 0.182957346890867 
645	 0.182803688128587 
646	 0.182755172796466 
647	 0.182472047499949 
648	 0.18191916513305 
649	 0.182009537322897 
650	 0.181950956277624 
651	 0.181544211592726 
652	 0.180871495964671 
653	 0.180105223102341 
654	 0.179618274126582 
655	 0.179275989251407 
656	 0.178295948508715 
657	 0.177591807130218 
658	 0.177237357108434 
659	 0.177006533227982 
660	 0.176384071623919 
661	 0.175741428407888 
662	 0.175370580345471 
663	 0.175436558665749 
664	 0.175220449425819 
665	 0.175038157735931 
666	 0.175074095220931 
667	 0.175057353662968 
668	 0.174735891728324 
669	 0.174399084004367 
670	 0.174399690798121 
671	 0.174353584008033 
672	 0.174322271868791 
673	 0.174395379287187 
674	 0.174649349460119 
675	 0.174710068059111 
676	 0.174548873451261 
677	 0.174321526996496 
678	 0.174464494821321 
679	 0.174604281464129 
680	 0.174568810630628 
681	 0.174334035961164 
682	 0.17415154101434 
683	 0.174368916837575 
684	 0.174845066754404 
685	 0.174802190046438 
686	 0.174312415234002 
687	 0.173778288452911 
688	 0.173591939474957 
689	 0.173427368853799 
690	 0.172893338961908 
691	 0.172187572527568 
692	 0.17183546480854 
693	 0.171365718976946 
694	 0.170533009737888 
695	 0.169374276243313 
696	 0.168049623209933 
697	 0.167344612663494 
698	 0.166726428881865 
699	 0.165489522482314 
700	 0.164096408595023 
701	 0.162813865786183 
702	 0.161611501394619 
703	 0.160188778311199 
704	 0.158715836825793 
705	 0.157373094367632 
706	 0.15611732990296 
707	 0.154285720779173 
708	 0.152201922928515 
709	 0.150228109868313 
710	 0.1485073236907 
711	 0.145726130988048 
712	 0.143087879218384 
713	 0.140965949436952 
714	 0.13865528795125 
715	 0.136629618182028 
716	 0.134372436505046 
717	 0.131504933780099 
718	 0.128573311280878 
719	 0.12535941346702 
720	 0.1225856175381 
721	 0.12016903614017 
722	 0.117919143971929 
723	 0.115412826074724 
724	 0.112675290892154 
725	 0.109334232099564 
726	 0.106233147343338 
727	 0.103315475591855 
728	 0.100278286480526 
729	 9.66983994552198E-02 
730	 9.29069272212832E-02 
731	 8.94244458086394E-02 
732	 8.64234838545427E-02 
733	 8.43946225485575E-02 
734	 8.26937722575535E-02 
735	 8.09813554930136E-02 
736	 7.92978596518516E-02 
737	 7.81071980378063E-02 
738	 7.73618956313849E-02 
739	 7.68415842751644E-02 
740	 7.61240536931052E-02 
741	 7.58905276346626E-02 
742	 7.58109578767679E-02 
743	 7.52109827782576E-02 
744	 7.51779068000631E-02 
745	 7.50392701276626E-02 
746	 7.46438817263893E-02 
747	 7.47508235333481E-02 
748	 7.46160020696916E-02 
749	 7.43470812459661E-02 
750	 7.42089481192335E-02 
751	 0.074250315123339 
752	 7.41409428403299E-02 
753	 7.40057301046143E-02 
754	 7.41385284433594E-02 
755	 7.39285718828552E-02 
756	 7.39629345196598E-02 
757	 7.43389751765582E-02 
758	 7.42576768148629E-02 
759	 7.41192823314983E-02 
760	 7.43482988288392E-02 
761	 7.48556223635531E-02 
762	 7.46139681177713E-02 
763	 7.46840537599215E-02 
764	 7.47822326324554E-02 
765	 0.074482620498509 
766	 7.45562537677857E-02 
767	 7.45605743084084E-02 
768	 7.45131572109593E-02 
769	 7.48490769568476E-02 
770	 7.48999464209883E-02 
771	 7.50451204473908E-02 
772	 7.55207254939891E-02 
773	 7.55900375435647E-02 
774	 7.57893300282922E-02 
775	 7.61326091458395E-02 
776	 7.64052377777771E-02 
777	 7.64638889968964E-02 
778	 7.65841207457017E-02 
779	 7.70096289933769E-02 
780	 7.78459850996531E-02 
781	 7.79136965684413E-02 
782	 7.81125038145405E-02 
783	 7.89621243481454E-02 
784	 7.91995863168178E-02 
785	 7.98053941175529E-02 
786	 8.04547593357481E-02 
787	 8.06127792443737E-02 
788	 8.13728383650888E-02 
789	 8.18903474604647E-02 
790	 8.21932495546572E-02 
791	 8.30026678843838E-02 
792	 8.34566837467311E-02 
793	 8.39911218351963E-02 
794	 8.47729332708788E-02 
795	 8.52169260959555E-02 
796	 8.57503270302689E-02 
797	 8.64701741900499E-02 
798	 8.72321336886738E-02 
799	 8.72556043909744E-02 
800	 8.76488794988426E-02 
801	 8.83071577782297E-02 
802	 8.85174203194537E-02 
803	 8.88805032074515E-02 
804	 8.93101950700059E-02 
805	 8.94688647094014E-02 
806	 8.88747497720025E-02 
807	 8.86389950041229E-02 
808	 8.89657982276947E-02 
809	 8.95768636508822E-02 
810	 0.089398565700008 
811	 8.95294290322212E-02 
812	 9.00673541646462E-02 
813	 9.05344155697054E-02 
814	 9.02127217093313E-02 
815	 8.88091489188834E-02 
816	 8.72412885202725E-02 
817	 8.68869318256633E-02 
818	 0.085740927829915 
819	 8.48589018347498E-02 
820	 8.44091222543645E-02 
821	 8.33138531392139E-02 
822	 8.21199854990975E-02 
823	 8.05667723050387E-02 
824	 7.85537576448963E-02 
825	 7.63391855469089E-02 
826	 7.39577224726555E-02 
827	 7.17753886657525E-02 
828	 0.070259718863332 
829	 0.068538758447375 
830	 6.67279408637493E-02 
831	 6.49095835489221E-02 
832	 6.32386280632709E-02 
833	 6.24278857907335E-02 
834	 6.20327043898591E-02 
835	 6.16388447807747E-02 
836	 6.10950287171222E-02 
837	 6.04852394940666E-02 
838	 6.00367507850263E-02 
839	 5.98184899713547E-02 
840	 5.94775664583235E-02 
841	 5.88675356194224E-02 
842	 5.82961979098622E-02 
843	 0.05811380844303 
844	 5.79670177975743E-02 
845	 5.79981148310514E-02 
846	 0.057884756852449 
847	 5.71311116882069E-02 
848	 5.67013537703959E-02 
849	 0.056336146729707 
850	 5.60825530317455E-02 
851	 5.64769375783455E-02 
852	 5.62487863384207E-02 
853	 5.55950195175541E-02 
854	 5.51333919102754E-02 
855	 5.55814843530438E-02 
856	 5.56903086281885E-02 
857	 5.55455811239048E-02 
858	 5.53813525059614E-02 
859	 5.44770964045396E-02 
860	 5.35690075544173E-02 
861	 5.34798900655446E-02 
862	 5.44981351302092E-02 
863	 5.38738471898569E-02 
864	 5.32051821972975E-02 
865	 5.31334528443257E-02 
866	 5.30929595234313E-02 
867	 5.26696660968595E-02 
868	 5.22410516004824E-02 
869	 5.20843979760017E-02 
870	 5.21869715281068E-02 
871	 0.052764841212503 
872	 5.26737838652829E-02 
873	 0.05162483592921 
874	 5.18776568519569E-02 
875	 5.13990543436465E-02 
876	 5.09454633312003E-02 
877	 5.13244503342725E-02 
878	 5.02340249530338E-02 
879	 4.97572030489362E-02 
880	 5.03656185529408E-02 
881	 5.12931873471526E-02 
882	 5.01930432442293E-02 
883	 4.97153525899808E-02 
884	 4.99035342412355E-02 
885	 4.89747250839304E-02 
886	 4.94338373286286E-02 
887	 4.93872263487089E-02 
888	 4.83954116249489E-02 
889	 4.81178465126403E-02 
890	 4.71920343971417E-02 
891	 4.76086197520792E-02 
892	 4.95671879801998E-02 
893	 4.84685112708277E-02 
894	 4.86238461553159E-02 
895	 4.88853970376188E-02 
896	 4.76607830963866E-02 
897	 0.048083957330302 
898	 4.97743954594551E-02 
899	 5.04816266477639E-02 
900	 4.87873910242417E-02 
901	 4.77352646854914E-02 
902	 4.70281101773821E-02 
903	 4.78194988209118E-02 
904	 5.04703426377599E-02 
905	 4.91163758489944E-02 
906	 4.90890533555649E-02 
907	 4.92815238950728E-02 
908	 4.48265953066568E-02 
909	 4.50728836900575E-02 
910	 4.65544433296551E-02 
911	 4.70892676893153E-02 
912	 4.70633230390017E-02 
913	 4.57767988479971E-02 
914	 0.04374857680197 
915	 0.042701377348476 
916	 4.48095968602334E-02 
917	 4.80000453800333E-02 
918	 4.59730351840329E-02 
919	 4.01685332832032E-02 
920	 4.13119255881066E-02 
921	 4.19919886131345E-02 
922	 0.042600248936308 
923	 4.38062702768708E-02 
924	 4.37895057333015E-02 
925	 4.40437059672054E-02 
926	 4.43444648258189E-02 
927	 0.043449218279739 
928	 3.80345085937593E-02 
929	 4.01062013359438E-02 
930	 4.95303823243017E-02 
931	 5.52354586193206E-02 
932	 5.19078782314796E-02 
933	 0.049101923338809 
934	 0.047520890033771 
935	 4.32443982555297E-02 
936	 4.91826427749676E-02 
937	 3.95791422329566E-02 
938	 4.10558254420506E-02 
939	 6.83474044960124E-02 
940	 3.65754646800903E-02 
941	 2.68760896706817E-02 
942	 0.047670137288927 
943	 0.061662670192551 
944	 0.018621233144666 
945	 2.40871659095034E-02 
946	 5.85115585642888E-02 
947	 3.97818050455229E-02 
948	 3.16403222759419E-02 
949	 4.55892781871929E-02 
950	 6.12406276226602E-02 
951	 0.050583042326341 
952	 3.38712145955639E-02 
953	 4.05624045587572E-02 
954	 5.33104411124872E-02 
955	 3.50462756438754E-02 
956	 3.94157778261299E-02 
957	 5.33525612361502E-02 
958	 0.05768507254025 
959	 4.13188700012038E-02 
960	 0.041654390129418 
961	 4.33459507692308E-02 
962	 4.21714343344123E-02 
963	 4.43315916724115E-02 
964	 5.35194396610591E-02 
965	 5.08179249269892E-02 
966	 4.09194402844251E-02 
967	 4.18443261376736E-02 
968	 4.97059603080901E-02 
969	 4.75240680389198E-02 
970	 3.91416509471498E-02 
971	 4.29137882864076E-02 
972	 4.01236026406207E-02 
973	 4.03363388370095E-02 
974	 4.60811969197141E-02 
975	 4.95683249004503E-02 
976	 4.59660702733344E-02 
977	 4.32814664244414E-02 
978	 4.47793528503944E-02 
979	 4.74026542584621E-02 
980	 4.67856966981886E-02 
981	 4.39979006899852E-02 
982	 3.94542201920509E-02 
983	 3.40693574878684E-02 
984	 3.77335248222559E-02 
985	 4.11807090800635E-02 
986	 4.21643057744649E-02 
987	 4.45268137955629E-02 
988	 4.43493951223055E-02 
989	 4.12606468283456E-02 
990	 4.10731541357292E-02 
991	 4.91869618492316E-02 
992	 4.26774113736787E-02 
993	 3.19723814433114E-02 
994	 2.95985950160332E-02 
995	 4.11566986885762E-02 
996	 4.28331384575101E-02 
997	 4.23082110266703E-02 
998	 4.39266053668086E-02 
999	 4.70325089870761E-02 
1000	 4.48005250739072E-02 
1001	 3.82092683894307E-02 
1002	 3.75415650821489E-02 
1003	 3.80556378054129E-02 
1004	 3.93956023706787E-02 
1005	 4.02480751695772E-02 
1006	 4.30664504115289E-02 
1007	 0.044447755546382 
1008	 4.26131627047183E-02 
1009	 0.04048544524063 
1010	 3.93327822881308E-02 
1011	 3.82022115648796E-02 
1012	 3.85527777517279E-02 
1013	 4.02112539653571E-02 
1014	 4.12197578275753E-02 
1015	 4.34740956301116E-02 
1016	 4.33561995777199E-02 
1017	 4.20864585016443E-02 
1018	 4.04779152147782E-02 
1019	 3.48430508373209E-02 
1020	 3.39628234674015E-02 
1021	 3.54716720604226E-02 
1022	 0.037381266338673 
1023	 4.05436203218689E-02 
1024	 4.32507928502009E-02 
1025	 0.041778855349566 
1026	 0.040667162360635 
1027	 4.04102110575493E-02 
1028	 3.97847752671246E-02 
1029	 3.97487635269827E-02 
1030	 4.08254964524396E-02 
1031	 4.10903237902813E-02 
1032	 4.07832075115882E-02 
1033	 4.09900942075292E-02 
1034	 4.10414756799326E-02 
1035	 4.19355943955105E-02 
1036	 0.044605424043653 
1037	 4.50672476102345E-02 
1038	 4.49549942013026E-02 
1039	 4.47666770852766E-02 
1040	 4.20962047347601E-02 
1041	 3.97678308143728E-02 
1042	 3.91649821638039E-02 
1043	 3.95616337953805E-02 
1044	 3.96145796126839E-02 
1045	 4.07437151066516E-02 
1046	 4.14149067099057E-02 
1047	 4.19794840679878E-02 
1048	 4.22492297160978E-02 
1049	 0.0431950783734 
1050	 4.26346651507259E-02 
1051	 3.95339993523811E-02 
1052	 3.90006274675721E-02 
1053	 3.91879227074211E-02 
1054	 3.93962325043725E-02 
1055	 4.28820275418264E-02 
1056	 4.35397361135051E-02 
1057	 4.28620137799226E-02 
1058	 3.96621264114047E-02 
1059	 3.92529082520856E-02 
1060	 3.81198783336568E-02 
1061	 3.83270850012761E-02 
1062	 4.10489974759815E-02 
1063	 4.21033731508417E-02 
1064	 4.28277576569984E-02 
1065	 4.30262067661192E-02 
1066	 4.29006155873436E-02 
1067	 4.26302650046523E-02 
1068	 4.08838641356654E-02 
1069	 4.06001186654609E-02 
1070	 4.22720098946847E-02 
1071	 4.20461726642469E-02 
1072	 4.14347278003323E-02 
1073	 4.01095037764711E-02 
1074	 4.00329197952614E-02 
1075	 3.90797442494215E-02 
1076	 3.91058899130054E-02 
1077	 4.09978722162591E-02 
1078	 4.17021294374175E-02 
1079	 4.18824734125674E-02 
1080	 4.16742044567125E-02 
1081	 4.09958486884796E-02 
1082	 4.09537387725455E-02 
1083	 4.00581202255526E-02 
1084	 4.03133541885864E-02 
1085	 4.37539246579869E-02 
1086	 4.41860685991047E-02 
1087	 0.041420863007584 
1088	 0.041081793332177 
1089	 4.08707538244759E-02 
1090	 3.98550827288498E-02 
1091	 4.02854624126643E-02 
1092	 4.47685709968421E-02 
1093	 4.42815045879237E-02 
1094	 3.95830115125895E-02 
1095	 3.95170811029649E-02 
1096	 4.06528463867757E-02 
1097	 4.06816461591537E-02 
1098	 4.34966575547908E-02 
1099	 4.37753758515773E-02 
1100	 3.84937051738842E-02 
1101	 0.038200185157874 
1102	 0.043237734632918 
1103	 4.46829600923637E-02 
1104	 0.047816654755822 
1105	 4.68554820432702E-02 
1106	 4.35451660243051E-02 
1107	 4.33015497497121E-02 
1108	 4.41698775922965E-02 
1109	 4.70288593720838E-02 
1110	 4.87568259974053E-02 
1111	 4.97698165272657E-02 
1112	 4.99960282742902E-02 
1113	 4.97249281295208E-02 
1114	 5.08800131358935E-02 
1115	 5.39278882616425E-02 
1116	 5.16861634201251E-02 
1117	 3.70581782843174E-02 
1118	 4.11951711278404E-02 
1119	 6.89558140099577E-02 
1120	 8.10778683406459E-02 
1121	 0.132749434034866 
1122	 0.139560756787974 
1123	 5.73875915118712E-02 
1124	-7.58752314188658E-03 
1125	-2.52746348993287E-02 
1126	 4.16777612111129E-02 
1127	 0.100139046532242 
1128	 6.99454363225143E-02 
1129	 8.63463792802576E-02 
1130	 0.10104548607968 
1131	 9.44423447063371E-02 
1132	 0.106251674388788 
1133	 0.102853339907652 
1134	 4.57584969940906E-02 
1135	 4.57619000133372E-02 
1136	 9.14470491197698E-02 
1137	 9.12491913794937E-02 
1138	 8.77493346045824E-02 
1139	 9.01234437607039E-02 
1140	 5.70746736474958E-02 
1141	 3.78948869342465E-02 
1142	 3.54568802467878E-02 
1143	 4.71920068118415E-02 
1144	 0.060431319048765 
1145	 3.74204903105091E-02 
1146	 3.17169206562858E-02 
1147	 4.60518538121382E-02 
1148	 0.052153299180786 
1149	 0.06373030835944 
1150	 6.29830002211721E-02 
1151	 4.88477764125685E-02 
1152	 4.50340855853078E-02 
1153	 4.08837432273709E-02 
1154	 3.91850807843879E-02 
1155	 3.98206150871487E-02 
1156	 0.04625704355435 
1157	 4.34461821961838E-02 
1158	 4.34769947036477E-02 
1159	 5.33569137799973E-02 
1160	 5.42440503584972E-02 
1161	 4.92159073953376E-02 
1162	 4.93689305182638E-02 
1163	 4.95951424723919E-02 
1164	 4.65962326085865E-02 
1165	 4.67327144218921E-02 
1166	 4.79130245209892E-02 
1167	 4.48370754751982E-02 
1168	 4.33192045348219E-02 
1169	 4.75101964609682E-02 
1170	 4.98130942685018E-02 
1171	 0.048675714746357 
1172	 4.53591401570748E-02 
1173	 4.41792636687835E-02 
1174	 4.05739139854692E-02 
1175	 0.03853298277241 
1176	 0.040246989642062 
1177	 4.29557323503764E-02 
1178	 4.33775539402224E-02 
1179	 4.26246678187448E-02 
1180	 4.30252831246662E-02 
1181	 4.23656110451829E-02 
1182	 4.14314915410315E-02 
1183	 4.21298128839658E-02 
1184	 4.28195715914821E-02 
1185	 4.44788093203333E-02 
1186	 4.62155264072368E-02 
1187	 4.53894197072096E-02 
1188	 0.044603044488523 
1189	 0.044466048125009 
1190	 4.35528110116899E-02 
1191	 4.36513273504947E-02 
1192	 4.39566241736142E-02 
1193	 4.53211032991502E-02 
1194	 4.39456001921786E-02 
1195	 4.20276342134517E-02 
1196	 4.35322821441071E-02 
1197	 4.38886919577399E-02 
1198	 4.38703641497264E-02 
1199	 4.63824995331922E-02 
1200	 0.044844430908185 
1201	 4.17603567491655E-02 
1202	 4.19223234262945E-02 
1203	 4.25502201444765E-02 
1204	 4.43055718618774E-02 
1205	 4.57251120158285E-02 
1206	 4.45968590132521E-02 
1207	 4.27155525513772E-02 
1208	 4.10863708498249E-02 
1209	 4.16393970793325E-02 
1210	 0.043778502105234 
1211	 4.41770617327224E-02 
1212	 4.36289958118475E-02 
1213	 4.31617034724886E-02 
1214	 4.28171125799529E-02 
1215	 4.21434832922782E-02 
1216	 4.20263150031997E-02 
1217	 4.16539166186005E-02 
1218	 4.16589277241898E-02 
1219	 4.19451341957166E-02 
1220	 0.041873127260086 
1221	 4.13905346878997E-02 
1222	 0.040747812538984 
1223	 4.04813902543098E-02 
1224	 4.10760985976619E-02 
1225	 4.20443111565937E-02 
1226	 0.042874752053399 
1227	 4.23443013200538E-02 
1228	 4.08933367152995E-02 
1229	 4.16217152565939E-02 
1230	 4.23554069325855E-02 
1231	 4.08416759630539E-02 
1232	 3.97238434938271E-02 
1233	 4.00582764230803E-02 
1234	 4.02630138795042E-02 
1235	 4.00260929523332E-02 
1236	 4.06457267555492E-02 
1237	 4.10535883129471E-02 
1238	 4.06677676830122E-02 
1239	 4.03791810941417E-02 
1240	 4.04611858536758E-02 
1241	 0.040951270179406 
1242	 4.06729679922699E-02 
1243	 3.98168105987528E-02 
1244	 0.040709581299477 
1245	 4.28179428076746E-02 
1246	 4.36499140277965E-02 
1247	 4.25748972020793E-02 
1248	 4.13443126835952E-02 
1249	 4.09824078093412E-02 
1250	 4.08490755358939E-02 
1251	 4.10209873859164E-02 
1252	 4.18003377532601E-02 
1253	 4.05422412193708E-02 
1254	 3.93855666882848E-02 
1255	 4.10020517691224E-02 
1256	 4.11031202347429E-02 
1257	 4.05134334571778E-02 
1258	 4.09422248830614E-02 
1259	 4.17252867240624E-02 
1260	 0.041470978831519 
1261	 0.04162269194139 
1262	 4.12877982290669E-02 
1263	 3.99951932857025E-02 
1264	 0.038116015310459 
1265	 3.77946689688867E-02 
1266	 3.87587618204438E-02 
1267	 0.037956086481349 
1268	 3.78780253196557E-02 
1269	 3.95302457712744E-02 
1270	 3.90975639834624E-02 
1271	 3.93238538305294E-02 
1272	 0.041560857818644 
1273	 4.13217144071211E-02 
1274	 4.09385972035989E-02 
1275	 4.16316858142602E-02 
1276	 4.07751444647328E-02 
1277	 4.05204117311926E-02 
1278	 4.11060770790413E-02 
1279	 4.06863772065686E-02 
1280	 4.01918557277296E-02 
1281	 4.02191552006699E-02 
1282	 4.03190778942878E-02 
1283	 0.039739612018282 
1284	 3.91305102775528E-02 
1285	 3.86880023202582E-02 
1286	 3.70699844426403E-02 
1287	 3.68518036685625E-02 
1288	 3.84954853682181E-02 
1289	 3.90331162697175E-02 
1290	 3.99060862912259E-02 
1291	 3.91741167603398E-02 
1292	 3.81328926316399E-02 
1293	 3.91123060735796E-02 
1294	 4.01085688158627E-02 
1295	 4.02710759553764E-02 
1296	 4.04858764611761E-02 
1297	 4.09724725180688E-02 
1298	 4.08815420470198E-02 
1299	 4.15029648975859E-02 
1300	 4.42761247382133E-02 
1301	 4.38525677676824E-02 
1302	 4.07358755396768E-02 
1303	 0.040310501865625 
1304	 4.16344854156294E-02 
1305	 4.23611255052571E-02 
1306	 4.20006020654338E-02 
1307	 4.29990008041096E-02 
1308	 4.42282308813812E-02 
1309	 4.28275761416312E-02 
1310	 0.042941963497527 
1311	 4.84585582249612E-02 
1312	 4.83453958081707E-02 
1313	 4.06541924956653E-02 
1314	 3.99069088720473E-02 
1315	 4.25118274953216E-02 
1316	 4.18923506971074E-02 
1317	 4.26093290118734E-02 
1318	 4.38320215196014E-02 
1319	 4.43262954463087E-02 
1320	 0.043479750486875 
1321	 4.28695324711444E-02 
1322	 0.044067845599139 
1323	 3.97889785536722E-02 
1324	 3.46634752021628E-02 
1325	 4.03218473574095E-02 
1326	 4.31630711825885E-02 
1327	 4.66496997689073E-02 
1328	 4.61158742154532E-02 
1329	 3.98743291409549E-02 
1330	 4.00620843586007E-02 
1331	 3.81703192700181E-02 
1332	 4.37630989683921E-02 
1333	 5.71781167015578E-02 
1334	 5.66986309152042E-02 
1335	 5.76103737091193E-02 
1336	 6.18444488536495E-02 
1337	 6.17613232452969E-02 
1338	 4.45491303755388E-02 
1339	 4.68159368319321E-02 
1340	 6.68596042061342E-02 
1341	 6.40694935371213E-02 
1342	 5.08851441538454E-02 
1343	 5.76532847252204E-02 
1344	 7.13607748778892E-02 
1345	 6.98887887719762E-02 
1346	 6.25376712248141E-02 
1347	 9.92632029347913E-02 
1348	 0.172655613907019 
1349	 0.188266171654689 
1350	 0.23029268151329 
1351	 0.342315249711666 
1352	 0.338128838994469 
1353	 0.392117780355018 
1354	 1.16842185921805 
1355	 1.37701978767121 
1356	 0.962964507185407 
1357	 1.32161306836298 
1358	 2.19233537009557 
1359	 2.32081756998909 
1360	 2.44918616230071 
1361	-3.53329099803682 
1362	 1.63857907608478 
1363	 0.936842115227826 
1364	 0.80883384782534 
1365	 0.730321380079816 
1366	 2.01977471415302 
1367	 4.00332078728353 
1368	 4.12971444790516 
1369	 0.848684591314002 
1370	 1.11445665597666 
1371	 1.72019036647939 
1372	 3.98758687554663 
1373	-4.41857262552059 
1374	-4.2875755700294 
1375	-11.7496969089723 
1376	-7.53782127575937 
1377	-2.55089678927225 
1378	-6.05498406928074 
1379	 1.46991516519498 
1380	 1.75214704597707 
1381	-1.43151266648264 
1382	-2.35738028828561 
1383	 2.97530620673221 
1384	 4.31248791028324 
1385	-0.971699505451246 
1386	-0.671262637316668 
1387	-8.60108045668351 
1388	 1.58272427718241 
1389	-0.864664899319648 
1390	-1.67659323695988 
1391	-4139.29693238056 
1392	 1.59644939397148 
1393	 33.6454108138194 
1394	 4.61019245246251 
1395	 1.56384000930733 
1396	-15.8895633855468 
1397	-1.54364607284534 
1398	 0.592891920879874 
1399	-1.78285444117442 
1400	-0.471070209281367 
1401	 2.47712798939437 
1402	-0.188906204538181 
1403	-0.156355372055699 
1404	-6.98030442904104E-03 
1405	 0.377253168116869 
1406	 1.52426322507971 
1407	 1.43982047866369 
1408	 1.63926229551481 
1409	 2.96996628567477 
1410	 0.247739873061044 
1411	 0.368479602964557 
1412	 9.25890025757134 
1413	-472.459753551657 
1414	-4.47340602023908 
1415	 11.823659335523 
1416	 0.655754427881116 
1417	 0.730731680499306 
1418	 1.81710666736288 
1419	 1.71307319709459 
1420	 1.9082867384642 
1421	 2.49905847867452 
1422	 3.56405053394382 
1423	 1.43461740610109 
1424	 0.428521721697229 
1425	 0.546543311130971 
1426	 0.835273991704261 
1427	 1.09913973467862 
1428	 6.82187456174739 
1429	-25.8233788045516 
1430	 5.74399702803776 
1431	 6.55580410455336 
1432	-2.63297895637443 
1433	-2.9400497148391 
1434	 2.13587193275098 
1435	 1.10672221767316 
1436	 0.369211616977244 
1437	 2.37677350146225E-02 
1438	 0.202261614194698 
1439	 0.914583778596442 
1440	 0.931031428080082 
1441	 89.1104348841743 
1442	 1.16326910499797 
1443	 1.30254640973047 
1444	 1.2347079968508 
1445	 0.537842763087863 
1446	 0.649517824943186 
1447	 0.261678738413723 
1448	 0.470108018624949 
1449	 1.66787247663101 
1450	 1.34915683009384 
1451	 1.46281399998809 
1452	 1.40836245854031 
1453	 0.851085675538544 
1454	 0.855504085899131 
1455	 1.6326909501156 
1456	 1.72816882495051 
1457	 1.32436261087484 
1458	 1.07380131346386 
1459	 0.603389343012407 
1460	 0.41796233334344 
1461	 0.088405426390567 
1462	 0.245776037923641 
1463	 0.950487758811259 
1464	 0.790905672960266 
1465	 0.470453683756833 
1466	 0.497956237122386 
1467	-0.160538575687858 
1468	-0.265581861094385 
1469	 0.244598758201346 
1470	 0.456441868851784 
1471	 0.740266793299904 
1472	 0.613173609073928 
1473	 0.501589034163062 
1474	 0.481688330780609 
1475	 0.221654939078737 
1476	 0.195557894522829 
1477	 0.407276231596186 
1478	 0.502864308064058 
1479	 0.539711893192998 
1480	 0.456389489719649 
1481	 0.277168419735493 
1482	 0.244617631056884 
1483	 0.167708234155935 
1484	 0.138183070242415 
1485	 0.255952001534865 
1486	 0.272384979251201 
1487	 0.207606695668553 
1488	 0.190402076054237 
1489	 0.221698007610985 
1490	 0.20368623470837 
1491	 0.129694786789676 
1492	 0.138181023966657 
1493	 0.219319254952035 
1494	 0.193500966959473 
1495	 0.114893312181052 
1496	 0.120548879598725 
1497	 0.146266899498903 
1498	 0.11549836832944 
1499	 9.69358797292238E-02 
1500	 9.74820547908691E-02 
1501	 5.20141699261343E-02 
1502	 2.59405333850043E-02 
1503	 3.58353341392075E-02 
1504	 5.48828976073129E-02 
1505	 8.26059357922176E-02 
1506	 0.080770753058346 
1507	 8.79885784335502E-02 
1508	 8.85471216778893E-02 
1509	 7.89394965982056E-02 
1510	 8.31367993933062E-02 
1511	 7.62650261455563E-02 
1512	 7.14544374947782E-02 
1513	 7.14721136201038E-02 
1514	 5.15455095285203E-02 
1515	 4.44909258801402E-02 
1516	 5.76361740035028E-02 
1517	 4.51778281352428E-02 
1518	 3.96830222722661E-02 
1519	 4.83220792648673E-02 
1520	 4.83089485163164E-02 
1521	 6.14264529205753E-02 
1522	 6.35899632273629E-02 
1523	 5.86084152140841E-02 
1524	 6.51853730675618E-02 
1525	 0.055920518074054 
1526	 4.34329423148047E-02 
1527	 4.26397216643149E-02 
1528	 0.040974512895367 
1529	 4.37947214311076E-02 
1530	 5.57137679183959E-02 
1531	 6.10874155104425E-02 
1532	 5.32401323694491E-02 
1533	 4.71372252858983E-02 
1534	 5.42636145705803E-02 
1535	 5.31684059619295E-02 
1536	 4.61545219416368E-02 
1537	 4.74491456980861E-02 
1538	 4.47085056594393E-02 
1539	 0.039113564121656 
1540	 3.81363749808989E-02 
1541	 4.94432955413385E-02 
1542	 5.71215931681885E-02 
1543	 5.34832667775402E-02 
1544	 0.056329968086752 
1545	 5.72084368280209E-02 
1546	 4.67188069108518E-02 
1547	 3.92766296359285E-02 
1548	 4.55822961993381E-02 
1549	 0.051186974346103 
1550	 0.048337399965204 
1551	 4.74219635378096E-02 
1552	 5.26374667593627E-02 
1553	 5.69050596912155E-02 
1554	 5.20418264362581E-02 
1555	 5.24749634182397E-02 
1556	 5.64337715766282E-02 
1557	 4.94041365848909E-02 
1558	 0.05077084473656 
1559	 5.29469378164871E-02 
1560	 4.64581570042081E-02 
1561	 0.05028790580136 
1562	 5.21325144300738E-02 
1563	 5.05862866443627E-02 
1564	 5.61803843925275E-02 
1565	 0.055871334867252 
1566	 5.03999105999735E-02 
1567	 4.68082236948709E-02 
1568	 4.56630022023741E-02 
1569	 5.13631908810181E-02 
1570	 5.65479629387979E-02 
1571	 5.62276750187193E-02 
1572	 5.46409359106847E-02 
1573	 5.26295588465541E-02 
1574	 5.05328782606751E-02 
1575	 5.10056793738112E-02 
1576	 5.47637688409073E-02 
1577	 5.53062992825536E-02 
1578	 5.36298553040594E-02 
1579	 5.76606971205827E-02 
1580	 0.061888920327976 
1581	 5.84391272967517E-02 
1582	 5.18757222780996E-02 
1583	 4.17686014214629E-02 
1584	 3.66722377919748E-02 
1585	 4.30313058077433E-02 
1586	 4.32953371194976E-02 
1587	 4.40635549953217E-02 
1588	 5.44781934536007E-02 
1589	 5.81091271185253E-02 
1590	 5.83751869655264E-02 
1591	 5.57697317252269E-02 
1592	 0.043858486236964 
1593	 4.13108021636005E-02 
1594	 4.60024782896988E-02 
1595	 4.76711940315083E-02 
1596	 4.95155910499243E-02 
1597	 4.49430434545063E-02 
1598	 4.47248415096265E-02 
1599	 4.95529586674062E-02 
1600	 4.71483697286361E-02 
1601	 4.43629118718898E-02 
1602	 3.88965504590433E-02 
1603	 3.51456139572174E-02 
1604	 4.21859122644124E-02 
1605	 4.94925665376198E-02 
1606	 5.41554290776149E-02 
1607	 5.47095746981867E-02 
1608	 4.93824917339678E-02 
1609	 4.83250636372478E-02 
1610	 4.79999285367827E-02 
1611	 0.046939787332185 
1612	 5.39136638239596E-02 
1613	 5.54370549938158E-02 
1614	 4.81183747291035E-02 
1615	 4.52384835601534E-02 
1616	 0.044606586949838 
1617	 0.041670844413044 
1618	 4.18552908481179E-02 
1619	 5.06816386480508E-02 
1620	 5.38897590375627E-02 
1621	 4.82934904445911E-02 
1622	 5.04702800022881E-02 
1623	 4.98836410437744E-02 
1624	 4.10663277882128E-02 
1625	 4.35523147966944E-02 
1626	 4.85174550285274E-02 
1627	 0.042482517666596 
1628	 3.94575491678798E-02 
1629	 4.33407919316031E-02 
1630	 4.42350698985396E-02 
1631	 4.37376035309851E-02 
1632	 0.048531785893994 
1633	 4.93455230447148E-02 
1634	 4.38082991942537E-02 
1635	 0.042712479976163 
1636	 4.41802714630543E-02 
1637	 4.64998908155651E-02 
1638	 4.72521451681919E-02 
1639	 4.33896166492178E-02 
1640	 4.22818809286831E-02 
1641	 4.03671772423298E-02 
1642	 3.43330439726233E-02 
1643	 3.51829798996125E-02 
1644	 4.10325707078237E-02 
1645	 4.29442498693976E-02 
1646	 4.53545059095245E-02 
1647	 4.56455740345459E-02 
1648	 4.00323572431253E-02 
1649	 3.84531037327374E-02 
1650	 4.36040849971074E-02 
1651	 5.09768520608705E-02 
1652	 5.23377768732314E-02 
1653	 4.41488343370925E-02 
1654	 4.51260449513963E-02 
1655	 0.050372146835384 
1656	 4.89549298769046E-02 
1657	 4.92050353586519E-02 
1658	 4.82949287279539E-02 
1659	 3.98485265318849E-02 
1660	 4.02444520790632E-02 
1661	 4.89012348286917E-02 
1662	 4.75211145413469E-02 
1663	 4.01013984917203E-02 
1664	 0.043468178777399 
1665	 0.051536132182143 
1666	 5.23977210986162E-02 
1667	 5.60580264216893E-02 
1668	 4.51567134291763E-02 
1669	 3.96767317819735E-02 
1670	 0.040681802117628 
1671	 4.19869417523361E-02 
1672	 4.28267703216928E-02 
1673	 4.40513645480657E-02 
1674	 0.041385810510113 
1675	 3.67013698192243E-02 
1676	 4.10363891241187E-02 
1677	 0.040871665031127 
1678	 3.29431493007857E-02 
1679	 3.92273088205457E-02 
1680	 4.63391419713164E-02 
1681	 4.21190442277764E-02 
1682	 4.48471928783871E-02 
1683	 4.53501484368902E-02 
1684	 4.13547813502995E-02 
1685	 4.51738940830301E-02 
1686	 0.049745860299385 
1687	 5.06543551272944E-02 
1688	 5.21269711683872E-02 
1689	 5.56154134724216E-02 
1690	 5.08601389334636E-02 
1691	 4.75524134907939E-02 
1692	 5.25185290203555E-02 
1693	 5.06922104662888E-02 
1694	 0.048223142779876 
1695	 4.90235453493354E-02 
1696	 0.045715846315169 
1697	 4.30198444928241E-02 
1698	 4.78024276605439E-02 
1699	 5.19688625455894E-02 
1700	 4.50048938555557E-02 
1701	 3.56652665501518E-02 
1702	 3.26482629955267E-02 
1703	 3.25532221469027E-02 
1704	 3.63642417328574E-02 
1705	 0.0414393314179 
1706	 4.10607431563433E-02 
1707	 4.00391322347057E-02 
1708	 3.94505987624596E-02 
1709	 3.48666032501797E-02 
1710	 3.77179934522008E-02 
1711	 4.58120739368428E-02 
1712	 0.041230042245217 
1713	 3.79566028183247E-02 
1714	 4.19535352394644E-02 
1715	 4.47103746540217E-02 
1716	 4.34595637428485E-02 
1717	 4.53392887407724E-02 
1718	 4.10642908320312E-02 
1719	 3.00350484030791E-02 
1720	 3.35915755383064E-02 
1721	 4.31898482066804E-02 
1722	 4.48524839093266E-02 
1723	 5.03447632386951E-02 
1724	 5.61057571781015E-02 
1725	 5.51558776367628E-02 
1726	 5.20657602031607E-02 
1727	 4.84215440221267E-02 
1728	 4.59191489237084E-02 
1729	 4.77992969122635E-02 
1730	 5.39910730583138E-02 
1731	 0.058932087020193 
1732	 0.056825591842206 
1733	 5.29249472553949E-02 
1734	 5.23310905818034E-02 
1735	 4.98602464609512E-02 
1736	 0.046428227219152 
1737	 5.36724384127172E-02 
1738	 0.056822512569311 
1739	 4.84304661045168E-02 
1740	 5.58075954205505E-02 
1741	 5.69403937561374E-02 
1742	 3.26257940828696E-02 
1743	 3.22211196638941E-02 
1744	 5.45791931894322E-02 
1745	 5.64106063571168E-02 
1746	 7.21156265297758E-02 
1747	 7.91956722432844E-02 
1748	 5.72324612451551E-02 
1749	 5.54683798655066E-02 
1750	 6.90668826206904E-02 
1751	 6.56699952040598E-02 
1752	 6.23085330268363E-02 
1753	 6.59220546920008E-02 
1754	 7.19484716447877E-02 
1755	 6.24763733434936E-02 
1756	 3.20267509241734E-02 
1757	 3.18876229756678E-02 
1758	 4.17237735618899E-02 
1759	 5.55331409371766E-02 
1760	 8.18242417995731E-02 
1761	 7.70745638104185E-02 
1762	 5.17545167864995E-02 
1763	 4.55225217918644E-02 
1764	 4.10394833529583E-02 
1765	 5.84692284500483E-02 
1766	 0.084995909329704 
1767	 9.00744575007778E-02 
1768	 0.103785984184496 
1769	 0.110274581808226 
1770	 9.23574605031768E-02 
1771	 7.40615356669101E-02 
1772	 5.82049336848563E-02 
1773	 4.41403264702245E-02 
1774	 3.47949380515771E-02 
1775	 9.01729620948264E-02 
1776	 9.96850225997897E-02 
1777	 5.23439773254052E-02 
1778	 3.35145638144865E-02 
1779	-1.46613585620375E-02 
1780	-1.27492582488452E-02 
1781	 7.89335594748539E-02 
1782	 8.26153636712786E-02 
1783	 3.74036344695972E-02 
1784	 5.20876396797761E-02 
1785	 0.060355533647877 
1786	 3.94306529079483E-02 
1787	 4.99241289668592E-02 
1788	 4.79773887890948E-02 
1789	-4.88494935441662E-02 
1790	-4.29066943533949E-02 
1791	 5.94984512355474E-02 
1792	 0.110310177377772 
1793	 9.71335596785822E-02 
1794	 0.212247284845896 
1795	 0.30268936531779 
1796	 0.131933653308231 
1797	-5.04997624208945E-02 
1798	-1.75812667470671E-04 
1799	 7.55761387653472E-03 
1800	 1.28992174522856 
1801	 1.74524324163195 
1802	 1.40040253499023 
1803	 1.40001284871118 
1804	 0.119735901380988 
1805	-2.53306492271625E-02 
1806	 3.71136276840843 
1807	 5.74345073106903 
1808	 3.06018835042675 
1809	 2.56173879399543 
1810	 0.213842242514191 
1811	-9.22603155584841E-02 
1812	-0.466877952024188 
1813	-0.373321693664467 
1814	 2.1129546117638 
1815	 12.6368446229599 
1816	-3.65226776361898 
1817	-2.02352821376974 
1818	-1.72224773785272 
1819	 64.2611988024287 
1820	 0.707486616800945 
1821	-0.216191442749908 
1822	-0.121640587039955 
1823	 15.784258477345 
1824	-1.27811339850681 
1825	-0.986351967183973 
1826	-1.02993180837175 
1827	-0.593571558386656 
1828	-0.325638342833075 
1829	-1.26696273539267 
1830	-0.660146425162923 
1831	 1.28858214701151 
1832	 1.10868058867354 
1833	 0.748938602304174 
1834	 0.816877209866293 
1835	 1.00503705361224 
1836	 11.193166965384 
1837	-0.436754186594335 
1838	-0.458266205430392 
1839	-0.581243731487575 
1840	-1.14150345873822 
1841	 1.05240702438871 
1842	 0.431691285719483 
1843	 0.272802823380284 
1844	 2.73191991497531E-02 
1845	-2.69108192058069E-02 
1846	 7.31227575190535E-02 
1847	 5.92325263061215E-02 
1848	 1.50606706041886E-02 
1849	-0.100522622442398 
1850	-0.225474122617505 
1851	-0.172734384075239 
1852	-0.472394856229564 
1853	-0.811528343187633 
1854	-1.04394985295309 
1855	-10.9259338579054 
1856	 1.89160573951651 
1857	-0.180528523617945 
1858	-0.345499233571403 
1859	-1.83221095580939 
1860	-2.27583103022593 
1861	-2.63575988479255 
1862	 0.990996669251458 
1863	-3.87263874513645E-02 
1864	-0.44065840904673 
1865	-0.609704125925364 
1866	-2.23780344738884 
1867	 3.0239737922902 
1868	-6.36939553863799E-02 
1869	-0.428509167978968 
1870	 613.716633114411 
1871	 0.941871209455412 
1872	-1.23535782821978 
1873	-1.03872945458655 
1874	-1.14004176103613 
1875	-1.76939137670569 
1876	-1.02435715472168 
1877	 0.745403802663512 
1878	 1.26906067188681 
1879	 2.35598807310309 
1880	 3.30502858361102 
1881	 17.49877884147 
1882	-16.0193981780451 
1883	 4.391897169898 
1884	 2.85177873905449 
1885	 2.17356408430129 
1886	 2.06243113389764 
1887	 1.75732375290083 
1888	 0.296179257072587 
1889	 0.142406240848931 
1890	 0.2752312723556 
1891	 0.402281429157563 
1892	 0.741035420886705 
1893	 1.13015962377385 
1894	 1.21064996592709 
1895	 0.533395636599947 
1896	-0.747247687739717 
1897	-0.831784847380135 
1898	-1.27252226748159 
1899	-0.755065315599248 
1900	 8.31948829901598E-02 
1901	-2.83029859309031 
1902	-3.16086836259077 
1903	-9.98522042763955 
1904	-17.462132800194 
1905	 7.81751932056095 
1906	 3.11230599139596 
1907	 2.39666459399419 
1908	 1.4720296606041 
1909	 1.142058518953 
1910	 0.94857587247815 
1911	 0.582991035616405 
1912	 0.336639114227927 
1913	 0.221743600722013 
1914	 6.98027883459677E-02 
1915	 0.018808749329482 
1916	-8.10304632552895E-02 
1917	 0.816324793822318 
1918	-0.564063555768206 
1919	-0.757238068003773 
1920	-2.33194900293022 
1921	-4.30510815646587 
1922	-8.21412867716403 
1923	 6.39308951809938 
1924	-24.3162999486051 
1925	 3.4702649321152 
1926	 8.8960076278292 
1927	 5.89439685448413 
1928	-2.68707834727539 
1929	-2.06523904586696 
1930	-1.25818187617982 
1931	-2.49866079256826 
1932	 2.92740137704095 
1933	 1.90799667131428 
1934	 0.590621913965778 
1935	 0.338512162331927 
1936	 0.650409994517874 
1937	 0.596742835717871 
1938	 0.335890334557143 
1939	 0.132223461147003 
1940	-0.010065730330138 
1941	-0.853922052889023 
1942	-0.274761705787175 
1943	-0.34097477088604 
1944	-1.37217318813416 
1945	-1.88740783631427 
1946	-1.13533825697064 
1947	-0.495815694853024 
1948	 0.30701859574166 
1949	 1.45298936796102 
1950	 1.01765620683913 
1951	 1.82510823590903 
1952	 2.97447519725397 
1953	 2.39690734306704 
1954	 0.675389814097746 
1955	 1.1934583950915 
1956	 10.6022513681113 
1957	-2.67329388468531 
1958	 2.01161385097497E-02 
1959	 0.251085761018993 
1960	 0.240983517343051 
1961	 0.28345746189412 
1962	 0.496518675639188 
1963	-0.139993857411659 
1964	-0.470398705817069 
1965	-1.29311321448525 
1966	-5.07026717667506 
1967	-6.23726091421831 
1968	 4.80652173557532 
1969	 0.806895920498784 
1970	 0.830203794767249 
1971	 1.05405345610104 
1972	 1.13045206079638 
1973	 1.20856256536021 
1974	 5.7173502447279 
1975	 12.741329715564 
1976	 13.6488987965392 
1977	-13.0452162824449 
1978	-3.14065340350306 
1979	-1.68750124585993 
1980	-0.650932594074322 
1981	 0.125417453063389 
1982	 0.555495575735213 
1983	-1.87288176023729 
1984	 1.17263909937699 
1985	 4.02482102656836 
1986	 3.67940889498193 
1987	 1.07409682378722 
1988	 7.79175455979001E-02 
1989	-0.169716355788047 
1990	 7.71613510608981E-02 
1991	 0.947162772053984 
1992	 0.761329661703675 
1993	 1.18478592404486 
1994	 2.20291442525809 
1995	 155.356703038178 
1996	 8.15350844137862 
1997	-2.23732714665312 
1998	-0.369273305627487 
1999	-1.73401666447323 
2000	-1.1668866358412 
2001	-3.54416963750502 
2002	 1.32086912313724 
2003	 0.843917872105775 
2004	 0.594830875600187 
2005	 0.368254153928371 
2006	 0.215764522053839 
2007	 7.22191721809143E-04 
2008	-0.167261098259951 
2009	-0.185738663747783 
2010	 0.32182756353037 
2011	 0.443671400471418 
2012	 1.64005680029841 
2013	 0.143810605285665 
2014	 2.95775418389016 
2015	 5.49390534237686 
2016	 6.94546030404381 
2017	 5.63175899802503 
2018	 0.332090903356301 
2019	-0.107140949226395 
2020	-0.697657434684804 
2021	-1.3599790647623 
2022	-2.92096757313303 
2023	-2.75300184966974 
2024	-2.08007004526447 
2025	-1.19256312402408 
2026	-0.989035942856386 
2027	-0.18283329068478 
2028	-0.493925612987735 
2029	-0.792065385823018 
2030	-0.40726443792471 
2031	-0.558736365306255 
2032	-0.767722884214819 
2033	-0.937040931090575 
2034	-1.23457938308209 
2035	-0.914146993197999 
2036	-0.692937498297059 
2037	-0.56019279695354 
2038	-0.120890318640984 
2039	 0.206332414370819 
2040	 0.394712110092262 
2041	 0.355275845778995 
2042	 0.298646398856187 
2043	 0.207342364093153 
2044	-0.441797878428069 
2045	-3.04533303766328 
2046	 7.88023800673196 
2047	-6.47783161096704 
2048	-0.508027698270197 
2049	-0.120381777562497 
2050	-0.108380590613758 
2051	-0.321317663348203 
2052	-0.371893236372784 
2053	-0.341207680407471 
2054	-0.27683042717899 
2055	-0.210386258658815 
2056	-0.186160517132024 
2057	-0.154352143759637 
2058	-8.90979046920063E-02 
2059	-0.230829269191587 
2060	-7.51724644198955E-03 
2061	 0.426647347848787 
2062	 0.325969746688996 
2063	 0.522793373366196 
2064	 0.659631168017572 
2065	-0.319772166005697 
2066	-12.6950616990192 
2067	-7.74496324975906 
2068	-1.19600340964727 
2069	-0.659994775450895 
2070	-0.47613790195508 
2071	-0.127268356418265 
2072	 4.07804919483396E-02 
2073	 7.15572282881416E-03 
2074	-0.134315637145304 
2075	-0.098401784095265 
2076	-0.203311806920244 
2077	-0.177091763385996 
2078	 0.338913442525875 
2079	 0.386447480757471 
2080	 0.168693689189913 
2081	-9.85048756617728E-02 
2082	-0.387727361411113 
2083	-0.565061002841057 
2084	-0.258167003446111 
2085	-9.73311164862344E-02 
2086	-9.99010421843759E-02 
2087	-4.53042460796463E-02 
2088	 7.89272118097697E-03 
2089	 0.157276214523497 
2090	 0.612585070272625 
2091	 0.808825845872767 
2092	 0.466987832006014 
2093	-0.236704066694081 
2094	-0.406693608620847 
2095	-0.595509699334268 
2096	-0.665054605587392 
2097	-0.803728216846675 
2098	-0.765840195323674 
2099	-0.613671226447841 
2100	-0.386398795358799 
2101	-0.27933124541391 
2102	-0.379693080664841 
2103	-0.410930313044985 
2104	-0.528182418609837 
2105	-0.46779347725592 
2106	-0.108524278034436 
2107	-7.30717226017715E-02 
2108	-0.118779943848713 
2109	-0.19540604737686 
2110	-0.274538967291385 
2111	-0.338633614298778 
2112	-0.232385250260156 
2113	-0.199333601037499 
2114	-0.258870784394705 
2115	-0.230304457507142 
2116	-0.139007564957314 
2117	-7.27114222230527E-02 
2118	 0.122533687867311 
2119	 0.213868667504589 
2120	 0.286632930870736 
2121	 0.21776192693384 
2122	 0.156347995424853 
2123	 4.14001913997743E-02 
2124	-8.71876868577301E-02 
2125	-0.339935174597149 
2126	-0.301359530792413 
2127	-0.163723382669593 
2128	-0.171875531305414 
2129	-1.65668819955652E-02 
2130	-0.135266542648581 
2131	-0.245710207516956 
2132	-0.147713648803601 
2133	-6.82123877457815E-02 
2134	-7.1550609576591E-04 
2135	 0.113463853299285 
2136	 0.183120335346196 
2137	 0.20577032415832 
2138	 0.202066053287837 
2139	 0.215687632807859 
2140	 0.22771783528236 
2141	 0.162691177530569 
2142	 0.164942907248774 
2143	 0.262429249686689 
2144	 0.2318991187366 
2145	 0.150873064282561 
2146	 0.152173736795455 
2147	 0.142183351909009 
2148	 8.48243467044815E-02 
2149	 0.110559590768676 
2150	 0.124507197497324 
2151	 8.76028382344356E-02 
2152	 4.82465271338282E-02 
2153	-2.47782786628561E-02 
2154	-1.86820908874382E-02 
2155	 3.40308503278719E-02 
2156	 4.23109801578498E-02 
2157	 3.19355784549621E-02 
2158	 2.24151349931201E-02 
2159	 8.26447743490178E-03 
2160	-3.06263838582222E-02 
2161	-0.100924173770837 
2162	-0.207956107922895 
2163	-0.280956945379287 
2164	-0.42294462163579 
2165	-0.469043108814926 
2166	-0.370555847220987 
2167	-0.335827752786138 
2168	-0.299523678896429 
2169	-0.272224339486825 
2170	-0.260224318553226 
2171	-0.186924205373813 
2172	-9.33485908381313E-02 
2173	-0.2645813438218 
2174	-0.293933603887827 
2175	-0.277518533745461 
2176	-0.333692012172066 
2177	-0.252626857176075 
2178	-7.62784085017468E-02 
2179	-2.10933855573487E-02 
2180	 1.40942214384548E-02 
2181	 5.43473219395929E-02 
2182	-4.30774336874486E-02 
2183	 5.81251099761297E-02 
2184	 0.209957060456961 
2185	 0.33716697084014 
2186	 0.386902767862165 
2187	 0.314280050167786 
2188	 0.304454435641822 
2189	 0.28227209647743 
2190	 0.236121026851509 
2191	 0.249848001217252 
2192	 0.17536701823143 
2193	 1.43159605924091E-02 
2194	-3.21980740529293E-02 
2195	-9.51663667706738E-02 
2196	-0.129863458965705 
2197	-4.55769962560782E-02 
2198	-4.09779909253268E-02 
2199	-0.11632884734052 
2200	-0.10619378286897 
2201	-0.114781881534935 
2202	-0.224894208719608 
2203	-0.361717974914801 
2204	-0.342800758696472 
2205	-1.39687503632308E-02 
2206	-1.69388492608361E-02 
2207	-7.35099833608627E-03 
2208	 6.60752073794163E-02 
2209	-5.42101170715751E-02 
2210	-0.262256956184306 
2211	-0.2621654177841 
2212	-0.152688002681831 
2213	-1.99620045003139E-02 
2214	 0.297434517859278 
2215	 0.750137285156479 
2216	 0.977193212451025 
2217	 0.874607374826842 
2218	 0.448544531801659 
2219	 0.375568550196695 
2220	 0.217841468300029 
2221	 1.69229006929028E-02 
2222	-8.58673147688879E-02 
2223	-0.379011865591448 
2224	-1.33434188170609 
2225	-1.34924040139488 
2226	-0.702738424694141 
2227	-0.524684593343557 
2228	-0.252369890025333 
2229	-0.15499395838368 
2230	-6.05940049100268E-02 
2231	-0.154527517721625 
2232	-0.837369355990249 
2233	-1.22626495148308 
2234	-1.41735705013575 
2235	-0.899896436089926 
2236	-0.632955465062721 
2237	-0.168105752353231 
2238	 7.06296669390534E-02 
2239	-5.00351425115103E-02 
2240	 3.99712981501816E-04 
2241	-3.70400140886061E-02 
2242	-0.148866811238778 
2243	-8.84655442917455E-02 
2244	 3.09035268857445E-02 
2245	-1.28874852295923E-02 
2246	 0.212920052232399 
2247	 0.284909969509108 
2248	-6.33651730705317E-02 
2249	-0.192178235262344 
2250	-0.544286955291455 
2251	-0.856764695556899 
2252	-1.11624334805271 
2253	-1.80410760664932 
2254	-2.2505047855685 
2255	-1.94040817495819 
2256	-1.91583230898589 
2257	-1.0243595447338 
2258	-0.292182425272407 
2259	-0.113701466835724 
2260	 1.77316824376408E-02 
2261	 0.308404643607084 
2262	 0.154382366837842 
2263	-0.726202252739666 
2264	-1.09156538354243 
2265	-2.20979726993882 
2266	-2.72653512488615 
2267	 0.285852764300285 
2268	 0.523130607726769 
2269	-1.40476640719636 
2270	-0.995166691636433 
2271	-0.670811691930244 
2272	-0.618330707465667 
2273	-0.270620358905247 
2274	-0.126335750342229 
2275	 1.73330562002373E-02 
2276	-8.20383081243962E-02 
2277	-0.236833149944183 
2278	-0.302314805380506 
2279	-0.784172304132314 
2280	-1.04034595349864 
2281	-1.11332707278633 
2282	-1.8269741148529 
2283	-1.27161266431304 
2284	-0.534224786474958 
2285	-0.566748363086284 
2286	-1.17590905920472 
2287	 5.23646611516342 
2288	 0.857822986500151 
2289	 1.10117408873103 
2290	 1.3385990421802 
2291	-8.81974410509581 
2292	-2.38039026466834 
2293	-2.61080738555611 
2294	-1.97070140299158 
2295	-2.86266418474435 
2296	-2.69423219794939 
2297	-0.145461216163729 
2298	 0.28352363946797 
2299	-2.40117298914099 
2300	 8.22825027579872E-02 
2301	 8.93161367072984E-02 
2302	 9.82960386091944E-02 
2303	-0.684968408726583 
2304	-0.235433448278552 
2305	-0.51762138102762 
2306	-1.06095410354277 
2307	-1.00319592509573 
2308	 27.6844519958137 
2309	-6.93815437921499 
2310	-2.67704453936961 
2311	 1.79715547662136 
2312	 1.16687353184105 
2313	 0.826727668115935 
2314	 4.81947709682667 
2315	 24.2082899589436 
2316	 2.88472561317827 
2317	-0.91704502897642 
2318	 1.72063675702878 
2319	 7.45722655325162 
2320	 1.05255862861493 
2321	 8.65609504237074 
2322	 0.673285599363963 
2323	 2.9298958013026 
2324	-54.7698926822875 
2325	-3.5926481007391 
2326	-2.66798770055429 
2327	-1.5025135339269 
2328	-1.53559647794156 
2329	-1.5755755353418 
2330	-1.3017262949455 
2331	-0.693455271583003 
2332	 0.484835976134809 
2333	 0.543981155396049 
2334	 7.01463808739686E-02 
2335	-0.521681616687322 
2336	-1.11326052250509 
2337	-1.34340612866721 
2338	-1.87329189083281 
2339	 2.893031616923 
2340	-3.86415660441898 
2341	-2.20007670230678 
2342	-15.3169611927239 
2343	-10.2973170713775 
2344	 4.09689600558947 
2345	 2.33899145073082 
2346	 2.94620636315422 
2347	 1.94885600231925 
2348	 1.23171090826688 
2349	 1.06048013416209 
2350	 0.951900036397874 
2351	 0.86311958116055 
2352	 0.966144974572435 
2353	 1.62143300119931 
2354	 1.19935637601003 
2355	 795.93162240458 
2356	-0.740770563873733 
2357	-12.1936727493207 
2358	-0.957338834223627 
2359	-0.879779039808906 
2360	-0.279238186109776 
2361	 0.267529000726033 
2362	-1.54285911277983 
2363	 0.784625041980697 
2364	 0.227351646571399 
2365	 0.174053285079229 
2366	 0.141834237980356 
2367	 0.252817812124121 
2368	 0.446237376583199 
2369	 0.487126296366431 
2370	 1.4977146083264 
2371	 2.72012188192091 
2372	 3.02469455731525 
2373	 11.5356306748037 
2374	 3.13031189739308 
2375	 2.82627757094924 
2376	 7.42552829148406 
2377	 6.1637116074036 
2378	 3.74216286390279 
2379	 2.24530437905679 
2380	 1.30456319106762 
2381	 0.676742310865472 
2382	 0.385689586322915 
2383	 0.489847193893933 
2384	 0.376657474274881 
2385	 0.323567371239584 
2386	 0.871607336166937 
2387	 1.14623456916794 
2388	 2.14433676733739 
2389	-6.73696188880203 
2390	-3.39181450398959 
2391	-2.6319620385416 
2392	-1.31892562643235 
2393	-1.24261912226707 
2394	-3.65048851684455 
2395	 5.17744354539552 
2396	 1.31287127348482 
2397	 1.02344601007418 
2398	 0.867838233050291 
2399	 0.50060259721786 
2400	 0.377520263862431 
2401	 0.491046551955132 
2402	 0.376281557167399 
2403	-0.116641803816423 
2404	-0.199972692331203 
2405	-0.203745884704618 
2406	-6.44650317022753E-02 
2407	 0.431249599495244 
2408	 0.633369041578137 
2409	-0.529651271793276 
2410	-1.31621478239921 
2411	-0.854329175235952 
2412	 0.256601842162063 
2413	 0.270288390514459 
2414	 9.49845579256098E-02 
2415	 2.93073457565096E-02 
2416	-8.26757921382395E-02 
2417	 1.61490553092591E-02 
2418	 0.370961162270048 
2419	 1.32528553434771 
2420	 2.61072999022475 
2421	 3.92436301809431 
2422	 1.88615974123837 
2423	 0.633900397635625 
2424	-0.480563863017394 
2425	 1.86785912747548 
2426	 2.22184788215162 
2427	 17.2469374232308 
2428	 3.8739736209392 
2429	 0.854276293350719 
2430	 4.83104571669896E-02 
2431	 0.027538987033399 
2432	-1.25606146352981 
2433	 6.3434345230477 
2434	-4.13315987813836 
2435	-6.83057705892721 
2436	-7.46878614010414 
2437	-5.76675288131685 
2438	 3.69696464709632 
2439	 0.741786460164099 
2440	 0.320030821928201 
2441	 0.205506207991003 
2442	 7.99714033117322E-02 
2443	-0.326663767016248 
2444	-0.588588289951294 
2445	-9.56562834655592E-03 
2446	 2.10537070103905 
2447	 3.15426212853216 
2448	 13.9718174894402 
2449	-42.495579249799 
2450	 19.9053107764038 
2451	 6.10557681560363 
2452	 1.23148712218071 
2453	 0.142409578989727 
2454	-1.14180685320711 
2455	-8.80157084682425 
2456	 1.56211388477002 
2457	 0.325956617069318 
2458	 0.496432320160187 
2459	 1.90681223596835 
2460	-1.53899314440329 
2461	-0.895217310971312 
2462	-0.271852031842968 
2463	 1.48471403199001E-02 
2464	 1.90334195632366 
2465	 0.870386317597613 
2466	 0.165392707144918 
2467	 1.05954349361913 
2468	 2.39844398250541 
2469	-5.88689180503032 
2470	-2.57408964995854 
2471	-1.21879615995874 
2472	-1.17606335329639 
2473	-2.97786703962491 
2474	-4.13733724186944 
2475	-4.03029713066483 
2476	-8.97438148942684 
2477	-5.7519702745282 
2478	 3.57254462860585 
2479	 0.639945317445094 
2480	 0.659818166630039 
2481	 0.996834594184062 
2482	 3.29079872113201 
2483	 4.62988451342687 
2484	 0.945395893702359 
2485	 1.0590954304805 
2486	 0.88167147578748 
2487	 0.73854301628138 
2488	 1.04850247111531 
2489	 0.591863252138952 
2490	 0.389090903883859 
2491	 0.900023255591035 
2492	 1.89662016759749 
2493	 1.37391763603834 
2494	 0.807486543794427 
2495	-0.217802756406715 
2496	-0.61194079206465 
2497	-0.34303508423888 
2498	-0.152413549777774 
2499	 5.03981940391565E-02 
2500	 0.79177613692019 
