Wavelength	rt0707far00001.asd
350	 7.82957312185439E-02 
351	 7.72742429180178E-02 
352	 7.64664013318938E-02 
353	 0.07608872651475 
354	 7.59008686337599E-02 
355	 7.57807058065605E-02 
356	 7.69529141974571E-02 
357	 7.82681746361045E-02 
358	 0.078375980103548 
359	 7.85512092955561E-02 
360	 7.73162090022431E-02 
361	 7.56336341921427E-02 
362	 7.59281334974273E-02 
363	 7.73878779072014E-02 
364	 7.84444180160997E-02 
365	 7.87220264290469E-02 
366	 7.97674218019506E-02 
367	 7.90257563697861E-02 
368	 7.77058653634743E-02 
369	 7.75695782930528E-02 
370	 0.078659968146014 
371	 7.90805347691296E-02 
372	 7.86418902917101E-02 
373	 7.83398884019295E-02 
374	 7.92826201252178E-02 
375	 8.04697037773316E-02 
376	 8.10174286378045E-02 
377	 8.06025952872975E-02 
378	 8.03126876552474E-02 
379	 8.04907932101889E-02 
380	 8.10397716855531E-02 
381	 8.11983004163629E-02 
382	 8.16052845538033E-02 
383	 8.21985350782195E-02 
384	 8.25666764837805E-02 
385	 8.24713388646509E-02 
386	 8.27655993453962E-02 
387	 8.32773065458992E-02 
388	 8.26964513649444E-02 
389	 8.26402583505206E-02 
390	 8.31339341902617E-02 
391	 8.38704245442519E-02 
392	 8.46775960621752E-02 
393	 8.50398078380433E-02 
394	 8.47903127883779E-02 
395	 8.41682359585598E-02 
396	 8.43742334283885E-02 
397	 0.08524449885752 
398	 8.59511257462988E-02 
399	 8.53707750746431E-02 
400	 8.55093918897177E-02 
401	 8.60023257284696E-02 
402	 8.62128251663884E-02 
403	 8.56360355384899E-02 
404	 8.60527371290355E-02 
405	 8.68384434459412E-02 
406	 8.67718778561921E-02 
407	 8.68972590892566E-02 
408	 8.73319105512607E-02 
409	 8.77827013981368E-02 
410	 8.76873814465531E-02 
411	 8.82927589738245E-02 
412	 8.89349297129177E-02 
413	 8.90350789310567E-02 
414	 8.90064174842665E-02 
415	 8.93027920751389E-02 
416	 8.98515899596127E-02 
417	 9.02930084063134E-02 
418	 9.01053274244478E-02 
419	 9.01711777225415E-02 
420	 9.08596365697599E-02 
421	 9.18545942398471E-02 
422	 9.19145572705869E-02 
423	 9.20017872327688E-02 
424	 9.28816440376674E-02 
425	 9.34674343976799E-02 
426	 9.36180607507364E-02 
427	 0.093753451129871 
428	 9.44844972292455E-02 
429	 9.55260288046911E-02 
430	 9.60146281065948E-02 
431	 9.60707644791833E-02 
432	 9.69871574800563E-02 
433	 9.76090627903638E-02 
434	 9.80754259665154E-02 
435	 9.86232088302759E-02 
436	 9.88471083285717E-02 
437	 9.94326857687883E-02 
438	 0.100300351754672 
439	 0.100953790124023 
440	 0.101360824617354 
441	 0.101854313223015 
442	 0.102488721824912 
443	 0.102838879043772 
444	 0.103587011905302 
445	 0.10424972625971 
446	 0.104362830809263 
447	 0.104792883311113 
448	 0.105434000660337 
449	 0.106032510280565 
450	 0.106296791218885 
451	 0.106747770122688 
452	 0.107192773059035 
453	 0.107511442723079 
454	 0.107925809367216 
455	 0.108612518799221 
456	 0.109194286873032 
457	 0.109264022395767 
458	 0.109402372116649 
459	 0.109744852788424 
460	 0.110201927704367 
461	 0.110497790151801 
462	 0.110951158250141 
463	 0.111504749507181 
464	 0.1120219051805 
465	 0.112389947585462 
466	 0.112403418369759 
467	 0.112513875088613 
468	 0.113305776627249 
469	 0.113717451950996 
470	 0.113968745355779 
471	 0.114264770174639 
472	 0.114622584820058 
473	 0.114840114968487 
474	 0.115146179967058 
475	 0.115748547470985 
476	 0.11639450100445 
477	 0.116921541218253 
478	 0.117261464896521 
479	 0.117453642241662 
480	 0.117812176849955 
481	 0.118336456133776 
482	 0.118897433327643 
483	 0.119191841356407 
484	 0.119579852103919 
485	 0.120079121682117 
486	 0.120597690386899 
487	 0.121216403374425 
488	 0.121732870690197 
489	 0.122078110198925 
490	 0.12233966787973 
491	 0.12289244296677 
492	 0.12359407441093 
493	 0.124217604914403 
494	 0.12459594863361 
495	 0.125110439007783 
496	 0.125849521552945 
497	 0.126697897504681 
498	 0.127287078545257 
499	 0.127772508157331 
500	 0.12826098499863 
501	 0.128682490127505 
502	 0.129307226689988 
503	 0.130034935747531 
504	 0.130685689573272 
505	 0.131254488168981 
506	 0.13178379777729 
507	 0.132315164676667 
508	 0.132888980457866 
509	 0.13357099111509 
510	 0.134352750620788 
511	 0.135127158018834 
512	 0.135588062537258 
513	 0.135963712246057 
514	 0.136513106061416 
515	 0.137421334649106 
516	 0.138239375629376 
517	 0.138995627402641 
518	 0.139697629199467 
519	 0.140279736617642 
520	 0.141017843304245 
521	 0.141821427224046 
522	 0.142556612153914 
523	 0.143252306195984 
524	 0.143911510348026 
525	 0.144633737134186 
526	 0.14555387051698 
527	 0.146382770595442 
528	 0.147123690797262 
529	 0.147811850196161 
530	 0.148424400817102 
531	 0.149243028157737 
532	 0.150205868672163 
533	 0.15112059534404 
534	 0.151968021574841 
535	 0.152697269958049 
536	 0.153391202431784 
537	 0.154270744103867 
538	 0.155067056811041 
539	 0.155850333276775 
540	 0.156745873385476 
541	 0.157800384419476 
542	 0.158726657001146 
543	 0.159548958902154 
544	 0.16046304650471 
545	 0.161167536543762 
546	 0.161833013185508 
547	 0.162573866488329 
548	 0.163272575903884 
549	 0.164121163733884 
550	 0.164958791979152 
551	 0.165589276278655 
552	 0.166351474646962 
553	 0.167252556762551 
554	 0.168182843969111 
555	 0.16892706708665 
556	 0.169783054579619 
557	 0.170572302329022 
558	 0.171159661510156 
559	 0.171940334304824 
560	 0.172798371105039 
561	 0.173653143431944 
562	 0.174456874462076 
563	 0.175232596248608 
564	 0.175932822269013 
565	 0.176502588237412 
566	 0.176860158350873 
567	 0.177466700579549 
568	 0.178109154991862 
569	 0.178454308963724 
570	 0.179102387924379 
571	 0.179774114239653 
572	 0.180237471042894 
573	 0.18038397610803 
574	 0.180832486386161 
575	 0.181208440107828 
576	 0.181190914408565 
577	 0.181441446545031 
578	 0.181464685040979 
579	 0.181342503685301 
580	 0.181457265810616 
581	 0.181364352232826 
582	 0.181335641714382 
583	 0.18142883733649 
584	 0.181151928672306 
585	 0.180667381054895 
586	 0.180313197530129 
587	 0.180352892620363 
588	 0.180032009747516 
589	 0.179652548570985 
590	 0.17929431362569 
591	 0.178690891218751 
592	 0.17808140913316 
593	 0.177422426886886 
594	 0.176574775215662 
595	 0.175200093668657 
596	 0.174010036277843 
597	 0.172848957680683 
598	 0.171188620567565 
599	 0.169868816892462 
600	 0.168621012753239 
601	 0.167424404534737 
602	 0.166917490603267 
603	 0.166604281552055 
604	 0.166368818503058 
605	 0.166200800393322 
606	 0.165952492002056 
607	 0.165950774173516 
608	 0.166170399319489 
609	 0.166205821688607 
610	 0.166112915885785 
611	 0.165907565701515 
612	 0.165690669530938 
613	 0.165810064634434 
614	 0.165990094351033 
615	 0.166021701168158 
616	 0.165807552602518 
617	 0.165879259155031 
618	 0.165874020747966 
619	 0.165717405270235 
620	 0.165978178347486 
621	 0.165971081485654 
622	 0.165702016021805 
623	 0.165451411208348 
624	 0.165613528420574 
625	 0.165732580475168 
626	 0.165718367322857 
627	 0.165838807282516 
628	 0.165550673007106 
629	 0.165146095136537 
630	 0.164961931921855 
631	 0.165033506199375 
632	 0.165131497719409 
633	 0.165163876114351 
634	 0.165112726868093 
635	 0.164933193852962 
636	 0.164725170227582 
637	 0.164621218298551 
638	 0.164789494268302 
639	 0.164704480528245 
640	 0.164379151270048 
641	 0.164011316633156 
642	 0.16372946134038 
643	 0.163794940831963 
644	 0.163964267261809 
645	 0.163615831609184 
646	 0.16340148425829 
647	 0.163148994551731 
648	 0.162762971714504 
649	 0.162688960175711 
650	 0.162377280898553 
651	 0.161881913815234 
652	 0.161426489193274 
653	 0.160523580418377 
654	 0.159751164311637 
655	 0.159119126740782 
656	 0.157869607941992 
657	 0.157020135025128 
658	 0.156455602985918 
659	 0.155907107304544 
660	 0.155471326004242 
661	 0.154924776201992 
662	 0.154368200294484 
663	 0.154105396721311 
664	 0.154154677688851 
665	 0.154147302563254 
666	 0.153868698317547 
667	 0.153453256043586 
668	 0.152962094375344 
669	 0.152782643980492 
670	 0.153132308641223 
671	 0.15289688506919 
672	 0.152773630578277 
673	 0.152871854817324 
674	 0.152703156006726 
675	 0.152690324681298 
676	 0.152672299375054 
677	 0.152540445525372 
678	 0.152611471085737 
679	 0.152589212479344 
680	 0.152395324959416 
681	 0.152119455830152 
682	 0.152238419450544 
683	 0.152337453268406 
684	 0.15222569153326 
685	 0.152103394146656 
686	 0.151494739798637 
687	 0.150949831425982 
688	 0.150961299196266 
689	 0.150546878074197 
690	 0.149701300888102 
691	 0.148996596221397 
692	 0.149211941089169 
693	 0.148312272173899 
694	 0.14680866061652 
695	 0.145513333819255 
696	 0.144721415519613 
697	 0.143709192302857 
698	 0.142469156699095 
699	 0.141299775307062 
700	 0.140242828739272 
701	 0.138615673762603 
702	 0.136677254964655 
703	 0.135276257219777 
704	 0.134025356196106 
705	 0.132423620909651 
706	 0.130428775437254 
707	 0.12886135159792 
708	 0.127149501015141 
709	 0.125135425185048 
710	 0.122859375196549 
711	 0.120459273633481 
712	 0.11830641631945 
713	 0.116258894758624 
714	 0.113576906706214 
715	 0.111471488109957 
716	 0.109555598364087 
717	 0.107240556072219 
718	 0.104089845079783 
719	 0.100970694981344 
720	 9.85780164845698E-02 
721	 9.64377893603401E-02 
722	 9.43280050840392E-02 
723	 9.20413216150895E-02 
724	 8.97673143358211E-02 
725	 8.71984909730619E-02 
726	 8.48480281293686E-02 
727	 8.23248405673677E-02 
728	 7.93943147773416E-02 
729	 7.67626075291356E-02 
730	 7.43924279165469E-02 
731	 7.19241178295729E-02 
732	 0.069015248721775 
733	 0.067326857921497 
734	 6.61056655065774E-02 
735	 6.49536429190433E-02 
736	 6.39914540246801E-02 
737	 6.28608231369632E-02 
738	 6.20207142260783E-02 
739	 6.17999912825768E-02 
740	 6.15844512013275E-02 
741	 6.13539060393623E-02 
742	 6.11265787355974E-02 
743	 6.09366591707225E-02 
744	 6.07322806013252E-02 
745	 6.03945422669437E-02 
746	 6.00682072988213E-02 
747	 6.02422571840383E-02 
748	 6.02774812008333E-02 
749	 6.01288279303623E-02 
750	 5.99559490977301E-02 
751	 6.00626827623127E-02 
752	 5.99361456941001E-02 
753	 5.97080203549401E-02 
754	 5.97922038117156E-02 
755	 5.96749917973464E-02 
756	 5.98368525796683E-02 
757	 6.03121232037279E-02 
758	 6.03454465531053E-02 
759	 6.00079253787761E-02 
760	 6.00576749809205E-02 
761	 6.09971305459431E-02 
762	 6.07276266753999E-02 
763	 0.060621271160399 
764	 6.05087476467772E-02 
765	 5.99800815018585E-02 
766	 5.96678753522443E-02 
767	 5.97690818152035E-02 
768	 6.00415132056999E-02 
769	 5.98681045313579E-02 
770	 5.98650421372261E-02 
771	 6.00353490736384E-02 
772	 6.02609102865721E-02 
773	 6.04562952475506E-02 
774	 6.05892186263951E-02 
775	 6.07281200808181E-02 
776	 6.09230729261454E-02 
777	 6.07671764223147E-02 
778	 6.08324394256368E-02 
779	 6.12324477242209E-02 
780	 6.15452775002879E-02 
781	 6.15817263576684E-02 
782	 6.19062981300663E-02 
783	 6.26769001537602E-02 
784	 6.27970426338019E-02 
785	 6.30438204364357E-02 
786	 6.34937970227772E-02 
787	 6.39362547472734E-02 
788	 6.40788111951926E-02 
789	 6.43301979774316E-02 
790	 6.47773588781105E-02 
791	 6.51998444854495E-02 
792	 6.54243214606387E-02 
793	 6.58865255017616E-02 
794	 6.66761127698789E-02 
795	 6.71680516189061E-02 
796	 6.74838616591337E-02 
797	 6.76573715766045E-02 
798	 6.77855804217206E-02 
799	 0.068119502820479 
800	 0.068601606807476 
801	 6.90564857995274E-02 
802	 6.92885041359453E-02 
803	 6.94640488257001E-02 
804	 6.96223747187568E-02 
805	 0.069655536150486 
806	 6.93348716748835E-02 
807	 6.91695396916176E-02 
808	 6.94386399346093E-02 
809	 7.00225070326392E-02 
810	 6.98176995695523E-02 
811	 7.02190725900616E-02 
812	 0.070921946094094 
813	 7.08287224322887E-02 
814	 6.97233222717764E-02 
815	 6.93774200001724E-02 
816	 6.94512541919592E-02 
817	 6.80275446428255E-02 
818	 6.70610579629968E-02 
819	 6.68235586210994E-02 
820	 0.06685683994413 
821	 6.61504581483926E-02 
822	 6.50238905852387E-02 
823	 6.37077727927979E-02 
824	 6.22690175746804E-02 
825	 5.99843075591886E-02 
826	 0.058403212901991 
827	 5.77388853196862E-02 
828	 5.74415817775062E-02 
829	 5.58717235230129E-02 
830	 5.46082289222084E-02 
831	 5.38713073252815E-02 
832	 5.28433604199274E-02 
833	 5.15024011224239E-02 
834	 5.10709504533107E-02 
835	 5.15797005549316E-02 
836	 5.15148776205825E-02 
837	 5.09223116780458E-02 
838	 5.05429246104107E-02 
839	 5.07411069675148E-02 
840	 5.05742264618085E-02 
841	 5.00590569141078E-02 
842	 4.96286872704603E-02 
843	 4.96636391600321E-02 
844	 4.94673542049016E-02 
845	 4.91355788475428E-02 
846	 4.88412359662273E-02 
847	 4.87425741470825E-02 
848	 4.85220719776123E-02 
849	 4.81085751513322E-02 
850	 4.78034928880865E-02 
851	 4.82492558794399E-02 
852	 4.83410651637063E-02 
853	 4.77633493958431E-02 
854	 4.69637810333258E-02 
855	 4.74605359517185E-02 
856	 4.82227170304031E-02 
857	 4.83067949357612E-02 
858	 4.73633237522133E-02 
859	 4.68137447554215E-02 
860	 4.68044202791447E-02 
861	 4.69756685026953E-02 
862	 4.68252433192593E-02 
863	 0.046895761478806 
864	 4.66407037534846E-02 
865	 4.63031239942171E-02 
866	 4.67447536646829E-02 
867	 4.70003019031549E-02 
868	 4.61895660790013E-02 
869	 4.50718005661047E-02 
870	 4.62717818985498E-02 
871	 4.61829900496187E-02 
872	 4.59312352362948E-02 
873	 4.65045607009216E-02 
874	 4.62448240223411E-02 
875	 4.56521117268498E-02 
876	 4.54869679081399E-02 
877	 4.59056076304787E-02 
878	 4.44599520552546E-02 
879	 4.44731375905044E-02 
880	 4.52936251786268E-02 
881	 4.48084776659009E-02 
882	 4.48331809030914E-02 
883	 4.47431299363258E-02 
884	 4.44203286808781E-02 
885	 4.42627982585949E-02 
886	 4.49140817237901E-02 
887	 4.46884551328806E-02 
888	 4.36624383236523E-02 
889	 4.40142001504847E-02 
890	 0.043455864165028 
891	 4.37282675740004E-02 
892	 4.54373174552626E-02 
893	 4.54359785469263E-02 
894	 4.42021657678961E-02 
895	 4.30791627050704E-02 
896	 4.34255456497187E-02 
897	 4.48526352651272E-02 
898	 4.53499396376953E-02 
899	 4.49937270328852E-02 
900	 4.46235918062564E-02 
901	 0.043799483685418 
902	 4.43815847598347E-02 
903	 4.61086042223397E-02 
904	 4.73670789706352E-02 
905	 4.39814099458161E-02 
906	 4.26543867683399E-02 
907	 4.40487328818811E-02 
908	 4.37375868892496E-02 
909	 0.041059935438184 
910	 4.01014291383998E-02 
911	 4.13229366667162E-02 
912	 4.16137160004059E-02 
913	 4.29136694592701E-02 
914	 4.11998092009894E-02 
915	 3.84901481219189E-02 
916	 4.27788137208696E-02 
917	 4.56118986140308E-02 
918	 4.36250588220201E-02 
919	 3.97063636906066E-02 
920	 4.26195737875899E-02 
921	 4.32332375293197E-02 
922	 4.14189613063474E-02 
923	 3.93491178542699E-02 
924	 0.04058049529674 
925	 4.27056995060145E-02 
926	 4.17634972277011E-02 
927	 0.035721554803746 
928	 3.42466323911047E-02 
929	 3.88993183120769E-02 
930	 4.83625466744985E-02 
931	 5.44987815427356E-02 
932	 3.45827467592138E-02 
933	 0.033918321611588 
934	 5.34797257090491E-02 
935	 5.48074885118053E-02 
936	 3.38438169299587E-02 
937	 2.82517771039298E-02 
938	 0.046244900459625 
939	 7.29175744051494E-02 
940	 5.76999231982575E-02 
941	 4.80104927358316E-02 
942	 4.78522035298807E-02 
943	 3.94218399883188E-02 
944	 3.08686164659834E-02 
945	 4.68463521954338E-02 
946	 6.55556635910789E-02 
947	 0.051517848431954 
948	 3.63640730532184E-02 
949	 3.57575257473277E-02 
950	 4.35491684225276E-02 
951	 4.32743089861845E-02 
952	 4.27704736547583E-02 
953	 0.051254017594893 
954	 5.64774812086344E-02 
955	 4.01278187524011E-02 
956	 3.87124878264666E-02 
957	 4.52959891512104E-02 
958	 4.50844631318961E-02 
959	 2.98520528911851E-02 
960	 4.99839840144078E-02 
961	 5.54336873397397E-02 
962	 4.28755565109146E-02 
963	 3.98322458044732E-02 
964	 3.80350047540089E-02 
965	 3.71309642398346E-02 
966	 3.75336285133066E-02 
967	 3.99320587778007E-02 
968	 4.66577168978244E-02 
969	 4.46686231198762E-02 
970	 3.66742097902716E-02 
971	 3.71172076057588E-02 
972	 3.58508270786246E-02 
973	 3.72715615535321E-02 
974	 4.13253219346471E-02 
975	 4.20874743404062E-02 
976	 0.035609720194485 
977	 0.032671081746342 
978	 3.46020495981468E-02 
979	 3.43799718116436E-02 
980	 3.91757581517029E-02 
981	 3.81939637747001E-02 
982	 3.30613740786428E-02 
983	 3.45533840387501E-02 
984	 3.84130207457347E-02 
985	 0.038546713181051 
986	 3.69224791537983E-02 
987	 0.040042205353283 
988	 3.93778926473128E-02 
989	 4.02019686733999E-02 
990	 4.46035701162919E-02 
991	 4.95325469797611E-02 
992	 4.20034842562799E-02 
993	 3.30735098001078E-02 
994	 3.22308110032044E-02 
995	 0.041575392431012 
996	 4.32800192269564E-02 
997	 4.18305332951916E-02 
998	 4.11819671177565E-02 
999	 4.29771650483906E-02 
1000	 4.44789495984963E-02 
1001	 3.76712235398988E-02 
1002	 3.75917291584119E-02 
1003	 3.79606679054496E-02 
1004	 4.00613859212385E-02 
1005	 0.040680334033848 
1006	 4.08254133069136E-02 
1007	 4.07532822630099E-02 
1008	 3.85275970339242E-02 
1009	 3.67329304055635E-02 
1010	 3.46545454686008E-02 
1011	 3.31620266784981E-02 
1012	 3.42443180831755E-02 
1013	 3.39083390966113E-02 
1014	 3.41503126216257E-02 
1015	 3.46488259438942E-02 
1016	 3.48733874972664E-02 
1017	 3.55892360787487E-02 
1018	 3.58938633031749E-02 
1019	 3.50377107844132E-02 
1020	 3.54558852511699E-02 
1021	 3.70107060105016E-02 
1022	 3.69435843337127E-02 
1023	 3.76919443085602E-02 
1024	 3.95707610655177E-02 
1025	 4.09223551182282E-02 
1026	 3.99973154558918E-02 
1027	 3.88893496744753E-02 
1028	 3.64281612110237E-02 
1029	 3.54598077079904E-02 
1030	 0.033488893041437 
1031	 3.41826211732364E-02 
1032	 3.79181533457316E-02 
1033	 3.89657308468268E-02 
1034	 4.00636552431768E-02 
1035	 4.05301890066391E-02 
1036	 3.89324534256781E-02 
1037	 3.87290941769223E-02 
1038	 3.94369298025949E-02 
1039	 3.97928377134855E-02 
1040	 4.00511644359731E-02 
1041	 4.12646594317738E-02 
1042	 4.12432482473098E-02 
1043	 4.14342351803561E-02 
1044	 3.98603606296169E-02 
1045	 3.54928163917721E-02 
1046	 3.48299319086381E-02 
1047	 3.48925325240535E-02 
1048	 3.48722512515234E-02 
1049	 3.78904195228766E-02 
1050	 3.84686317967159E-02 
1051	 3.72180255894893E-02 
1052	 3.63244731888565E-02 
1053	 3.42617708840699E-02 
1054	 3.36421905038764E-02 
1055	 3.31881407992931E-02 
1056	 3.32496877882224E-02 
1057	 0.034008449111328 
1058	 3.65770967245168E-02 
1059	 3.73030735314349E-02 
1060	 0.03777021280731 
1061	 3.78581649231595E-02 
1062	 0.036591243703997 
1063	 3.68947149828247E-02 
1064	 3.81587200724296E-02 
1065	 0.038471121979843 
1066	 3.86568482554679E-02 
1067	 3.94398069299592E-02 
1068	 4.06243842557038E-02 
1069	 4.06589271869262E-02 
1070	 4.07137950904848E-02 
1071	 4.06555833521132E-02 
1072	 3.88107908776777E-02 
1073	 3.81858275740606E-02 
1074	 3.72192825472112E-02 
1075	 0.036738963995035 
1076	 3.64738826483653E-02 
1077	 3.56455787468691E-02 
1078	 0.03588345697347 
1079	 3.81832653097214E-02 
1080	 3.78637585924109E-02 
1081	 3.59036722302123E-02 
1082	 3.57257064044306E-02 
1083	 3.46600540132403E-02 
1084	 3.47146741054569E-02 
1085	 3.76676152765269E-02 
1086	 3.84851262470602E-02 
1087	 3.84775351323154E-02 
1088	 3.81751139758503E-02 
1089	 0.036179871652448 
1090	 3.44206200396979E-02 
1091	 3.56004673226759E-02 
1092	 3.91546009225417E-02 
1093	 3.95598793980361E-02 
1094	 4.20836092796234E-02 
1095	 4.14119255650259E-02 
1096	 3.37933605061158E-02 
1097	 3.26773539521934E-02 
1098	 3.54030393104705E-02 
1099	 3.63638646146183E-02 
1100	 4.05743197652453E-02 
1101	 4.22843145437453E-02 
1102	 4.10296996419797E-02 
1103	 3.96612375694505E-02 
1104	 3.58426964964344E-02 
1105	 3.51200910074394E-02 
1106	 3.41821933326616E-02 
1107	 3.43821080699192E-02 
1108	 3.45070976677587E-02 
1109	 3.38470480319761E-02 
1110	 3.40805291642745E-02 
1111	 3.22820558475148E-02 
1112	 3.46090912913454E-02 
1113	 4.42108037873423E-02 
1114	 4.61622974363353E-02 
1115	 4.56482962536782E-02 
1116	 4.49289324128176E-02 
1117	 0.028286734563865 
1118	 3.02932189174319E-02 
1119	 6.53004117752257E-02 
1120	 0.072685951733747 
1121	 8.36178791304966E-02 
1122	 6.43647977220765E-02 
1123	-3.35590181193007E-02 
1124	-4.17797605116696E-02 
1125	 9.05156359768235E-03 
1126	 3.83132414185971E-02 
1127	 5.68968832540746E-02 
1128	 7.81108676808625E-02 
1129	 9.29923148218727E-02 
1130	 9.62062472411007E-02 
1131	 9.50058816949217E-02 
1132	 7.99937231594591E-02 
1133	 7.21500690791652E-02 
1134	 6.63457424016228E-02 
1135	 6.01802217714115E-02 
1136	 7.03889144044866E-02 
1137	 7.56679782852837E-02 
1138	 7.77441071022192E-02 
1139	 4.98026428586447E-02 
1140	 8.31411478271428E-02 
1141	 8.84732231026139E-02 
1142	 3.59002590965731E-02 
1143	 2.58962356774628E-02 
1144	 4.60684704644918E-02 
1145	 5.10945587766513E-02 
1146	 7.54092762342836E-02 
1147	 8.30355911995086E-02 
1148	 2.77244596498616E-02 
1149	-9.58054296766007E-03 
1150	-8.87212771642268E-03 
1151	 3.52484361125197E-02 
1152	 4.32911554060197E-02 
1153	 5.36665524727113E-02 
1154	 4.84700121575263E-02 
1155	 2.76641344726309E-02 
1156	 2.58608174371069E-02 
1157	 2.62030093491867E-02 
1158	 3.33620388398645E-02 
1159	 4.65658582254489E-02 
1160	 4.36376785221761E-02 
1161	 3.66028841453874E-02 
1162	 3.64011283397733E-02 
1163	 3.25051035294564E-02 
1164	 3.00792380044701E-02 
1165	 3.77026512243185E-02 
1166	 4.08737781954067E-02 
1167	 3.55856739351417E-02 
1168	 3.41440000144117E-02 
1169	 0.03301861467505 
1170	 3.18390421721132E-02 
1171	 3.32426770322588E-02 
1172	 4.18081273391641E-02 
1173	 4.23797720679404E-02 
1174	 0.039249354985885 
1175	 3.89738315832022E-02 
1176	 3.85695314232357E-02 
1177	 3.89695459963107E-02 
1178	 4.21518401219108E-02 
1179	 0.042985942692408 
1180	 4.01481774338185E-02 
1181	 3.73727926510648E-02 
1182	 3.74634934043383E-02 
1183	 3.68609972775665E-02 
1184	 3.59709244581679E-02 
1185	 3.69107823466314E-02 
1186	 3.95428872724399E-02 
1187	 4.35227162552299E-02 
1188	 4.45032438098031E-02 
1189	 4.27994711018557E-02 
1190	 4.04955754524295E-02 
1191	 3.80458880620737E-02 
1192	 3.66824584407981E-02 
1193	 3.65861298939872E-02 
1194	 3.72969206318523E-02 
1195	 3.71813649960047E-02 
1196	 3.63267197261221E-02 
1197	 3.55934832978605E-02 
1198	 3.77880849773723E-02 
1199	 4.02411022012535E-02 
1200	 3.83487440976947E-02 
1201	 0.036128073689402 
1202	 3.62052160764212E-02 
1203	 3.51669990829345E-02 
1204	 3.66896655622427E-02 
1205	 3.94226804833332E-02 
1206	 0.03743989702922 
1207	 3.62539132215992E-02 
1208	 3.63421399230437E-02 
1209	 3.46378239735527E-02 
1210	 0.035745002555155 
1211	 3.67376670185038E-02 
1212	 3.54341860413922E-02 
1213	 3.68974575306132E-02 
1214	 3.78814713522101E-02 
1215	 3.88683689205535E-02 
1216	 3.82420007560051E-02 
1217	 3.91233786365955E-02 
1218	 3.91545883022559E-02 
1219	 3.78738434819954E-02 
1220	 3.81615311096435E-02 
1221	 0.037786654884816 
1222	 0.036954039777825 
1223	 0.038491713541898 
1224	 3.89184557091262E-02 
1225	 3.66884130390015E-02 
1226	 3.55568493893568E-02 
1227	 3.62731103692666E-02 
1228	 3.71931962980326E-02 
1229	 3.89122850643506E-02 
1230	 4.03660906703267E-02 
1231	 3.89689763837802E-02 
1232	 0.035971336769948 
1233	 3.40569550423483E-02 
1234	 3.45788472249343E-02 
1235	 3.49585998520811E-02 
1236	 3.56050889832226E-02 
1237	 3.55389161516811E-02 
1238	 3.58583199237635E-02 
1239	 3.63215644389167E-02 
1240	 3.55897270700607E-02 
1241	 3.68322070299981E-02 
1242	 3.74419874190196E-02 
1243	 3.66883571157346E-02 
1244	 3.84209365894091E-02 
1245	 3.83400806649621E-02 
1246	 3.65386480128439E-02 
1247	 3.67611310065252E-02 
1248	 3.68351105286436E-02 
1249	 3.67637733063626E-02 
1250	 3.80682657915111E-02 
1251	 3.89462486279631E-02 
1252	 3.83025306151587E-02 
1253	 3.78603557270428E-02 
1254	 3.73975100258251E-02 
1255	 0.037117523971055 
1256	 3.72467907186454E-02 
1257	 3.68050470124355E-02 
1258	 3.58629628410382E-02 
1259	 3.47932298612151E-02 
1260	 0.035740915675734 
1261	 3.73659639248551E-02 
1262	 3.73501989311909E-02 
1263	 3.79323296964327E-02 
1264	 3.99196511306938E-02 
1265	 3.93223735372567E-02 
1266	 3.91461145146755E-02 
1267	 0.039212545409743 
1268	 3.83131457667304E-02 
1269	 3.83609539974693E-02 
1270	 0.037771989673882 
1271	 3.83023106411256E-02 
1272	 3.92972114037049E-02 
1273	 3.72300152920478E-02 
1274	 3.54907124845312E-02 
1275	 3.63275918251706E-02 
1276	 3.64813761084837E-02 
1277	 3.70917074147018E-02 
1278	 3.81397657684198E-02 
1279	 3.67737355036247E-02 
1280	 3.70488994218744E-02 
1281	 3.79138451199185E-02 
1282	 3.93729576251653E-02 
1283	 3.96626476469596E-02 
1284	 4.10576472428895E-02 
1285	 4.10649376413104E-02 
1286	 0.038601320239877 
1287	 3.76224300705063E-02 
1288	 3.65344320436509E-02 
1289	 3.63589847086028E-02 
1290	 3.62450499293048E-02 
1291	 3.95039320743003E-02 
1292	 3.89841593743811E-02 
1293	 0.038124815231225 
1294	 4.05853368252133E-02 
1295	 4.00881793192868E-02 
1296	 3.82217792540309E-02 
1297	 3.80020167299581E-02 
1298	 3.70604483357244E-02 
1299	 3.33912634063943E-02 
1300	 0.032892418574444 
1301	 3.59562843360494E-02 
1302	 3.63373521548919E-02 
1303	 3.65548034842999E-02 
1304	 0.038102023572816 
1305	 4.00672987651271E-02 
1306	 3.99335672857513E-02 
1307	 3.59883880636304E-02 
1308	 3.52859356091576E-02 
1309	 3.57513135830664E-02 
1310	 3.52209980487632E-02 
1311	 3.51695521396218E-02 
1312	 3.51173094474481E-02 
1313	 3.49275419373903E-02 
1314	 3.51550777086456E-02 
1315	 3.54063065325909E-02 
1316	 3.59354381829371E-02 
1317	 3.69625627626987E-02 
1318	 3.77404043321698E-02 
1319	 3.94168430240134E-02 
1320	 3.98095373300273E-02 
1321	 3.87191339444453E-02 
1322	 3.86129366287677E-02 
1323	 3.96612802393214E-02 
1324	 4.42730867884136E-02 
1325	 5.03492287050825E-02 
1326	 4.74191037657985E-02 
1327	 3.48500479730784E-02 
1328	 3.22811819333166E-02 
1329	 0.037541220736561 
1330	 3.01272716086713E-02 
1331	 3.08830844699669E-02 
1332	 3.74881072550933E-02 
1333	 3.41377927951746E-02 
1334	 4.05192510099027E-02 
1335	 4.41543825162245E-02 
1336	 4.41156709119444E-02 
1337	 4.44742566554174E-02 
1338	 5.02326559322605E-02 
1339	 4.72616674177077E-02 
1340	 3.29185718375065E-02 
1341	 2.90201246235324E-02 
1342	 0.022215373555245 
1343	 1.72624788769716E-02 
1344	 3.60158662364734E-02 
1345	 3.39704049725265E-02 
1346	-7.66158858722144E-03 
1347	-1.88769753735681E-02 
1348	-1.32455163636785E-02 
1349	-3.07547767174515E-02 
1350	-9.02792751207944E-03 
1351	 1.00099926704209E-02 
1352	-5.05316185670225E-02 
1353	-0.177381655908279 
1354	-0.868734614038045 
1355	-0.330629180569373 
1356	 0.071745318839063 
1357	-0.216294180483951 
1358	-0.184076768376523 
1359	-0.923599503321585 
1360	-1.95021489595392 
1361	 5.32696966889393 
1362	-0.957407977362004 
1363	 0.117643433892459 
1364	-8.91286791153831E-02 
1365	-0.517766896372876 
1366	-0.503374101753585 
1367	-2.03765968397792 
1368	-2.17911519786663 
1369	 0.38111212277192 
1370	 0.784982341826442 
1371	 1.38730980526098 
1372	 2.35304401814825 
1373	-5.42695177025587E-02 
1374	 0.751970234185429 
1375	 7.99471783502697 
1376	 8.81679854515338 
1377	 4.71200755421837 
1378	 10.2480327756476 
1379	-1.50157880142234 
1380	-1.72082600680341 
1381	 0.163145787932562 
1382	-3.15423498472476E-02 
1383	-2.85423082070573 
1384	-9.54364494209028 
1385	-1.62224636092921 
1386	-1.1505844012182 
1387	-15.0212370424217 
1388	 2.77475100611592 
1389	 0.447475737809094 
1390	 0.531814878790431 
1391	 2545.49386118544 
1392	 1.05145678551241 
1393	 16.8328691737019 
1394	 0.791945718503263 
1395	-3.45200418112983E-02 
1396	 1.69975785369396 
1397	 0.310757623294329 
1398	-5.41577272201371E-02 
1399	 0.627386071856892 
1400	-1.06514802303451 
1401	-1.11181982134847 
1402	-1.7116264651583 
1403	-2.02096921953387 
1404	-1.1349357616157 
1405	-1.0866417486691 
1406	-0.237159029609823 
1407	-0.320511968958915 
1408	-2.68911246812061 
1409	-3.6910223464118 
1410	-0.592457539856022 
1411	-0.640945803558965 
1412	-0.357087094477638 
1413	 19.1835034685163 
1414	 6.46836919697295 
1415	-23.7116472164172 
1416	-1.05387756379908 
1417	-0.907646069702607 
1418	-0.986077722171734 
1419	-0.974010154491027 
1420	-2.09495892205444 
1421	-2.63187285497304 
1422	-3.31880299530774 
1423	-1.40680801607474 
1424	 4.21161304196285E-02 
1425	 0.201228468555508 
1426	-0.420948501563408 
1427	-0.410136170489526 
1428	-0.118631680561551 
1429	 2.19275899175766 
1430	-1.40780643586378 
1431	-1.50728448448231 
1432	 0.686436973644277 
1433	 1.33295121163501 
1434	-1.8140536325208 
1435	-1.13671991633505 
1436	-0.906014729422152 
1437	-0.561143940938845 
1438	-0.3522287922761 
1439	 0.329206018875945 
1440	 0.26907513782334 
1441	-50.0037393150097 
1442	 0.541802605029238 
1443	 1.31291350538683 
1444	 1.36730205633039 
1445	 1.05793424597337 
1446	 0.73194362646627 
1447	-0.134561794913241 
1448	-5.75206824421986E-02 
1449	 2.88021455993435E-02 
1450	-0.228808622268549 
1451	-0.175345201162261 
1452	 4.33574416334154E-02 
1453	-3.04917526613328E-02 
1454	-0.242864467219451 
1455	-1.64837968953663 
1456	-1.90862397092856 
1457	-0.92632088719662 
1458	-0.877342874494573 
1459	-0.230613686988841 
1460	 1.40429029970522E-02 
1461	-0.195320344267078 
1462	-0.323346097064848 
1463	-0.24106833826109 
1464	-0.100780274268968 
1465	-0.151791320756225 
1466	-0.32320926743261 
1467	-0.422730243064525 
1468	-0.272781035085808 
1469	-0.393894563579138 
1470	-0.492713657137075 
1471	-0.284133592071563 
1472	-0.289657389165736 
1473	-0.779360292732869 
1474	-0.718218458098833 
1475	-0.359539098226925 
1476	-0.283442022825548 
1477	-7.06920801889811E-02 
1478	-1.31254844234191E-02 
1479	-0.155600691788598 
1480	-0.146012977416 
1481	-0.195260813199249 
1482	-0.157592207203032 
1483	 3.27778002038692E-02 
1484	 9.84044299919247E-02 
1485	 0.105266001531736 
1486	 8.01798834357351E-02 
1487	-4.80450940337165E-02 
1488	 2.71166635386012E-02 
1489	 0.242473702613027 
1490	 0.233623425765976 
1491	 0.163381833252316 
1492	 0.153777968487026 
1493	 9.85445696359224E-02 
1494	 5.34023499545981E-02 
1495	 6.48722585125488E-02 
1496	 6.07267118035763E-02 
1497	-1.00022314883418E-04 
1498	-1.12017984173838E-02 
1499	 3.12308560932125E-02 
1500	 4.15440104554572E-02 
1501	 4.98844248425576E-02 
1502	 4.44381264964713E-02 
1503	 1.26087431449691E-02 
1504	 3.68618238148587E-03 
1505	 1.19951446627764E-04 
1506	 1.0619832384486E-03 
1507	 1.20790692294427E-02 
1508	 3.75826843690158E-02 
1509	 7.65767377641399E-02 
1510	 9.32944138900971E-02 
1511	 6.15450877691212E-02 
1512	 3.95284917705891E-02 
1513	 0.067350040776114 
1514	 7.10706806980454E-02 
1515	 4.56373848438892E-02 
1516	 6.34216357732954E-02 
1517	 7.22963477044834E-02 
1518	 4.32936278423251E-02 
1519	 3.41022868048924E-02 
1520	 4.61468108233871E-02 
1521	 2.90731564953455E-02 
1522	 6.82256032611009E-03 
1523	 2.38808194129393E-02 
1524	 3.74061528471972E-02 
1525	 4.17634617411361E-02 
1526	 5.24680045978965E-02 
1527	 5.75864959094632E-02 
1528	 5.70896041160235E-02 
1529	 5.04790988637855E-02 
1530	 4.50688241228892E-02 
1531	 5.28472110638311E-02 
1532	 6.21869809175202E-02 
1533	 0.061115569561971 
1534	 5.96303191511555E-02 
1535	 5.03455270212426E-02 
1536	 4.02286911904662E-02 
1537	 4.96851932439686E-02 
1538	 5.48386638700525E-02 
1539	 4.90191329199405E-02 
1540	 5.10253765894956E-02 
1541	 5.08696689248633E-02 
1542	 4.65041945600714E-02 
1543	 5.04617213758051E-02 
1544	 5.32454521677942E-02 
1545	 4.49812599864297E-02 
1546	 4.42598669504591E-02 
1547	 4.79932323043357E-02 
1548	 4.06041191605154E-02 
1549	 4.17696537225497E-02 
1550	 5.17176998734649E-02 
1551	 5.11094530629068E-02 
1552	 4.60642974412857E-02 
1553	 4.20964380657371E-02 
1554	 0.035128792176779 
1555	 3.30290088622285E-02 
1556	 4.03267365026096E-02 
1557	 4.43017734833917E-02 
1558	 4.36733900390543E-02 
1559	 4.44515481002344E-02 
1560	 3.92474667161166E-02 
1561	 3.41299707912234E-02 
1562	 3.50032988574175E-02 
1563	 4.02662520149599E-02 
1564	 4.90322128298984E-02 
1565	 5.19310576366397E-02 
1566	 5.32016419949637E-02 
1567	 4.97217677319821E-02 
1568	 0.041597059189272 
1569	 4.42495864325266E-02 
1570	 4.42236590565429E-02 
1571	 3.91660417065622E-02 
1572	 4.16429535318674E-02 
1573	 0.043491240002228 
1574	 4.44430925729587E-02 
1575	 4.39741499930034E-02 
1576	 3.88954294435118E-02 
1577	 3.88875610770073E-02 
1578	 4.25100175656144E-02 
1579	 4.24721221733802E-02 
1580	 3.79516481151994E-02 
1581	 3.28052647892103E-02 
1582	 3.23328940745528E-02 
1583	 3.72442797146508E-02 
1584	 0.042089558745172 
1585	 4.08178116011028E-02 
1586	 4.06752075919924E-02 
1587	 4.43681144700906E-02 
1588	 4.83960509431156E-02 
1589	 5.52139635407012E-02 
1590	 5.73001709187835E-02 
1591	 4.77344296188179E-02 
1592	 4.04853249630974E-02 
1593	 4.03488130256432E-02 
1594	 0.037333322956817 
1595	 3.34561857225523E-02 
1596	 3.73579539669418E-02 
1597	 4.18473787185299E-02 
1598	 3.82773112384823E-02 
1599	 3.73775522628621E-02 
1600	 4.11712650663531E-02 
1601	 4.31535100039136E-02 
1602	 4.43841416369435E-02 
1603	 4.48219454788873E-02 
1604	 4.31740383082621E-02 
1605	 0.039609018342044 
1606	 3.78311972048077E-02 
1607	 4.19668210944605E-02 
1608	 4.32808612950254E-02 
1609	 3.76099209113192E-02 
1610	 3.73812092834599E-02 
1611	 4.59105652168145E-02 
1612	 0.050306340627968 
1613	 4.96945765864486E-02 
1614	 5.01569973638297E-02 
1615	 4.57805892067029E-02 
1616	 4.15035132630543E-02 
1617	 4.45371651455277E-02 
1618	 4.82500263868681E-02 
1619	 4.54891680020872E-02 
1620	 4.08363736058219E-02 
1621	 0.042872613917246 
1622	 4.37533532110845E-02 
1623	 3.96860129029544E-02 
1624	 3.84333987756773E-02 
1625	 0.035962709640328 
1626	 0.0347102112882 
1627	 4.04515812205851E-02 
1628	 4.30983581836908E-02 
1629	 4.44088034470373E-02 
1630	 4.52052804150048E-02 
1631	 0.040824158506533 
1632	 4.03613613805824E-02 
1633	 4.43231482361341E-02 
1634	 4.60895948696505E-02 
1635	 4.90234350723256E-02 
1636	 5.53289327251282E-02 
1637	 5.55573296436259E-02 
1638	 5.02296794370247E-02 
1639	 4.92174515228775E-02 
1640	 4.94191775539357E-02 
1641	 0.044840404073879 
1642	 4.17079053387362E-02 
1643	 4.25514582234767E-02 
1644	 0.039374801254903 
1645	 3.66008257032195E-02 
1646	 4.22742092699763E-02 
1647	 4.57486132149982E-02 
1648	 4.19991990039495E-02 
1649	 4.04813347957578E-02 
1650	 3.78945867434433E-02 
1651	 3.28170740780434E-02 
1652	 3.60526245602526E-02 
1653	 4.43426645902313E-02 
1654	 4.49855145548332E-02 
1655	 4.00190549259462E-02 
1656	 3.95131201780066E-02 
1657	 4.11227704986239E-02 
1658	 0.039498726725051 
1659	 3.74894867580111E-02 
1660	 3.72938420368321E-02 
1661	 3.15310928905951E-02 
1662	 3.24940972555689E-02 
1663	 4.44684555974425E-02 
1664	 4.60488842645546E-02 
1665	 4.17890338089025E-02 
1666	 4.56744388077664E-02 
1667	 4.81777990029671E-02 
1668	 4.89115724018171E-02 
1669	 5.56204325546997E-02 
1670	 4.99081592050424E-02 
1671	 4.55521316429576E-02 
1672	 4.67365152893607E-02 
1673	 4.78264273657744E-02 
1674	 5.13123526490944E-02 
1675	 4.91205439398336E-02 
1676	 4.46844077184232E-02 
1677	 4.15100586849377E-02 
1678	 3.85049192441021E-02 
1679	 3.86186002924242E-02 
1680	 4.03991373786852E-02 
1681	 3.99295886530876E-02 
1682	 3.80186521669408E-02 
1683	 4.16545200684657E-02 
1684	 4.79967182003755E-02 
1685	 4.67165556811617E-02 
1686	 3.95998025678809E-02 
1687	 3.72768432910347E-02 
1688	 0.040213833569458 
1689	 4.12158039269375E-02 
1690	 4.34598226398039E-02 
1691	 4.81866925923578E-02 
1692	 4.62014628420674E-02 
1693	 4.42624689304643E-02 
1694	 5.10583507094049E-02 
1695	 5.26163239562819E-02 
1696	 4.25970163763467E-02 
1697	 3.82979050734905E-02 
1698	 4.25686492954065E-02 
1699	 4.61238110643953E-02 
1700	 4.90446116099419E-02 
1701	 4.79965361817903E-02 
1702	 4.32943899409947E-02 
1703	 3.64331294900061E-02 
1704	 3.57560792898991E-02 
1705	 4.34013989463842E-02 
1706	 3.95227956188135E-02 
1707	 3.16078865220783E-02 
1708	 3.29734654890925E-02 
1709	 3.28500466064445E-02 
1710	 3.36914849625265E-02 
1711	 3.41478516968353E-02 
1712	 3.01222677443916E-02 
1713	 0.024984993113576 
1714	 2.76884816822946E-02 
1715	 3.94798209952054E-02 
1716	 0.03964980363687 
1717	 4.70251436037874E-02 
1718	 4.91076229661424E-02 
1719	 4.64290895911984E-02 
1720	 4.47132835486175E-02 
1721	 3.75958234107205E-02 
1722	 4.17893635175842E-02 
1723	 4.47893363299056E-02 
1724	 4.72262999894286E-02 
1725	 6.45354552668221E-02 
1726	 6.05226944128582E-02 
1727	 4.35054139589452E-02 
1728	 3.94104311881041E-02 
1729	 4.14392369361076E-02 
1730	 4.97734974949609E-02 
1731	 5.89044492225298E-02 
1732	 6.41871309353348E-02 
1733	 5.53376398712804E-02 
1734	 4.05428226298425E-02 
1735	 4.30132767755046E-02 
1736	 4.69056478030844E-02 
1737	 3.59503374240404E-02 
1738	 2.56872120595011E-02 
1739	 2.24649802418035E-02 
1740	 2.67046182996405E-02 
1741	 4.13213384114184E-02 
1742	 0.058373207355056 
1743	 5.85492024943506E-02 
1744	 3.61279766764418E-02 
1745	 2.38099643856243E-02 
1746	 2.73072007623097E-02 
1747	 2.63540654014544E-02 
1748	 4.06046722349125E-02 
1749	 0.047324627862379 
1750	 4.15616660728731E-02 
1751	 4.30115038426915E-02 
1752	 5.11704567069516E-02 
1753	 4.67019386188199E-02 
1754	 3.40842158315329E-02 
1755	 3.69595281033959E-02 
1756	 4.68103166847539E-02 
1757	 3.82689697808306E-02 
1758	 3.35482128743045E-02 
1759	 2.75589951726962E-02 
1760	 3.66377769481536E-02 
1761	 6.16259213959295E-02 
1762	 6.11117598601319E-02 
1763	 0.053345983349945 
1764	 4.00008476813063E-02 
1765	 2.23243377765135E-02 
1766	 3.89578479283139E-02 
1767	 5.28276262045002E-02 
1768	 0.053052932797167 
1769	 5.18804120861981E-02 
1770	 3.98938075299553E-02 
1771	 3.00569613973567E-02 
1772	 3.10084151610985E-02 
1773	 0.063434785671813 
1774	 9.51662412615436E-02 
1775	 5.03463887061884E-02 
1776	 3.58444714376639E-02 
1777	 4.45306612572917E-04 
1778	-2.42893928250445E-02 
1779	 2.76548558646508E-02 
1780	 4.25258236791414E-02 
1781	 0.021735303808214 
1782	 7.88742575842143E-04 
1783	-0.077978876708118 
1784	-6.69623897844108E-02 
1785	 3.14804372102213E-02 
1786	 6.52047709970667E-02 
1787	 0.155841470994244 
1788	 0.207724733000406 
1789	 0.139060909528231 
1790	 5.52907570531567E-02 
1791	 0.192039018181918 
1792	 0.334271722469084 
1793	 0.357252405639216 
1794	 0.397453532543083 
1795	 0.276305450710654 
1796	-0.131517373107671 
1797	-0.617205161121559 
1798	-0.542547697836271 
1799	-0.33965315028867 
1800	 0.549099639663021 
1801	 0.719254519340091 
1802	-0.185704158118566 
1803	-0.990862755995498 
1804	-2.75745657121757 
1805	-3.53656017152339 
1806	-8.3875809802247 
1807	-6.63339087542024 
1808	 5.65314748126709E-02 
1809	 0.93280396313421 
1810	 1.25930690387833 
1811	 0.840432022978915 
1812	 0.157665605319105 
1813	-0.579202231049591 
1814	-3.81430279367481 
1815	-13.3304485071758 
1816	 1.15760008792744 
1817	-1.03762861510579 
1818	-2.10971998577544 
1819	 62.7462218367484 
1820	 2.37467052399012 
1821	 0.317850484909213 
1822	-0.23732900443049 
1823	 19.464256544929 
1824	-1.30673171204543 
1825	-0.444372973689583 
1826	-0.393149829042019 
1827	 0.103352528174277 
1828	 0.124991867829048 
1829	 4.98784098381463 
1830	 1.52172802587368 
1831	-1.33190273804226 
1832	-1.55741498118911 
1833	-3.13594008007078 
1834	-5.15513259518846 
1835	-11.6375222421842 
1836	-155.375503251385 
1837	 4.30548819673206 
1838	 3.01926435443413 
1839	 1.94121073939695 
1840	 1.00932249216048 
1841	 0.075762101758424 
1842	 0.387575981179647 
1843	 0.287513189209046 
1844	-0.151543938178612 
1845	-0.212165422566513 
1846	-0.480748490544782 
1847	-0.674321111699636 
1848	-0.633907510596162 
1849	-0.584149809373439 
1850	-0.54604342664717 
1851	-0.596938770041139 
1852	-0.688146610343274 
1853	-0.841905612803441 
1854	-1.16182193354282 
1855	-18.6581303388045 
1856	 3.89653644870897 
1857	 1.53208613428749 
1858	 1.45176660963015 
1859	-4.46315785975805 
1860	-3.96329216701515 
1861	-6.16540336344547 
1862	 1.70712765841597 
1863	 7.49015025692578E-02 
1864	-0.505735324010134 
1865	-0.823627015417579 
1866	-5.45217649138059 
1867	 11.5952298073451 
1868	 2.43217148375166 
1869	 2.07017468419995 
1870	-835.678265865786 
1871	-1.33860558911027 
1872	 1.27537281937836 
1873	 1.57080939068955 
1874	 3.1333910100992 
1875	 4.89810550521775 
1876	 4.42850046411468 
1877	 2.1496739931503 
1878	 2.44898448741983 
1879	 3.75629832317354 
1880	 5.16992387228203 
1881	 35.1941735394926 
1882	-58.9259549161568 
1883	 25.2106774106528 
1884	 9.05395284304626 
1885	 5.39161828435285 
1886	 6.95777373040425 
1887	 4.63063777336152 
1888	 1.03504211999622 
1889	 0.72369951884141 
1890	 0.809210639495221 
1891	 0.985559617449233 
1892	 1.61890611260213 
1893	 3.69764941088186 
1894	 5.90617229809132 
1895	 6.01677880798202 
1896	 2.62286330380128 
1897	 2.36066513272215 
1898	 3.24906033499213 
1899	 2.30407895170426 
1900	 3.25287863746182 
1901	-5.86604259393874 
1902	-3.5175990654103 
1903	-6.144148404032 
1904	-4.23283723674427 
1905	-3.39690014613777 
1906	-1.80031621072 
1907	-1.13378327693834 
1908	-0.794719217912774 
1909	-0.498897211996764 
1910	-0.528033465974244 
1911	-0.520126608697867 
1912	-4.07182166062309E-02 
1913	 0.101626404380241 
1914	 0.35855328500379 
1915	 0.426798397204776 
1916	 0.141348494066247 
1917	 0.177540890471184 
1918	-0.349456143223759 
1919	-0.737907951258362 
1920	-2.377105389577 
1921	-4.78022993994854 
1922	-9.72622333523357 
1923	 5.35644141080933 
1924	-25.6824780744818 
1925	 6.59697120679566 
1926	 19.5501256301371 
1927	 10.59360557741 
1928	-4.73193475715023 
1929	-3.35948215533499 
1930	-1.85424100860473 
1931	-3.63058706131313 
1932	 5.30241235555613 
1933	 3.0160015773539 
1934	 1.3801264807863 
1935	 1.60405367793175 
1936	 1.63027121324954 
1937	 2.38335374107869 
1938	 5.23276993977623 
1939	 6.00651178823033 
1940	 5.67810554210279 
1941	 5.60373302863199 
1942	 2.70333364609489 
1943	 1.78699752485978 
1944	 0.95281964471882 
1945	 0.957137484573407 
1946	 0.950417201787428 
1947	 0.579865011893572 
1948	 0.524022198092095 
1949	 1.31631565682195 
1950	 2.22149869426303 
1951	 2.27097610160238 
1952	 2.87279254594934 
1953	 2.90422891050819 
1954	 1.42717046344421 
1955	 1.38298184329835 
1956	 10.3212751935289 
1957	-8.21051808761767 
1958	-0.387758456836304 
1959	-0.191173229359196 
1960	-0.156691714496833 
1961	 0.17718157937971 
1962	-7.80464194100242E-02 
1963	-0.403030878194552 
1964	-0.382957143296138 
1965	-2.49932805227023 
1966	-9.59001468340058 
1967	-8.95733077549797 
1968	 10.9688152942119 
1969	 1.64297644582782 
1970	 1.06380406830419 
1971	 1.97871851863017 
1972	 1.95282290647493 
1973	 2.27831843768939 
1974	 8.95033546810782 
1975	 11.2551030823175 
1976	 5.13044868228264 
1977	-3.46709765863756 
1978	-2.24809692037705 
1979	-1.86969798006388 
1980	-1.68102101439376 
1981	-2.18765227723964 
1982	-2.32573392699887 
1983	-290.764204263183 
1984	 2.04143620248906 
1985	 3.29883276880363 
1986	 2.2641640438478 
1987	 4.94890892329196E-02 
1988	-1.25004485633676 
1989	-0.580830014955955 
1990	-0.385217574692199 
1991	 0.104029896478493 
1992	 0.545955259702785 
1993	 0.405973152314285 
1994	 0.67719683699882 
1995	 28.3496781940425 
1996	 1.40690290027569 
1997	-1.75984726165216 
1998	-2.54379657130308 
1999	 9.74254125283043 
2000	 4.99577191262084 
2001	 12.5583129306887 
2002	 6.55233957220307 
2003	 1.10186051724232 
2004	 0.614063925727839 
2005	 0.573116645384946 
2006	 0.23624232296754 
2007	 0.351452354982186 
2008	 0.691244441764209 
2009	 0.989069009620017 
2010	 1.57348069879535 
2011	 2.59020316799873 
2012	 16.9935740191463 
2013	-4.94671997058178 
2014	-9.16933963970738 
2015	-8.50359413431741 
2016	-8.04063879116724 
2017	-5.57298486267522 
2018	-0.656354514636503 
2019	-0.280697249369216 
2020	-5.89174521665746E-02 
2021	-0.2617091853493 
2022	-1.9974432455531 
2023	-2.84856727916461 
2024	-2.71317481236095 
2025	-2.24232397998982 
2026	-2.98270047664794 
2027	-3.74954293642881 
2028	-2.42002186944075 
2029	-2.97702896207204 
2030	-2.06491661411869 
2031	-1.4260312151971 
2032	-1.36947001386645 
2033	-1.13801136692367 
2034	-1.18192991808921 
2035	-1.1012731774075 
2036	-1.44585267901532 
2037	-2.37900343013217 
2038	-1.91058692878349 
2039	-1.5625344796151 
2040	-0.795033565891269 
2041	-0.574604904662121 
2042	-0.315809111151612 
2043	-0.356255965508919 
2044	-0.677375840738881 
2045	-2.28366479524977 
2046	 11.6276940753959 
2047	-23.3802731653464 
2048	-3.48737023552541 
2049	-1.31030143194211 
2050	-0.828333297658104 
2051	-0.600116434593181 
2052	-0.502931840320305 
2053	-0.52127886363558 
2054	-0.485228868693349 
2055	-0.466478698887239 
2056	-0.439091628712569 
2057	-0.395569276003698 
2058	-0.455518165220343 
2059	-0.678193932625437 
2060	-0.6955998169693 
2061	-0.634205324678406 
2062	-0.59341065216149 
2063	-0.76527886730523 
2064	-0.944975799077187 
2065	-1.56842661017913 
2066	-21.1171085052856 
2067	-8.66034448921805 
2068	-0.979640882699616 
2069	-0.63662114447189 
2070	-0.47745243582197 
2071	-0.2842719224261 
2072	-0.160485765803078 
2073	-0.110805910591677 
2074	 8.98826578021047E-02 
2075	 0.127189840988295 
2076	-0.184889165335956 
2077	-0.290871093368018 
2078	-0.336519424514788 
2079	-0.423031973564594 
2080	-0.379767623691789 
2081	-0.2688403514746 
2082	-0.635389394239195 
2083	-0.638896705693202 
2084	-0.553259359803616 
2085	-0.578728827124137 
2086	-0.58115797935794 
2087	-0.757773535340101 
2088	-1.10371511749379 
2089	-1.86061263578929 
2090	-2.04646795092027 
2091	-1.3911031384814 
2092	-0.490782117877885 
2093	 0.178033199182197 
2094	 0.2255037755996 
2095	 0.110446422121308 
2096	-7.50121797962234E-02 
2097	-0.455871798010913 
2098	-0.579155200882153 
2099	-0.62317339653156 
2100	-0.620770613054648 
2101	-0.496077806613887 
2102	-0.629379382156442 
2103	-0.490279418864365 
2104	-0.348560967948062 
2105	-0.382848855058286 
2106	-0.139850037989136 
2107	 7.14048915224786E-02 
2108	 0.124058315107248 
2109	 0.131404432365361 
2110	 0.140565707296493 
2111	 8.27914155939484E-02 
2112	-5.31293598479711E-02 
2113	-0.118724794861411 
2114	-0.142529216218428 
2115	-0.236102210708887 
2116	-0.279555148227395 
2117	-0.299842998535896 
2118	-0.354080611571849 
2119	-0.373759349368056 
2120	-0.341437816848485 
2121	-0.325341787392543 
2122	-0.263237312522663 
2123	-0.314033007785407 
2124	-0.538401473485169 
2125	-0.396632367707465 
2126	-0.431868645071125 
2127	-0.488437591578278 
2128	-7.08307615072606E-02 
2129	-0.166148938834021 
2130	-0.284629146773965 
2131	-0.250413256348528 
2132	-0.223826882767755 
2133	-0.200144777387023 
2134	-0.196985735307283 
2135	-0.167237297063921 
2136	-0.114766620545617 
2137	-0.105412265789579 
2138	-4.80612247300378E-02 
2139	 0.174831292944688 
2140	 0.160892219588706 
2141	 1.02619040405391E-02 
2142	-0.103680151433317 
2143	-0.317689487884328 
2144	-0.516689468535443 
2145	-0.590797853508444 
2146	-0.572425354464487 
2147	-0.540422173593658 
2148	-0.465554638287556 
2149	-0.318315533256736 
2150	-0.217880898423416 
2151	-0.118273033663824 
2152	-2.68256457880467E-02 
2153	-3.47344367432115E-02 
2154	-0.124051630291776 
2155	-0.252691928612454 
2156	-0.304034926718857 
2157	-0.270903762387055 
2158	-8.59737529143636E-02 
2159	-7.68405127994606E-02 
2160	-8.43839677952745E-02 
2161	-0.106455077625735 
2162	-0.284827921346744 
2163	-0.305929391026518 
2164	-0.18855480446913 
2165	-0.174090691990594 
2166	-0.120569007659905 
2167	-0.148599703828517 
2168	-0.377109623807979 
2169	-0.474361039107671 
2170	-0.564305049037206 
2171	-0.691135486102941 
2172	-0.726761763415979 
2173	-0.451677774164579 
2174	-0.334136062787102 
2175	-0.592899157280333 
2176	-0.302725308718002 
2177	-9.45490695174663E-02 
2178	-7.34308296471704E-02 
2179	 0.187420381074261 
2180	 0.254931545124365 
2181	 8.52495665690342E-02 
2182	-6.02378279248531E-02 
2183	-4.38812692145392E-02 
2184	 1.51012068817204E-03 
2185	-3.51746817413044E-03 
2186	-6.46580496962391E-02 
2187	-0.132025133699447 
2188	-0.256833426781383 
2189	-0.609866197651125 
2190	-0.626546615300664 
2191	-0.565816960877892 
2192	-0.497678084190264 
2193	-0.248957607822912 
2194	-0.225481626244432 
2195	-0.251830008884456 
2196	-0.263694747225755 
2197	-0.349076607345426 
2198	-0.417521239733293 
2199	-0.554476407805519 
2200	-0.524911114640871 
2201	-0.485877382199207 
2202	-0.67017370646137 
2203	-0.63182656050723 
2204	-0.613487424317589 
2205	-0.780258832657863 
2206	-0.857550341138432 
2207	-1.02690546798372 
2208	-1.01057876075674 
2209	-0.752957558824407 
2210	-0.581084967293798 
2211	-0.38040949957522 
2212	-0.361954102451526 
2213	-0.589919516637206 
2214	-0.613093206593894 
2215	-0.538611746305201 
2216	-0.588900767930393 
2217	-0.615233083120841 
2218	-0.598756447391964 
2219	-0.687501772762314 
2220	-1.00817749212122 
2221	-1.12556376778938 
2222	-1.23735696203785 
2223	-1.16342333024845 
2224	-0.645536513296241 
2225	-0.436828826675055 
2226	-0.577538401680925 
2227	-0.53241861942876 
2228	-0.370693888346958 
2229	-0.351985182574864 
2230	-0.386602396574264 
2231	-0.370689634365671 
2232	-0.635380649419511 
2233	-0.617892736264557 
2234	-0.188969837221724 
2235	 0.126436677847375 
2236	 0.134328833039485 
2237	 4.03317100736941E-02 
2238	-0.242588920199036 
2239	-0.494721683644526 
2240	-0.464837188017145 
2241	-0.430191949960855 
2242	-0.489397074818204 
2243	-0.501934233931007 
2244	-0.464081122625583 
2245	-0.411613711499871 
2246	-0.322197326802717 
2247	-0.193252685109771 
2248	-0.194628542000497 
2249	-0.621669130185039 
2250	-0.795381886366663 
2251	-0.591748094540277 
2252	-0.721637674773249 
2253	-1.0785932069746 
2254	-1.77991607552792 
2255	-2.47734229659526 
2256	-3.1863285346449 
2257	-2.28574200689907 
2258	-0.865661671714042 
2259	-0.465621303749771 
2260	-0.328633316927014 
2261	-0.164323780524242 
2262	-0.331943145579096 
2263	-1.36846143241425 
2264	-1.89742533053154 
2265	-3.5589765992327 
2266	-5.14253345872585 
2267	-3.06541924742001 
2268	-2.82131192487894 
2269	-4.06212282409144 
2270	-2.04747500443884 
2271	-0.947482846242236 
2272	-0.914073939112563 
2273	-0.658125579207248 
2274	-0.540879612839457 
2275	-0.833726726945813 
2276	-1.04779133579657 
2277	-0.915872300661396 
2278	-0.974311309378229 
2279	-1.2483694045562 
2280	-1.51714328143242 
2281	-2.02528109941491 
2282	-2.48534319364326 
2283	-1.43229604750014 
2284	-0.641444432685051 
2285	-0.299424926441793 
2286	-0.14579098270582 
2287	 2.0677255426335 
2288	 1.21717650003116 
2289	 2.18500928958829 
2290	 2.70590806805248 
2291	-7.01186039211701 
2292	-1.45190378278112 
2293	-2.58726907562914 
2294	-2.66172440827077 
2295	-9.57429726296732 
2296	-23.2681849255453 
2297	-3.41697024510049 
2298	-4.82370459397376 
2299	 24.9828487104751 
2300	 4.05124189307613 
2301	 2.8633837431853 
2302	 3.90570150844254 
2303	-4.51088684102072 
2304	-1.91392621544235 
2305	-2.10257306947665 
2306	-3.29071272438116 
2307	-5.15779742060317 
2308	 121.713414696948 
2309	-40.2821528253956 
2310	-22.6947304006609 
2311	 3.91093937863811 
2312	 2.36239119373983 
2313	 1.8998405095214 
2314	 3.51845612350803 
2315	 55.485742048293 
2316	-21.2088521846013 
2317	-5.73868744017545 
2318	-4.18394163076195 
2319	-11.3649927628881 
2320	 13.1502664726724 
2321	 55.4407477235294 
2322	 2.62230755870704 
2323	 3.20713338436389 
2324	-56.958827924634 
2325	-3.2348769166506 
2326	-2.55507511631158 
2327	-1.23787099613865 
2328	-1.01556440597002 
2329	-0.858009445688844 
2330	-0.104406590991076 
2331	 4.64651885280347E-02 
2332	-0.15971436478404 
2333	-1.55950518647147 
2334	-1.77301329259063 
2335	-1.18686260736441 
2336	-1.08711125480838 
2337	-0.857433610990199 
2338	-1.46956056020285 
2339	 4.00725548974661 
2340	-6.7861957471814 
2341	-3.98110104229275 
2342	-20.5530721632588 
2343	-13.4287230676561 
2344	 6.22313546687839 
2345	 2.62651008197065 
2346	 2.4896101968039 
2347	 2.2477149888328 
2348	 1.28953004840029 
2349	 0.947208695485293 
2350	 1.41572050926349 
2351	 1.48377514891097 
2352	 1.93228775392398 
2353	 4.01698016671575 
2354	 3.69560281270005 
2355	 2675.14953083727 
2356	-4.70054909437895 
2357	 27.7066255319667 
2358	 2.65899306981167 
2359	 1.40109986781324 
2360	 9.35126206388273E-02 
2361	 0.240311397895304 
2362	 4.48946870141542 
2363	-13.9510386404286 
2364	 5.98402585079069 
2365	 4.22276925659474 
2366	 1.72955212400761 
2367	 1.35014605099567 
2368	 1.22178886598053 
2369	 1.33882194006443 
2370	 3.06546646996068 
2371	 3.2253974247307 
2372	 2.07995239989305 
2373	 2.4556618045825 
2374	-5.60663691616175E-02 
2375	 0.229222499200368 
2376	 2.12683833332396 
2377	 2.04314312830455 
2378	 0.850166443700812 
2379	 0.289507445780553 
2380	-0.391960742432662 
2381	-0.265386512348005 
2382	 0.272332670710785 
2383	 0.854513122223739 
2384	 0.932612397828726 
2385	 1.27261272176192 
2386	 2.21525570569407 
2387	 1.92565984336855 
2388	 3.07063333060197 
2389	-10.1436514769206 
2390	-5.36523167769109 
2391	-3.98637122897078 
2392	-2.44015937700453 
2393	-3.03729344049022 
2394	-7.15371392656289 
2395	 4.09908132070436 
2396	 7.72113037360659E-02 
2397	 0.166735839919997 
2398	 0.209866996438374 
2399	 0.444780146504117 
2400	 0.562427343430815 
2401	 0.196203786015078 
2402	 0.14679422505452 
2403	-9.79516017016094E-02 
2404	-0.115741371468175 
2405	-0.246886253955598 
2406	-0.305788530397956 
2407	-0.391152083863413 
2408	-0.854964087315384 
2409	-0.130091906433013 
2410	-0.361183350208074 
2411	-0.324930129242206 
2412	 1.4910854639315 
2413	 0.843598624739244 
2414	 0.772652052645875 
2415	 1.01182399874184 
2416	 1.2121383575771 
2417	 1.48676876108779 
2418	 2.58254624787228 
2419	 6.21747825995685 
2420	 7.89008928838789 
2421	 12.9841757075548 
2422	 7.15101293252774 
2423	 3.02469714959948 
2424	 2.07693698867917 
2425	-1.19099185623437 
2426	-0.657473620253544 
2427	-9.62484433025152 
2428	-4.6493322282698 
2429	-1.85486464345566 
2430	-2.68355101488294 
2431	-3.05245502923168 
2432	-5.98726907083018 
2433	 18.0878918073508 
2434	-6.6795331707925 
2435	-3.23306901660088 
2436	-4.05402990302478 
2437	-5.37614863167398 
2438	 5.0964497195089 
2439	 2.51004657028785 
2440	 2.74528194610887 
2441	 2.16913613092916 
2442	 1.28863354829117 
2443	 1.04768812790052 
2444	 0.530258366098694 
2445	 0.337724817866281 
2446	 2.12303543031078 
2447	 2.81434044844226 
2448	 9.96753395871697 
2449	-35.2772613132243 
2450	 16.5911261335078 
2451	 3.99854968063082 
2452	 1.50605797711394 
2453	 0.82304274420255 
2454	 1.1212018749199 
2455	 8.87862873429131 
2456	-5.01595867330729 
2457	-3.17167091570637 
2458	-2.16204797927467 
2459	-10.2732368007599 
2460	 4.48621147268158 
2461	 2.92651006662072 
2462	 2.36287440467203 
2463	 3.53755159467432 
2464	 9.03354434963967 
2465	 7.48016473721952 
2466	 5.06852515479735 
2467	 2.79566395390987 
2468	 4.28004823336848 
2469	-8.8248870685343 
2470	-1.75585855855188 
2471	-0.838228364916966 
2472	-1.11173937249741 
2473	-2.16058062457215 
2474	-4.7722253622123 
2475	-6.39747497626718 
2476	-13.0900007228857 
2477	-12.459716572151 
2478	 8.97154777773873 
2479	 0.471735892939177 
2480	 0.697378523181511 
2481	 1.19456427766608 
2482	 1.53588293809901 
2483	 3.02860012722808 
2484	 1.35742788849338 
2485	 1.13514546177509 
2486	 1.15961543311076 
2487	 1.18572280947379 
2488	 1.37208415651598 
2489	 1.16651434248944 
2490	 1.0784064315303 
2491	 1.43987156250084 
2492	 3.57401666404356 
2493	 2.71159741647095 
2494	 2.84161740572145 
2495	 1.19500050763706 
2496	 1.03018044178733 
2497	 1.86730255872232 
2498	 1.42728310710567 
2499	 1.66406978431938 
2500	 2.8702871172736 
