Wavelength	rt0707close00001.asd
350	 8.40757598649103E-02 
351	 8.42781091055593E-02 
352	 8.45173074888431E-02 
353	 8.38677165636394E-02 
354	 8.24052018292225E-02 
355	 8.28151511582016E-02 
356	 8.40709627499935E-02 
357	 8.45915942595414E-02 
358	 8.35764927310466E-02 
359	 8.42678461406838E-02 
360	 8.39322799038221E-02 
361	 8.28981330556429E-02 
362	 8.34711263949621E-02 
363	 8.42311334234932E-02 
364	 8.50863648636566E-02 
365	 8.57505770043747E-02 
366	 0.085384003588152 
367	 8.50105088512591E-02 
368	 0.085021046550455 
369	 8.55456051751119E-02 
370	 8.67355920974089E-02 
371	 8.60699865303459E-02 
372	 8.46911725539895E-02 
373	 8.54703227667115E-02 
374	 8.53756416500749E-02 
375	 8.61999455941015E-02 
376	 8.78783671641289E-02 
377	 8.72681501554967E-02 
378	 8.67885074986531E-02 
379	 8.66052936250632E-02 
380	 8.67102022957622E-02 
381	 0.088452491181786 
382	 8.86832600079224E-02 
383	 8.78560286182688E-02 
384	 8.79748677077395E-02 
385	 8.78429237337303E-02 
386	 8.81145543713829E-02 
387	 8.89731875799752E-02 
388	 0.089896676003367 
389	 8.93869629274441E-02 
390	 8.85991683733017E-02 
391	 8.87121398979433E-02 
392	 8.96560779625776E-02 
393	 9.06269801896679E-02 
394	 9.08286078650272E-02 
395	 9.00560288049746E-02 
396	 9.06209201220848E-02 
397	 9.12918936869526E-02 
398	 9.13725349142419E-02 
399	 9.09162531352389E-02 
400	 9.15435351159761E-02 
401	 9.24033564162676E-02 
402	 9.26752557152144E-02 
403	 9.24348011891847E-02 
404	 9.20855208743482E-02 
405	 9.22860416046862E-02 
406	 9.33841543945129E-02 
407	 9.36604552648644E-02 
408	 9.36248525019372E-02 
409	 9.37126944681864E-02 
410	 9.40997593717716E-02 
411	 9.43455451896313E-02 
412	 9.47113067438424E-02 
413	 9.52309821974943E-02 
414	 9.50305675553351E-02 
415	 9.51140409908213E-02 
416	 9.56342422379911E-02 
417	 9.62830432716583E-02 
418	 0.096377549130526 
419	 9.63064371276441E-02 
420	 9.65731283631314E-02 
421	 9.76560702476352E-02 
422	 9.81160547174698E-02 
423	 9.82423781695634E-02 
424	 9.85431821344825E-02 
425	 0.099031874138496 
426	 9.95959209822377E-02 
427	 0.100081813168156 
428	 0.100417368491583 
429	 0.101213935920183 
430	 0.102013009613009 
431	 0.102513394264409 
432	 0.102732774078392 
433	 0.103381150138399 
434	 0.104100942369233 
435	 0.104506770841199 
436	 0.104847122966127 
437	 0.105620550958438 
438	 0.106509170850097 
439	 0.106854369607231 
440	 0.107365575587858 
441	 0.108002579984596 
442	 0.108576465874006 
443	 0.108790356645156 
444	 0.109496155984556 
445	 0.110142078485985 
446	 0.110190838870038 
447	 0.110734352074058 
448	 0.111358792258527 
449	 0.111882634643629 
450	 0.112327768374011 
451	 0.112745297206361 
452	 0.113032690712001 
453	 0.113250045038129 
454	 0.113845874974091 
455	 0.114340719359432 
456	 0.114710332770212 
457	 0.115038341322743 
458	 0.114985375444696 
459	 0.115240903431702 
460	 0.115843047066933 
461	 0.11614778529922 
462	 0.116539824732186 
463	 0.116957327983898 
464	 0.117291069072954 
465	 0.117526428232069 
466	 0.117718806769008 
467	 0.118018179380121 
468	 0.11856620893252 
469	 0.119147631900679 
470	 0.119432475524009 
471	 0.119455907689471 
472	 0.119737448521902 
473	 0.119816959827351 
474	 0.120122847444858 
475	 0.12095371492195 
476	 0.121366991834203 
477	 0.121695510645414 
478	 0.122012094201766 
479	 0.122237464373376 
480	 0.12271033372805 
481	 0.123223407735915 
482	 0.12364483807824 
483	 0.124158811893091 
484	 0.124489213389233 
485	 0.124744925126128 
486	 0.125174160661232 
487	 0.125893523822976 
488	 0.126644036260419 
489	 0.127169420406992 
490	 0.127280463750283 
491	 0.127533446487201 
492	 0.128276968332203 
493	 0.129370147938562 
494	 0.129473904419978 
495	 0.129881957063147 
496	 0.13072635595367 
497	 0.131521907489527 
498	 0.132006930912099 
499	 0.13254925744116 
500	 0.133231179109085 
501	 0.133573612765689 
502	 0.134352897923427 
503	 0.135248255180871 
504	 0.135761625025624 
505	 0.136008994837942 
506	 0.136576992483727 
507	 0.137481753141181 
508	 0.138275666767255 
509	 0.138874773171526 
510	 0.139433081444472 
511	 0.140073226455944 
512	 0.140754357403604 
513	 0.141345889217833 
514	 0.141946886138054 
515	 0.142719474778959 
516	 0.14348716856891 
517	 0.144204623786479 
518	 0.144942236395909 
519	 0.145895941988306 
520	 0.146718210393091 
521	 0.14750138831647 
522	 0.148378571675752 
523	 0.149255644701388 
524	 0.149921252010817 
525	 0.150579604999497 
526	 0.151659245942806 
527	 0.152455535607794 
528	 0.153341710130316 
529	 0.154424541153975 
530	 0.154939852676485 
531	 0.155705507687433 
532	 0.156802158638905 
533	 0.157977877385517 
534	 0.158843721006581 
535	 0.159673078657013 
536	 0.160505734385512 
537	 0.161065964159366 
538	 0.16201555590098 
539	 0.163188706685719 
540	 0.164258350663793 
541	 0.165089774436935 
542	 0.166035669667454 
543	 0.167106297998262 
544	 0.168098848074266 
545	 0.169022731892064 
546	 0.16984625949523 
547	 0.170622437080305 
548	 0.171568746981885 
549	 0.172601348632839 
550	 0.173543041055832 
551	 0.174277281097394 
552	 0.175223218825198 
553	 0.176211261875799 
554	 0.177166407018695 
555	 0.178153759716069 
556	 0.179186987412879 
557	 0.180152123593371 
558	 0.180972256028059 
559	 0.181809486849271 
560	 0.182686962634768 
561	 0.183562800816669 
562	 0.18438535152134 
563	 0.185447004848839 
564	 0.186325312329613 
565	 0.186825087864659 
566	 0.187340854795039 
567	 0.188127607317548 
568	 0.188959423407332 
569	 0.189501855438195 
570	 0.190083426516672 
571	 0.190636708286324 
572	 0.191178333027416 
573	 0.191830318610498 
574	 0.192441854071942 
575	 0.192802543315016 
576	 0.192881183372406 
577	 0.193250503823716 
578	 0.193498731839815 
579	 0.193619697055994 
580	 0.19384113774099 
581	 0.194048867836428 
582	 0.194207748108414 
583	 0.194285410127647 
584	 0.194232939039026 
585	 0.194081523721428 
586	 0.193961642832237 
587	 0.193986605761614 
588	 0.193909436127511 
589	 0.193737734259411 
590	 0.193540435691307 
591	 0.193399372023128 
592	 0.193097105230019 
593	 0.192517850500269 
594	 0.191698842038748 
595	 0.191040732651132 
596	 0.190167103810854 
597	 0.18899948331642 
598	 0.187703163274557 
599	 0.186924674551411 
600	 0.186095988929029 
601	 0.185118085317698 
602	 0.184960712031259 
603	 0.184792713306689 
604	 0.18449540512255 
605	 0.18421658173099 
606	 0.184183050135246 
607	 0.184459973327987 
608	 0.184746026698085 
609	 0.18442683488552 
610	 0.184664949121671 
611	 0.184911033419749 
612	 0.184623737425683 
613	 0.184294461648879 
614	 0.184702697907324 
615	 0.185259056866033 
616	 0.184797147858138 
617	 0.184866970275229 
618	 0.184998735503928 
619	 0.184915305440153 
620	 0.185007647085563 
621	 0.185164810022879 
622	 0.18513899289023 
623	 0.184823100219279 
624	 0.185023913995924 
625	 0.185222756554478 
626	 0.185256917410692 
627	 0.185341466596838 
628	 0.185189894319983 
629	 0.185008355600196 
630	 0.185008360826979 
631	 0.18520543682988 
632	 0.185210230991547 
633	 0.185087317926294 
634	 0.185097347615071 
635	 0.185099186984248 
636	 0.185002805495681 
637	 0.184855804050904 
638	 0.184895828948223 
639	 0.184750536387742 
640	 0.184694898667928 
641	 0.184946184754073 
642	 0.184661989176938 
643	 0.184696432692099 
644	 0.18486294557267 
645	 0.184177888777727 
646	 0.184128344637724 
647	 0.184174902931159 
648	 0.183833861148781 
649	 0.183686901126774 
650	 0.183680833613231 
651	 0.1834424646606 
652	 0.182646753908227 
653	 0.182115039260303 
654	 0.181657944077815 
655	 0.180999067694577 
656	 0.179951304604693 
657	 0.179176933049205 
658	 0.178828301342848 
659	 0.178742416777013 
660	 0.178234419351221 
661	 0.177772257995707 
662	 0.177533975025155 
663	 0.177476664341662 
664	 0.177149991771255 
665	 0.177001475394907 
666	 0.177182037051584 
667	 0.177142382120329 
668	 0.176647582694148 
669	 0.176227505919835 
670	 0.176463302646794 
671	 0.176767441394093 
672	 0.176636988106183 
673	 0.176311134201889 
674	 0.176651084566403 
675	 0.17677719284849 
676	 0.176669203854713 
677	 0.176539574465925 
678	 0.176793953596801 
679	 0.176820323326505 
680	 0.176636170064395 
681	 0.176536373811128 
682	 0.176484350763142 
683	 0.176527904192183 
684	 0.176643206941107 
685	 0.176717440330758 
686	 0.176410280145168 
687	 0.175954371208112 
688	 0.175698778932908 
689	 0.175406939251435 
690	 0.174969581236623 
691	 0.174481714184771 
692	 0.174115103796187 
693	 0.173246686538367 
694	 0.172346842065654 
695	 0.171631394973963 
696	 0.170530326033647 
697	 0.169427919320275 
698	 0.168403438420975 
699	 0.167500521453441 
700	 0.166368372327797 
701	 0.165087353873141 
702	 0.163716172231198 
703	 0.162226195950274 
704	 0.16087699327662 
705	 0.15939015918595 
706	 0.157689327256659 
707	 0.156179692513817 
708	 0.154375210178527 
709	 0.152336620159225 
710	 0.150274571840729 
711	 0.14788971167906 
712	 0.145679391109419 
713	 0.14361932432165 
714	 0.141037284856936 
715	 0.138757804447367 
716	 0.13647775859988 
717	 0.133898209083596 
718	 0.130868399655067 
719	 0.127243375261196 
720	 0.124247773327568 
721	 0.12202222942486 
722	 0.119730922261735 
723	 0.117045564859001 
724	 0.114315722460388 
725	 0.111637629779108 
726	 0.108421179741284 
727	 0.104981521508273 
728	 0.101703349681105 
729	 9.85675683203481E-02 
730	 9.52226125679604E-02 
731	 9.17823836133395E-02 
732	 8.84069290144905E-02 
733	 8.61840284008458E-02 
734	 8.43675973453517E-02 
735	 8.26200893709346E-02 
736	 8.11517437285391E-02 
737	 7.99070208376626E-02 
738	 7.89422529664793E-02 
739	 7.82625943943068E-02 
740	 7.75566859271385E-02 
741	 7.73075945665097E-02 
742	 7.73271603193125E-02 
743	 7.71119367015036E-02 
744	 7.66508970471942E-02 
745	 7.64858700785694E-02 
746	 7.66532292915838E-02 
747	 7.64518925856091E-02 
748	 0.076378244871452 
749	 7.62541241633034E-02 
750	 7.59315648082638E-02 
751	 7.58977304681772E-02 
752	 0.075880303319649 
753	 7.57661933353636E-02 
754	 0.07556980662195 
755	 0.075508689564849 
756	 7.56707164856085E-02 
757	 7.59597724695903E-02 
758	 7.60361641316886E-02 
759	 7.57195773328646E-02 
760	 7.56782108544245E-02 
761	 7.65882247042218E-02 
762	 7.66734601201899E-02 
763	 7.66110854710081E-02 
764	 0.076543446174185 
765	 7.64521548672038E-02 
766	 7.64809556845358E-02 
767	 7.64209955311143E-02 
768	 7.62642621908315E-02 
769	 7.61922732304979E-02 
770	 7.66383431784436E-02 
771	 7.70307941400169E-02 
772	 7.69886688396444E-02 
773	 7.71745912927308E-02 
774	 7.76987229509659E-02 
775	 7.81443150010465E-02 
776	 7.80308836788046E-02 
777	 7.79994817930021E-02 
778	 0.07853119570383 
779	 7.93023916888583E-02 
780	 7.92876322486169E-02 
781	 7.95851011133345E-02 
782	 8.03131492449591E-02 
783	 8.11458903526942E-02 
784	 8.11292104047157E-02 
785	 8.16904771718881E-02 
786	 8.24841619440128E-02 
787	 8.27194532267306E-02 
788	 8.31230601605798E-02 
789	 8.38419681278652E-02 
790	 8.44750395255625E-02 
791	 8.43932575849267E-02 
792	 8.49689177165144E-02 
793	 8.59413985534543E-02 
794	 8.68633495655804E-02 
795	 8.73013159641906E-02 
796	 8.78150466415039E-02 
797	 8.85696791517883E-02 
798	 8.93983006863563E-02 
799	 8.92834777857998E-02 
800	 8.95649142592061E-02 
801	 9.02536414487988E-02 
802	 9.06045348351961E-02 
803	 9.07764126121848E-02 
804	 9.09876624007675E-02 
805	 9.11775615764377E-02 
806	 9.10006660972838E-02 
807	 0.090760969657942 
808	 9.09663634894924E-02 
809	 9.16488385807042E-02 
810	 9.13923037109513E-02 
811	 9.16370345649251E-02 
812	 0.092224706870501 
813	 9.21922375758507E-02 
814	 0.090922882024018 
815	 8.99035375451444E-02 
816	 8.93923915724498E-02 
817	 8.83793304168022E-02 
818	 8.68417573530683E-02 
819	 8.61606188771502E-02 
820	 8.62742734658748E-02 
821	 8.54953448222505E-02 
822	 8.36178810144378E-02 
823	 8.14277324076163E-02 
824	 7.96480612640907E-02 
825	 7.77785263404752E-02 
826	 7.55462168575906E-02 
827	 7.34013494362143E-02 
828	 7.19653276624721E-02 
829	 6.97487795176707E-02 
830	 6.80356236238773E-02 
831	 6.68365078648091E-02 
832	 6.52916248592273E-02 
833	 6.37246868869326E-02 
834	 0.063051721510076 
835	 0.063118654719915 
836	 0.062480560485082 
837	 6.17031171151715E-02 
838	 6.11261161226023E-02 
839	 6.09651225786857E-02 
840	 6.13399256290631E-02 
841	 6.10844010549031E-02 
842	 6.01951382705285E-02 
843	 5.92784930639012E-02 
844	 5.93203114467193E-02 
845	 5.92515989790656E-02 
846	 5.86857764029429E-02 
847	 5.78490340041979E-02 
848	 5.73387840989587E-02 
849	 5.72778633684816E-02 
850	 5.74456145762774E-02 
851	 5.73092638149796E-02 
852	 5.70773064398947E-02 
853	 5.70601015909664E-02 
854	 0.057238776208881 
855	 5.68565815083875E-02 
856	 5.69491148934221E-02 
857	 5.68752176423309E-02 
858	 5.59954984429856E-02 
859	 5.53320011043831E-02 
860	 5.47792100538809E-02 
861	 5.48058105630398E-02 
862	 5.57059680697488E-02 
863	 5.51703964235006E-02 
864	 5.47099607753904E-02 
865	 5.47201866441212E-02 
866	 5.43857899887212E-02 
867	 5.40210300595059E-02 
868	 5.41729822780554E-02 
869	 5.46360357620083E-02 
870	 5.42625672528944E-02 
871	 0.053385133174172 
872	 5.31584412794335E-02 
873	 5.38338672866708E-02 
874	 5.32502345081355E-02 
875	 5.29797431687155E-02 
876	 5.29626933966648E-02 
877	 5.26319821153806E-02 
878	 5.13968973196531E-02 
879	 5.13172653004201E-02 
880	 5.17892906159022E-02 
881	 5.13150797135737E-02 
882	 5.16420446015169E-02 
883	 5.11195484287472E-02 
884	 5.01509968193554E-02 
885	 0.050473712849701 
886	 5.00723134444909E-02 
887	 4.93213776390812E-02 
888	 4.89990976344177E-02 
889	 4.98641606269052E-02 
890	 0.049808103701434 
891	 4.97632891192779E-02 
892	 5.02495528646054E-02 
893	 4.97968058585615E-02 
894	 4.90046459041228E-02 
895	 0.049117063249795 
896	 5.04862649228754E-02 
897	 4.96127207282643E-02 
898	 0.049351097313136 
899	 5.03321583750096E-02 
900	 5.13526997304682E-02 
901	 4.88923697077275E-02 
902	 4.81546589114844E-02 
903	 0.048959832986016 
904	 4.92829331872861E-02 
905	 0.049203407527031 
906	 4.89919191271649E-02 
907	 4.80720193747819E-02 
908	 4.57008923323449E-02 
909	 4.44907473589829E-02 
910	 4.64002334808114E-02 
911	 4.81719958872174E-02 
912	 4.39345339815942E-02 
913	 4.69804424827995E-02 
914	 4.65750335578098E-02 
915	 4.23297133244722E-02 
916	 4.71733837108407E-02 
917	 4.86649179649419E-02 
918	 4.70078128475517E-02 
919	 4.48820903135982E-02 
920	 4.54287486028033E-02 
921	 4.65758387936549E-02 
922	 4.58669962365586E-02 
923	 4.36909759199799E-02 
924	 4.69539139131719E-02 
925	 4.97728323598409E-02 
926	 4.89545283041067E-02 
927	 4.38490810874417E-02 
928	 4.15444277879824E-02 
929	 4.55768962177236E-02 
930	 5.31579351600025E-02 
931	 5.55271286173721E-02 
932	 5.49263586032775E-02 
933	 4.47139723864161E-02 
934	 4.41551575444324E-02 
935	 6.17869953928661E-02 
936	 2.92655592871065E-02 
937	 2.19320036080384E-02 
938	 4.26758364143034E-02 
939	 6.32733721883963E-02 
940	 4.44715587801728E-02 
941	 3.80340344920372E-02 
942	 4.64153943281432E-02 
943	 4.59353069730195E-02 
944	 3.29277536978506E-02 
945	 3.92983197239061E-02 
946	 5.21053950714026E-02 
947	 4.01774846671485E-02 
948	 0.030063871436902 
949	 4.77893273431983E-02 
950	 6.87921772084205E-02 
951	 5.33712805423033E-02 
952	 4.13823214172909E-02 
953	 0.049082915855362 
954	 5.48525170748298E-02 
955	 2.81327399352955E-02 
956	 4.30683720338069E-02 
957	 5.24361980816243E-02 
958	 0.043021149894094 
959	 0.031453419458212 
960	 4.09122460356754E-02 
961	 4.49941186530622E-02 
962	 3.94815716418432E-02 
963	 3.64403219544997E-02 
964	 3.77136142753264E-02 
965	 4.09323623250963E-02 
966	 4.32956008205379E-02 
967	 0.042633781901066 
968	 4.02458975862129E-02 
969	 3.83192246868907E-02 
970	 4.00036593810536E-02 
971	 4.73512713822977E-02 
972	 4.60692000156728E-02 
973	 4.17357959140427E-02 
974	 3.96389027870177E-02 
975	 4.13502061355143E-02 
976	 4.32889865292287E-02 
977	 3.95654198340925E-02 
978	 3.62306060790938E-02 
979	 4.51280938973136E-02 
980	 4.99762305511712E-02 
981	 4.62912185367467E-02 
982	 3.89312199994586E-02 
983	 3.78758038672537E-02 
984	 4.29811525786975E-02 
985	 4.33322158846778E-02 
986	 4.16175498692077E-02 
987	 4.82572563056987E-02 
988	 4.63275939028747E-02 
989	 4.07031678966124E-02 
990	 4.07217771346159E-02 
991	 5.20874974496097E-02 
992	 5.03630460968182E-02 
993	 4.21079928115592E-02 
994	 3.68449668552168E-02 
995	 4.04529799072834E-02 
996	 3.94448924062286E-02 
997	 4.09201533524184E-02 
998	 4.72664067718372E-02 
999	 5.43494157506271E-02 
1000	 4.73607803879348E-02 
1001	 4.08637403696076E-02 
1002	 4.27356925300664E-02 
1003	 4.36017551531958E-02 
1004	 4.41506459739171E-02 
1005	 4.44676986736849E-02 
1006	 4.53979109651306E-02 
1007	 4.45777908945363E-02 
1008	 4.19602079972531E-02 
1009	 4.00575454127819E-02 
1010	 3.72096910131513E-02 
1011	 3.65834536954968E-02 
1012	 3.93660010091158E-02 
1013	 4.24893957775613E-02 
1014	 4.41874473501656E-02 
1015	 4.65750826313697E-02 
1016	 4.68788158398691E-02 
1017	 4.43741648658515E-02 
1018	 4.41735492261802E-02 
1019	 4.40946114786279E-02 
1020	 4.44137702448639E-02 
1021	 4.55830570905167E-02 
1022	 4.73177289908136E-02 
1023	 4.77927578430004E-02 
1024	 0.048256988083451 
1025	 4.83465732954632E-02 
1026	 0.048311515943562 
1027	 4.80775994861571E-02 
1028	 4.79401772818948E-02 
1029	 4.67818099866742E-02 
1030	 0.044224489901111 
1031	 4.33263605466929E-02 
1032	 4.21442671328122E-02 
1033	 4.20722997831532E-02 
1034	 4.43910592425319E-02 
1035	 4.48502169380425E-02 
1036	 4.48344879838185E-02 
1037	 0.044345241194923 
1038	 4.21810563171483E-02 
1039	 4.15596370942116E-02 
1040	 4.14050921780644E-02 
1041	 4.09373641516795E-02 
1042	 4.15235331608694E-02 
1043	 4.40103030747561E-02 
1044	 4.37783536378017E-02 
1045	 4.21243059239906E-02 
1046	 4.24302511959889E-02 
1047	 4.24449693822838E-02 
1048	 4.24344351828428E-02 
1049	 4.41033438844857E-02 
1050	 4.45381700358173E-02 
1051	 4.34247898731374E-02 
1052	 0.043108948744202 
1053	 0.042938440751419 
1054	 4.32937971472658E-02 
1055	 4.44244942299205E-02 
1056	 4.47252084798661E-02 
1057	 4.48748647606345E-02 
1058	 4.51732059991914E-02 
1059	 4.54551389002247E-02 
1060	 4.54868649865384E-02 
1061	 0.04492722557399 
1062	 4.44222895356221E-02 
1063	 4.37436267175239E-02 
1064	 4.11231191383836E-02 
1065	 4.09345160858086E-02 
1066	 4.31952324818161E-02 
1067	 4.34565267656767E-02 
1068	 4.34606771997541E-02 
1069	 4.37836407997664E-02 
1070	 4.24570863284114E-02 
1071	 4.25770233286865E-02 
1072	 4.45650516415086E-02 
1073	 4.64892030356839E-02 
1074	 4.64237273764955E-02 
1075	 4.51989637053243E-02 
1076	 4.51523945596187E-02 
1077	 4.39706063866185E-02 
1078	 4.38886880841051E-02 
1079	 4.62958932943446E-02 
1080	 4.61241649651462E-02 
1081	 4.41950466555514E-02 
1082	 4.30023859898596E-02 
1083	 4.01401107910435E-02 
1084	 3.93957088688869E-02 
1085	 4.05719074965953E-02 
1086	 4.07715733537382E-02 
1087	 4.20258274037472E-02 
1088	 4.25690145695911E-02 
1089	 4.18792526966986E-02 
1090	 4.10623932212932E-02 
1091	 4.17418037567716E-02 
1092	 4.37272596355766E-02 
1093	 4.44784183086587E-02 
1094	 4.62248323462468E-02 
1095	 4.57086595346284E-02 
1096	 4.20681716129723E-02 
1097	 4.11245085303034E-02 
1098	 4.11618989164212E-02 
1099	 4.07727034925494E-02 
1100	 4.05032321413824E-02 
1101	 4.14418116650447E-02 
1102	 4.30183512515287E-02 
1103	 4.33073804121919E-02 
1104	 4.39000887519191E-02 
1105	 4.71334057935444E-02 
1106	 4.68257743857878E-02 
1107	 4.41929850485751E-02 
1108	 4.25987717821213E-02 
1109	 4.34529857261717E-02 
1110	 4.27719264311656E-02 
1111	 4.06580703509094E-02 
1112	 4.17580278351349E-02 
1113	 4.46707984437515E-02 
1114	 4.63769705100159E-02 
1115	 0.051602810790729 
1116	 5.41538957871271E-02 
1117	 5.71180521364304E-02 
1118	 5.88370780373384E-02 
1119	 4.49281146657813E-02 
1120	 4.73473252783276E-02 
1121	 7.69840188248402E-02 
1122	 7.85955838543949E-02 
1123	 7.70312013685067E-02 
1124	 0.112003785530264 
1125	 9.76795295918156E-02 
1126	 4.77940174804577E-02 
1127	 4.17292048310029E-02 
1128	 6.67229087873153E-02 
1129	 6.20639240169244E-02 
1130	 5.60636204104047E-02 
1131	 4.44005363078137E-02 
1132	 1.48145731090426E-02 
1133	 4.73514556921739E-03 
1134	 1.7526304687775E-03 
1135	-1.03052090629489E-03 
1136	-1.1764453135706E-03 
1137	 3.26692227645351E-03 
1138	 1.22771070742955E-02 
1139	 8.85345238816926E-03 
1140	 2.33782231330026E-02 
1141	 5.89376805846877E-02 
1142	 6.11215705535976E-02 
1143	 6.14917516745601E-02 
1144	 8.01423306891161E-02 
1145	 8.07425837577121E-02 
1146	 9.38592261961649E-02 
1147	 0.105181092604976 
1148	 8.47139325776438E-02 
1149	 6.20453801457731E-02 
1150	 5.59607611965933E-02 
1151	 6.19656816101175E-02 
1152	 6.19326577296297E-02 
1153	 6.54004127656854E-02 
1154	 6.53940795376853E-02 
1155	 6.71424894271214E-02 
1156	 5.44724938781993E-02 
1157	 4.72605144404131E-02 
1158	 4.93763575820365E-02 
1159	 4.07782803718027E-02 
1160	 0.039779436921011 
1161	 4.85331880771145E-02 
1162	 5.12121041200511E-02 
1163	 0.054847468618948 
1164	 5.75658086565186E-02 
1165	 5.40397486229867E-02 
1166	 4.86418185593959E-02 
1167	 4.21566826727401E-02 
1168	 4.09799255835742E-02 
1169	 4.19856910363275E-02 
1170	 4.13273195226147E-02 
1171	 0.041758978652187 
1172	 4.38298825183687E-02 
1173	 4.36288312630549E-02 
1174	 4.17867455451219E-02 
1175	 4.29007216387305E-02 
1176	 4.30042072940495E-02 
1177	 4.33784824118973E-02 
1178	 4.61378870734297E-02 
1179	 4.72402085244351E-02 
1180	 4.49122845321818E-02 
1181	 4.23873244856513E-02 
1182	 4.10134798789955E-02 
1183	 4.06750805396993E-02 
1184	 4.13914598736334E-02 
1185	 4.33602409115902E-02 
1186	 4.35637934082632E-02 
1187	 0.041126591137934 
1188	 4.09057576594409E-02 
1189	 3.97289779192532E-02 
1190	 3.51756078459313E-02 
1191	 3.47200456179309E-02 
1192	 3.55715420389293E-02 
1193	 0.037124801438373 
1194	 3.91749979458405E-02 
1195	 4.39911449634045E-02 
1196	 4.60632313262145E-02 
1197	 4.68305587944566E-02 
1198	 4.58280831837764E-02 
1199	 4.27706180453088E-02 
1200	 4.17116607692864E-02 
1201	 3.94221345600132E-02 
1202	 3.79799570521179E-02 
1203	 4.04965904827345E-02 
1204	 4.19065671255858E-02 
1205	 4.17457279280828E-02 
1206	 4.15513146487499E-02 
1207	 3.97669059670578E-02 
1208	 3.86749379340648E-02 
1209	 0.038496482466993 
1210	 3.78648006128172E-02 
1211	 3.86395001636791E-02 
1212	 3.91814373613782E-02 
1213	 3.83850383672813E-02 
1214	 3.81915261247616E-02 
1215	 3.83395832731635E-02 
1216	 3.98274379991809E-02 
1217	 4.08776255177709E-02 
1218	 4.09622857604596E-02 
1219	 4.16666084661732E-02 
1220	 4.19570240837828E-02 
1221	 0.041486220679539 
1222	 4.11060171348709E-02 
1223	 4.15693867806659E-02 
1224	 4.19018991712554E-02 
1225	 4.10153024144946E-02 
1226	 4.06879262683269E-02 
1227	 4.14918060906223E-02 
1228	 4.17181234437145E-02 
1229	 0.040779671125158 
1230	 3.99835516510064E-02 
1231	 3.94588616946567E-02 
1232	 3.86123924529828E-02 
1233	 3.86685800285713E-02 
1234	 3.97111040551793E-02 
1235	 3.97131368909366E-02 
1236	 3.78742692722071E-02 
1237	 3.81868513706916E-02 
1238	 3.96385863934215E-02 
1239	 3.98811252550896E-02 
1240	 3.99381043232517E-02 
1241	 4.11112853331587E-02 
1242	 4.11088429691186E-02 
1243	 3.99469028300947E-02 
1244	 3.88641416772538E-02 
1245	 3.82542347870496E-02 
1246	 3.81572236894311E-02 
1247	 3.83356547520451E-02 
1248	 3.86629268815769E-02 
1249	 3.91446562447989E-02 
1250	 0.039448676218022 
1251	 3.82205456494166E-02 
1252	 0.037615454289578 
1253	 3.83092640577572E-02 
1254	 3.80383663610568E-02 
1255	 3.88377153079973E-02 
1256	 3.87933946118389E-02 
1257	 3.87361035654145E-02 
1258	 3.97475283406047E-02 
1259	 0.040397933769972 
1260	 3.99900537984768E-02 
1261	 4.16663828455985E-02 
1262	 4.22979644641814E-02 
1263	 4.05703905985527E-02 
1264	 3.92280380182842E-02 
1265	 4.09983980124835E-02 
1266	 4.06763539456118E-02 
1267	 3.85582155565788E-02 
1268	 3.68702383400523E-02 
1269	 3.68503773679667E-02 
1270	 0.038675201044599 
1271	 0.03831284623495 
1272	 3.85554143367496E-02 
1273	 4.05049551004768E-02 
1274	 3.91432664698349E-02 
1275	 3.78597869003706E-02 
1276	 3.95390866511242E-02 
1277	 4.12247810442135E-02 
1278	 4.11415094075188E-02 
1279	 4.05652495981331E-02 
1280	 0.041669755666144 
1281	 4.21464263963812E-02 
1282	 4.07850394590711E-02 
1283	 4.01389850512932E-02 
1284	 4.11502832097635E-02 
1285	 4.12484938317924E-02 
1286	 4.01343465247377E-02 
1287	 4.01784373962375E-02 
1288	 4.08777249153045E-02 
1289	 0.040641264425666 
1290	 3.99993550668385E-02 
1291	 0.039809698640582 
1292	 0.039846229611665 
1293	 0.040053879325977 
1294	 3.86412181721209E-02 
1295	 3.80348894707863E-02 
1296	 3.88051653644287E-02 
1297	 3.83013362820837E-02 
1298	 3.85513159098859E-02 
1299	 4.01729240669419E-02 
1300	 3.96902775865556E-02 
1301	 3.98369734476098E-02 
1302	 4.14198494467377E-02 
1303	 4.26241989220928E-02 
1304	 4.33851364290543E-02 
1305	 4.38235620727422E-02 
1306	 4.34619052984231E-02 
1307	 4.04148523039368E-02 
1308	 4.02782174060386E-02 
1309	 4.30111515338902E-02 
1310	 4.26784113755442E-02 
1311	 0.041468311183063 
1312	 4.25224056953011E-02 
1313	 4.21476770444476E-02 
1314	 4.18937996195897E-02 
1315	 4.55342751913401E-02 
1316	 4.64103653036547E-02 
1317	 4.38183979469089E-02 
1318	 4.21364073973209E-02 
1319	 0.041390902955956 
1320	 4.03850859557421E-02 
1321	 3.96594477809815E-02 
1322	 3.38757614708667E-02 
1323	 3.65968133313246E-02 
1324	 3.84324501030536E-02 
1325	 3.63964038402861E-02 
1326	 4.20791462390225E-02 
1327	 5.37675133431057E-02 
1328	 5.91338015970891E-02 
1329	 6.14160797205761E-02 
1330	 7.01643759884311E-02 
1331	 7.17617658908258E-02 
1332	 6.74627176374292E-02 
1333	 0.065739795927988 
1334	 5.62111233813051E-02 
1335	 5.57199785805393E-02 
1336	 4.69565341456954E-02 
1337	 5.54689247802343E-02 
1338	 9.66890266253803E-02 
1339	 0.109069461003455 
1340	 0.10106291399386 
1341	 0.111528491551 
1342	 0.129960559393763 
1343	 0.133741630178773 
1344	 0.133898871247182 
1345	 0.15666151126019 
1346	 0.177059064734949 
1347	 0.181019345924181 
1348	 0.201086625323979 
1349	 0.272291591023359 
1350	 0.374251908149945 
1351	 0.451977793015781 
1352	 0.666680029800583 
1353	 1.17080475517595 
1354	 2.29514014186674 
1355	 2.12033659603909 
1356	 1.24829246937548 
1357	 1.97452493380125 
1358	 5.28281485157815 
1359	 6.20049384245986 
1360	 7.55976838840999 
1361	-22.0658624121437 
1362	 4.30212804067966 
1363	 0.890365884898982 
1364	 0.897761956520465 
1365	 1.59811234320467 
1366	 1.85215406342157 
1367	 1.51195375038394 
1368	 2.86250936903937 
1369	 2.09887064649842 
1370	 2.56883242078399 
1371	 5.51902486317809 
1372	 13.356298866985 
1373	-6.67441008448517 
1374	-5.27789649210487 
1375	-16.8573097529711 
1376	-12.8154405945582 
1377	-3.97139063383942 
1378	-9.35072505195221 
1379	 4.47891068298317 
1380	 6.73563810428584 
1381	-3.33005103891215 
1382	-5.14419127176107 
1383	 5.95506229628963 
1384	 17.182952654938 
1385	 8.44740885457575 
1386	 5.17334100403457 
1387	 33.444832159951 
1388	-7.55816964268167 
1389	-3.02068657739398 
1390	-3.96983653757644 
1391	-13757.2485685979 
1392	 4.00502804597383 
1393	 29.2310252453136 
1394	 5.32469355187338 
1395	 2.677566074238 
1396	-25.5606295841708 
1397	-3.41966998708012 
1398	 8.64576728089441 
1399	 6.13337455642121 
1400	-3.33330238748497 
1401	 6.39191599854116 
1402	 1.77883890378311 
1403	 1.54046587432534 
1404	 1.11195912685741 
1405	 1.50262978648298 
1406	 1.89455392328989 
1407	 1.5986276199328 
1408	 3.53316914556684 
1409	 6.36174757920782 
1410	 1.85592391366313 
1411	 1.72832951897558 
1412	 10.758037198061 
1413	-484.633741615919 
1414	-3.91526475645282 
1415	 11.0829532727576 
1416	 1.14529604435551 
1417	 1.26572666009407 
1418	 2.16187062358926 
1419	 2.14274609850628 
1420	 2.31821070106352 
1421	 3.80602684713121 
1422	 10.6076979998491 
1423	 5.93942849417988 
1424	 2.4482144536881 
1425	 2.80693742212369 
1426	 2.97856624794715 
1427	 2.82074888640574 
1428	 12.1668714449696 
1429	-40.0532460842833 
1430	 6.44004087881396 
1431	 6.66650453822673 
1432	-2.80827819473196 
1433	-3.48355325104156 
1434	 3.81480410526338 
1435	 2.82072339084166 
1436	 2.50248197760828 
1437	 1.69874208681146 
1438	 2.07251160355841 
1439	 3.72491981627891 
1440	 5.77892557293356 
1441	 753.962467629736 
1442	 4.61900544981712 
1443	 3.39208434310645 
1444	 4.87563662571239 
1445	 2.16538906243253 
1446	 1.62154819982652 
1447	 1.57661115391838 
1448	 1.45971668958984 
1449	 1.56328061496771 
1450	 1.0395694508562 
1451	 1.25933638659356 
1452	 2.07183514385288 
1453	 1.37098481391914 
1454	 1.39093176970786 
1455	 4.26480733729322 
1456	 5.91090856150998 
1457	 2.72162624279264 
1458	 1.92961082439252 
1459	 1.42220811819808 
1460	 1.38715069542412 
1461	 1.18638390000158 
1462	 0.965186233936731 
1463	 1.16811322644369 
1464	 1.0574134970636 
1465	 0.438814695915142 
1466	 0.395472457348255 
1467	 1.13062483238763 
1468	 0.935310651860121 
1469	 0.498658861528495 
1470	 0.501858300100755 
1471	 0.79165139064619 
1472	 0.489156787190999 
1473	-0.229193483604321 
1474	-0.243997644713747 
1475	-0.113454536181078 
1476	-0.048708963815008 
1477	 0.411297583995164 
1478	 0.507511530509535 
1479	 0.299544869755534 
1480	 0.212848369686569 
1481	 7.76127267084538E-02 
1482	-2.16056280536543E-02 
1483	-0.216956139278172 
1484	-0.117915167267821 
1485	 0.194401693171729 
1486	 0.268693978651883 
1487	 0.455466090498983 
1488	 0.473495175058738 
1489	 0.248780162908203 
1490	 0.217282587384019 
1491	 0.290294294558241 
1492	 0.279016723640818 
1493	 0.289467644462088 
1494	 0.24949421349227 
1495	 0.122718950876931 
1496	 8.65650618895071E-02 
1497	 0.065391876505413 
1498	 6.69470831468113E-02 
1499	 0.13879659423735 
1500	 0.14393968595356 
1501	 0.101867866646165 
1502	 9.94216310660675E-02 
1503	 0.103828006843839 
1504	 0.092944665950253 
1505	 8.83462003759744E-02 
1506	 8.98927100948924E-02 
1507	 9.77127700761453E-02 
1508	 8.10420509804141E-02 
1509	 8.27278920462289E-02 
1510	 7.66052436242235E-02 
1511	 5.15066289765309E-02 
1512	 3.20106442143712E-02 
1513	 2.26122544901528E-02 
1514	 4.01049651916872E-02 
1515	 0.059880050975379 
1516	 5.22235596364208E-02 
1517	 3.44100432777183E-02 
1518	 2.78217982952262E-02 
1519	 2.70939430789614E-02 
1520	 4.08954748079899E-02 
1521	 0.055315585590346 
1522	 5.52548113366927E-02 
1523	 6.33242091895512E-02 
1524	 6.30246374177459E-02 
1525	 5.34858645455493E-02 
1526	 6.45734762977005E-02 
1527	 7.21349487159115E-02 
1528	 6.34637185553703E-02 
1529	 0.061742306823484 
1530	 6.18260398684149E-02 
1531	 5.67736928475664E-02 
1532	 5.52892313621261E-02 
1533	 5.56521108104613E-02 
1534	 5.55016133726906E-02 
1535	 5.82230238468587E-02 
1536	 6.43070025612724E-02 
1537	 6.26322527385156E-02 
1538	 5.48918178004394E-02 
1539	 5.10737798921647E-02 
1540	 4.50491164996875E-02 
1541	 4.35892002901327E-02 
1542	 0.048977338942913 
1543	 4.71350730932589E-02 
1544	 3.95892155087644E-02 
1545	 4.13057958210697E-02 
1546	 4.83669663223922E-02 
1547	 4.79961276447425E-02 
1548	 4.64326993082143E-02 
1549	 4.96103748214218E-02 
1550	 5.18380857314375E-02 
1551	 5.30409889327652E-02 
1552	 5.60173998051019E-02 
1553	 5.13758190977248E-02 
1554	 4.78150317031919E-02 
1555	 5.15721773994539E-02 
1556	 0.051889984270091 
1557	 0.054478863708834 
1558	 5.92239085959992E-02 
1559	 6.10402361840587E-02 
1560	 5.90505290914284E-02 
1561	 5.66574034503723E-02 
1562	 0.057488404550547 
1563	 5.23064776628915E-02 
1564	 4.77740541523746E-02 
1565	 5.17643014929785E-02 
1566	 4.76960749854701E-02 
1567	 4.34657888639249E-02 
1568	 4.84958128921403E-02 
1569	 5.05101454795284E-02 
1570	 5.25936100497842E-02 
1571	 5.21084290748076E-02 
1572	 4.99644397705775E-02 
1573	 0.051344074145358 
1574	 4.64107021845714E-02 
1575	 3.99063607559636E-02 
1576	 4.30658513661077E-02 
1577	 5.00029467023514E-02 
1578	 4.97531887191186E-02 
1579	 4.49394882111656E-02 
1580	 4.07132258916025E-02 
1581	 4.32114863211505E-02 
1582	 5.13132244774634E-02 
1583	 5.26113054484157E-02 
1584	 5.09057623576334E-02 
1585	 4.61286478196501E-02 
1586	 0.034063620487869 
1587	 3.13106205081587E-02 
1588	 0.03699830988762 
1589	 3.88222231498029E-02 
1590	 4.17843689184718E-02 
1591	 4.81540218674854E-02 
1592	 5.28118520085348E-02 
1593	 4.79256472009513E-02 
1594	 4.29081188480579E-02 
1595	 4.41997030239457E-02 
1596	 4.16915729416332E-02 
1597	 4.58466503632976E-02 
1598	 5.23404918072501E-02 
1599	 4.64664773607222E-02 
1600	 4.12371093273154E-02 
1601	 3.95327711524681E-02 
1602	 3.49878490409823E-02 
1603	 3.42067563759982E-02 
1604	 4.04744537870151E-02 
1605	 4.60760100738437E-02 
1606	 4.81330000168773E-02 
1607	 4.88989965996269E-02 
1608	 4.95654916256948E-02 
1609	 4.86464887763496E-02 
1610	 4.86814495317172E-02 
1611	 5.33353659554839E-02 
1612	 5.11529842270123E-02 
1613	 4.72477847705446E-02 
1614	 4.85626860991181E-02 
1615	 4.44461107970975E-02 
1616	 0.041071125458539 
1617	 4.48417677300042E-02 
1618	 4.47187845274549E-02 
1619	 4.14286679726877E-02 
1620	 4.44892001541123E-02 
1621	 5.06495324528732E-02 
1622	 5.36809923106694E-02 
1623	 5.32160374190891E-02 
1624	 0.049321214436419 
1625	 3.94771411612282E-02 
1626	 2.94871134400136E-02 
1627	 2.81666803185938E-02 
1628	 0.030544446032174 
1629	 3.15068937811474E-02 
1630	 3.49387288085476E-02 
1631	 0.04085490463656 
1632	 4.54753500127129E-02 
1633	 4.59581687672562E-02 
1634	 4.17996564001431E-02 
1635	 3.57473904675622E-02 
1636	 3.69530194226199E-02 
1637	 4.67175831302373E-02 
1638	 5.07220967723101E-02 
1639	 4.94114517695331E-02 
1640	 4.65595899266495E-02 
1641	 4.25958670878521E-02 
1642	 0.040888871975361 
1643	 4.15124860096106E-02 
1644	 4.41192591092607E-02 
1645	 0.040571221578078 
1646	 0.043016954089918 
1647	 5.38704273431458E-02 
1648	 5.51945462854186E-02 
1649	 0.053040188760321 
1650	 5.01883434992025E-02 
1651	 4.48495313608741E-02 
1652	 4.01565503988232E-02 
1653	 4.35462988430867E-02 
1654	 4.28330329341291E-02 
1655	 0.038458964499618 
1656	 0.035683317303859 
1657	 3.25119860484331E-02 
1658	 3.19545866542905E-02 
1659	 3.20987506602832E-02 
1660	 3.42128233593724E-02 
1661	 4.10331272389341E-02 
1662	 0.040862439991057 
1663	 3.68433737158323E-02 
1664	 0.038130546667641 
1665	 3.66609610927001E-02 
1666	 3.62559692085171E-02 
1667	 4.44874478323394E-02 
1668	 3.75212814305797E-02 
1669	 3.23215154373927E-02 
1670	 3.99081990516371E-02 
1671	 4.27031170576908E-02 
1672	 3.74467825422956E-02 
1673	 3.76094512885549E-02 
1674	 3.72331029657485E-02 
1675	 3.71626254445021E-02 
1676	 3.83232294033428E-02 
1677	 3.33424195461799E-02 
1678	 2.86853847369336E-02 
1679	 3.40194172118862E-02 
1680	 4.09147170050596E-02 
1681	 4.16239966423886E-02 
1682	 3.89014808853335E-02 
1683	 0.032179520432494 
1684	 3.27909524951175E-02 
1685	 4.60934318679369E-02 
1686	 5.59094728774519E-02 
1687	 5.27840997931592E-02 
1688	 4.49135834914078E-02 
1689	 3.78421178427458E-02 
1690	 2.91559186370744E-02 
1691	 2.75148589437962E-02 
1692	 3.29432270369451E-02 
1693	 3.48612428995666E-02 
1694	 0.038112585978322 
1695	 3.87266446276407E-02 
1696	 0.037181384789288 
1697	 3.90088080794802E-02 
1698	 4.31712992472008E-02 
1699	 4.75531221574212E-02 
1700	 0.046500958062586 
1701	 4.21096184723394E-02 
1702	 3.64432906380852E-02 
1703	 4.07615587192206E-02 
1704	 4.73632688980658E-02 
1705	 4.25153292482948E-02 
1706	 4.30789391364347E-02 
1707	 4.68635953372711E-02 
1708	 4.83189502615852E-02 
1709	 5.51624966116656E-02 
1710	 5.97438892922844E-02 
1711	 5.79390115684412E-02 
1712	 5.14340163246292E-02 
1713	 5.20493109711563E-02 
1714	 5.15878980071259E-02 
1715	 4.51775229447785E-02 
1716	 4.02196017291908E-02 
1717	 4.39251335256403E-02 
1718	 3.98625563858223E-02 
1719	 3.56830182220996E-02 
1720	 3.73225901369128E-02 
1721	 3.80615670845542E-02 
1722	 0.038433903963763 
1723	 4.02358889647034E-02 
1724	 4.17872679959558E-02 
1725	 3.47144574417379E-02 
1726	 2.34614155431811E-02 
1727	 2.43397728690544E-02 
1728	 0.030079991441206 
1729	 3.04436371071411E-02 
1730	 3.40921867217127E-02 
1731	 3.38132931710251E-02 
1732	 2.45924074451001E-02 
1733	 0.018039447683364 
1734	 2.62616416326962E-02 
1735	 3.49324525138382E-02 
1736	 2.65488966798052E-02 
1737	 3.32135141806648E-02 
1738	 5.36285169982907E-02 
1739	 6.20068282365049E-02 
1740	 7.43149666015815E-02 
1741	 7.61206675552248E-02 
1742	 5.14807668730702E-02 
1743	 0.036156644544308 
1744	 4.90892423201807E-02 
1745	 6.20720041983769E-02 
1746	 5.78472956712115E-02 
1747	 5.92187093918073E-02 
1748	 4.65994313868989E-02 
1749	 3.85862385001141E-02 
1750	 4.10033040490441E-02 
1751	 3.69352904224692E-02 
1752	 3.03600962576396E-02 
1753	 3.00645776184252E-02 
1754	 3.15235887319843E-02 
1755	 2.93108388655773E-02 
1756	 1.93262000138976E-02 
1757	 2.21667049019924E-02 
1758	 4.49956589214533E-02 
1759	 5.05949870257592E-02 
1760	 4.64485226398062E-02 
1761	 4.23893243722781E-02 
1762	 1.88898110898867E-02 
1763	 3.04395052452874E-02 
1764	 6.05424891171992E-02 
1765	 6.58812298488328E-02 
1766	 8.52340696763775E-02 
1767	 0.076363236492983 
1768	 5.10946829038145E-02 
1769	 5.65725583163466E-02 
1770	 4.37504276724413E-02 
1771	 3.89143453715441E-02 
1772	 8.63419154816593E-02 
1773	 0.112404449379954 
1774	 0.105424819633655 
1775	 9.25337867582251E-02 
1776	 7.35206788642517E-02 
1777	 2.79430712582463E-02 
1778	 1.42310825076752E-02 
1779	 3.04546820621997E-02 
1780	 4.15546917601677E-02 
1781	 6.09499927607945E-02 
1782	 7.66264544059479E-02 
1783	 0.105151048578802 
1784	 0.121301296059736 
1785	 0.142575250135556 
1786	 0.154137703540466 
1787	 0.112372716448077 
1788	 0.123227008821583 
1789	 0.181628415044922 
1790	 0.133534698289168 
1791	 0.1909083798099 
1792	 8.35134606605782E-02 
1793	-0.204369322336637 
1794	-0.235755841158086 
1795	-0.255248283077376 
1796	-0.245253449677937 
1797	-0.024059500267059 
1798	-0.119948458661416 
1799	-0.146775273976398 
1800	-0.292111497006592 
1801	-0.349069223655115 
1802	-0.371437746453299 
1803	-0.397519343660512 
1804	-9.07518329804376E-02 
1805	 8.04178561933331E-03 
1806	 1.11571004434344 
1807	 0.931596299062153 
1808	-0.948434694675506 
1809	-0.781375337451417 
1810	 6.13728477791718E-02 
1811	 6.25329805350178E-02 
1812	 0.595231352302178 
1813	 0.737291287038596 
1814	-0.895025348582383 
1815	-5.48167554880881 
1816	 1.60775586543741 
1817	 0.428171221726655 
1818	-0.537530895239868 
1819	 67.6268861464036 
1820	 3.43785560470337 
1821	 0.543063671765645 
1822	-0.50061813924136 
1823	-42.2616828657203 
1824	 2.91271188051175 
1825	 0.258966152039761 
1826	 0.092684351823035 
1827	 0.270288807008199 
1828	 7.94207147708811E-02 
1829	-0.150741960206219 
1830	 6.64096863380078E-02 
1831	 0.299848147982805 
1832	 0.565275150180359 
1833	 2.1360805410652 
1834	 2.48035845458795 
1835	-1.12972892396298 
1836	-28.8873198641116 
1837	 1.70549404419161 
1838	 1.60561599035135 
1839	 0.576364088403557 
1840	 0.196284646423311 
1841	-0.654117518369382 
1842	-0.3964513006565 
1843	-0.538274197438055 
1844	-0.907348303467913 
1845	-0.943636696529508 
1846	-1.57509406418217 
1847	-1.54535311911734 
1848	-0.756616396123217 
1849	-7.18916124469042E-02 
1850	 0.283113425636476 
1851	 0.523422520664568 
1852	 0.359210701041099 
1853	 5.02033407821352E-03 
1854	-0.416293196950537 
1855	-15.2446328677129 
1856	 3.61236904342585 
1857	 1.91292019577217 
1858	 1.99546679117923 
1859	-3.37257919760856 
1860	-1.86870401892232 
1861	-4.77314586106198 
1862	 2.21804286286979 
1863	 1.48026958464838 
1864	 1.78186638416263 
1865	 2.12569166997084 
1866	 13.6208820288053 
1867	-24.0062075020526 
1868	-3.31128370662772 
1869	-2.00881171491344 
1870	 95.8317454921739 
1871	-2.85491890447855 
1872	-0.55385563357592 
1873	-8.35194883322975E-02 
1874	-6.27833210277618E-02 
1875	 0.550287847158533 
1876	 0.687101834066004 
1877	 0.323166835269839 
1878	 0.422027746673479 
1879	 1.42237014932869 
1880	 1.68903937427962 
1881	 3.54051538912307 
1882	-6.82802191847822 
1883	 3.15458194455274 
1884	-0.41706220101803 
1885	 0.611824258354202 
1886	 1.51216121725925 
1887	-4.75024668806136E-02 
1888	 0.304078075170159 
1889	 0.292708036303382 
1890	-0.127211676913202 
1891	-0.22373235115206 
1892	-6.61355354263913E-03 
1893	 0.200082849241445 
1894	-0.528820052250321 
1895	 0.429801038087628 
1896	 0.687394341552123 
1897	 1.28152980754008 
1898	 3.80494210553609 
1899	 2.65218269864806 
1900	 3.23843611708327 
1901	-0.758349019366372 
1902	-8.26190697351688E-02 
1903	 0.321222680942545 
1904	-5.07055450918758 
1905	 4.88272876427665 
1906	 2.43692044387901 
1907	 2.12730501368978 
1908	 0.941225001545667 
1909	 0.808593193907365 
1910	 0.808174663254432 
1911	 0.309328450565661 
1912	 0.462667362787371 
1913	 0.529322265005318 
1914	 0.425982386349929 
1915	 0.425465342334742 
1916	 0.599573240190008 
1917	 2.60932159842004 
1918	-0.787053916326192 
1919	-0.842794207170595 
1920	-1.85102175212834 
1921	-2.93829832675426 
1922	-3.42256855068328 
1923	 6.27014311531194E-04 
1924	 2.43823302540809 
1925	-0.301267634426141 
1926	 1.11489706126362 
1927	 3.83322261060991 
1928	-2.21936692690602 
1929	-1.40894792240805 
1930	-0.899099005653802 
1931	-1.98464733112185 
1932	 3.60390135900989 
1933	 3.2610255412564 
1934	 1.77694705045494 
1935	 1.41901084722182 
1936	 1.04229245677026 
1937	 0.179972492173059 
1938	-0.677283768076905 
1939	-0.672932864741395 
1940	 6.91360370583574E-02 
1941	 1.25414411830906 
1942	 2.21325421139215 
1943	 3.15739523627976 
1944	 5.46361993507764 
1945	 3.8472939326689 
1946	-5.89427634909796E-02 
1947	-0.405854908320531 
1948	-1.13747404802867 
1949	-3.57341203400041 
1950	-3.34804182888931 
1951	-2.73868965161872 
1952	-2.65963773748654 
1953	-1.39188203363384 
1954	 6.23274154501257E-02 
1955	 0.218279672834637 
1956	 3.5529295942225 
1957	-2.93008220500205 
1958	-0.357188721668467 
1959	-0.422516728347702 
1960	 1.18798806965692E-03 
1961	 0.208602881684945 
1962	 0.240394426646848 
1963	-0.114346675551007 
1964	-0.779926632997585 
1965	-1.97666067898131 
1966	-5.81361067078787 
1967	-4.25999708831084 
1968	-2.24441989245406E-02 
1969	-0.857407363668375 
1970	-0.592476057090023 
1971	-1.07434759829822 
1972	-1.37565229692489 
1973	-1.68108567358441 
1974	-4.89064298903887 
1975	-5.36702864337429 
1976	-3.80665885547576 
1977	-3.50942985824691 
1978	-2.73764822052398 
1979	-2.39750346409063 
1980	-1.6530802137522 
1981	-1.99014707197062 
1982	-1.59495377680446 
1983	-194.67536633711 
1984	 0.950944314406286 
1985	 0.418134600329935 
1986	 0.603039439428248 
1987	 0.417196063505649 
1988	 0.825059421725757 
1989	 1.19849756882775 
1990	 1.16863107993096 
1991	 1.72225651835525 
1992	 0.854115215551071 
1993	 0.317298216613696 
1994	 9.61645488777183E-02 
1995	 14.7592246622935 
1996	 0.151395665257336 
1997	-0.284450699419608 
1998	-1.1987484437671 
1999	 2.10473941588889 
2000	-0.067665567647094 
2001	-1.47063883938499 
2002	-3.76162919939761 
2003	-0.821177003464033 
2004	-8.09746652667611E-02 
2005	 0.317460061274188 
2006	 0.469862931727993 
2007	 0.669373519373816 
2008	 0.652150894920611 
2009	 0.750588655500019 
2010	 0.620892767408061 
2011	 0.897871934952178 
2012	 8.28572592324001 
2013	-2.40002602008526 
2014	-4.49025303183305 
2015	-2.21306541226471 
2016	-1.20036962273549 
2017	-2.8847034478295 
2018	-0.657943836258773 
2019	-1.23130807608315 
2020	-1.59727308640809 
2021	-1.17796025914538 
2022	-2.22388692277636 
2023	-1.84590777587827 
2024	-1.3129661975013 
2025	-0.62722373607439 
2026	-0.593272919780976 
2027	-0.765188847433203 
2028	-0.917211483060717 
2029	-0.754388213264081 
2030	-0.735967786893018 
2031	-0.860445052592902 
2032	-0.534482357324669 
2033	-0.392947876950963 
2034	-0.280764101316894 
2035	-7.38207040392393E-02 
2036	-0.472870167480538 
2037	-1.60058661492838 
2038	-1.7259519164396 
2039	-1.5805517972177 
2040	-0.831157029919663 
2041	-0.75116822253104 
2042	-0.826375339925741 
2043	-0.857644328588894 
2044	-1.08691368853136 
2045	-2.77196043582821 
2046	 4.71943598293768 
2047	-0.807686032222298 
2048	-0.177494626341011 
2049	 0.128970075143107 
2050	 2.6388667157487E-03 
2051	-0.36838628955438 
2052	-0.638476878591508 
2053	-0.783857975174912 
2054	-0.789075022753613 
2055	-0.604403005832635 
2056	-0.504830388816776 
2057	-0.306459041730071 
2058	-0.183876145179057 
2059	-0.199664716166775 
2060	-0.112778607796007 
2061	-6.68314478726534E-02 
2062	-3.64587553093499E-02 
2063	-9.24563257940831E-02 
2064	-6.11961156497061E-02 
2065	-0.293261001844572 
2066	-14.0049711093478 
2067	-10.6045414033277 
2068	-2.16002606447293 
2069	-1.3471104938051 
2070	-0.849187120604808 
2071	-0.395090874562102 
2072	 1.07908470552108E-02 
2073	 0.103983265460234 
2074	-4.30295723807039E-02 
2075	-1.18552320509725E-03 
2076	-1.9747261607573E-03 
2077	-7.34612071018532E-02 
2078	 0.115039340438496 
2079	 0.152553385358941 
2080	 2.40613599067156E-02 
2081	-0.174939716130643 
2082	-0.120636470097909 
2083	-0.136992786063444 
2084	-0.293402219333219 
2085	-0.295706289379717 
2086	-7.48817491655209E-02 
2087	-1.42538452119188E-02 
2088	-8.80632109480018E-02 
2089	-0.329495241022144 
2090	-0.782560888333749 
2091	-1.39157586737768 
2092	-1.63024122441089 
2093	-0.819142689348636 
2094	-0.594028978491874 
2095	-0.473088162704354 
2096	-0.366448582915836 
2097	-7.16503985754309E-02 
2098	 0.111872444944983 
2099	 0.257957564802095 
2100	 3.94093407380092E-02 
2101	-0.077709446277337 
2102	-7.16671303030446E-03 
2103	-0.309408431085921 
2104	-0.359887452571786 
2105	-0.137331078795977 
2106	-0.349700946219915 
2107	-0.338412667733085 
2108	-0.22608093950686 
2109	-0.312561869764046 
2110	-0.18956539343068 
2111	-0.090098727034927 
2112	-9.76063723394285E-02 
2113	-0.102300432265483 
2114	-0.123176225519584 
2115	-0.131290070326975 
2116	-0.204791466055171 
2117	-0.279391258361244 
2118	-0.258768276215662 
2119	-0.241108927980453 
2120	-0.26038620469164 
2121	-0.274307861983874 
2122	-0.315021174768125 
2123	-0.330429174954574 
2124	-0.196589068812133 
2125	-0.172432405046279 
2126	 6.52786266005397E-02 
2127	 0.492956614953575 
2128	 0.20783995593234 
2129	 0.119587690251149 
2130	 0.22756192341471 
2131	 0.154394232863079 
2132	 0.202848392991064 
2133	 0.218259566120553 
2134	 0.183410034452835 
2135	 3.19728967374338E-02 
2136	-0.070522024836141 
2137	-0.199875125857116 
2138	-0.174251884982371 
2139	-5.08138615535552E-02 
2140	-3.55715685894653E-02 
2141	 3.94511200770605E-02 
2142	 7.30759542725005E-02 
2143	 1.62839220220601E-02 
2144	-3.09388268851299E-02 
2145	-0.105475572946379 
2146	-0.205437162932915 
2147	-0.263900855077743 
2148	-0.457479048731515 
2149	-0.486213991817565 
2150	-0.410996422431722 
2151	-0.310255017620235 
2152	-0.220687415123156 
2153	-0.18869848282215 
2154	-0.10728077694276 
2155	-0.147466320372942 
2156	-0.230007715623742 
2157	-0.233756585211988 
2158	-0.198693198436154 
2159	-0.195836199678781 
2160	-0.151608202865382 
2161	-0.158863190229228 
2162	-0.195875688397202 
2163	-0.230463971395959 
2164	-0.337637008223964 
2165	-0.39004845167605 
2166	-0.44715554886961 
2167	-0.456974990266725 
2168	-0.347026629934876 
2169	-0.264851027547874 
2170	-9.01146234855074E-02 
2171	 7.92320093316317E-02 
2172	 4.71338688006443E-02 
2173	-0.054122143676256 
2174	 0.017307026528082 
2175	-5.39704097476714E-02 
2176	-9.06183866728838E-02 
2177	-0.100857408527099 
2178	-0.448148473197518 
2179	-0.536433605893007 
2180	-0.508556465617235 
2181	-0.58999715396613 
2182	-0.383841711346773 
2183	-0.113254136420667 
2184	-1.15084919655672E-02 
2185	 0.119440990889528 
2186	 0.151967298989036 
2187	-4.42389936562848E-02 
2188	-2.32236706774666E-02 
2189	 0.138016506832135 
2190	 0.105244317678214 
2191	 0.167440991707707 
2192	 0.134857032235616 
2193	-0.117743451498751 
2194	-0.19386544327408 
2195	-0.176003636821399 
2196	-0.233257220500564 
2197	-0.313664053192421 
2198	-0.32309525220266 
2199	-0.244994454034887 
2200	-0.404393910223296 
2201	-0.423919421230409 
2202	-0.600399070554942 
2203	-1.14581655705041 
2204	-1.41578555141725 
2205	-1.22915069569323 
2206	-0.875134399823045 
2207	-0.514770557339573 
2208	-0.422584542955231 
2209	-0.457661035552079 
2210	-0.307215040300905 
2211	-3.12433902077336E-02 
2212	 0.116281843418106 
2213	 5.36630675283694E-02 
2214	-5.27061328633287E-03 
2215	 8.16874857226022E-02 
2216	-8.26617897819173E-02 
2217	-0.166216314386655 
2218	-0.194019004739522 
2219	-0.282344283392002 
2220	-0.495361446805299 
2221	-0.601315279593026 
2222	-0.877390522753542 
2223	-0.97608803832992 
2224	-0.751007580766782 
2225	-0.651834329148824 
2226	-0.547631985243304 
2227	-0.387720917930699 
2228	-0.26360899908348 
2229	-0.240390165915773 
2230	-0.14787181636799 
2231	-8.53600244985833E-02 
2232	-0.211128351994063 
2233	-0.195892105795759 
2234	 0.177965957603535 
2235	-1.14363870499115E-02 
2236	-0.115151426812236 
2237	-0.101299022295537 
2238	-9.02787768081656E-02 
2239	 3.18553021763886E-02 
2240	-5.66941962476664E-02 
2241	-0.104825340321207 
2242	-0.150145895200114 
2243	-0.236926687183164 
2244	-0.444533804441675 
2245	-0.809106574648603 
2246	-0.917027468424995 
2247	-1.35993391298508 
2248	-1.0902405925537 
2249	-0.596143804710582 
2250	-0.571749129165525 
2251	-0.362937579802175 
2252	-8.93484983000376E-02 
2253	-0.033288312411855 
2254	-0.476540287221599 
2255	-0.805780213015349 
2256	-1.33768387020414 
2257	-1.35177935876561 
2258	-0.637115250213009 
2259	-0.481967113679611 
2260	-0.256847628034576 
2261	 0.244292204780834 
2262	 0.235748920859708 
2263	-3.131512971768E-04 
2264	-3.22922597279703E-02 
2265	-1.34227020155912 
2266	-2.37588678059571 
2267	-1.30534991004563 
2268	-0.764823572393549 
2269	 0.196362871871758 
2270	 0.247136057254609 
2271	 0.141477375496155 
2272	 0.139708901046528 
2273	-3.39236685208583E-02 
2274	-0.150364226808136 
2275	-7.41748631732339E-02 
2276	-0.373789480819402 
2277	-0.94157743364993 
2278	-0.991705446329255 
2279	-1.1048179620289 
2280	-1.29108245966413 
2281	-1.0317960979556 
2282	-1.44474381840497 
2283	-1.17753749080937 
2284	-0.450826239910577 
2285	-0.57111336140484 
2286	 4.85858631276623E-02 
2287	-1.90061383846466 
2288	 1.07556467066534 
2289	 2.03696864748727 
2290	 4.50054223946934 
2291	-26.1540188317974 
2292	-5.68021050251933 
2293	-6.84798834276891 
2294	-3.84824749633027 
2295	-6.88104759615365 
2296	-16.6521425485275 
2297	-2.62108505279697 
2298	-3.88475388452808 
2299	 22.1662806732466 
2300	 3.11844340021219 
2301	 1.17468381958549 
2302	 0.680476063752878 
2303	-1.32773594560557 
2304	-0.290102789050124 
2305	-0.533417050687439 
2306	-1.79533869119567 
2307	-2.19892235855313 
2308	 41.7446312006088 
2309	-8.21507547860005 
2310	-1.42054118027959 
2311	 0.623047167940541 
2312	 1.27478172019529 
2313	 1.04755150548028 
2314	-1.01611225877592 
2315	-17.4936520198914 
2316	 10.454148528876 
2317	 2.75556629137898 
2318	-2.36638230715401 
2319	-9.52548575564002 
2320	 11.8787053129563 
2321	 56.1933302586479 
2322	 3.75636251212333 
2323	 2.17284984684118 
2324	-28.4370023416607 
2325	-2.93072737597092 
2326	-0.922612846590147 
2327	-0.652588049261886 
2328	-0.610194550446979 
2329	-0.373373158918128 
2330	-0.402086895119769 
2331	-0.300120145599699 
2332	-0.764195097717115 
2333	-1.17514128823038 
2334	-0.91874671932616 
2335	-1.1202217139992 
2336	-1.16196426264958 
2337	-1.48428849061036 
2338	-3.22008283099962 
2339	 5.16442313792757 
2340	-3.69065600876792 
2341	-1.7608104933234 
2342	-9.37067071939873 
2343	-4.06558790590049 
2344	 1.29740218038995 
2345	 0.262654948180975 
2346	-0.796106879006809 
2347	-0.263750960997578 
2348	 0.441440401546972 
2349	 0.707376984711958 
2350	 0.870557648559849 
2351	 0.539730088143724 
2352	 0.183537075550779 
2353	 0.763987677296673 
2354	 1.20834459103547 
2355	 642.824096335793 
2356	-2.86966255422939 
2357	 35.3716351468333 
2358	 3.19906814254817 
2359	 2.66484962572543 
2360	 2.06165145232217 
2361	 2.29947606628295 
2362	 10.589028734974 
2363	-13.1115895598023 
2364	 0.628646886031766 
2365	-0.659832692218683 
2366	-0.539433465989466 
2367	-0.234160522049471 
2368	 0.132818457622127 
2369	 0.202284390833543 
2370	 7.91230759609432E-02 
2371	 8.18029964219707E-03 
2372	 0.567767531203798 
2373	 4.87011982078781 
2374	 1.6452648593002 
2375	 1.7492113194525 
2376	 4.24571748477561 
2377	 4.59552029142764 
2378	 4.69919957119257 
2379	 3.90661211722244 
2380	 2.64405831932918 
2381	 0.41731159965594 
2382	-0.486856105122252 
2383	-0.459962503304666 
2384	-8.07555613825208E-02 
2385	 0.332762134490768 
2386	 1.35382847008585 
2387	 1.14454211206398 
2388	 0.862492850150322 
2389	-1.80671581667559 
2390	 0.25847567770214 
2391	 1.31128636187919 
2392	 0.596641554102479 
2393	 0.527457844477619 
2394	-0.349918753026796 
2395	 3.06638068006534 
2396	 0.895830478496986 
2397	 0.731999980795866 
2398	 0.454430674280033 
2399	 0.449717108462233 
2400	 1.1012507592303 
2401	 0.923738774670765 
2402	 1.02209405652634 
2403	 1.20783275403714 
2404	 0.303166009655636 
2405	-0.187144906172112 
2406	-0.461849143922 
2407	-0.608304901784971 
2408	-0.721387890081694 
2409	-0.977928434643075 
2410	-0.122563923348342 
2411	 1.28981278676884E-02 
2412	-1.04366262577001 
2413	-0.512160988551188 
2414	 2.49888545341131E-02 
2415	-4.01342409732357E-02 
2416	 6.04939883327491E-02 
2417	 0.246519534082687 
2418	-1.84697226218662E-02 
2419	 0.353476282722785 
2420	 1.93863138733337 
2421	 5.69724127767539 
2422	 5.30731422821928 
2423	 3.30344887329197 
2424	 6.73268193879278 
2425	-7.16482102406874 
2426	-5.9550132001836 
2427	-38.7465666867549 
2428	-7.19439132789896 
2429	-2.0091571631973 
2430	-0.571157119980645 
2431	-7.70208007842525E-02 
2432	-1.49268515504316 
2433	 6.74149300364789 
2434	-2.99963228182902 
2435	-1.77584514563063 
2436	 0.268012949523218 
2437	 1.07026807126588 
2438	 0.34033834942292 
2439	 0.75716423011911 
2440	 1.42832599550632 
2441	 1.57109635314997 
2442	 1.03125857043758 
2443	 1.27311249060239 
2444	 1.20798327258562 
2445	 0.965170147558661 
2446	 2.09911475452551 
2447	-2.58251113235114 
2448	-11.4630069993324 
2449	 0.507846854731775 
2450	 2.06579133824653 
2451	 2.21113541490708 
2452	 1.12058807562249 
2453	-0.12814448661937 
2454	-1.71048616523987 
2455	-4.98692355213334 
2456	 1.51379148123437 
2457	 0.657092414868434 
2458	-0.961016010435732 
2459	-5.26438374005734 
2460	 2.48764225530374 
2461	 1.96038750191419 
2462	 1.52464503969333 
2463	 1.99677177322102 
2464	 4.76186755976485 
2465	 2.19540417613236 
2466	 1.01541254958943 
2467	 2.066944416283 
2468	 5.348395556487 
2469	-11.6193942458037 
2470	-2.86159218889244 
2471	-0.803895269223544 
2472	-0.483476472084949 
2473	-1.01887076435556 
2474	-2.70975104702427 
2475	-3.77112069040855 
2476	-11.151992302441 
2477	-12.0433066780828 
2478	 7.99884428287651 
2479	 1.37092283031238 
2480	 0.658113294075177 
2481	 0.600531478295611 
2482	 4.12591463218791 
2483	 7.83692836725515 
2484	 3.06059642241029 
2485	 2.94198952276352 
2486	 1.03011810260661 
2487	 0.269738378054447 
2488	-0.249322628246696 
2489	-0.712072489237231 
2490	-0.616418899639695 
2491	-0.66177639750231 
2492	-0.112522999466329 
2493	 0.597023804601019 
2494	 1.17460475748757 
2495	 0.425954028793915 
2496	 0.599063772215458 
2497	 1.12231645272129 
2498	 0.60360329990542 
2499	 1.49506396130188 
2500	 2.56979951445726 
