Wavelength	rt0707far00008.asd
350	 7.98026023384762E-02 
351	 8.02902815845602E-02 
352	 8.20094390503078E-02 
353	 8.22557471313518E-02 
354	 8.01650915140429E-02 
355	 7.95472689287353E-02 
356	 8.09136075955039E-02 
357	 8.25619365186932E-02 
358	 8.26606204207551E-02 
359	 8.23271513658184E-02 
360	 0.082104626493571 
361	 8.18527384122024E-02 
362	 8.11732146848752E-02 
363	 8.22347480995978E-02 
364	 8.27224329473307E-02 
365	 8.20765595370019E-02 
366	 8.31984279626894E-02 
367	 8.28065025784851E-02 
368	 8.22256284941201E-02 
369	 8.31136431822487E-02 
370	 8.39421681388641E-02 
371	 8.39842069021905E-02 
372	 8.31962747556132E-02 
373	 8.22195724108134E-02 
374	 8.31609329647234E-02 
375	 8.43569306114692E-02 
376	 8.47172988102978E-02 
377	 8.45680064564943E-02 
378	 8.49358085281576E-02 
379	 8.54803993895041E-02 
380	 8.57105017421856E-02 
381	 8.58197510841054E-02 
382	 8.62364035857794E-02 
383	 0.086572600534524 
384	 8.62370915142688E-02 
385	 8.62614183942427E-02 
386	 8.61648029611361E-02 
387	 8.63811153652469E-02 
388	 8.83214810887549E-02 
389	 8.86560371204649E-02 
390	 8.79916081945079E-02 
391	 8.76126144432689E-02 
392	 8.83754169604768E-02 
393	 8.89838137059917E-02 
394	 0.089169376217981 
395	 8.91776070439831E-02 
396	 8.95120614120318E-02 
397	 8.99477504432643E-02 
398	 9.03182634089902E-02 
399	 9.05575378415605E-02 
400	 9.03166486893279E-02 
401	 9.01470521381062E-02 
402	 9.03004913506998E-02 
403	 9.00007002030292E-02 
404	 9.03839193486736E-02 
405	 9.11841105506423E-02 
406	 0.091675356316033 
407	 9.18236974581676E-02 
408	 9.19994586482455E-02 
409	 0.092374084137746 
410	 9.28640112287495E-02 
411	 9.25942630320637E-02 
412	 9.28902113933507E-02 
413	 9.41912843558018E-02 
414	 9.38106383983899E-02 
415	 0.094111212949881 
416	 9.48099967913086E-02 
417	 9.47870211933707E-02 
418	 9.48718426873534E-02 
419	 9.50707877116775E-02 
420	 0.095506548240344 
421	 9.64516051203884E-02 
422	 9.67584155363204E-02 
423	 9.69330895964778E-02 
424	 0.097491443002851 
425	 9.79706694602832E-02 
426	 9.82809016815962E-02 
427	 9.86901867262278E-02 
428	 9.95085647081468E-02 
429	 9.99277630639751E-02 
430	 0.100587761181205 
431	 0.101531523160342 
432	 0.101969343296974 
433	 0.102132037853579 
434	 0.102617691474481 
435	 0.10362153339741 
436	 0.103915956619423 
437	 0.104373824625424 
438	 0.105137986604861 
439	 0.105907219217569 
440	 0.106387749710235 
441	 0.106762607401429 
442	 0.107189764881125 
443	 0.107697259392033 
444	 0.108431563326093 
445	 0.109059352989953 
446	 0.109329404097924 
447	 0.109819074326612 
448	 0.11035755980332 
449	 0.110826885312048 
450	 0.111189764815847 
451	 0.11178100844302 
452	 0.112272676879116 
453	 0.112504062718701 
454	 0.112805544727732 
455	 0.113578209089707 
456	 0.114367186069389 
457	 0.114555995375775 
458	 0.114531070297995 
459	 0.11479855276522 
460	 0.115344748735422 
461	 0.115644143820346 
462	 0.11600675106002 
463	 0.116394286676871 
464	 0.11671685793004 
465	 0.116898232372224 
466	 0.117196006477421 
467	 0.117670870799918 
468	 0.118249447568117 
469	 0.118765367381337 
470	 0.119127734680915 
471	 0.119336300297913 
472	 0.119490200298551 
473	 0.119801375056251 
474	 0.120140800550942 
475	 0.120437452631256 
476	 0.121224572191477 
477	 0.121847758872875 
478	 0.122126627088252 
479	 0.122268505412979 
480	 0.122694013514237 
481	 0.123158586683724 
482	 0.123508202116292 
483	 0.123962421124918 
484	 0.124519261122318 
485	 0.124982081908363 
486	 0.125233146867086 
487	 0.125969371343252 
488	 0.126756343294711 
489	 0.127340855249372 
490	 0.127723906601085 
491	 0.127988903213889 
492	 0.128433656255627 
493	 0.12920087234314 
494	 0.12998445625898 
495	 0.13044594540367 
496	 0.130793273854364 
497	 0.131457558030505 
498	 0.13200675395482 
499	 0.132616663048269 
500	 0.133345453555861 
501	 0.133981003470178 
502	 0.134513414929572 
503	 0.135192181514694 
504	 0.136132882904323 
505	 0.136619383134292 
506	 0.136961846063471 
507	 0.137418309681604 
508	 0.138137025834807 
509	 0.138562197636419 
510	 0.139154882428009 
511	 0.140095598984444 
512	 0.140524255169964 
513	 0.141003070094959 
514	 0.141708572091809 
515	 0.142608385064025 
516	 0.143409145264675 
517	 0.144198121920349 
518	 0.145007402056161 
519	 0.145764428670486 
520	 0.146342333630271 
521	 0.147007139248742 
522	 0.147943616209948 
523	 0.148745351416916 
524	 0.149522828070084 
525	 0.150302089347155 
526	 0.151057487064816 
527	 0.151854551054045 
528	 0.152729767407005 
529	 0.153618460134151 
530	 0.154241279268148 
531	 0.155063761243375 
532	 0.156090218121816 
533	 0.157113650974593 
534	 0.157869351711671 
535	 0.158599349303132 
536	 0.159427436628137 
537	 0.16029735826617 
538	 0.161051559163776 
539	 0.161840592689709 
540	 0.162797554501833 
541	 0.163739978498283 
542	 0.164677293095534 
543	 0.165595551602198 
544	 0.166466047860419 
545	 0.167189232108785 
546	 0.167947644981756 
547	 0.168807427846133 
548	 0.169539803049748 
549	 0.170368189154182 
550	 0.171188842075801 
551	 0.171868128625698 
552	 0.172769763013924 
553	 0.173733349979712 
554	 0.174641193911791 
555	 0.175457502192933 
556	 0.176361561050681 
557	 0.1772626819985 
558	 0.178054926249135 
559	 0.178821596907131 
560	 0.179707343600239 
561	 0.180550929256576 
562	 0.181079144937607 
563	 0.181962371602769 
564	 0.18280281985078 
565	 0.183334938766874 
566	 0.183805644387474 
567	 0.184463627938547 
568	 0.185103108911627 
569	 0.185468665146413 
570	 0.186172591991959 
571	 0.186796372720815 
572	 0.187167619898356 
573	 0.18744791717577 
574	 0.187913011264037 
575	 0.188328797769707 
576	 0.188464820624174 
577	 0.188525374398162 
578	 0.188507549105895 
579	 0.18848722881485 
580	 0.188574042972901 
581	 0.188766091925069 
582	 0.188879260571404 
583	 0.188785349744863 
584	 0.188481220393082 
585	 0.188072535446584 
586	 0.187784228339222 
587	 0.187783870024044 
588	 0.187612589299051 
589	 0.18727999638623 
590	 0.18682397567657 
591	 0.186248555052803 
592	 0.185774256223598 
593	 0.185226001796511 
594	 0.184379341887217 
595	 0.183037910934526 
596	 0.181886664677613 
597	 0.180731363833837 
598	 0.179024671532911 
599	 0.177857733422033 
600	 0.176742403094181 
601	 0.175530128334588 
602	 0.174978840541994 
603	 0.174599233504804 
604	 0.174403847356242 
605	 0.174441214548411 
606	 0.174118244694199 
607	 0.173878466733895 
608	 0.17396043617625 
609	 0.174306192360127 
610	 0.174147171072675 
611	 0.173888643974247 
612	 0.173935362943857 
613	 0.17386634165671 
614	 0.17406090764788 
615	 0.174263735916124 
616	 0.173973772879481 
617	 0.173955845361582 
618	 0.17395122453588 
619	 0.173853741836767 
620	 0.173995671329574 
621	 0.174092388017054 
622	 0.174021926564537 
623	 0.173805818009929 
624	 0.173881285846659 
625	 0.173797917878879 
626	 0.173694515052407 
627	 0.174222288065608 
628	 0.17381504022901 
629	 0.173237356232712 
630	 0.173247374606363 
631	 0.173368727401321 
632	 0.173611134765562 
633	 0.173797989436333 
634	 0.173697808954595 
635	 0.173255583791555 
636	 0.172932333412656 
637	 0.172941665743016 
638	 0.173093794216867 
639	 0.172925049038946 
640	 0.172635475810283 
641	 0.172534972492826 
642	 0.172412928337101 
643	 0.172503290950906 
644	 0.172553165963828 
645	 0.171962081275384 
646	 0.171729949805333 
647	 0.171577215236837 
648	 0.17125621358795 
649	 0.171224338288318 
650	 0.17082681962528 
651	 0.170163068253031 
652	 0.169603889987238 
653	 0.169007451964566 
654	 0.168309320711887 
655	 0.16740032656957 
656	 0.166250737259362 
657	 0.165530017618037 
658	 0.165084426895034 
659	 0.164593289320044 
660	 0.163764638285507 
661	 0.163272079007996 
662	 0.163076615549143 
663	 0.162731656758885 
664	 0.16248752289213 
665	 0.162507731473012 
666	 0.162641948304992 
667	 0.162192936896623 
668	 0.16174927856192 
669	 0.161604190643474 
670	 0.161787823376854 
671	 0.161558338871944 
672	 0.161302321787112 
673	 0.161211492862521 
674	 0.161234848118669 
675	 0.161252225869375 
676	 0.161161226049412 
677	 0.161024202676755 
678	 0.161341104647774 
679	 0.161395692638471 
680	 0.161125163022123 
681	 0.160815941705126 
682	 0.160811319947337 
683	 0.160842148796268 
684	 0.16077326183128 
685	 0.160718984511589 
686	 0.160454857592606 
687	 0.159960427409834 
688	 0.159436659945376 
689	 0.159288464861307 
690	 0.158850233376899 
691	 0.158174532496562 
692	 0.157695087838829 
693	 0.156716055577238 
694	 0.155717377075628 
695	 0.15490985792445 
696	 0.153663123138308 
697	 0.152672611809219 
698	 0.151687009637656 
699	 0.150394057041881 
700	 0.149181082258692 
701	 0.147787698522822 
702	 0.146139755468048 
703	 0.144304106889979 
704	 0.142922536682208 
705	 0.141555047834112 
706	 0.139864405684618 
707	 0.13794019176916 
708	 0.135871115825887 
709	 0.133929588742381 
710	 0.132200552338241 
711	 0.129287659800088 
712	 0.126647806539916 
713	 0.124602412019552 
714	 0.122062507384962 
715	 0.120084142595111 
716	 0.118026086302947 
717	 0.115206693690952 
718	 0.112217692374168 
719	 0.109237142641812 
720	 0.106741927281611 
721	 0.104350616794103 
722	 0.101789594581732 
723	 9.93884215977132E-02 
724	 9.74440775951491E-02 
725	 9.47971812741703E-02 
726	 9.19025502785416E-02 
727	 8.90931339472713E-02 
728	 8.64601984606913E-02 
729	 8.34364530806759E-02 
730	 8.04137200835359E-02 
731	 7.75942581674964E-02 
732	 7.48859450396504E-02 
733	 7.29945508766142E-02 
734	 7.15727439641637E-02 
735	 7.03901907432408E-02 
736	 6.93369453324567E-02 
737	 6.83757195035561E-02 
738	 6.75965845126287E-02 
739	 6.70399766437652E-02 
740	 6.64004731132371E-02 
741	 6.63221597011463E-02 
742	 0.066431912488486 
743	 0.065989846419479 
744	 6.58755662156688E-02 
745	 6.55609376306243E-02 
746	 6.50860204946505E-02 
747	 6.54064207142967E-02 
748	 6.54217793340103E-02 
749	 6.51422413867168E-02 
750	 6.48877773019601E-02 
751	 6.50112781559351E-02 
752	 6.48939889379694E-02 
753	 6.46289106662054E-02 
754	 6.46473469971993E-02 
755	 6.45626362399024E-02 
756	 6.46585266478614E-02 
757	 6.49383593777564E-02 
758	 6.48871032175577E-02 
759	 0.065074836259441 
760	 0.065487950155182 
761	 6.55222736568749E-02 
762	 6.56187305655154E-02 
763	 6.55543732793076E-02 
764	 6.52691358572567E-02 
765	 6.48957347352971E-02 
766	 6.50549298760412E-02 
767	 6.51081771411507E-02 
768	 6.49148553375809E-02 
769	 6.47756569281186E-02 
770	 6.51030226824828E-02 
771	 6.53859732209076E-02 
772	 6.53049892401224E-02 
773	 6.55877565825415E-02 
774	 6.59042667407855E-02 
775	 0.066052613002014 
776	 6.59515177632093E-02 
777	 6.58306275908516E-02 
778	 6.61639682313667E-02 
779	 6.67777904183586E-02 
780	 6.68819490502522E-02 
781	 6.69127124541425E-02 
782	 6.73345740836197E-02 
783	 6.81575075555856E-02 
784	 6.83637744950205E-02 
785	 6.85143941492766E-02 
786	 6.88518717386335E-02 
787	 6.94322357297971E-02 
788	 6.99287421875753E-02 
789	 7.01882707282557E-02 
790	 7.03134929054954E-02 
791	 0.070607255174554 
792	 7.11047756316782E-02 
793	 7.17865143898997E-02 
794	 7.24754034744966E-02 
795	 7.27131700079001E-02 
796	 7.30994098781308E-02 
797	 7.35165770134202E-02 
798	 7.37741281264653E-02 
799	 7.40788270439011E-02 
800	 0.074504024437082 
801	 7.51382991554233E-02 
802	 7.59149184172426E-02 
803	 7.57991262717265E-02 
804	 7.55222842939091E-02 
805	 7.55228445708796E-02 
806	 7.57184721497976E-02 
807	 7.55734433165819E-02 
808	 7.57322143518702E-02 
809	 7.64019154172172E-02 
810	 7.58506566910188E-02 
811	 7.59049527677576E-02 
812	 7.66307947244735E-02 
813	 7.71482183076285E-02 
814	 7.64774215642866E-02 
815	 7.53690764812574E-02 
816	 0.074519116055578 
817	 7.41284447746374E-02 
818	 0.073277025560529 
819	 7.25179790665954E-02 
820	 7.19427375839933E-02 
821	 7.10292530006977E-02 
822	 7.00925477755042E-02 
823	 6.90613102634174E-02 
824	 6.77877232188373E-02 
825	 6.59349862098898E-02 
826	 6.40412855606088E-02 
827	 6.27207285386984E-02 
828	 6.22609518097343E-02 
829	 0.060257550399119 
830	 5.88016116048122E-02 
831	 5.81980717664579E-02 
832	 5.73748394596223E-02 
833	 5.63963683293899E-02 
834	 5.58304694817151E-02 
835	 5.58026931030827E-02 
836	 0.055842893282261 
837	 5.47588732611583E-02 
838	 5.40419644602642E-02 
839	 5.45922944160141E-02 
840	 5.44397480993814E-02 
841	 5.39916832458648E-02 
842	 5.35049068593629E-02 
843	 5.32000516553133E-02 
844	 5.31676210742198E-02 
845	 5.26964974509999E-02 
846	 5.22671545772454E-02 
847	 5.28542599786935E-02 
848	 5.19486332836823E-02 
849	 0.051190295305807 
850	 0.051399808280225 
851	 5.16986442166722E-02 
852	 5.18369714511219E-02 
853	 5.14671568646535E-02 
854	 0.050778998566641 
855	 0.050962435044677 
856	 5.13406829904492E-02 
857	 5.13031480235662E-02 
858	 5.05993952509282E-02 
859	 5.00443057143068E-02 
860	 4.98795834033286E-02 
861	 5.02239472595545E-02 
862	 5.09214983100383E-02 
863	 5.09994891014696E-02 
864	 5.00495479499207E-02 
865	 4.90269830330487E-02 
866	 4.97248107004466E-02 
867	 4.97967305574651E-02 
868	 4.95994159807929E-02 
869	 4.96018527253554E-02 
870	 0.04988262352437 
871	 4.93417259246222E-02 
872	 4.88047559700507E-02 
873	 4.89204124895318E-02 
874	 4.89826756672835E-02 
875	 4.85959802562365E-02 
876	 4.83831443109578E-02 
877	 4.88028340608374E-02 
878	 4.84526346889578E-02 
879	 0.048230833208712 
880	 4.82540492902142E-02 
881	 0.048196861847327 
882	 4.76798907033171E-02 
883	 4.72608403697326E-02 
884	 4.71347843605646E-02 
885	 4.71653041680926E-02 
886	 4.74249725492763E-02 
887	 4.69042023670022E-02 
888	 4.62824666194796E-02 
889	 4.78988418138563E-02 
890	 4.67094868431812E-02 
891	 4.63263867919245E-02 
892	 4.84362866316627E-02 
893	 4.75795034038162E-02 
894	 4.65452653761506E-02 
895	 4.64571940991966E-02 
896	 4.71342861607651E-02 
897	 0.045450261446211 
898	 4.59860540164158E-02 
899	 4.75702939998587E-02 
900	 4.74829009701348E-02 
901	 4.61215737647658E-02 
902	 4.58948726124311E-02 
903	 4.73219988413206E-02 
904	 4.92606881078709E-02 
905	 4.64100144104863E-02 
906	 0.046797986720794 
907	 4.87394406305464E-02 
908	 0.044220002908649 
909	 0.04309286449723 
910	 4.46017032087226E-02 
911	 0.045610079030415 
912	 4.31623434262556E-02 
913	 4.63842840136075E-02 
914	 4.51767844330749E-02 
915	 4.04550285078216E-02 
916	 4.60435654152037E-02 
917	 4.71108188688689E-02 
918	 4.45752708185365E-02 
919	 4.24534432380898E-02 
920	 0.045182114793362 
921	 4.32187641647587E-02 
922	 4.08197320562356E-02 
923	 4.20617648932296E-02 
924	 4.47496838294461E-02 
925	 4.59122113174085E-02 
926	 4.47016364500357E-02 
927	 4.20120300251533E-02 
928	 4.23875065369443E-02 
929	 4.32971997725687E-02 
930	 0.050173209184042 
931	 6.59287601484723E-02 
932	 0.032817296705016 
933	 2.29905008733257E-02 
934	 4.70895487736956E-02 
935	 5.50106017408757E-02 
936	 0.043028072282796 
937	 2.44466532154584E-02 
938	 3.13238733507631E-02 
939	 6.74094822691461E-02 
940	 3.02215439046833E-02 
941	 2.41516022506076E-02 
942	 4.06886649121807E-02 
943	 2.09436667636082E-02 
944	-4.90581134747861E-04 
945	 0.01192901843798 
946	 4.40319557088098E-02 
947	 5.59460882501884E-02 
948	 4.56466358374113E-02 
949	 4.27409063053515E-02 
950	 5.13758151977788E-02 
951	 5.59860269537925E-02 
952	 4.06013398435133E-02 
953	 3.56087004274565E-02 
954	 3.61452056177321E-02 
955	 2.08120005021638E-02 
956	 4.06076917106238E-02 
957	 5.18524494076289E-02 
958	 4.40989067778677E-02 
959	 3.40876928385312E-02 
960	 4.20280748961918E-02 
961	 4.64478235770463E-02 
962	 3.95527644391627E-02 
963	 2.87830900835544E-02 
964	 4.15357849956177E-02 
965	 0.043698005460865 
966	 3.81139629454428E-02 
967	 4.82774893470348E-02 
968	 4.65857500204627E-02 
969	 4.04646761702405E-02 
970	 3.81041048257682E-02 
971	 4.36772574664617E-02 
972	 4.02081544506229E-02 
973	 3.72266024982102E-02 
974	 3.83316415287033E-02 
975	 3.81745324017483E-02 
976	 3.58695445054784E-02 
977	 3.51234750090743E-02 
978	 0.036151921506467 
979	 0.036990943829467 
980	 4.85235506169557E-02 
981	 4.63265485777587E-02 
982	 3.47896320761866E-02 
983	 3.84633880606793E-02 
984	 4.23195414953181E-02 
985	 3.86036368443753E-02 
986	 3.51239375001502E-02 
987	 0.045333348226197 
988	 4.02734554073997E-02 
989	 3.69421126249099E-02 
990	 0.041644606131062 
991	 4.78710137211101E-02 
992	 4.49717911884298E-02 
993	 3.64393272367048E-02 
994	 3.15932207988861E-02 
995	 3.84568527159785E-02 
996	 4.29174644393678E-02 
997	 4.74430524591914E-02 
998	 4.68640241632316E-02 
999	 0.036363760982969 
1000	 3.89009127814557E-02 
1001	 4.62118956900177E-02 
1002	 0.047437900716043 
1003	 4.69987577719747E-02 
1004	 0.043215564018382 
1005	 4.20305496815287E-02 
1006	 4.19920422233992E-02 
1007	 4.08467271425827E-02 
1008	 0.040331603142725 
1009	 4.10875855239631E-02 
1010	 4.09626637121306E-02 
1011	 4.05049532798611E-02 
1012	 4.08213119321589E-02 
1013	 4.05205561626454E-02 
1014	 4.05836581865595E-02 
1015	 4.10167201173802E-02 
1016	 4.07779139607869E-02 
1017	 0.039597908268766 
1018	 4.01000034458639E-02 
1019	 4.13928800955203E-02 
1020	 4.21032504393971E-02 
1021	 4.37294750743238E-02 
1022	 4.51460003798016E-02 
1023	 0.045314328064215 
1024	 4.31728446453589E-02 
1025	 4.17291113709251E-02 
1026	 0.041502193600288 
1027	 4.09339013972647E-02 
1028	 4.06720440004762E-02 
1029	 4.06137607209548E-02 
1030	 4.04052248565605E-02 
1031	 4.02871611951337E-02 
1032	 4.06808030570765E-02 
1033	 0.040211536477428 
1034	 3.92083781184151E-02 
1035	 3.90888744949922E-02 
1036	 3.86121536906909E-02 
1037	 3.87946493255928E-02 
1038	 4.06364422752747E-02 
1039	 4.11334902423891E-02 
1040	 4.04030984460726E-02 
1041	 3.99654490335598E-02 
1042	 3.97546126496644E-02 
1043	 3.84884946758347E-02 
1044	 3.90014372408243E-02 
1045	 4.14102170286014E-02 
1046	 0.041858191870289 
1047	 4.21969666058259E-02 
1048	 4.22437336453133E-02 
1049	 4.12435745078808E-02 
1050	 4.05641740297595E-02 
1051	 3.95818977739026E-02 
1052	 3.92707922867712E-02 
1053	 3.88821770426014E-02 
1054	 0.038932128898099 
1055	 3.90513292018091E-02 
1056	 4.04491881143435E-02 
1057	 4.25715658140414E-02 
1058	 4.66957350077069E-02 
1059	 4.65541544295268E-02 
1060	 4.60796617820309E-02 
1061	 4.43446240621272E-02 
1062	 3.64445633359163E-02 
1063	 3.59259655000582E-02 
1064	 0.03999101060445 
1065	 4.13704442856957E-02 
1066	 4.58737442144896E-02 
1067	 4.72132428658675E-02 
1068	 4.46894422710844E-02 
1069	 4.41406707041613E-02 
1070	 4.40415600307885E-02 
1071	 4.36107727913663E-02 
1072	 4.41732578251061E-02 
1073	 4.33988669109904E-02 
1074	 4.23681679653184E-02 
1075	 3.99000557293939E-02 
1076	 3.94608208749704E-02 
1077	 3.96279001470565E-02 
1078	 3.95434053935945E-02 
1079	 4.06786206154773E-02 
1080	 4.08799626231482E-02 
1081	 4.02073965921521E-02 
1082	 3.96680103137344E-02 
1083	 3.88629777652162E-02 
1084	 3.87435024589064E-02 
1085	 3.88113353617539E-02 
1086	 3.89188568823524E-02 
1087	 3.96718697324433E-02 
1088	 3.99737446184215E-02 
1089	 4.01213919022575E-02 
1090	 3.99048996027059E-02 
1091	 3.98013143540952E-02 
1092	 4.01829775471699E-02 
1093	 4.00492495370082E-02 
1094	 3.86865346227167E-02 
1095	 3.95802531498823E-02 
1096	 4.21951910461552E-02 
1097	 4.26342967809853E-02 
1098	 4.36206310263745E-02 
1099	 4.33904402879342E-02 
1100	 0.039792702798967 
1101	 3.89493759441712E-02 
1102	 4.07137299263017E-02 
1103	 4.09765758482891E-02 
1104	 4.35320868563165E-02 
1105	 4.01884625701237E-02 
1106	 3.62267620663722E-02 
1107	 3.41935468413958E-02 
1108	 3.58550058619517E-02 
1109	 3.96543982764655E-02 
1110	 4.02281020123464E-02 
1111	 4.12308984755399E-02 
1112	 4.37693107895051E-02 
1113	 4.31930618616291E-02 
1114	 4.31232322714294E-02 
1115	 5.00449617536294E-02 
1116	 5.22835112513186E-02 
1117	 4.76670113776127E-02 
1118	 4.34552321013214E-02 
1119	 2.91894558183559E-02 
1120	 2.02812512910311E-02 
1121	 2.12589906823842E-02 
1122	 1.41985341609296E-03 
1123	-7.46010879552444E-02 
1124	-9.30048071238775E-02 
1125	-5.63395756912989E-02 
1126	-6.13392951072608E-02 
1127	-1.93295769772545E-02 
1128	 4.14612998343257E-02 
1129	 4.83614433271273E-02 
1130	-3.42787965061745E-02 
1131	-2.00679569305397E-02 
1132	 4.50682286544134E-02 
1133	 4.22668661356071E-02 
1134	 2.46293531679967E-02 
1135	 3.01527419280248E-02 
1136	 3.16040723315839E-02 
1137	 2.79804782003585E-02 
1138	 0.041938956921679 
1139	 2.86868950711583E-02 
1140	 1.63782257171865E-02 
1141	 1.15579528764495E-02 
1142	 1.74025245756974E-02 
1143	 0.049852641738077 
1144	 0.056067029878252 
1145	 2.48780782967337E-02 
1146	 1.95069765269582E-02 
1147	 1.78552267017163E-02 
1148	 1.98464418661675E-02 
1149	 3.66690951198068E-02 
1150	 3.99786430025197E-02 
1151	 3.38582406868397E-02 
1152	 3.08321103721853E-02 
1153	 2.28245100589388E-02 
1154	 2.54125664922745E-02 
1155	 3.12094126580212E-02 
1156	 3.53988059042301E-02 
1157	 0.035101213653946 
1158	 3.21464390963907E-02 
1159	 2.80681519107219E-02 
1160	 2.98120254814228E-02 
1161	 3.73512656605392E-02 
1162	 4.18905167656023E-02 
1163	 4.47484625165717E-02 
1164	 4.26000715896917E-02 
1165	 3.64276385559451E-02 
1166	 3.59356824159861E-02 
1167	 3.69384605197691E-02 
1168	 3.61037637118099E-02 
1169	 3.73151548181845E-02 
1170	 3.81610544636169E-02 
1171	 3.86288901848158E-02 
1172	 3.85085648161406E-02 
1173	 3.95629220805831E-02 
1174	 4.12899995539932E-02 
1175	 4.20440493934735E-02 
1176	 4.26600239109458E-02 
1177	 4.28551522255278E-02 
1178	 4.19552907491891E-02 
1179	 4.21160066538689E-02 
1180	 4.37199000668635E-02 
1181	 4.28827304048759E-02 
1182	 4.20361578518086E-02 
1183	 4.12427102982265E-02 
1184	 3.90319190726211E-02 
1185	 3.94587050743737E-02 
1186	 4.17052923779374E-02 
1187	 4.26632759940238E-02 
1188	 4.14275293130803E-02 
1189	 3.97183746786731E-02 
1190	 3.82204370824828E-02 
1191	 3.84398331515873E-02 
1192	 3.89636411838435E-02 
1193	 4.15049789673332E-02 
1194	 4.25378849562464E-02 
1195	 4.26413426206901E-02 
1196	 4.27316685664532E-02 
1197	 4.33312883381044E-02 
1198	 4.34212276272542E-02 
1199	 4.25956563797225E-02 
1200	 4.16589460706776E-02 
1201	 3.99177765028926E-02 
1202	 4.01307665702004E-02 
1203	 4.06483960404144E-02 
1204	 3.87975889436085E-02 
1205	 3.86078217222049E-02 
1206	 3.84706153471527E-02 
1207	 3.71208940970483E-02 
1208	 3.91408204895955E-02 
1209	 4.11717382308493E-02 
1210	 0.039594090858185 
1211	 4.01607506418203E-02 
1212	 4.28574655960918E-02 
1213	 4.14408253724081E-02 
1214	 4.09396713763542E-02 
1215	 4.10918046221525E-02 
1216	 4.39101064938126E-02 
1217	 4.13901116130167E-02 
1218	 3.94815746995149E-02 
1219	 4.26409562926963E-02 
1220	 4.22455471674956E-02 
1221	 4.16522375187693E-02 
1222	 4.40177946392634E-02 
1223	 4.30657288604599E-02 
1224	 4.03785268239999E-02 
1225	 0.040024366851818 
1226	 4.21587556621568E-02 
1227	 0.043203913392352 
1228	 4.14838675756389E-02 
1229	 4.18577158695112E-02 
1230	 4.23960431300957E-02 
1231	 4.04238477007655E-02 
1232	 4.14144849078596E-02 
1233	 4.21793996847111E-02 
1234	 3.95646526878834E-02 
1235	 3.88343832412395E-02 
1236	 0.039590364601461 
1237	 4.01043983794488E-02 
1238	 4.11073758721474E-02 
1239	 4.12803404782147E-02 
1240	 4.02973179396235E-02 
1241	 3.88194249352034E-02 
1242	 3.77323098880917E-02 
1243	 0.038148484965466 
1244	 3.91871225374213E-02 
1245	 3.99672306702824E-02 
1246	 4.12169313353439E-02 
1247	 4.24035057787359E-02 
1248	 0.041769681621187 
1249	 4.08471056213743E-02 
1250	 4.14936336832237E-02 
1251	 0.040909836311621 
1252	 4.11258925507948E-02 
1253	 4.24631440679288E-02 
1254	 4.06101583149621E-02 
1255	 3.96034314667193E-02 
1256	 3.94475682474641E-02 
1257	 4.07251300338017E-02 
1258	 4.04952977179918E-02 
1259	 3.92841048571899E-02 
1260	 3.95711231692633E-02 
1261	 4.10070242890604E-02 
1262	 4.13174555601685E-02 
1263	 4.25276506910892E-02 
1264	 4.22013578850578E-02 
1265	 4.14193807926354E-02 
1266	 0.042099331825782 
1267	 4.26643464716922E-02 
1268	 4.37644707555108E-02 
1269	 4.45397398938131E-02 
1270	 4.20102169162955E-02 
1271	 4.08150629646841E-02 
1272	 4.16399513460934E-02 
1273	 4.01365437913148E-02 
1274	 3.95738549526993E-02 
1275	 4.09317135906733E-02 
1276	 4.12510663414115E-02 
1277	 4.05387031573049E-02 
1278	 4.08471140422313E-02 
1279	 4.21635562548109E-02 
1280	 4.16029896961162E-02 
1281	 0.040712754060331 
1282	 4.01835767034096E-02 
1283	 4.02969031730417E-02 
1284	 3.83158728102792E-02 
1285	 3.82219813950457E-02 
1286	 4.23520752471553E-02 
1287	 4.30016716138755E-02 
1288	 4.08132500257794E-02 
1289	 4.09190975058235E-02 
1290	 0.042566010684801 
1291	 4.00502457454128E-02 
1292	 0.037900183267832 
1293	 4.00193018079755E-02 
1294	 4.13038956866997E-02 
1295	 4.01335472314761E-02 
1296	 4.09112913538118E-02 
1297	 0.041193324245668 
1298	 4.03080548932989E-02 
1299	 4.06443716117905E-02 
1300	 4.09231955525914E-02 
1301	 4.13854037635023E-02 
1302	 4.10659345164198E-02 
1303	 4.00260120649052E-02 
1304	 3.94824493627961E-02 
1305	 3.85604511767204E-02 
1306	 3.83068760673053E-02 
1307	 3.85883696996576E-02 
1308	 3.76219900149151E-02 
1309	 3.64645250196828E-02 
1310	 3.56637651371646E-02 
1311	 0.031162567464432 
1312	 3.18843150647211E-02 
1313	 3.94295893872711E-02 
1314	 4.21513547452703E-02 
1315	 4.51524920118487E-02 
1316	 0.047098667008443 
1317	 4.55721979577105E-02 
1318	 0.044291404775638 
1319	 4.18128311177109E-02 
1320	 4.20935681440279E-02 
1321	 4.43178963988102E-02 
1322	 4.35866765034784E-02 
1323	 4.22705868819962E-02 
1324	 4.44101799346269E-02 
1325	 4.34443005195411E-02 
1326	 4.06314018562091E-02 
1327	 4.14152592844618E-02 
1328	 4.38021943603839E-02 
1329	 5.02161594214095E-02 
1330	 5.53340766950845E-02 
1331	 5.17373121955395E-02 
1332	 4.70363651427099E-02 
1333	 4.83677622725983E-02 
1334	 0.045764690437261 
1335	 3.81882545778363E-02 
1336	 3.29408138399685E-02 
1337	 3.58541105869851E-02 
1338	 3.24790844928851E-02 
1339	 3.00383850991006E-02 
1340	 5.11750677842378E-02 
1341	 5.26219824712882E-02 
1342	 2.30956163834684E-02 
1343	 6.66934848894361E-03 
1344	-1.81634101251345E-02 
1345	-2.60479568722473E-02 
1346	 3.94045759981971E-03 
1347	 8.17070655219224E-03 
1348	 5.37042181079419E-03 
1349	 0.030060102513893 
1350	 6.43066544790401E-02 
1351	 6.49977209075587E-02 
1352	 6.18901343340934E-02 
1353	 0.15125729214291 
1354	 0.242078701728645 
1355	 0.248837364425826 
1356	 0.111033485319078 
1357	 0.188547026545065 
1358	 0.616198816183296 
1359	 0.15621593426384 
1360	-0.628932425628838 
1361	 1.83969886278881 
1362	 0.270315272448501 
1363	 0.13856301849135 
1364	-3.3910076960724E-03 
1365	 0.115776698590057 
1366	 1.04836633399047 
1367	 2.09252121187047 
1368	 2.29342826812577 
1369	 1.06291445944748 
1370	 1.25129150128485 
1371	 0.591355367652036 
1372	 0.938197706762807 
1373	-2.57895651139858 
1374	-1.99057640164063 
1375	-0.45001873054579 
1376	 0.498042140225105 
1377	 0.372699693840924 
1378	 0.410469624824289 
1379	 1.2000732987954 
1380	 1.56018373021147 
1381	 0.372563820925153 
1382	 0.870824967806653 
1383	 0.467822008790179 
1384	-2.25530706949605 
1385	-5.15151249267717 
1386	-2.28676934154857 
1387	 0.68621956671088 
1388	 0.159306985387295 
1389	 0.152485394697804 
1390	-0.262041305145399 
1391	 511.464293845391 
1392	-1.42766190424769 
1393	-10.4919029808204 
1394	 0.882251528238846 
1395	 8.54117788162391E-02 
1396	 4.3713409182622 
1397	-0.496443244237217 
1398	 2.59434093717271 
1399	-0.451315400911432 
1400	 1.05061614170709 
1401	-0.162310631454511 
1402	-0.23746463392673 
1403	-0.228567810601526 
1404	 5.71538712330802E-02 
1405	 0.168993679468 
1406	 0.421197877774742 
1407	 0.114641806073974 
1408	-0.814261631853181 
1409	-1.89586173818127 
1410	-1.66203681866699 
1411	-2.32180402872086 
1412	-9.06155199157343 
1413	 413.560783633156 
1414	 7.17342955141819 
1415	-22.9008840863584 
1416	-1.63652070309083 
1417	-0.996459443847118 
1418	-0.46056647138098 
1419	-0.658014289880216 
1420	-1.30811926105546 
1421	-1.92565745433935 
1422	-6.65296273245358 
1423	-3.94194587458957 
1424	-1.36117621773052 
1425	-1.03728817697419 
1426	-4.08209366677651E-02 
1427	 1.58685616308987E-02 
1428	-1.32565380108931 
1429	 2.22121446952917 
1430	-1.55840562632048 
1431	-2.76575154971427 
1432	 0.664637773850349 
1433	 0.483193555247816 
1434	-0.871076654441041 
1435	-0.590420264998284 
1436	-0.329285008194203 
1437	 0.32945119636354 
1438	 0.330371290462437 
1439	 5.32669701055468E-02 
1440	 0.362125582379735 
1441	-63.6030065123929 
1442	-2.11089287732576 
1443	-1.55469081828679 
1444	-1.32728278356686 
1445	-1.08157847085924 
1446	-1.29338680859215 
1447	-0.904295774647737 
1448	-0.940460136290249 
1449	-0.910289361721026 
1450	-0.214238150537993 
1451	-0.365012505756737 
1452	-0.534351062957651 
1453	-0.321505793454997 
1454	-0.313387455729348 
1455	 5.45360269305942E-03 
1456	 0.148750289251281 
1457	-0.513702387768235 
1458	-0.413110176033837 
1459	-3.04899598943838E-02 
1460	-5.81117883367478E-02 
1461	-8.57674957504401E-02 
1462	-7.53173697415516E-02 
1463	-0.286628410075616 
1464	-0.509915397288863 
1465	-0.643588597709935 
1466	-0.603458244740198 
1467	-0.789252457205515 
1468	-0.561306202619746 
1469	-5.79770003989972E-02 
1470	 5.77276406323571E-02 
1471	-9.79642011830178E-03 
1472	-3.72824396099321E-02 
1473	-2.61310400692244E-02 
1474	-3.98186860150672E-02 
1475	-0.041788427105292 
1476	-0.137071052684997 
1477	-0.421389368299387 
1478	-0.432500236243226 
1479	-0.39300730253834 
1480	-0.38454360013032 
1481	-0.031089840066247 
1482	 5.62375818878001E-02 
1483	-0.236524692708865 
1484	-0.174148596092778 
1485	 8.96721347855415E-02 
1486	 7.48697793517738E-02 
1487	-2.74771307818442E-02 
1488	 1.83224072823115E-02 
1489	 5.80648054010988E-02 
1490	 3.86722279801048E-02 
1491	 5.00232528314764E-02 
1492	 6.80167049530324E-02 
1493	 2.95720803973503E-02 
1494	 2.18700634991295E-02 
1495	 0.106551915255264 
1496	 0.100557613481669 
1497	-1.19306353730722E-02 
1498	-2.37441677334024E-02 
1499	 1.49285635582084E-02 
1500	 1.31474796030573E-02 
1501	 1.43753444150556E-02 
1502	 0.038196009363505 
1503	 5.55579708131224E-02 
1504	 5.65760584873439E-02 
1505	 6.93582095417867E-02 
1506	 9.10473616543702E-02 
1507	 9.02262863504826E-02 
1508	 6.53034180718716E-02 
1509	 4.29328397405309E-02 
1510	 0.042693828838077 
1511	 3.04833440462255E-02 
1512	 4.15924397811685E-02 
1513	 6.31965769140944E-02 
1514	 6.68474570736733E-02 
1515	 7.87717933509439E-02 
1516	 6.78317843812334E-02 
1517	 5.48375525763232E-02 
1518	 5.53639792668959E-02 
1519	 4.48456970032089E-02 
1520	 3.66524108706396E-02 
1521	 3.95729644044137E-02 
1522	 5.52423461095342E-02 
1523	 5.83047217206739E-02 
1524	 4.06998542354608E-02 
1525	 2.60182596602543E-02 
1526	 2.02531907200308E-02 
1527	 2.23117861130701E-02 
1528	 2.44137300461706E-02 
1529	 3.23132403317168E-02 
1530	 3.81595094264938E-02 
1531	 0.029825524673957 
1532	 3.80435282498658E-02 
1533	 5.67032700030366E-02 
1534	 4.93116619280279E-02 
1535	 4.06004001272317E-02 
1536	 4.58066940044403E-02 
1537	 4.19433776500211E-02 
1538	 0.043859263779347 
1539	 5.76662502575194E-02 
1540	 5.53048471589861E-02 
1541	 5.20544922539214E-02 
1542	 5.85167998141113E-02 
1543	 0.053802630605213 
1544	 5.41092904079193E-02 
1545	 0.055783015854798 
1546	 4.10057071211608E-02 
1547	 3.97470984678756E-02 
1548	 4.67046658026965E-02 
1549	 4.39099289407644E-02 
1550	 4.82750906004436E-02 
1551	 5.13905198083971E-02 
1552	 5.02941590797657E-02 
1553	 5.15959967321187E-02 
1554	 5.02801961359383E-02 
1555	 4.82200774472099E-02 
1556	 4.61049031066339E-02 
1557	 4.76907888792114E-02 
1558	 5.16046870555002E-02 
1559	 5.30709615990735E-02 
1560	 5.17094064758012E-02 
1561	 4.38052684298195E-02 
1562	 4.09629202168443E-02 
1563	 4.58420480604878E-02 
1564	 4.09985325362492E-02 
1565	 3.89232410736836E-02 
1566	 4.73230983596238E-02 
1567	 5.17960960458006E-02 
1568	 5.57443745519168E-02 
1569	 5.77085701520107E-02 
1570	 5.33012644743152E-02 
1571	 4.80042366363321E-02 
1572	 4.36359561082608E-02 
1573	 4.46687291001677E-02 
1574	 4.71828279723094E-02 
1575	 4.07009115535628E-02 
1576	 3.76382889777911E-02 
1577	 4.03107098209593E-02 
1578	 3.75846909505885E-02 
1579	 3.75415499188994E-02 
1580	 0.043448176992749 
1581	 4.61205560905527E-02 
1582	 4.88794545147925E-02 
1583	 5.63446155262144E-02 
1584	 5.57986716065403E-02 
1585	 4.77691084232452E-02 
1586	 4.48285141136997E-02 
1587	 4.68435236506068E-02 
1588	 4.67982137140337E-02 
1589	 0.046280666962583 
1590	 0.048366159641602 
1591	 0.048580786516414 
1592	 4.53497844231537E-02 
1593	 4.42577938620216E-02 
1594	 4.79038476171068E-02 
1595	 0.046476883346723 
1596	 4.20010552128601E-02 
1597	 4.53817611194822E-02 
1598	 4.84230335602698E-02 
1599	 4.20146497300692E-02 
1600	 0.039133562502655 
1601	 4.47747699570718E-02 
1602	 4.31414975699449E-02 
1603	 4.29545308507397E-02 
1604	 4.69040888985214E-02 
1605	 4.03053506953896E-02 
1606	 3.60934074368213E-02 
1607	 3.92696345228599E-02 
1608	 4.28586834296133E-02 
1609	 4.57295658362929E-02 
1610	 4.39453827543377E-02 
1611	 4.14714728393909E-02 
1612	 0.039291309172744 
1613	 3.70439196020022E-02 
1614	 3.80985145147008E-02 
1615	 3.86553342095836E-02 
1616	 4.05041657614142E-02 
1617	 4.39610467224964E-02 
1618	 4.62330852218652E-02 
1619	 4.35186609123502E-02 
1620	 3.65977323510736E-02 
1621	 4.02206235685983E-02 
1622	 4.30170578470266E-02 
1623	 3.66757591141641E-02 
1624	 4.01171734176636E-02 
1625	 4.36403163679333E-02 
1626	 3.78930902216465E-02 
1627	 0.037126960841249 
1628	 4.25401115240384E-02 
1629	 4.27707761592006E-02 
1630	 4.09095799196841E-02 
1631	 4.80668273953553E-02 
1632	 5.07221129044349E-02 
1633	 4.41520505430023E-02 
1634	 4.15938267609721E-02 
1635	 4.01562659583002E-02 
1636	 0.038581197515526 
1637	 3.82457584027702E-02 
1638	 3.72027421616864E-02 
1639	 3.79817526423739E-02 
1640	 3.96879019102193E-02 
1641	 4.23713235347172E-02 
1642	 4.52240593807348E-02 
1643	 4.68914453760426E-02 
1644	 0.047462199541475 
1645	 4.68320669104306E-02 
1646	 4.41409164888469E-02 
1647	 4.10623073718961E-02 
1648	 3.84589716687287E-02 
1649	 3.42256172913146E-02 
1650	 3.50795080676101E-02 
1651	 3.92385837339878E-02 
1652	 4.34722355299644E-02 
1653	 5.23982309545286E-02 
1654	 5.36052627795625E-02 
1655	 4.90778275623054E-02 
1656	 4.57821472344293E-02 
1657	 3.78685393936847E-02 
1658	 3.63529369017643E-02 
1659	 3.91868530761286E-02 
1660	 0.041311945219372 
1661	 4.59913777761974E-02 
1662	 4.49739312514225E-02 
1663	 0.041346602201928 
1664	 4.10659454182315E-02 
1665	 3.83682039256078E-02 
1666	 3.83871690605984E-02 
1667	 4.26687929895848E-02 
1668	 4.17471533304023E-02 
1669	 4.53978654505519E-02 
1670	 4.85093370386538E-02 
1671	 0.044695332404685 
1672	 4.17154310264906E-02 
1673	 0.042419488882847 
1674	 4.49185296003562E-02 
1675	 4.43544069240804E-02 
1676	 4.33526884157513E-02 
1677	 4.09269039825702E-02 
1678	 3.31459522459126E-02 
1679	 3.09478940486111E-02 
1680	 3.33780348823556E-02 
1681	 0.037849129547369 
1682	 4.31998736575274E-02 
1683	 4.34368102114154E-02 
1684	 4.18583118066489E-02 
1685	 3.91645199013483E-02 
1686	 3.82896143749519E-02 
1687	 4.33027761632729E-02 
1688	 4.86530674751206E-02 
1689	 0.04639854144092 
1690	 4.03035843401353E-02 
1691	 3.87632236057221E-02 
1692	 4.00546869950231E-02 
1693	 4.01873321314396E-02 
1694	 3.93313977589667E-02 
1695	 4.03919972692923E-02 
1696	 3.71625117912189E-02 
1697	 3.27262323152989E-02 
1698	 3.87487458996067E-02 
1699	 4.19530514159469E-02 
1700	 3.98657064888156E-02 
1701	 4.07800407434989E-02 
1702	 4.18901752760648E-02 
1703	 4.34049087680108E-02 
1704	 4.13457469673719E-02 
1705	 4.23180165689824E-02 
1706	 0.048027247981834 
1707	 4.45352390993424E-02 
1708	 3.81472499908325E-02 
1709	 3.93546060358234E-02 
1710	 3.60513637949743E-02 
1711	 2.98548733082176E-02 
1712	 3.82722952361493E-02 
1713	 4.46716127772984E-02 
1714	 4.38748588686249E-02 
1715	 4.00126942934765E-02 
1716	 4.67130884196863E-02 
1717	 4.61292255751314E-02 
1718	 4.03781094646858E-02 
1719	 5.12924917120983E-02 
1720	 5.38594014535309E-02 
1721	 4.77269333119979E-02 
1722	 5.16760449344291E-02 
1723	 4.15355882254197E-02 
1724	 2.93996886063126E-02 
1725	 3.76856969075243E-02 
1726	 4.56222751294684E-02 
1727	 4.03155454400487E-02 
1728	 3.35799598500586E-02 
1729	 3.03149512972574E-02 
1730	 3.08400556909961E-02 
1731	 3.94308297049425E-02 
1732	 4.72211235818399E-02 
1733	 3.78532875887228E-02 
1734	 1.93479024284987E-02 
1735	 2.13666611131869E-02 
1736	 3.90076510403376E-02 
1737	 5.06851773722417E-02 
1738	 5.44783067726598E-02 
1739	 5.09589667980557E-02 
1740	 4.22717838960794E-02 
1741	 4.36318933674607E-02 
1742	 5.90516585918354E-02 
1743	 5.75102689379803E-02 
1744	 4.86549916973921E-02 
1745	 4.35891330536551E-02 
1746	 3.67699114284396E-02 
1747	 3.77608871879488E-02 
1748	 3.29989934269718E-02 
1749	 0.031270772407174 
1750	 4.12041354074785E-02 
1751	 4.28307481480025E-02 
1752	 4.59928541700759E-02 
1753	 5.50748724325655E-02 
1754	 6.73606282560395E-02 
1755	 5.73437576830434E-02 
1756	 2.52258190498751E-02 
1757	 8.87217796894126E-03 
1758	 1.56502184934351E-02 
1759	 1.79525138747793E-02 
1760	 1.86600440437456E-02 
1761	 0.017593610802251 
1762	 8.51602371148668E-03 
1763	 5.92524663606968E-03 
1764	 2.86101645480502E-02 
1765	 4.24631705445144E-02 
1766	 1.31969758726092E-02 
1767	 5.44948239340492E-03 
1768	 3.45381681111441E-02 
1769	 5.52983307275616E-02 
1770	 8.57613997250935E-02 
1771	 0.114537188463331 
1772	 0.09475914710836 
1773	 4.26360644404592E-02 
1774	 2.28695142605293E-02 
1775	 2.65892386220601E-02 
1776	 3.80758695002116E-02 
1777	 0.132601277365109 
1778	 0.140463048942969 
1779	 3.98328343798914E-02 
1780	 3.69864523272651E-02 
1781	 5.58188383805193E-02 
1782	 3.71892175866305E-02 
1783	 6.25893834674718E-02 
1784	 9.53974082535371E-02 
1785	 0.080004637981436 
1786	 9.35794484551095E-02 
1787	 0.195466512611009 
1788	 0.196224491471515 
1789	 0.094069657392026 
1790	-2.22261138293468E-02 
1791	-1.56462434764683E-02 
1792	 1.42610256984765E-02 
1793	-0.109133161648577 
1794	-0.190218177400558 
1795	-0.12726401841847 
1796	-4.41447317948411E-02 
1797	-5.61837001220399E-02 
1798	-0.367499283467198 
1799	-0.962442580392125 
1800	-1.21533538619835 
1801	-1.12498292728411 
1802	 0.229785039132517 
1803	 1.13352806909263 
1804	 1.84392275044226 
1805	 1.85077765209068 
1806	-2.27727084404886 
1807	-3.10179090430417 
1808	-0.147774687072336 
1809	-0.234217462526005 
1810	 1.32293987186735 
1811	 1.1900962680168 
1812	-0.642041683600462 
1813	-1.19020623692951 
1814	-0.837402664970439 
1815	 0.294215343159227 
1816	-1.95493379386363 
1817	-1.24391824484019 
1818	-0.835051279969207 
1819	 17.0012565362963 
1820	-0.366597195790789 
1821	 2.0344236290867 
1822	 2.08033432820741 
1823	 24.4162996569622 
1824	-1.24646460224403 
1825	 5.84406156594417E-02 
1826	 0.29785363228241 
1827	-0.05766711575986 
1828	-7.21547801087085E-02 
1829	-2.98780006802272 
1830	-0.99143090054325 
1831	-0.49939439360986 
1832	-0.730994744370699 
1833	-2.46290332386065 
1834	-3.60521688459218 
1835	-5.33630177785164 
1836	-71.7525096507515 
1837	 1.99960307259779 
1838	 1.36656437393658 
1839	 1.1896571747317 
1840	 1.31702453932818 
1841	-1.67993260614668 
1842	-0.412575112169685 
1843	-0.220727082774682 
1844	-0.290889018188027 
1845	-0.270856126130253 
1846	-0.284729782398392 
1847	-0.212553335426755 
1848	-1.17101455787322E-02 
1849	 8.25838487710228E-02 
1850	-0.113532395601764 
1851	-0.114303746867538 
1852	-9.69364558487084E-02 
1853	-8.79613010296295E-02 
1854	-0.314621027278242 
1855	-9.13727915047389 
1856	 2.78606236916398 
1857	 2.26843402973618 
1858	 2.71322351524649 
1859	-9.43699100275783 
1860	-4.50521090933062 
1861	-7.00844349454901 
1862	 3.92052182852765 
1863	 1.27597445875207 
1864	 1.42567768827393 
1865	 1.64995235676878 
1866	 9.95098528727101 
1867	-14.4402636789468 
1868	-1.32978407736495 
1869	-0.222599594102505 
1870	-734.489340500042 
1871	-4.76857285445544 
1872	-1.24715963627903 
1873	-1.49303549218961 
1874	-1.36270136357085 
1875	-0.589880610901106 
1876	-4.57066305177533E-02 
1877	 1.05866638302052 
1878	 1.7791267361381 
1879	 2.47215410200301 
1880	 2.96749308461826 
1881	 19.9980555840538 
1882	-21.3660218436849 
1883	 4.98494650625285 
1884	 1.4963700709048 
1885	 0.362378904050066 
1886	 0.309577284099599 
1887	 1.14030596143392 
1888	 0.349313043428462 
1889	 0.544278482483467 
1890	 1.38839898931993 
1891	 1.50505019749842 
1892	 1.43314356023944 
1893	 2.59524188509776 
1894	 2.72247434352247 
1895	 1.21702494299025 
1896	 0.497876196224502 
1897	 0.361171975416709 
1898	 0.5992453572453 
1899	 0.692371211740535 
1900	 1.10128962434208 
1901	-2.76336504919709 
1902	-2.35096676286484 
1903	-4.58631555054024 
1904	-6.79620371340156 
1905	 4.26693560142045 
1906	 1.9417956004885 
1907	 2.1824629520476 
1908	 1.88915253500597 
1909	 1.68749815358687 
1910	 1.81675605678869 
1911	 1.70227476380209 
1912	 1.22726833659449 
1913	 1.05188320144747 
1914	 0.809409341512866 
1915	 0.797255406588463 
1916	 0.696419682639013 
1917	 2.49421788037125 
1918	-0.87352612373394 
1919	-0.935817251605758 
1920	-2.76366677875727 
1921	-4.66133891895074 
1922	-8.99367181706961 
1923	 5.30199668195615 
1924	-14.4736966262084 
1925	 3.21526009425893 
1926	 9.45532476718422 
1927	 7.05546466465724 
1928	-3.26760418624137 
1929	-2.21856782736397 
1930	-1.25783602809633 
1931	-2.98482590320098 
1932	 2.88779406118319 
1933	 1.1148133486426 
1934	 0.364398930809866 
1935	-0.488922635006379 
1936	-0.584006804554093 
1937	-0.380816903356803 
1938	-0.426691780079635 
1939	-0.379613944088056 
1940	 0.140030669435041 
1941	 0.255603239481486 
1942	-0.226188376552816 
1943	-0.533637268147091 
1944	-1.46625161077068 
1945	-2.36063232898245 
1946	-2.18075914464669 
1947	-1.31313358487171 
1948	-1.1772843944695 
1949	-2.57275818608397 
1950	-1.94283368528839 
1951	-0.657432744470209 
1952	-0.261244022659125 
1953	-0.501753367694985 
1954	-0.300505183920631 
1955	-1.27960027033925 
1956	-14.5523916573502 
1957	 11.0736319701835 
1958	 0.956261003622466 
1959	-9.88298823074433E-02 
1960	-0.121617969816248 
1961	 7.71879280479488E-02 
1962	-1.12654718679086E-02 
1963	 0.390738359393173 
1964	 0.880282756914389 
1965	 1.33495385532534 
1966	 1.81589730049013 
1967	 0.122116497295757 
1968	 6.12729158102518 
1969	 2.10622300575581 
1970	 1.43858266176986 
1971	 1.62283261832211 
1972	 0.426127973352817 
1973	 7.06196146494682E-03 
1974	 1.49528935973987 
1975	 3.68468576874333 
1976	 3.57907480750921 
1977	-3.55644260493718 
1978	-0.680821571566035 
1979	-0.208881604391515 
1980	 9.28765416711292E-02 
1981	 0.539708496347156 
1982	 0.913236215024091 
1983	 85.6542796012889 
1984	-0.240433274488715 
1985	 0.22282489600915 
1986	 1.68052730792946 
1987	 1.63171649642305 
1988	 1.35099373831466 
1989	 0.946183635310558 
1990	 1.21658082380046 
1991	 1.65265852149466 
1992	 0.919532324097688 
1993	 1.06027824308656 
1994	 1.12248104346235 
1995	-18.958354280347 
1996	-3.40920311045953 
1997	 1.32539215860939 
1998	 0.932564140581514 
1999	 0.518883694030658 
2000	 1.41746851547935 
2001	 2.00208562488308 
2002	-1.04913839440017 
2003	-0.15396239855169 
2004	 1.82449341050499E-02 
2005	 7.14993051117455E-02 
2006	 0.113924610083955 
2007	-2.16737723700624E-02 
2008	-0.32813845493888 
2009	-0.385817175723172 
2010	 6.49825197861349E-02 
2011	 0.469864384247175 
2012	 4.36814396942913 
2013	-3.31325629714088 
2014	-9.97145491855747 
2015	-9.08904546340626 
2016	-9.54505563980972 
2017	-8.23668334400248 
2018	-0.700214012850249 
2019	 8.59249141267705E-02 
2020	 0.408048284363997 
2021	 0.647464735623018 
2022	 1.98258357590443 
2023	 2.36092818327151 
2024	 1.93477922759654 
2025	 1.43413944648512 
2026	 1.6932232805267 
2027	 2.01901171405631 
2028	 0.776816006145411 
2029	 0.385033615890355 
2030	 0.12229868671704 
2031	-0.316235751645605 
2032	-0.439121130443283 
2033	-8.95544821999661E-02 
2034	-3.54122897569793E-02 
2035	-0.151760189848154 
2036	-2.61381409545021E-02 
2037	-0.931109781301416 
2038	-1.28001448516009 
2039	-0.965265907113981 
2040	-0.254135374002102 
2041	-0.18098992376369 
2042	 5.87883064549278E-02 
2043	 0.204918026488164 
2044	 0.242561464338219 
2045	-0.691527182294413 
2046	 3.18577636919638 
2047	 0.227205321903011 
2048	-0.371841199050941 
2049	-0.02228843415802 
2050	 7.20328977702722E-02 
2051	-0.295671108876422 
2052	-0.390451827468622 
2053	-0.394884630440393 
2054	-0.370499212716014 
2055	-0.242939066541705 
2056	-0.161453445669621 
2057	-6.63708668421731E-02 
2058	 0.10760736362203 
2059	 0.471311992168989 
2060	 0.643126110652979 
2061	 0.662740915609007 
2062	 0.205645284278343 
2063	 0.12969544619436 
2064	 0.211110039474058 
2065	 0.343332008121627 
2066	 7.86074276509273 
2067	 3.95964502092321 
2068	 0.577763307415861 
2069	 0.264552249719812 
2070	 0.131113031731041 
2071	 7.70344868364509E-02 
2072	-0.102318522842403 
2073	-0.102652643719074 
2074	 3.70777908146555E-02 
2075	 4.41300153951022E-03 
2076	 7.41696456640168E-02 
2077	 1.33725495519138E-02 
2078	-0.449664522692211 
2079	-0.533070054726335 
2080	-0.37189006183857 
2081	-0.400323378985251 
2082	-0.560037848005419 
2083	-0.437101104496351 
2084	-0.356496392901254 
2085	-0.360621109896482 
2086	-2.25068576524618E-02 
2087	 0.315636439312429 
2088	 0.622498442376 
2089	 0.947416417426105 
2090	 0.855556361162991 
2091	 0.567727441131533 
2092	 0.214770295351715 
2093	 0.123025871712327 
2094	 4.64189661929616E-02 
2095	-1.60506887401549E-02 
2096	-0.163803405697848 
2097	-0.393505898126882 
2098	-0.428529002446964 
2099	-0.40088152395885 
2100	-0.318760339140047 
2101	-6.13455774720413E-02 
2102	-0.17050021228428 
2103	-0.295055878640114 
2104	-9.81926427185548E-02 
2105	-0.111002315654687 
2106	-9.18624018587919E-02 
2107	 4.78976919344243E-02 
2108	-8.54055813190293E-02 
2109	-5.76361004512889E-02 
2110	 0.116048680587425 
2111	 0.120309825128946 
2112	 0.180485198749834 
2113	 0.24169826965891 
2114	 0.267027269820177 
2115	 0.072833844820368 
2116	-0.186172325408008 
2117	-0.321531821995351 
2118	-0.646579354544011 
2119	-0.675299294677182 
2120	-0.428004293221285 
2121	-0.315618186292042 
2122	-0.229048021893967 
2123	-0.271599298754073 
2124	-0.331919401160579 
2125	-0.266165977369482 
2126	-0.47136255200778 
2127	-0.671200234709603 
2128	-0.508467771008753 
2129	-0.380236401188692 
2130	-0.122016436483719 
2131	 0.181722768671326 
2132	 0.171888456804459 
2133	 1.79209434282221E-02 
2134	-2.09383795700946E-02 
2135	-0.147910440840844 
2136	-0.173784370097566 
2137	-0.011693174608543 
2138	 3.17891759521091E-03 
2139	-5.35698706065195E-02 
2140	-0.123989330265248 
2141	-0.32759843277415 
2142	-0.352463391828962 
2143	-0.302757859568502 
2144	-0.220300652439847 
2145	-0.153235981393702 
2146	-4.89560695114175E-02 
2147	-7.08628499497941E-02 
2148	-8.57900393974997E-03 
2149	 0.2296701115129 
2150	 0.242594927646979 
2151	 0.173620166868991 
2152	 8.37149660438881E-02 
2153	 4.44565957921022E-02 
2154	 0.125957759828687 
2155	 0.177447165144294 
2156	 0.180596268911482 
2157	 0.181707485225067 
2158	 9.94158969535768E-02 
2159	 8.11448096215784E-02 
2160	 0.131471352906219 
2161	 0.106880585865937 
2162	 2.23866013476333E-02 
2163	-0.031369369412074 
2164	-0.143508633462938 
2165	-0.160279030841006 
2166	-7.30679010136483E-02 
2167	-6.41763408333126E-02 
2168	-1.78564724770308E-02 
2169	-0.02059736682692 
2170	-0.197292046783027 
2171	-0.155340013081954 
2172	-5.30613814579536E-02 
2173	-9.51277328661934E-02 
2174	-7.67366711031447E-02 
2175	-0.21029672913813 
2176	-0.298303838554253 
2177	-0.355819229660014 
2178	-0.340740044271318 
2179	-0.121933310423249 
2180	-6.00532298935234E-02 
2181	 0.132367941895888 
2182	 0.233254603179024 
2183	 9.43658220585541E-02 
2184	 9.85060869977406E-02 
2185	 0.102318604138154 
2186	 7.89016475574538E-02 
2187	 0.121302709770002 
2188	 0.106495688535837 
2189	-4.93937149730063E-02 
2190	-0.142863892040238 
2191	-0.275363956565741 
2192	-0.280853090747972 
2193	-8.32005608945982E-02 
2194	-8.59373024329988E-02 
2195	-0.21781006318666 
2196	-0.227034199830064 
2197	-0.290002107911024 
2198	-0.315626051781935 
2199	-0.295058941286296 
2200	-1.18445727905152E-03 
2201	 0.135614170411648 
2202	 0.140494466243897 
2203	 0.140143704775333 
2204	 0.209108498863437 
2205	-0.338154509711906 
2206	-0.498859747906065 
2207	-0.309430871119478 
2208	-0.6209593147527 
2209	-0.419671916596912 
2210	-0.192736223627238 
2211	-0.113860964265653 
2212	 0.115380221678315 
2213	 4.73406134524068E-02 
2214	-0.183643451404407 
2215	-0.411415609742414 
2216	-0.481269163735816 
2217	-0.51499707059646 
2218	-0.30670717069391 
2219	-0.338045244716541 
2220	-0.623180328070322 
2221	-0.787663769023544 
2222	-0.94046173316381 
2223	-1.11155714852809 
2224	-1.4360646872093 
2225	-1.09268931349179 
2226	-0.566615956401826 
2227	-0.393471251215515 
2228	-8.41978254611532E-02 
2229	-0.034102972325815 
2230	-0.203713076712242 
2231	-0.374150842105344 
2232	-1.04460134968114 
2233	-1.28689111723176 
2234	-1.09531813370594 
2235	-0.411884277153842 
2236	 2.71713516880823E-02 
2237	 8.14626017799273E-02 
2238	-9.47094516282766E-02 
2239	-0.100370240928385 
2240	-4.79489108492509E-02 
2241	-0.086136237931432 
2242	 8.70000381323369E-02 
2243	 0.147735640637713 
2244	-4.00069689874572E-02 
2245	-1.52356271417042E-02 
2246	 0.155950608169106 
2247	 0.012485729934926 
2248	 0.11462269722486 
2249	 0.318509046043565 
2250	 0.107430032350556 
2251	-9.42218815822534E-02 
2252	-0.253321547801232 
2253	-0.571388667722274 
2254	-0.249720551134298 
2255	-0.091107379457614 
2256	 5.98811357240623E-02 
2257	 0.36291557272817 
2258	 8.94586810774931E-02 
2259	 0.109599825738531 
2260	 6.43774912761359E-02 
2261	-0.102589771100626 
2262	-0.115857569556691 
2263	-2.92128951609461E-02 
2264	-0.156200659576604 
2265	-0.236895540756194 
2266	-0.427735963689153 
2267	-1.66895336913083 
2268	-1.92711249603194 
2269	-1.39010277670206 
2270	-0.53698520527065 
2271	-4.34937675383093E-02 
2272	 9.61868221567794E-02 
2273	 0.267023568859155 
2274	 0.190470199537972 
2275	-0.249858236060928 
2276	-0.443723160405143 
2277	-0.387262458468872 
2278	-0.309314171666929 
2279	 0.239162083282736 
2280	 0.292934003169933 
2281	-0.11063573446057 
2282	-0.198199469938761 
2283	-0.507439628191161 
2284	-0.648693418234956 
2285	-0.744247692886493 
2286	-1.43241334856514 
2287	 9.49043463284241 
2288	 1.46253157729631 
2289	 1.66224174735002 
2290	 1.26649421868234 
2291	 2.1360684465951 
2292	 0.646107931870094 
2293	-0.557302488914573 
2294	-0.871156122697147 
2295	-4.59326727161123 
2296	-16.024710514136 
2297	-2.13085927106442 
2298	-2.61360586139788 
2299	 15.6782273272556 
2300	 1.90125232158794 
2301	 0.945111429583803 
2302	 1.64815589121447 
2303	-2.03498518017617 
2304	-0.700604454407649 
2305	-0.772845774738198 
2306	-0.818971699195346 
2307	-0.725120009053109 
2308	 33.4047485682963 
2309	-13.9191999719997 
2310	-8.3258310986673 
2311	 2.27129763384802 
2312	 1.0494876117985 
2313	 0.291888992083607 
2314	-0.425891522707139 
2315	-13.236293863502 
2316	 7.22910461716712 
2317	 3.52200433883313 
2318	 1.06625158377232 
2319	-1.49572178869848 
2320	 5.25139082805457 
2321	 40.8567463612089 
2322	 2.0014033353326 
2323	 1.73316478379239 
2324	-36.1028329567926 
2325	-0.708351427567108 
2326	-0.570781916482196 
2327	-0.42535925857165 
2328	-0.508523308849593 
2329	-1.0542346196899 
2330	-1.06992156224362 
2331	-1.25311256854084 
2332	-1.46737700959831 
2333	-0.8574667844132 
2334	-0.430512734416013 
2335	-5.46253589362051E-02 
2336	 0.402210358757857 
2337	 0.367534747228818 
2338	-0.278337437694814 
2339	 3.15508433183706 
2340	-6.68097778328669 
2341	-2.5198137669659 
2342	-11.2848647341994 
2343	-7.00467932127092 
2344	 3.35379734642244 
2345	 2.12763170346472 
2346	 1.96034460739815 
2347	 0.400225144974722 
2348	 0.266341450637095 
2349	 0.147200362854874 
2350	 7.22156953863633E-02 
2351	 0.561365679976619 
2352	 0.585338854053858 
2353	 0.261622911289019 
2354	 0.263011495896894 
2355	 291.797050085797 
2356	-1.20733557842691 
2357	 17.9687312029928 
2358	 1.98795682026199 
2359	 0.325447241318718 
2360	-0.117921733782 
2361	 3.70804870699386E-02 
2362	-3.9865395461268 
2363	 10.7808262465727 
2364	-1.6245620622595 
2365	-1.37922165864468 
2366	-5.17061845968601E-02 
2367	 0.497199755935121 
2368	 0.440741600216576 
2369	 0.592218975030028 
2370	 1.07243605520102 
2371	 0.345716633515951 
2372	 0.755597731409108 
2373	 2.86630613349779 
2374	 0.206439203470834 
2375	 0.267520620593272 
2376	 1.50156188583171 
2377	 1.42418840400338 
2378	 0.513828423774799 
2379	 7.55107119188699E-02 
2380	-0.137099698382742 
2381	-0.19073554893649 
2382	 0.220249907928476 
2383	 0.485886349355684 
2384	 0.2108010461485 
2385	 0.223255138654324 
2386	 0.515489306405007 
2387	 0.819989753273002 
2388	 2.06828622174803 
2389	-8.23126505939896 
2390	-3.51918923330952 
2391	-1.77288158723448 
2392	-1.20316606099848 
2393	-2.16382644719848 
2394	-5.76702573524467 
2395	 3.75121943395827 
2396	 0.465643247876706 
2397	-0.257155380794956 
2398	-0.39399269623238 
2399	-0.124724435781972 
2400	 9.87862898265398E-04 
2401	-5.5758982201636E-03 
2402	 0.193749888636989 
2403	 0.657139237983255 
2404	 0.828872495994286 
2405	 1.07524374483281 
2406	 1.16920821013538 
2407	 1.00558639604014 
2408	 1.24615545954694 
2409	 2.47433180367647 
2410	 3.45292077290211 
2411	 4.54228602677644 
2412	 2.80459747625772 
2413	 1.21747409670909 
2414	 0.930555742094665 
2415	 0.532634879417008 
2416	 0.497338867721612 
2417	 0.489448327485762 
2418	 0.220274441913503 
2419	 0.344524536438981 
2420	 0.850548967767995 
2421	 2.25111932805064 
2422	 1.97776117742224 
2423	 2.65238625742441 
2424	 8.56947846992289 
2425	-8.86210323544657 
2426	-6.41153141349706 
2427	-36.4030782978562 
2428	-6.23021843108725 
2429	-2.9549258068015 
2430	-3.62086509400921 
2431	-2.89848045570292 
2432	-4.98800165246056 
2433	 4.48406823812329 
2434	 1.06032490509709 
2435	 2.18577780682627 
2436	 1.68681016129105 
2437	 5.86262068468784E-02 
2438	 1.7257255071871 
2439	 1.31151729441611 
2440	 1.72061799301902 
2441	 1.57943573266438 
2442	 1.22135080003672 
2443	 1.60140847277505 
2444	 1.94987297644267 
2445	 3.23021144411939 
2446	 6.50846626103975 
2447	 3.49713224679839 
2448	 6.99213555942251 
2449	 1.82981167661433 
2450	-5.69731015360688 
2451	-2.14043505603693 
2452	 0.111656795522565 
2453	 0.572381329584561 
2454	 1.17536199828055 
2455	 10.8772458433575 
2456	-3.78600109187048 
2457	-2.65743415413004 
2458	-3.02818189780893 
2459	-12.0478165613527 
2460	 4.94640309369592 
2461	 2.55240289998828 
2462	 0.98466499992258 
2463	 1.2441181585785 
2464	 4.61090314442875 
2465	 4.01569686014137 
2466	 2.98685000423007 
2467	 2.04674703295934 
2468	 1.71517776879069 
2469	 1.71985583892247 
2470	 0.592868361510343 
2471	 0.149166718181008 
2472	-1.83577991035514E-02 
2473	-0.821198122835018 
2474	-1.78065377254317 
2475	-2.16031899375611 
2476	-8.18689468763621 
2477	-10.8254567624321 
2478	 11.9087969635615 
2479	 2.09689331307343 
2480	 0.985531846729615 
2481	 0.872242150017277 
2482	 2.80456461287293 
2483	 6.85982301398712 
2484	 3.0064241894545 
2485	 3.33938758123773 
2486	 1.8018778318894 
2487	 0.903289138486311 
2488	 0.762539428895954 
2489	 0.502294061828569 
2490	 0.493517802029558 
2491	 0.698988921287467 
2492	 1.39193074171715 
2493	-0.256390622546667 
2494	-1.01855142543428 
2495	-0.15341531523699 
2496	 5.15721675139582E-02 
2497	 1.08353766897135 
2498	 2.21056290121172 
2499	 2.21845887687773 
2500	 2.11643188457083 
