Wavelength	rt0707far00005.asd
350	 0.079018370249081 
351	 8.15813025133022E-02 
352	 8.27661568328769E-02 
353	 8.17348823596931E-02 
354	 7.95010447523546E-02 
355	 7.93672773466595E-02 
356	 8.18024568547347E-02 
357	 8.32422717986975E-02 
358	 8.09653927564372E-02 
359	 8.13075784606553E-02 
360	 8.15227201189856E-02 
361	 8.12194125555503E-02 
362	 8.17594432923354E-02 
363	 8.31735649213336E-02 
364	 8.32267979265793E-02 
365	 8.18807768214042E-02 
366	 0.08270748562636 
367	 8.36222916042568E-02 
368	 8.36776177579276E-02 
369	 0.082933642473289 
370	 8.39345975271596E-02 
371	 8.46493579075164E-02 
372	 8.42291639433456E-02 
373	 8.29044815166743E-02 
374	 8.30524825694751E-02 
375	 8.36838165100779E-02 
376	 8.39839100503314E-02 
377	 8.39479444420251E-02 
378	 8.48214634632704E-02 
379	 0.085392296675371 
380	 8.48901191487271E-02 
381	 8.57899803467286E-02 
382	 8.69424377678058E-02 
383	 8.74510816489519E-02 
384	 8.68090030016823E-02 
385	 8.59813460962858E-02 
386	 8.69029825278334E-02 
387	 8.88850624715147E-02 
388	 8.84704741404722E-02 
389	 8.77295120451674E-02 
390	 8.73574848776014E-02 
391	 8.77951462194977E-02 
392	 0.089797157279661 
393	 9.05316268386022E-02 
394	 9.01375148622514E-02 
395	 8.98459029919404E-02 
396	 8.96122786010274E-02 
397	 0.08987034477995 
398	 0.090435982954276 
399	 9.06518324119736E-02 
400	 9.09799166931662E-02 
401	 9.13066588253118E-02 
402	 9.14739774177084E-02 
403	 9.13997828953124E-02 
404	 9.11354108496187E-02 
405	 9.12386246663182E-02 
406	 9.21067481043135E-02 
407	 9.21501397543329E-02 
408	 9.24938272674222E-02 
409	 9.31931060905769E-02 
410	 9.31657686143695E-02 
411	 0.093423687282748 
412	 9.37736134747385E-02 
413	 9.40023726518514E-02 
414	 9.43733901195004E-02 
415	 9.49853951054681E-02 
416	 9.54099953575321E-02 
417	 9.52201016681491E-02 
418	 9.53390057768233E-02 
419	 0.095795116506313 
420	 9.64510438922132E-02 
421	 9.70761212365646E-02 
422	 9.76323806136245E-02 
423	 9.79712113194843E-02 
424	 9.80796135893412E-02 
425	 9.83201877426252E-02 
426	 9.86848430863266E-02 
427	 9.93509086525459E-02 
428	 0.100400216119089 
429	 0.100728777799525 
430	 0.101224532595606 
431	 0.102109069371474 
432	 0.102614280498685 
433	 0.103020237268719 
434	 0.103497987281015 
435	 0.104104072451554 
436	 0.10461368427728 
437	 0.105260117807615 
438	 0.105981799215083 
439	 0.10656877930196 
440	 0.107081680235393 
441	 0.107606389840004 
442	 0.108184353221204 
443	 0.10879540929852 
444	 0.10921901150422 
445	 0.109671394658667 
446	 0.110337296418293 
447	 0.110764036155084 
448	 0.111365509853743 
449	 0.112006498194181 
450	 0.112215742222181 
451	 0.112800416117447 
452	 0.113328768780256 
453	 0.113557028484003 
454	 0.113976272469215 
455	 0.114554094981026 
456	 0.115083513909901 
457	 0.115355809055229 
458	 0.115604778784572 
459	 0.115708589381459 
460	 0.115876608587163 
461	 0.116614208099687 
462	 0.11703917722367 
463	 0.117449762787156 
464	 0.11808282256223 
465	 0.118312951312113 
466	 0.118575821542019 
467	 0.118916754729653 
468	 0.11921013339163 
469	 0.119544172803492 
470	 0.120009932575071 
471	 0.120508451655401 
472	 0.120694557069943 
473	 0.120905054001879 
474	 0.121194987966128 
475	 0.121601253168172 
476	 0.122425823505365 
477	 0.12299398878447 
478	 0.123230153420973 
479	 0.123494934492146 
480	 0.123865721343754 
481	 0.124372829143056 
482	 0.124923525465504 
483	 0.125191162453593 
484	 0.12550566215985 
485	 0.126097763982639 
486	 0.126986898361823 
487	 0.127360042096874 
488	 0.127777450468867 
489	 0.128301420562819 
490	 0.128478932828556 
491	 0.129081410748358 
492	 0.129933680083177 
493	 0.130675736081067 
494	 0.13095094344179 
495	 0.131390150405701 
496	 0.132200277873717 
497	 0.133244513224796 
498	 0.133584658658268 
499	 0.134049885001366 
500	 0.134883187701866 
501	 0.135124769859057 
502	 0.135798611935097 
503	 0.136712413355316 
504	 0.137421216480382 
505	 0.138006464572217 
506	 0.138436611778678 
507	 0.138874274963417 
508	 0.139593760279095 
509	 0.140126923830953 
510	 0.140815809988807 
511	 0.141792577579953 
512	 0.142431386402793 
513	 0.142855686012086 
514	 0.143292193318588 
515	 0.143980280356629 
516	 0.144680592226623 
517	 0.145576116799541 
518	 0.146598567219955 
519	 0.147352854991007 
520	 0.147997193423713 
521	 0.148739237485873 
522	 0.149672264473023 
523	 0.150468985157483 
524	 0.151160383541136 
525	 0.151839439201904 
526	 0.152630281066537 
527	 0.153407104957526 
528	 0.154295830496765 
529	 0.155271771050569 
530	 0.155930863695146 
531	 0.156687225366196 
532	 0.157668869962912 
533	 0.158805859514383 
534	 0.159623386412761 
535	 0.160180944860605 
536	 0.160781431789906 
537	 0.161935091080749 
538	 0.16293961180282 
539	 0.163727524562547 
540	 0.164442711925283 
541	 0.165338779418201 
542	 0.166377245462314 
543	 0.167394524715962 
544	 0.168196303890717 
545	 0.169101163741163 
546	 0.169925605714468 
547	 0.170580424615298 
548	 0.171255057174662 
549	 0.172202463979191 
550	 0.173147097662685 
551	 0.173770368040132 
552	 0.174725236978233 
553	 0.175633206851475 
554	 0.176391164091116 
555	 0.177264235211575 
556	 0.178236071940635 
557	 0.179117857834756 
558	 0.179804319004552 
559	 0.180628440456092 
560	 0.181506675964513 
561	 0.182329266049798 
562	 0.183009525698697 
563	 0.183859949348075 
564	 0.184560652635048 
565	 0.185014289663243 
566	 0.185725283361978 
567	 0.186357429398751 
568	 0.186837316117612 
569	 0.187227831078754 
570	 0.187786392750886 
571	 0.188400450209598 
572	 0.188942927582161 
573	 0.189305692656656 
574	 0.189748571105209 
575	 0.190100270005744 
576	 0.190215100123623 
577	 0.190388109518517 
578	 0.190268428324869 
579	 0.190089340162534 
580	 0.190359145617907 
581	 0.190500712049239 
582	 0.190505437146734 
583	 0.190387429859805 
584	 0.190049312501663 
585	 0.189682872075404 
586	 0.189551777152418 
587	 0.189764565642908 
588	 0.189325506802481 
589	 0.188805521722111 
590	 0.188452932496554 
591	 0.187974490509325 
592	 0.187284043178563 
593	 0.186550781483933 
594	 0.185857814887036 
595	 0.184812422003819 
596	 0.183597474151065 
597	 0.182177972515874 
598	 0.180493685343907 
599	 0.179296475946676 
600	 0.178081664709248 
601	 0.176820904110759 
602	 0.176598627993738 
603	 0.17607072125008 
604	 0.175543430655608 
605	 0.175601906596351 
606	 0.175297713056142 
607	 0.175284468018272 
608	 0.175623676503274 
609	 0.175701608235868 
610	 0.175683112009774 
611	 0.175416086677936 
612	 0.174969606609001 
613	 0.175217322345109 
614	 0.175525783707716 
615	 0.175618272347406 
616	 0.175460105079952 
617	 0.175251515743807 
618	 0.175274559168009 
619	 0.175497100801439 
620	 0.175379821290985 
621	 0.175429733232896 
622	 0.175360013642826 
623	 0.174907429595214 
624	 0.17520513766184 
625	 0.175277126747184 
626	 0.175004739866515 
627	 0.175135645152441 
628	 0.175114326565221 
629	 0.174967145015776 
630	 0.174807020239832 
631	 0.174656248466638 
632	 0.174640263859201 
633	 0.174688148641225 
634	 0.174652435926539 
635	 0.174681941929196 
636	 0.174387231364068 
637	 0.1739126993815 
638	 0.174227493021086 
639	 0.174197471998815 
640	 0.173954841520901 
641	 0.173857455971865 
642	 0.173522947358598 
643	 0.173450112502686 
644	 0.173529187954519 
645	 0.173172064672288 
646	 0.172982129164559 
647	 0.172771530668586 
648	 0.172389518858201 
649	 0.172088448833508 
650	 0.171883281689431 
651	 0.171518139813191 
652	 0.170731806808428 
653	 0.169813101138637 
654	 0.169151716241407 
655	 0.168631717438163 
656	 0.167517644804984 
657	 0.166744837802293 
658	 0.166169065700556 
659	 0.165532503131054 
660	 0.164992951802641 
661	 0.164559065665416 
662	 0.164091839191617 
663	 0.163459631325772 
664	 0.163529422395577 
665	 0.163708379789381 
666	 0.16351444804488 
667	 0.162967008356356 
668	 0.162697328804099 
669	 0.162600749736421 
670	 0.162418293899097 
671	 0.162559974341471 
672	 0.162458269005364 
673	 0.162099688387592 
674	 0.162013664140536 
675	 0.162173752310103 
676	 0.162241633100235 
677	 0.162067601654286 
678	 0.162162882228675 
679	 0.162049184899252 
680	 0.161817614687808 
681	 0.16176973961411 
682	 0.161684434949386 
683	 0.161725891421099 
684	 0.161931626717954 
685	 0.162156501790249 
686	 0.161523916744515 
687	 0.160669709624434 
688	 0.160453814980839 
689	 0.160161975161893 
690	 0.159710339475526 
691	 0.159093975783793 
692	 0.158372973504902 
693	 0.157749251596293 
694	 0.156825312573219 
695	 0.155542688429691 
696	 0.154271066845941 
697	 0.153267995755094 
698	 0.152279832362346 
699	 0.151042193085121 
700	 0.14964355624354 
701	 0.148253122266316 
702	 0.146836976428746 
703	 0.145163585289904 
704	 0.143620274106655 
705	 0.1420000327078 
706	 0.140210035608585 
707	 0.13844664484256 
708	 0.136371289911017 
709	 0.13436339318901 
710	 0.13277163997657 
711	 0.130162305333789 
712	 0.127460313936142 
713	 0.12499640149363 
714	 0.122281589733383 
715	 0.120400687694963 
716	 0.11842750496737 
717	 0.115400787698864 
718	 0.112610894476931 
719	 0.109517404995447 
720	 0.106817195856621 
721	 0.104515225205586 
722	 0.102185300352102 
723	 9.97276410812319E-02 
724	 9.73848062787218E-02 
725	 9.46694764641886E-02 
726	 9.18079323967049E-02 
727	 8.90744964822525E-02 
728	 0.086524328956732 
729	 8.35012890677371E-02 
730	 8.06875816889961E-02 
731	 0.077860094049019 
732	 7.45830256952232E-02 
733	 7.31101882126746E-02 
734	 7.18020102031328E-02 
735	 0.070143762039516 
736	 6.92277454815805E-02 
737	 0.068208197303149 
738	 6.73201934066833E-02 
739	 6.68680579055637E-02 
740	 6.65800830610724E-02 
741	 6.64918486811145E-02 
742	 0.066398285096953 
743	 6.60408552921259E-02 
744	 6.57060618718159E-02 
745	 6.55530760246403E-02 
746	 6.55545500508984E-02 
747	 6.54576577416982E-02 
748	 0.065454473574718 
749	 6.52643251830758E-02 
750	 6.48004242263773E-02 
751	 0.064986833895133 
752	 6.50152523698039E-02 
753	 6.48134836060691E-02 
754	 6.47121523463136E-02 
755	 6.46089834936792E-02 
756	 6.47937524678507E-02 
757	 6.51886994205611E-02 
758	 0.065090193821796 
759	 6.48084187853186E-02 
760	 0.065115376661743 
761	 6.61038785330976E-02 
762	 6.57529693342339E-02 
763	 6.54324534002033E-02 
764	 6.54464698374025E-02 
765	 6.55491206051537E-02 
766	 6.51650392697501E-02 
767	 6.50423834575674E-02 
768	 6.51637517067498E-02 
769	 0.064853602903261 
770	 6.51842025103233E-02 
771	 6.54718969067544E-02 
772	 6.52462239690065E-02 
773	 6.56022350954127E-02 
774	 6.57169643262182E-02 
775	 6.57366679188863E-02 
776	 6.60893188683951E-02 
777	 6.61824216835147E-02 
778	 6.62703644901097E-02 
779	 6.65450311945082E-02 
780	 6.70337132212696E-02 
781	 6.69778641092251E-02 
782	 0.067207459131317 
783	 6.81018461042808E-02 
784	 0.068345038610338 
785	 0.068716291833955 
786	 6.91680739707415E-02 
787	 6.94432250072912E-02 
788	 0.069808667416334 
789	 7.02555588269161E-02 
790	 7.06317150704585E-02 
791	 7.07560756335371E-02 
792	 7.11343877278927E-02 
793	 0.071653776103382 
794	 7.22244427464919E-02 
795	 7.29243456401369E-02 
796	 7.30722674965576E-02 
797	 7.32625786820146E-02 
798	 7.40403515351137E-02 
799	 7.44386949073183E-02 
800	 7.47555770608711E-02 
801	 7.51342414929809E-02 
802	 7.55570498123431E-02 
803	 7.55004002857796E-02 
804	 7.54860055157632E-02 
805	 7.56800335724156E-02 
806	 7.57723738403116E-02 
807	 7.55870538222721E-02 
808	 0.075568609965756 
809	 7.59256256292317E-02 
810	 7.58292249160199E-02 
811	 0.075985390000893 
812	 7.66399538813491E-02 
813	 7.74222228347987E-02 
814	 7.56493304162385E-02 
815	 7.46394852533899E-02 
816	 7.47371503415915E-02 
817	 7.35189655093908E-02 
818	 7.26253853480537E-02 
819	 0.07210314692382 
820	 7.16420973695346E-02 
821	 7.07782814512212E-02 
822	 6.97135823122998E-02 
823	 6.85413771755892E-02 
824	 6.72286475666186E-02 
825	 6.52359653430236E-02 
826	 0.063312641431899 
827	 0.061953972300449 
828	 6.13696316686422E-02 
829	 6.00909165357455E-02 
830	 0.058603239891928 
831	 5.76450059666791E-02 
832	 5.77286535590704E-02 
833	 5.59382262971432E-02 
834	 0.055056030038266 
835	 5.57560114106359E-02 
836	 5.53969713674208E-02 
837	 5.47098914566374E-02 
838	 5.41214590325992E-02 
839	 5.38802650527221E-02 
840	 0.053971019460078 
841	 5.33922390649837E-02 
842	 0.05269295851889 
843	 5.27001031502577E-02 
844	 5.25764108731245E-02 
845	 5.26080055974515E-02 
846	 5.26147543482274E-02 
847	 5.21924583674333E-02 
848	 5.21275666883977E-02 
849	 5.17993526677793E-02 
850	 5.12533916001203E-02 
851	 0.051489355526306 
852	 5.11698515622472E-02 
853	 5.07208393795042E-02 
854	 5.06463670643144E-02 
855	 5.07565462236334E-02 
856	 5.11559178091262E-02 
857	 5.14242942386064E-02 
858	 0.051127659079792 
859	 5.02083674812682E-02 
860	 4.93475367965985E-02 
861	 4.91943976236065E-02 
862	 4.99618454412097E-02 
863	 4.98207144622292E-02 
864	 0.049425929652073 
865	 4.93175784468862E-02 
866	 4.96116545899487E-02 
867	 4.89702769890857E-02 
868	 4.84424528799354E-02 
869	 4.88204650733374E-02 
870	 5.00486017993712E-02 
871	 4.90019460263713E-02 
872	 4.79307211274361E-02 
873	 4.84917116009628E-02 
874	 0.048253185999667 
875	 4.77552875942141E-02 
876	 4.80187422693449E-02 
877	 4.91581108389963E-02 
878	 0.047327156791867 
879	 4.72613654482863E-02 
880	 0.047886261542549 
881	 4.63005092195903E-02 
882	 4.67415231450551E-02 
883	 4.73587632053534E-02 
884	 4.70648399190185E-02 
885	 4.59070894491407E-02 
886	 4.58734367440943E-02 
887	 4.62380921633482E-02 
888	 4.65057051139871E-02 
889	 4.67571884899852E-02 
890	 4.53825312010918E-02 
891	 4.50690773477976E-02 
892	 4.70177201323035E-02 
893	 4.77722125070337E-02 
894	 4.65582112728524E-02 
895	 4.48894462350784E-02 
896	 4.48620655805112E-02 
897	 4.66533927582879E-02 
898	 4.77300651980949E-02 
899	 4.73227744389752E-02 
900	 4.57850929595201E-02 
901	 4.31881234519046E-02 
902	 4.28702895222196E-02 
903	 4.50833744309113E-02 
904	 4.79740353931067E-02 
905	 4.60374269282046E-02 
906	 4.44692440290351E-02 
907	 4.39798693708392E-02 
908	 4.21028013161209E-02 
909	 4.23217569586106E-02 
910	 4.42372601470783E-02 
911	 4.61586623801646E-02 
912	 4.60002095057108E-02 
913	 4.40902710879169E-02 
914	 4.09139268659107E-02 
915	 3.97983361658508E-02 
916	 4.53580400380009E-02 
917	 4.71894008701207E-02 
918	 4.52647391777614E-02 
919	 0.042419926005579 
920	 4.26038824963429E-02 
921	 4.08314779745234E-02 
922	 4.06631061906953E-02 
923	 4.40306767744926E-02 
924	 4.56800220482142E-02 
925	 4.60735160634148E-02 
926	 4.33283191605253E-02 
927	 3.73273788196833E-02 
928	 3.84305592118694E-02 
929	 4.63911986070788E-02 
930	 0.055072140304599 
931	 5.19712684172511E-02 
932	 3.41472792861966E-02 
933	 0.02649083935159 
934	 3.82563304254347E-02 
935	 4.96127476544517E-02 
936	 3.46210534616579E-02 
937	 3.01906454734086E-02 
938	 4.18065446894623E-02 
939	 5.58747378488478E-02 
940	 3.57049608962579E-02 
941	 2.76482361269716E-02 
942	 3.60879436452898E-02 
943	 3.92891444506593E-02 
944	 1.09035380169754E-02 
945	 2.68137415612517E-02 
946	 5.80903254821806E-02 
947	 3.36995796609882E-02 
948	 0.028067909740265 
949	 3.50536596961831E-02 
950	 4.77456384679022E-02 
951	 5.92234925795126E-02 
952	 4.80294877500796E-02 
953	 4.08167967936402E-02 
954	 0.035288477986477 
955	 1.54887279729959E-02 
956	 2.34923017721521E-02 
957	 4.56551899540495E-02 
958	 5.14951008737086E-02 
959	 1.96787293683092E-02 
960	 3.24116597522561E-02 
961	 3.56896603755042E-02 
962	 2.37195021990033E-02 
963	 2.56856242054713E-02 
964	 3.62903339262183E-02 
965	 4.02337647438391E-02 
966	 3.74843555153481E-02 
967	 3.76168181345535E-02 
968	 4.34319410170496E-02 
969	 4.67666855147586E-02 
970	 4.45524029967992E-02 
971	 3.90391003501012E-02 
972	 0.03497495796992 
973	 3.34323220837418E-02 
974	 3.29510136243542E-02 
975	 3.06775494766388E-02 
976	 3.01163764720153E-02 
977	 3.22806786629682E-02 
978	 3.65752597968113E-02 
979	 4.16603888132976E-02 
980	 4.99550263194688E-02 
981	 4.88526587107643E-02 
982	 0.040291212464651 
983	 3.70758149191928E-02 
984	 3.77167801990868E-02 
985	 3.61569854616791E-02 
986	 3.37646549254563E-02 
987	 0.036341201414099 
988	 3.62278935822718E-02 
989	 3.56872703077092E-02 
990	 3.88462783867734E-02 
991	 4.69699675731843E-02 
992	 4.00553103665435E-02 
993	 0.032555657851616 
994	 3.39846481590156E-02 
995	 0.043742078123568 
996	 4.35196840418873E-02 
997	 3.97570075550338E-02 
998	 3.87207097999708E-02 
999	 4.29733801171159E-02 
1000	 4.43967224798234E-02 
1001	 4.15755901114868E-02 
1002	 4.10898712643958E-02 
1003	 4.10704691388412E-02 
1004	 3.89977009705343E-02 
1005	 3.85047377684679E-02 
1006	 0.039378469753117 
1007	 4.07455069142129E-02 
1008	 4.02475110958818E-02 
1009	 3.93597397907672E-02 
1010	 3.82583658002315E-02 
1011	 3.68669868381809E-02 
1012	 3.81472359669332E-02 
1013	 3.96494621335111E-02 
1014	 4.03743877980024E-02 
1015	 4.15981484451492E-02 
1016	 4.21650273538778E-02 
1017	 4.20243115297435E-02 
1018	 4.15806749650016E-02 
1019	 4.01854820404583E-02 
1020	 4.02511345042372E-02 
1021	 4.03479195199849E-02 
1022	 4.09703896104161E-02 
1023	 0.042151468841165 
1024	 4.23933239877507E-02 
1025	 4.26479220265807E-02 
1026	 4.21739586879757E-02 
1027	 4.16177942610437E-02 
1028	 4.13522207754379E-02 
1029	 4.08918689364721E-02 
1030	 3.87410229129139E-02 
1031	 3.92420409394425E-02 
1032	 4.16237981314546E-02 
1033	 4.27634818227888E-02 
1034	 4.57074098216301E-02 
1035	 4.62656245978474E-02 
1036	 4.49879647150194E-02 
1037	 0.044048159587611 
1038	 0.042711951939275 
1039	 3.98342582520376E-02 
1040	 3.85649751685204E-02 
1041	 0.037669037394499 
1042	 0.038295069338948 
1043	 4.07789575527044E-02 
1044	 4.17669587738434E-02 
1045	 4.37964123565585E-02 
1046	 4.40143321832047E-02 
1047	 4.22019185809316E-02 
1048	 4.20342096871543E-02 
1049	 4.24531143093683E-02 
1050	 4.19544485223345E-02 
1051	 4.17041666108526E-02 
1052	 4.09979996854682E-02 
1053	 3.84416746539089E-02 
1054	 3.74313142308628E-02 
1055	 3.68927787264746E-02 
1056	 3.71085381409224E-02 
1057	 3.80085261251221E-02 
1058	 0.040400128243665 
1059	 4.09380334455711E-02 
1060	 4.10482392642703E-02 
1061	 4.19321373999961E-02 
1062	 4.27238025906656E-02 
1063	 4.27548433059191E-02 
1064	 4.34155620825338E-02 
1065	 4.33213231924922E-02 
1066	 4.12453292863835E-02 
1067	 4.05501135975521E-02 
1068	 4.09725842106008E-02 
1069	 4.06903464763823E-02 
1070	 3.98903258144013E-02 
1071	 3.96538904257301E-02 
1072	 3.90640300358061E-02 
1073	 3.94226824132667E-02 
1074	 0.039770109503682 
1075	 4.12817884125024E-02 
1076	 4.11155416492263E-02 
1077	 3.97015506430411E-02 
1078	 4.01097850724333E-02 
1079	 0.04101220794114 
1080	 4.11110538546957E-02 
1081	 4.21812157958847E-02 
1082	 4.24283632280692E-02 
1083	 4.10685484541768E-02 
1084	 4.03094394361875E-02 
1085	 4.03032866610545E-02 
1086	 4.00479572869677E-02 
1087	 3.84452679167576E-02 
1088	 3.83725395266767E-02 
1089	 4.09831249260185E-02 
1090	 4.02615916555751E-02 
1091	 4.05436336627723E-02 
1092	 4.19235804465323E-02 
1093	 4.15288038426556E-02 
1094	 3.95141130252794E-02 
1095	 3.84547971851616E-02 
1096	 3.59548599341656E-02 
1097	 3.58457048384173E-02 
1098	 3.80045152602753E-02 
1099	 0.038611167404876 
1100	 4.01246128729851E-02 
1101	 4.13991080101743E-02 
1102	 4.04540163735644E-02 
1103	 0.040934540768814 
1104	 4.26062418344465E-02 
1105	 4.66293387626376E-02 
1106	 4.45245561913192E-02 
1107	 4.42490049322896E-02 
1108	 4.72524126829125E-02 
1109	 4.34242021037193E-02 
1110	 4.33356779000286E-02 
1111	 5.06831976197175E-02 
1112	 4.96893299381978E-02 
1113	 3.57180104533574E-02 
1114	 3.73493083725094E-02 
1115	 5.03610753849143E-02 
1116	 5.26614173048021E-02 
1117	 7.36953331990075E-02 
1118	 8.03598389649399E-02 
1119	 2.69085816166573E-02 
1120	 4.97490283151082E-03 
1121	 6.93776931483253E-03 
1122	 9.88610026098932E-03 
1123	 2.29441948049097E-02 
1124	 6.23936592497365E-02 
1125	 7.23862848572537E-02 
1126	 4.52544302486182E-02 
1127	 4.39038217280455E-02 
1128	 6.57961290086823E-02 
1129	 4.36818675913695E-02 
1130	-1.34283660966195E-02 
1131	-1.50529140038669E-02 
1132	-1.03374179593357E-02 
1133	-3.38136530080055E-03 
1134	 2.48957755757231E-02 
1135	 4.07007696492253E-02 
1136	 4.62477072393866E-02 
1137	 5.31654515249363E-02 
1138	 6.94039904969925E-02 
1139	 7.92698996166555E-02 
1140	 6.01441878268748E-02 
1141	 4.26463618894542E-02 
1142	 5.22192497330129E-02 
1143	 7.20123448404949E-02 
1144	 6.14333916504712E-02 
1145	 4.09424471309022E-02 
1146	 3.65654966156337E-02 
1147	 4.19125187799883E-02 
1148	 7.18024007563761E-02 
1149	 0.084338015157604 
1150	 7.82916020103592E-02 
1151	 3.36187520280779E-02 
1152	 2.71975582855766E-02 
1153	 3.11271349069194E-02 
1154	 3.70885627217611E-02 
1155	 5.35679039097631E-02 
1156	 5.21702502136976E-02 
1157	 4.70930922778689E-02 
1158	 4.55890286541156E-02 
1159	 4.26577019070672E-02 
1160	 4.35063168915965E-02 
1161	 4.41252186105607E-02 
1162	 0.043624153879378 
1163	 4.52808993257327E-02 
1164	 4.19394108144544E-02 
1165	 4.13976388057813E-02 
1166	 0.044190559382559 
1167	 3.93776667278323E-02 
1168	 3.80910232484329E-02 
1169	 4.14498985594237E-02 
1170	 4.12116576605478E-02 
1171	 4.14989272166626E-02 
1172	 4.57790451672859E-02 
1173	 4.59734680658499E-02 
1174	 4.25608750125348E-02 
1175	 4.03914176699865E-02 
1176	 4.04124148941634E-02 
1177	 4.19858475991247E-02 
1178	 4.22909142632688E-02 
1179	 4.16814455704423E-02 
1180	 4.16691804661096E-02 
1181	 4.00083867854256E-02 
1182	 4.03363248493553E-02 
1183	 4.28116043971882E-02 
1184	 4.28217299151915E-02 
1185	 4.13925730468149E-02 
1186	 4.13321583754592E-02 
1187	 4.18268142810831E-02 
1188	 4.18678159035111E-02 
1189	 4.24686088212742E-02 
1190	 4.21230087243639E-02 
1191	 4.18589649499417E-02 
1192	 4.21255032195858E-02 
1193	 4.31745446315007E-02 
1194	 4.41295434763208E-02 
1195	 4.46166666303174E-02 
1196	 4.42112424344271E-02 
1197	 4.47536594568496E-02 
1198	 4.43118194542188E-02 
1199	 4.14156151119437E-02 
1200	 4.00457643840242E-02 
1201	 3.92250865121076E-02 
1202	 3.78584573495383E-02 
1203	 3.90941310453889E-02 
1204	 4.04318781461757E-02 
1205	 3.90124998518221E-02 
1206	 3.83439456903468E-02 
1207	 3.98261227702695E-02 
1208	 4.02461906610883E-02 
1209	 3.87734471987181E-02 
1210	 3.93312804577758E-02 
1211	 4.10469075843397E-02 
1212	 4.08089213288961E-02 
1213	 4.07378999992475E-02 
1214	 4.14129934402049E-02 
1215	 4.22234393149828E-02 
1216	 4.16474512134171E-02 
1217	 4.12599301260067E-02 
1218	 4.20815528149625E-02 
1219	 4.15138291101516E-02 
1220	 3.96686669910511E-02 
1221	 4.08805588185711E-02 
1222	 4.26218119665985E-02 
1223	 4.18283477601225E-02 
1224	 0.042462915053851 
1225	 4.35004442150674E-02 
1226	 4.11071237842646E-02 
1227	 4.04698010313166E-02 
1228	 0.042247156965446 
1229	 4.03210518891858E-02 
1230	 0.039275939960759 
1231	 0.041145575072295 
1232	 4.09839529426138E-02 
1233	 3.97504200006291E-02 
1234	 3.87527284158989E-02 
1235	 0.038975764626211 
1236	 3.91741323312708E-02 
1237	 3.94236547407066E-02 
1238	 4.07220268743411E-02 
1239	 4.26137531252716E-02 
1240	 4.26762196509966E-02 
1241	 4.01495441106621E-02 
1242	 3.88683318890442E-02 
1243	 4.05783055854393E-02 
1244	 4.19570079378343E-02 
1245	 4.27451079335291E-02 
1246	 4.26927693800674E-02 
1247	 4.10532198953728E-02 
1248	 3.88807100951098E-02 
1249	 3.78203469024756E-02 
1250	 3.94876251409029E-02 
1251	 4.10954736871824E-02 
1252	 4.09694705923684E-02 
1253	 4.12491602757185E-02 
1254	 4.20503936939381E-02 
1255	 4.11794974848196E-02 
1256	 4.03800496150417E-02 
1257	 3.99338453059553E-02 
1258	 4.01812821521847E-02 
1259	 4.00299043471668E-02 
1260	 0.03954164332694 
1261	 3.92563494838604E-02 
1262	 0.039672630476325 
1263	 3.97845287396424E-02 
1264	 4.04187730813427E-02 
1265	 4.01104810678977E-02 
1266	 4.01962316912321E-02 
1267	 3.83333791398083E-02 
1268	 3.60888602216224E-02 
1269	 3.72331054443898E-02 
1270	 3.78581884303131E-02 
1271	 3.79130315546973E-02 
1272	 3.95314024997785E-02 
1273	 4.11227302940588E-02 
1274	 4.09423444136666E-02 
1275	 4.07676379532905E-02 
1276	 4.16799194915922E-02 
1277	 0.04101773130273 
1278	 3.90036766455937E-02 
1279	 3.80253675887778E-02 
1280	 3.76905848631999E-02 
1281	 3.74659474557231E-02 
1282	 3.82281897343638E-02 
1283	 0.038550753632677 
1284	 3.82908535324737E-02 
1285	 3.84130633511311E-02 
1286	 3.92625615037434E-02 
1287	 3.96046437048769E-02 
1288	 3.99544061615443E-02 
1289	 4.00183937250693E-02 
1290	 3.92130062319972E-02 
1291	 3.86788613719246E-02 
1292	 3.94922092877392E-02 
1293	 4.03536699605372E-02 
1294	 4.11593569689662E-02 
1295	 4.10377139583647E-02 
1296	 3.89054835043353E-02 
1297	 0.039180472342189 
1298	 4.07434541739869E-02 
1299	 4.05051334284509E-02 
1300	 3.95950378278291E-02 
1301	 3.87471863202352E-02 
1302	 4.00951294605731E-02 
1303	 4.14281656645656E-02 
1304	 4.00377929470626E-02 
1305	 4.03831462253923E-02 
1306	 4.12906678945263E-02 
1307	 3.96259454221365E-02 
1308	 3.84575992789259E-02 
1309	 4.04632179710766E-02 
1310	 4.25434757381084E-02 
1311	 4.20538892309552E-02 
1312	 4.15937693742251E-02 
1313	 4.41464653444113E-02 
1314	 4.69308865223276E-02 
1315	 4.84609361827984E-02 
1316	 4.90025050100951E-02 
1317	 5.09003441202319E-02 
1318	 5.22173715904973E-02 
1319	 4.99104306936457E-02 
1320	 0.049081148234003 
1321	 5.18431739771076E-02 
1322	 5.23032640333854E-02 
1323	 5.22669781781344E-02 
1324	 5.48379488141936E-02 
1325	 5.51553529218228E-02 
1326	 5.13405662667536E-02 
1327	 5.04407913516851E-02 
1328	 4.94937354288747E-02 
1329	 4.28200071672716E-02 
1330	 4.07792938191464E-02 
1331	 4.59145304157228E-02 
1332	 4.18847034238863E-02 
1333	 3.06974093411533E-02 
1334	 3.94219508684079E-02 
1335	 4.00928472767484E-02 
1336	 1.86956095351619E-02 
1337	 2.08154773035278E-02 
1338	 5.02410230251572E-02 
1339	 0.056940108085502 
1340	 6.31334412043822E-02 
1341	 6.60617925180887E-02 
1342	 5.39406916749452E-02 
1343	 0.046010260167804 
1344	 1.97693002185766E-02 
1345	 1.89734837515246E-02 
1346	 5.65742110319709E-02 
1347	 7.84295865715546E-02 
1348	 0.139365964386792 
1349	 0.197018752619484 
1350	 0.208263949491885 
1351	 0.208804976868711 
1352	 0.101175706015581 
1353	 0.182745711996342 
1354	 0.773581419365393 
1355	 0.89653303468642 
1356	 0.759958769093841 
1357	 1.41604100590575 
1358	 2.7784673650985 
1359	 1.7159047919919 
1360	 2.37782479920197 
1361	-10.8288631878125 
1362	 3.51502608832429 
1363	 0.967328129554005 
1364	 0.831573421392216 
1365	 0.831156219300394 
1366	 0.338889608992448 
1367	-1.1308030736694 
1368	-2.06588759241205 
1369	-1.04467512924251 
1370	-0.718240503359961 
1371	 1.51081728000377 
1372	 5.16270931174341 
1373	-3.6269444241683 
1374	-3.21190075742601 
1375	-5.31266827659975 
1376	-4.00974324705677 
1377	-4.1261031306816 
1378	-9.01918609883562 
1379	 1.27664669935442 
1380	 1.36000449819621 
1381	 0.855550840322579 
1382	 1.73555310758509 
1383	 1.77951968955703 
1384	 8.35839897205336 
1385	 3.33744680458239 
1386	 2.01964957602932 
1387	 9.58778617004941 
1388	-1.43523377727951 
1389	-0.114112900665462 
1390	-4.61769099573495E-02 
1391	 23.6425924170998 
1392	 9.00750593330726E-02 
1393	-0.558941095607326 
1394	 0.80383350916911 
1395	 0.43205449157362 
1396	-2.64010426544896 
1397	-0.723380787644094 
1398	 1.00112959042125 
1399	 2.24314897342526 
1400	-2.7077172451359 
1401	 4.01091164933072 
1402	 1.27203591788075 
1403	 0.562469312371342 
1404	-0.393546773341721 
1405	-0.417129135498437 
1406	 0.647929071323601 
1407	 0.285916291509177 
1408	 0.339297275194503 
1409	-0.951389726174349 
1410	-4.06503570558059 
1411	-3.74813706216144 
1412	-2.24375836194409 
1413	 83.6680967828373 
1414	 2.00298009336616 
1415	 4.20450291740686 
1416	 0.691485961629012 
1417	 0.439951253031882 
1418	 0.903413600823936 
1419	 1.31937962315989 
1420	 1.99348974708894 
1421	 1.91100594723253 
1422	 2.39058518659298 
1423	 1.15728961819562 
1424	-0.507215146137567 
1425	-0.754095585850132 
1426	 0.947951345180499 
1427	 1.04985951040512 
1428	-0.272287938428674 
1429	 4.01812097968551 
1430	-3.312552593631 
1431	-4.21669512415512 
1432	 0.266910419889597 
1433	-0.292157089739943 
1434	 0.839114635633471 
1435	 0.793448423402761 
1436	 0.581098073069841 
1437	 0.412330051255609 
1438	 1.12265662085846 
1439	 2.37608156168049 
1440	 2.3431436012598 
1441	 236.132634068607 
1442	 2.71443079088729 
1443	 1.9018936251838 
1444	 1.3214321958886 
1445	 0.979309738265401 
1446	 0.92145489840632 
1447	 0.302004652069337 
1448	 0.347812689488559 
1449	 0.972790698459782 
1450	 0.621861728235475 
1451	 0.59414975812457 
1452	 0.64070773554414 
1453	 0.454243946181641 
1454	 0.497403812463219 
1455	 0.73252528942757 
1456	 1.05691034441436 
1457	 1.44140804582712 
1458	 1.11936060482059 
1459	 0.282007056273661 
1460	 0.330081642051478 
1461	 0.615356167917629 
1462	 0.455331128961709 
1463	 0.276896748570525 
1464	 0.432604069837327 
1465	 0.492391898666807 
1466	 0.376739077594191 
1467	 0.623945650287392 
1468	 0.668821276104417 
1469	 0.207751384179186 
1470	 0.122266562703062 
1471	 0.534423311218376 
1472	 0.534061846993982 
1473	 0.187625163186871 
1474	 0.144251503608656 
1475	 0.173439882526514 
1476	 0.2447504987829 
1477	 0.627189636423844 
1478	 0.577898950825397 
1479	 6.71242970128599E-02 
1480	 4.20897348484141E-02 
1481	 0.239058333587629 
1482	 6.46511063200569E-02 
1483	-5.29612252033791E-02 
1484	 2.58619881963645E-02 
1485	-9.01154114706133E-04 
1486	-0.120076528666826 
1487	-0.149796683252675 
1488	-5.75623504674003E-02 
1489	-0.078419142673602 
1490	-5.88022741541775E-02 
1491	 0.122676602322981 
1492	 0.174237293186237 
1493	 0.154501843292496 
1494	 0.124499987322908 
1495	 7.23314465403614E-02 
1496	 5.59307806367322E-02 
1497	 3.40230742165978E-02 
1498	 1.17508045461015E-02 
1499	-2.34121860957777E-02 
1500	-5.54154471175117E-03 
1501	 7.32097328459237E-02 
1502	 8.12583029489275E-02 
1503	 7.29062283418228E-02 
1504	 7.81022991139102E-02 
1505	 5.34490706028697E-02 
1506	 2.68845797074863E-02 
1507	 2.56876838311264E-02 
1508	 5.97944370918052E-02 
1509	 7.58385133968919E-02 
1510	 5.70557337719477E-02 
1511	 4.10081093363807E-02 
1512	 3.63443352538345E-02 
1513	 2.08777381142794E-02 
1514	 2.36551378853121E-02 
1515	 4.79016151655567E-02 
1516	 0.043063837539598 
1517	 4.07251351752147E-02 
1518	 4.17892894737203E-02 
1519	 2.96916113333483E-02 
1520	 3.49288937809708E-02 
1521	 5.06321337400605E-02 
1522	 5.14877749101601E-02 
1523	 4.87795003901085E-02 
1524	 5.96553996834424E-02 
1525	 6.49521002744519E-02 
1526	 5.33336373784438E-02 
1527	 4.19039378041369E-02 
1528	 4.74326978046196E-02 
1529	 5.57834261426103E-02 
1530	 5.46595623060646E-02 
1531	 6.01226851683032E-02 
1532	 6.58384584880834E-02 
1533	 0.059994370715184 
1534	 6.00077395628595E-02 
1535	 6.57065963958285E-02 
1536	 6.08364633130657E-02 
1537	 4.77793031528454E-02 
1538	 4.65843738370404E-02 
1539	 6.27103533299646E-02 
1540	 6.24437212752015E-02 
1541	 5.07551659526142E-02 
1542	 5.01329866482315E-02 
1543	 4.09426349888881E-02 
1544	 3.42788367120971E-02 
1545	 4.65387853407208E-02 
1546	 5.15475645594411E-02 
1547	 4.26169482736338E-02 
1548	 4.08754689210643E-02 
1549	 4.53404924634158E-02 
1550	 4.60562790769624E-02 
1551	 3.90641986828754E-02 
1552	 3.94982451523794E-02 
1553	 0.047893023148123 
1554	 4.34436735400193E-02 
1555	 4.65099552684008E-02 
1556	 5.62555468266343E-02 
1557	 5.64602805936829E-02 
1558	 6.00919068397892E-02 
1559	 6.81715921721601E-02 
1560	 6.81687210153378E-02 
1561	 5.82749653221239E-02 
1562	 5.46334133421864E-02 
1563	 5.54177646071551E-02 
1564	 5.05381146484541E-02 
1565	 4.49424550225694E-02 
1566	 4.81890857685268E-02 
1567	 5.35911323660738E-02 
1568	 4.99317143367679E-02 
1569	 0.050753248548693 
1570	 5.21430991903311E-02 
1571	 4.76085187347214E-02 
1572	 4.81603020449841E-02 
1573	 5.07413216424136E-02 
1574	 5.21254553432617E-02 
1575	 0.050075442162148 
1576	 4.75083294814089E-02 
1577	 5.11840688506175E-02 
1578	 5.46125747572601E-02 
1579	 5.32209638880425E-02 
1580	 4.90116548815586E-02 
1581	 4.33321581947835E-02 
1582	 4.46406897839341E-02 
1583	 4.87783327577657E-02 
1584	 4.69880485514161E-02 
1585	 4.49156028796316E-02 
1586	 4.38479009131832E-02 
1587	 4.38181980979442E-02 
1588	 4.35567277803409E-02 
1589	 4.21290848683078E-02 
1590	 4.27604023631837E-02 
1591	 4.40983872421758E-02 
1592	 4.69283235478204E-02 
1593	 5.47668917333159E-02 
1594	 5.61107007949538E-02 
1595	 0.049833462200797 
1596	 4.72992967078042E-02 
1597	 4.67551026124866E-02 
1598	 4.61751790817537E-02 
1599	 3.85992034623116E-02 
1600	 0.036170604801543 
1601	 4.53260372155402E-02 
1602	 4.43984685229137E-02 
1603	 4.23319306067249E-02 
1604	 4.95771779801715E-02 
1605	 4.98176857670494E-02 
1606	 4.35440109946852E-02 
1607	 4.75856459883379E-02 
1608	 5.36938499026665E-02 
1609	 4.63304409366965E-02 
1610	 4.36576317342305E-02 
1611	 5.13301522102059E-02 
1612	 5.12284879673571E-02 
1613	 4.68266810400853E-02 
1614	 4.58132305760598E-02 
1615	 4.20447355867009E-02 
1616	 3.91560874854358E-02 
1617	 4.28336986422683E-02 
1618	 4.30362492742141E-02 
1619	 3.81010843427323E-02 
1620	 3.56758285242514E-02 
1621	 3.68822309495764E-02 
1622	 4.29970186344515E-02 
1623	 5.07246507406678E-02 
1624	 5.02676093289999E-02 
1625	 4.46754897224662E-02 
1626	 4.24430419739351E-02 
1627	 3.93912675378467E-02 
1628	 3.63333509880373E-02 
1629	 0.038582112223726 
1630	 3.83723496285534E-02 
1631	 3.79096324352096E-02 
1632	 4.20467184121766E-02 
1633	 4.63585993726249E-02 
1634	 5.17251772367396E-02 
1635	 5.36100903215291E-02 
1636	 5.36831538757128E-02 
1637	 5.24050762221171E-02 
1638	 0.047229903158653 
1639	 0.044736049764402 
1640	 4.16238305660384E-02 
1641	 3.97732190551877E-02 
1642	 4.33372435371485E-02 
1643	 4.53005930819408E-02 
1644	 4.65480454833965E-02 
1645	 4.38498274816938E-02 
1646	 0.037075241844708 
1647	 4.00055253514505E-02 
1648	 4.29040424490254E-02 
1649	 4.10772022232304E-02 
1650	 0.045161264507225 
1651	 4.75636192263101E-02 
1652	 4.55677285785137E-02 
1653	 4.67350829942334E-02 
1654	 4.76394795272554E-02 
1655	 4.64789630301562E-02 
1656	 4.66742349416496E-02 
1657	 4.85979979012113E-02 
1658	 4.59116446007517E-02 
1659	 0.040743168964705 
1660	 3.83878600761343E-02 
1661	 0.033136352768323 
1662	 0.033985195443191 
1663	 4.13299920907533E-02 
1664	 4.15990136894179E-02 
1665	 4.18121163686973E-02 
1666	 4.23243520464508E-02 
1667	 3.67228109460273E-02 
1668	 3.37484456169768E-02 
1669	 4.21544302290466E-02 
1670	 4.94431572579197E-02 
1671	 4.47146039467784E-02 
1672	 4.24277701215756E-02 
1673	 4.30877745391584E-02 
1674	 4.05835969277773E-02 
1675	 4.26292869916677E-02 
1676	 4.33924400381984E-02 
1677	 4.35876656365918E-02 
1678	 4.80259230289174E-02 
1679	 4.71086613975998E-02 
1680	 4.27997997360243E-02 
1681	 4.07781885365164E-02 
1682	 0.038485875423312 
1683	 3.81277026643641E-02 
1684	 4.36611910872927E-02 
1685	 4.55967340816767E-02 
1686	 3.54325543994032E-02 
1687	 3.50352151236462E-02 
1688	 4.25909924143801E-02 
1689	 4.22423657028687E-02 
1690	 4.74050437616357E-02 
1691	 5.03968435947505E-02 
1692	 4.59680069835063E-02 
1693	 4.63839461825433E-02 
1694	 4.88643093825065E-02 
1695	 4.52008687441792E-02 
1696	 4.34378913759108E-02 
1697	 5.01861161360822E-02 
1698	 0.052526570650422 
1699	 4.86268461042269E-02 
1700	 4.44965283062565E-02 
1701	 3.90345851064605E-02 
1702	 3.49020732592649E-02 
1703	 4.04504534970382E-02 
1704	 4.93165675950805E-02 
1705	 4.69042563404783E-02 
1706	 3.92928829268339E-02 
1707	 3.61323298751889E-02 
1708	 3.55128192536203E-02 
1709	 4.40821117185484E-02 
1710	 5.78209454986122E-02 
1711	 5.47515172231912E-02 
1712	 4.67666368531494E-02 
1713	 4.52823100459263E-02 
1714	 0.042311798849226 
1715	 4.98314391558697E-02 
1716	 5.38817938567727E-02 
1717	 4.57648058478621E-02 
1718	 4.55965078143361E-02 
1719	 4.76247997465555E-02 
1720	 4.41909027153591E-02 
1721	 4.67845256159911E-02 
1722	 4.48840874526782E-02 
1723	 4.34896704988802E-02 
1724	 4.78897449904448E-02 
1725	 4.76691186396869E-02 
1726	 4.57010057482496E-02 
1727	 4.77680144458685E-02 
1728	 5.58288007024584E-02 
1729	 5.62347574933217E-02 
1730	 6.13450627041493E-02 
1731	 7.66541199778587E-02 
1732	 6.71478020473449E-02 
1733	 6.07099037107175E-02 
1734	 7.07914375675712E-02 
1735	 5.60192644457292E-02 
1736	 4.40536061235075E-02 
1737	 5.48519208540658E-02 
1738	 5.13307548657652E-02 
1739	 4.44563177143199E-02 
1740	 5.85615842827804E-02 
1741	 5.08953657319654E-02 
1742	 2.69296750935874E-02 
1743	 2.77992627245733E-02 
1744	 3.03688115109945E-02 
1745	 3.14733451833079E-02 
1746	 3.86819953636197E-02 
1747	 4.69849137316883E-02 
1748	 5.77561593086411E-02 
1749	 5.88448468156487E-02 
1750	 0.061176202000026 
1751	 5.54899568960495E-02 
1752	 2.36373669934145E-02 
1753	 2.31430104125527E-02 
1754	 4.76078838274311E-02 
1755	 4.83136513559903E-02 
1756	 5.22817399331715E-02 
1757	 4.51581962581185E-02 
1758	 3.03138515111182E-02 
1759	 2.78696551514372E-02 
1760	 3.89626078689683E-02 
1761	 5.71968735291533E-02 
1762	 6.62896553800535E-02 
1763	 7.00161868533081E-02 
1764	 7.75214969125208E-02 
1765	 6.43295240789394E-02 
1766	 4.80940290879611E-02 
1767	 6.45641921155447E-02 
1768	 8.31235058658091E-02 
1769	 6.66219504261814E-02 
1770	 5.25755797965739E-02 
1771	 4.87742483551594E-02 
1772	 1.39888118942384E-02 
1773	 8.3522079949293E-03 
1774	 3.88107720875817E-02 
1775	 4.20740323199165E-02 
1776	 0.048286677256034 
1777	 8.13288033094978E-02 
1778	 0.087140793652383 
1779	 5.52235298236961E-02 
1780	 4.10270006171842E-02 
1781	 0.016371249562784 
1782	-8.20558055607409E-03 
1783	-2.48808556261939E-02 
1784	-3.80226124790484E-02 
1785	-0.065999648228138 
1786	-3.88464776038809E-02 
1787	 4.56898624232447E-02 
1788	 6.17286678332629E-02 
1789	 0.100658708611328 
1790	 4.37180598942319E-02 
1791	-0.047352493860657 
1792	-4.78201376973874E-02 
1793	-1.47011189045508E-02 
1794	 3.76052266670199E-02 
1795	 0.13244277575393 
1796	 0.230515991558778 
1797	 0.251800109660867 
1798	-6.02143774535873E-02 
1799	-0.492187048928965 
1800	-0.50186216790637 
1801	-0.532599991210246 
1802	 0.197729461605702 
1803	 0.733533427161957 
1804	 0.517257537018433 
1805	 0.647624020578255 
1806	 2.69964446554357 
1807	 2.73879935245809 
1808	 0.407508713024268 
1809	 0.55589846218592 
1810	 0.964298199595871 
1811	 0.693442074411532 
1812	 0.550835060241539 
1813	 0.73063493705861 
1814	 0.41785658852661 
1815	 1.41287257225153 
1816	-0.882895903059003 
1817	-0.898441819715011 
1818	-0.285068838547621 
1819	 5.42117005328077 
1820	 0.174082982302353 
1821	-0.233373972602276 
1822	-0.507189487713589 
1823	-26.7142425151845 
1824	 1.62248148317004 
1825	 0.356902909847375 
1826	 0.152480362879743 
1827	-0.614000817749661 
1828	-0.889209338836195 
1829	 3.72316491641216 
1830	 0.381958287935218 
1831	-1.2467331842727 
1832	-0.894985838877165 
1833	-0.325234200145025 
1834	-0.267560347118121 
1835	-1.90315711174751 
1836	-23.221516574466 
1837	 0.433988817722543 
1838	 0.294179372908132 
1839	 0.153676569032192 
1840	 3.15119879606739E-02 
1841	 4.63779186310256E-02 
1842	 0.156876629354908 
1843	 9.35248433907449E-02 
1844	 7.22686886947814E-02 
1845	-1.42478530366753E-02 
1846	-0.403242173948108 
1847	-0.535207834429203 
1848	-0.525009634262102 
1849	-0.367181081399356 
1850	-0.105300193744109 
1851	-0.402314254632233 
1852	-0.760045067735742 
1853	-0.828640052822407 
1854	-1.14977390691086 
1855	-14.3427002530499 
1856	 2.24802745960488 
1857	 0.38683756473351 
1858	 0.385698560071068 
1859	-2.22849638942008 
1860	-1.74105924232719 
1861	-5.96508562517927 
1862	 2.85237460225401 
1863	 0.539611029134484 
1864	 0.687478160602936 
1865	 0.738725087556417 
1866	 2.88188669177787 
1867	-5.74567531764535 
1868	-2.2324013827612 
1869	-2.3445235017148 
1870	 452.514486323012 
1871	 5.507229933327 
1872	 2.47595085625636 
1873	 2.3866928517201 
1874	 3.14992287037037 
1875	 3.41978043786133 
1876	 2.81149474701408 
1877	 1.04413212902461 
1878	 1.08984016327194 
1879	 3.21694179232757 
1880	 4.2454378627811 
1881	 25.7221240115063 
1882	-26.0943104464657 
1883	 3.98139343806741 
1884	 0.369562590990875 
1885	-4.18915264809783E-02 
1886	 0.513806489580908 
1887	 1.82713014570133 
1888	 0.771678214246379 
1889	 0.726913493751154 
1890	 0.242284357022221 
1891	 0.159054073020109 
1892	 0.281913359916941 
1893	 0.963258068424705 
1894	 0.973238606368884 
1895	 1.88998468104326 
1896	 1.55077400119706 
1897	 1.34690592846146 
1898	 2.21905994936553 
1899	 0.703288284879888 
1900	-1.14530283162266 
1901	 7.71384782454026 
1902	 6.18779196136931 
1903	 10.7597810468087 
1904	 16.6303776292372 
1905	-6.01480054645901 
1906	-1.31120008627868 
1907	-1.81729712511903 
1908	-0.846643070935817 
1909	-0.141358138153425 
1910	-0.262870587462708 
1911	-0.112989448715168 
1912	 2.73267104441251E-02 
1913	 0.150743724849473 
1914	 0.376735247325178 
1915	 0.411582975509421 
1916	 0.368338991175044 
1917	 0.995774132073551 
1918	 0.255361210003128 
1919	 0.20258230261331 
1920	-0.296603439653748 
1921	-0.907247892119923 
1922	-1.39153412650275 
1923	 1.01650636795283 
1924	-14.8396686449812 
1925	 6.06971638518203 
1926	 20.1775527966295 
1927	 11.5068533914172 
1928	-5.17398531837432 
1929	-3.34469698358153 
1930	-1.19666722194286 
1931	-2.99821241174764 
1932	 6.22537860171957 
1933	 3.67950242984817 
1934	 2.48751920701991 
1935	 2.08422768250654 
1936	 1.03059983191822 
1937	 1.6332287050427 
1938	 2.89311225940968 
1939	 3.04808697726336 
1940	 3.47321161148042 
1941	 6.29967767643423 
1942	 2.53683133195191 
1943	 1.99119496809132 
1944	 3.16794526790504 
1945	 4.00471582397466 
1946	 1.95204612933196 
1947	 0.948507745620115 
1948	 0.823895387421013 
1949	 0.525249687405934 
1950	 0.581939413874105 
1951	 2.40581159171075 
1952	 3.59448450098707 
1953	 3.27413798092229 
1954	 1.47546043164687 
1955	 2.03949599087937 
1956	 3.06134279319054 
1957	 6.51460989219073 
1958	 0.667340306293129 
1959	 0.468474704153934 
1960	 7.82921227362483E-02 
1961	-0.316721159874029 
1962	-0.322604828461007 
1963	-7.37393452473953E-02 
1964	-0.321310632159519 
1965	-1.88366309226914 
1966	-6.69014883911057 
1967	-8.25850098189659 
1968	 12.8725608986454 
1969	 2.21748193972821 
1970	 0.962400061839625 
1971	 0.805887902884554 
1972	 0.849098811676815 
1973	 0.514818846484956 
1974	 0.9601228941364 
1975	 1.39357837246733 
1976	 1.48756665057348 
1977	-3.52290478404627 
1978	-0.214843711891394 
1979	 6.04453807084891E-02 
1980	 0.229880705770356 
1981	-2.08579984052808E-04 
1982	 6.51717370242841E-02 
1983	-78.2515578301205 
1984	 1.24694643866562 
1985	 2.51328241373716 
1986	 2.5124278977848 
1987	 1.8414164790144 
1988	 1.6209520731782 
1989	 0.57768129797359 
1990	 0.289896353407024 
1991	-0.461024973771632 
1992	-0.721507887348957 
1993	-0.801658880364746 
1994	-1.15830800845051 
1995	-55.3111162904666 
1996	-2.82052396462279 
1997	 0.388056252013314 
1998	-0.746519622245154 
1999	 0.429333321626458 
2000	-0.248585930155771 
2001	-0.55639151477792 
2002	-3.89097272279403 
2003	-0.782145912634237 
2004	-0.432746688043931 
2005	-0.435604151773746 
2006	-0.273474160129969 
2007	-0.117834366816561 
2008	-0.144091860161822 
2009	-0.109940728713756 
2010	 0.291022091918039 
2011	 0.52989819082544 
2012	 0.814750241615245 
2013	-0.364277942028439 
2014	-0.545598106357935 
2015	 1.25581569176938 
2016	 2.69891592997479 
2017	 3.35208994029185 
2018	 0.168348428705482 
2019	-0.558923731789677 
2020	-0.853954952977555 
2021	-1.3427983300167 
2022	-2.57331585323782 
2023	-2.14176696427915 
2024	-1.42565085474318 
2025	-1.06476286625704 
2026	-0.648061268894839 
2027	 0.60839138172057 
2028	 0.82131139456761 
2029	 0.767801275772115 
2030	 0.288549400401355 
2031	-0.464568299457968 
2032	-0.721241964440289 
2033	-0.528365366915845 
2034	-0.295372794901435 
2035	-0.136680581887664 
2036	-0.481035801095638 
2037	-1.39759919461445 
2038	-1.75877153204217 
2039	-1.45179665440237 
2040	-0.391047720400035 
2041	-0.17002697757169 
2042	 0.191509040542226 
2043	 0.321051401970934 
2044	 0.18463244970875 
2045	-0.597761396982541 
2046	 1.15249651488726 
2047	-4.0127488530626 
2048	-0.376660162052365 
2049	-0.285338103609889 
2050	-0.567762194697349 
2051	-0.567271695570534 
2052	-0.501641412656894 
2053	-0.303750055205018 
2054	-0.134960193397517 
2055	-0.120399056510412 
2056	-0.108910462324889 
2057	-0.349795700388318 
2058	-0.499582130187048 
2059	-0.643640353256109 
2060	-0.486341826514819 
2061	-0.144476660910695 
2062	 6.91233552931406E-02 
2063	 0.416403715185523 
2064	 0.645208065266535 
2065	 0.38171274164823 
2066	-0.720479122318554 
2067	-3.779995455235 
2068	-0.890258740014571 
2069	-0.500833861324815 
2070	-0.5064472099316 
2071	-0.509632811481198 
2072	-0.570317775401915 
2073	-0.538154162131101 
2074	-0.498690907901013 
2075	-0.424207865588648 
2076	-0.183748148438377 
2077	-7.29842956351281E-02 
2078	 2.44731599297042E-02 
2079	 3.19501524679792E-02 
2080	-9.00736257193529E-02 
2081	-0.203277759701401 
2082	-0.192909064496238 
2083	 3.58350365790857E-02 
2084	 0.102528397109531 
2085	 0.286650050704344 
2086	 0.475846181831028 
2087	 0.244136536835285 
2088	 6.22660327795673E-02 
2089	-6.19551748728118E-02 
2090	-0.662019289095459 
2091	-1.76975621023806 
2092	-1.80152938622866 
2093	-0.705010336292774 
2094	-0.648160054148378 
2095	-0.591588475897934 
2096	-0.521006693224782 
2097	-0.679719471704778 
2098	-0.595352443226522 
2099	-0.381634104139651 
2100	-0.202524740590213 
2101	-3.88712563872283E-02 
2102	 0.228960786886387 
2103	 0.265220710310894 
2104	 0.11230812479441 
2105	 6.78308716035327E-02 
2106	-3.52703246267848E-02 
2107	 9.70719548443418E-03 
2108	 0.203261605377623 
2109	 0.271000385316478 
2110	 0.258647473470207 
2111	 0.175905618136145 
2112	 0.085325771901377 
2113	 4.83396415820616E-02 
2114	 0.029406727369059 
2115	 0.031162792870357 
2116	 0.192733607285384 
2117	 0.189409244063861 
2118	 0.125339896298119 
2119	 0.145312314456916 
2120	 0.179590686446293 
2121	 0.105191300102125 
2122	 0.180227121760498 
2123	 0.105169157100958 
2124	 4.25806660882172E-02 
2125	 0.10454695405983 
2126	 0.283889640206541 
2127	 0.378275353866838 
2128	 0.305365161424865 
2129	 0.197721636336705 
2130	 0.055780082392111 
2131	 0.025586448719786 
2132	 0.11160123293681 
2133	 0.282231705493127 
2134	 0.35407110860806 
2135	 0.455247945793091 
2136	 0.428761981578405 
2137	 0.255554149252234 
2138	 0.200911898637348 
2139	 0.121338166827286 
2140	 8.91098844142651E-02 
2141	 0.169461955719893 
2142	 0.180754580545239 
2143	 0.191825961554 
2144	 0.115916443293058 
2145	 0.05424615193928 
2146	-9.89933255577491E-02 
2147	-0.110145999402961 
2148	-0.063296454042984 
2149	-6.05394051146183E-02 
2150	 2.50628635474479E-02 
2151	 2.0694117076181E-03 
2152	 2.68619819802002E-02 
2153	 8.65066384039258E-02 
2154	 0.178479558833647 
2155	 0.244303291278048 
2156	 0.179932194122478 
2157	 0.11457256010394 
2158	-3.69097513971431E-02 
2159	-9.29136515416944E-02 
2160	-0.122162649787513 
2161	-0.149552215186179 
2162	-0.147820417475909 
2163	-9.60543061389991E-02 
2164	-4.36032183259304E-02 
2165	 2.11995329184568E-02 
2166	 0.219695033964315 
2167	 0.311244013507304 
2168	 0.355080229299606 
2169	 0.31204399448423 
2170	 0.11964064831985 
2171	-8.34202611915347E-02 
2172	-0.292942035680305 
2173	-0.258800280165872 
2174	 8.09591641457496E-02 
2175	 0.22659418661731 
2176	 0.132459475682282 
2177	 0.219717586989281 
2178	 0.13676434177526 
2179	 5.06187909815423E-02 
2180	 0.1018093715555 
2181	 9.47842810110137E-02 
2182	 0.151171504943959 
2183	 6.49975065623388E-02 
2184	-5.83886193369043E-02 
2185	-0.141413767986863 
2186	-0.153119892428427 
2187	-5.91952952823036E-02 
2188	-1.43744170217878E-02 
2189	 8.20815890866585E-02 
2190	 0.135708875987011 
2191	 0.10067918080599 
2192	 0.136093248989519 
2193	 0.229230921393721 
2194	 0.295500859373543 
2195	 0.411062579464991 
2196	 0.457772805107324 
2197	 0.426343025469783 
2198	 0.422148614979471 
2199	 0.426414177122298 
2200	 0.355253640615401 
2201	 0.391533092261276 
2202	 0.256852373419448 
2203	-7.65857200122239E-02 
2204	-0.169383430537014 
2205	-0.292162869118526 
2206	-2.69827500757504E-02 
2207	 0.53809121994304 
2208	 0.966399731318574 
2209	 0.898137365201315 
2210	 0.749332826290417 
2211	 0.422634802378935 
2212	-2.95112599789286E-03 
2213	-0.180444991632538 
2214	-0.214626865418822 
2215	-0.259679405072362 
2216	-0.243194844723976 
2217	-6.16093548247863E-02 
2218	 0.29713828095964 
2219	 0.43501136287292 
2220	 0.725076490381626 
2221	 0.795150850348217 
2222	 0.435995235594404 
2223	 0.457113561807344 
2224	 0.670641360061389 
2225	 0.681253990089053 
2226	 0.988214997362567 
2227	 0.790699734813682 
2228	 0.253687357953377 
2229	 0.145807847294441 
2230	-2.03837672666309E-02 
2231	-0.156572893138596 
2232	-0.196927624712421 
2233	-9.72775487130597E-02 
2234	 0.232488014482444 
2235	 0.150626470614789 
2236	 0.180814432738037 
2237	 0.128898563167053 
2238	 2.26104848121554E-02 
2239	-3.27391978579394E-02 
2240	-2.18567179006135E-02 
2241	-9.50030429182091E-02 
2242	-0.238147397033009 
2243	-0.183888791066612 
2244	-2.05230534009545E-02 
2245	 0.282776853280578 
2246	 0.618307654136972 
2247	 0.890258923889552 
2248	 0.943479191020919 
2249	 0.705766929593522 
2250	 0.527133924555163 
2251	 0.405568291656039 
2252	 0.452077895932396 
2253	 0.762287960614948 
2254	 0.941633872793999 
2255	 1.08025743897054 
2256	 0.20950864846697 
2257	-0.559785020798947 
2258	-0.167836139071658 
2259	-3.91916091854914E-02 
2260	-0.101818186731516 
2261	-0.229522976998788 
2262	-0.251493651740893 
2263	-0.507224844788786 
2264	-0.718008768472575 
2265	-0.823964103311687 
2266	-0.675022795402693 
2267	-0.524083306461417 
2268	-0.596678818867875 
2269	-0.273262936593831 
2270	-4.41356352781425E-02 
2271	-7.56766649293052E-02 
2272	-0.104218686381865 
2273	-9.12982834402761E-02 
2274	-0.104355614497145 
2275	-0.375906632393759 
2276	-0.669629074500613 
2277	-0.446422135235811 
2278	-0.521087864818746 
2279	-0.789835988872173 
2280	-0.859361995646108 
2281	-0.891403222315948 
2282	-1.35700711511002 
2283	-0.576159940330775 
2284	-0.457090686852388 
2285	-0.422259219949416 
2286	-0.889818064305557 
2287	 4.84105107150401 
2288	 0.521863748257605 
2289	 9.37740043066688E-02 
2290	-0.563614571457467 
2291	 0.660351934116332 
2292	-0.298187705362114 
2293	-2.44987164795989 
2294	-1.92886677959553 
2295	-2.26822085983996 
2296	-4.97760387965416 
2297	-0.364458794090792 
2298	 9.69100898480598E-02 
2299	 1.30047618960597 
2300	 0.882412947405108 
2301	 0.530700477010782 
2302	 0.878276546008505 
2303	-1.79980963240295 
2304	-0.55091090174007 
2305	-0.337877037915954 
2306	-0.932494519851202 
2307	-1.07128119486138 
2308	 10.1846817387697 
2309	-3.6226891913124 
2310	-0.929297407312276 
2311	 0.646779158487252 
2312	 1.41295546220682 
2313	 2.87541767805339 
2314	 10.7061106334665 
2315	 120.821280193202 
2316	-47.8811297346939 
2317	-15.3146736296646 
2318	-5.31734470493368 
2319	-11.4228432924477 
2320	 14.186751060975 
2321	 65.62414076473 
2322	 3.78689588506909 
2323	 2.45217939416774 
2324	-38.9064053207715 
2325	-1.90477133266154 
2326	-0.806252272659101 
2327	-0.428338911269978 
2328	-0.187233063932726 
2329	-0.738500773916868 
2330	-0.50328218252052 
2331	-0.43280961383408 
2332	-1.34166459763637 
2333	-1.25730314002793 
2334	-1.21128281617684 
2335	-0.946240509258567 
2336	-0.594428506627183 
2337	-0.591575452372716 
2338	 0.227928504442762 
2339	-2.27677195262895 
2340	 2.44258753834202 
2341	 1.50797465800461 
2342	 1.11726751126736 
2343	-4.40455674359636 
2344	 2.56833202159604 
2345	 1.82559064248024 
2346	 3.88832033608793 
2347	 4.20050101199425 
2348	 2.75930605861126 
2349	 2.47124970145214 
2350	 2.35380443046191 
2351	 1.88407807377656 
2352	 1.79172303891077 
2353	 1.38601863453712 
2354	 0.812309977331564 
2355	 374.824574854163 
2356	 0.654016944844289 
2357	-17.1870060913872 
2358	-1.16327592841213 
2359	 0.160856832287466 
2360	 0.126615868438535 
2361	-0.079626799579709 
2362	 0.53696722146191 
2363	 5.17624950166225 
2364	-0.745920241666952 
2365	 0.971578844325806 
2366	 0.8732261911277 
2367	 0.944339650558007 
2368	 1.12849133653906 
2369	 1.08982684055569 
2370	 1.78470443676008 
2371	 1.25408600164199 
2372	 0.203313915341737 
2373	-1.74293076505445 
2374	-0.71191272574733 
2375	-0.556291699471341 
2376	-1.06412648787522 
2377	-3.71090526303392E-02 
2378	 1.11963042444616 
2379	 0.890416603674915 
2380	 0.460714003897713 
2381	 0.636250370394846 
2382	 0.309576452933586 
2383	 7.64147533642185E-02 
2384	 0.133282113410664 
2385	 0.396078077446459 
2386	 0.428717057199557 
2387	 0.082962675528587 
2388	 0.351498571139118 
2389	 2.68815106096292 
2390	 2.11217275537459 
2391	 0.316901134889434 
2392	-0.403668265792507 
2393	-0.745043513213045 
2394	-1.78673675454938 
2395	 2.69684970804214 
2396	 0.614665035304221 
2397	 0.492520790408392 
2398	 0.557998463468409 
2399	 0.324449864780944 
2400	 0.207897299582987 
2401	 9.38806751473207E-02 
2402	 1.16568952847198E-02 
2403	 0.596437461272524 
2404	 0.464878230906347 
2405	-3.54095692317817E-02 
2406	-0.318267251227938 
2407	-0.580245203015891 
2408	-0.853031130659366 
2409	-0.928715716157087 
2410	 0.524332636183778 
2411	 0.75825460667274 
2412	-0.096527372389553 
2413	-0.125966926775445 
2414	-0.254187763442163 
2415	-3.01717902080934E-02 
2416	 0.10456452828702 
2417	 0.1751187580168 
2418	 0.161954036317781 
2419	-0.83228616311299 
2420	-2.20320539459523 
2421	-4.88935531450853 
2422	-1.30736536123048 
2423	 1.47947746872522 
2424	 5.01690276187148 
2425	-5.24858160475507 
2426	-3.8485453108653 
2427	-25.1669436179692 
2428	-5.2627857763911 
2429	-2.00141325483857 
2430	-1.22917821249834 
2431	-0.15006035673144 
2432	 0.525034067011323 
2433	 1.75273320163623 
2434	-2.39703897189378 
2435	-1.89919267018179 
2436	-1.08191453776716 
2437	-0.994532384997723 
2438	 1.15132725218143 
2439	 0.551496250383777 
2440	 0.641911731601323 
2441	 0.58891905811509 
2442	 0.227436754123063 
2443	 7.59555017771726E-02 
2444	 3.78890548090019E-02 
2445	 0.708494623899548 
2446	 3.12057436027239 
2447	 2.51142642097893 
2448	 8.9969862086653 
2449	-4.37555362409412 
2450	-0.908175816272738 
2451	 1.03634883845019 
2452	-0.339614268201219 
2453	-0.272094839380324 
2454	-6.24689617683086E-02 
2455	 5.42617313125373 
2456	-3.47321402209987 
2457	-2.29382748324066 
2458	-1.67275958572387 
2459	-8.30025094188512 
2460	 4.18481571569762 
2461	 2.04001720088932 
2462	 1.32980715693249 
2463	 1.34290567282684 
2464	 0.242243178085051 
2465	-1.02870986661206 
2466	-0.512523803649898 
2467	 9.43576983040272E-02 
2468	 0.706718274762911 
2469	-2.07349331261785 
2470	-0.601060420777225 
2471	 1.92456309738782E-02 
2472	-2.06510049203186E-02 
2473	-1.14581555763787 
2474	-1.65894053603057 
2475	-1.57146804585499 
2476	-5.6972787806169 
2477	-3.09367814104149 
2478	 3.050810589515 
2479	 1.08148666272838 
2480	 0.629728467050826 
2481	 0.863556429365041 
2482	 2.98840969834132 
2483	 4.16724159784816 
2484	 1.55530504539749 
2485	 1.43200875475876 
2486	 1.05021631337813 
2487	 0.92032837219896 
2488	 1.3820942859601 
2489	 1.68068761732732 
2490	 1.39255967510969 
2491	 1.86271216800551 
2492	 3.72633398724224 
2493	 1.43796416738481 
2494	 1.86578266336622 
2495	 0.604208812843065 
2496	 0.537262254614911 
2497	 1.65663461303703 
2498	 2.23205534248031 
2499	 3.45692019771579 
2500	 3.78304784265395 
