Wavelength	rt0707far00003.asd
350	 8.20242899714751E-02 
351	 8.25591261995444E-02 
352	 8.25917307747048E-02 
353	 8.28537154423217E-02 
354	 8.33635918673982E-02 
355	 8.22057537801808E-02 
356	 8.27371322305308E-02 
357	 8.37554023570613E-02 
358	 8.34692163838286E-02 
359	 8.43556845956431E-02 
360	 8.33914510504655E-02 
361	 8.17021537981817E-02 
362	 8.28525848288105E-02 
363	 8.38782917087032E-02 
364	 8.40592901966729E-02 
365	 8.38044671460454E-02 
366	 0.084745869846457 
367	 8.49634444042242E-02 
368	 8.43581539659694E-02 
369	 0.083788494452542 
370	 8.58007306211725E-02 
371	 8.61013349071664E-02 
372	 8.47955400317937E-02 
373	 8.45777084703573E-02 
374	 8.52008634183068E-02 
375	 8.60778690001782E-02 
376	 8.65460654770209E-02 
377	 0.086003948286043 
378	 8.64908541707488E-02 
379	 0.086841841693625 
380	 8.62223865259365E-02 
381	 8.74333838881684E-02 
382	 8.77577410542015E-02 
383	 8.73641650149348E-02 
384	 8.76988350278144E-02 
385	 8.82242291548703E-02 
386	 8.87308042872711E-02 
387	 8.91727790467676E-02 
388	 8.96493228137118E-02 
389	 8.95881348155935E-02 
390	 8.90441191719332E-02 
391	 8.86431586725098E-02 
392	 9.01329686936887E-02 
393	 9.11746813425644E-02 
394	 9.14137013381029E-02 
395	 9.12790088941791E-02 
396	 9.05210147146271E-02 
397	 9.08638262441328E-02 
398	 9.19785000427467E-02 
399	 9.18812595425287E-02 
400	 9.22543720112448E-02 
401	 9.23724995657011E-02 
402	 9.18754443915554E-02 
403	 9.19707612893305E-02 
404	 9.24334938021661E-02 
405	 9.30528317638768E-02 
406	 9.35561619515997E-02 
407	 9.34613695396759E-02 
408	 9.34675940991421E-02 
409	 9.38262414444302E-02 
410	 9.42595960874745E-02 
411	 9.42875594549889E-02 
412	 9.45003178809729E-02 
413	 9.51790253227629E-02 
414	 9.54081255208051E-02 
415	 9.55616245884178E-02 
416	 9.58467533355603E-02 
417	 9.63098489703401E-02 
418	 9.63715049616812E-02 
419	 9.66022672258345E-02 
420	 9.72982582745832E-02 
421	 9.83425005499949E-02 
422	 9.83441835371423E-02 
423	 9.83212155861564E-02 
424	 9.91207731073897E-02 
425	 9.96558974102417E-02 
426	 0.100112155407964 
427	 0.100627413006253 
428	 0.101277247139279 
429	 0.101721382215983 
430	 0.102227044091571 
431	 0.102962853971888 
432	 0.103910950775182 
433	 0.10437911965249 
434	 0.104766107239831 
435	 0.105394699463371 
436	 0.105515058105937 
437	 0.106176758348599 
438	 0.107146430790578 
439	 0.107582464133286 
440	 0.108125070064178 
441	 0.108695791549485 
442	 0.10918698182347 
443	 0.109552244699186 
444	 0.11013480940649 
445	 0.110918514554616 
446	 0.111690153100634 
447	 0.111920329900713 
448	 0.112231133863994 
449	 0.112822360312322 
450	 0.113518863705348 
451	 0.113852038969717 
452	 0.114199944216194 
453	 0.11474471333367 
454	 0.114973904608692 
455	 0.115490880549111 
456	 0.11606254636054 
457	 0.116281433596605 
458	 0.116527223869128 
459	 0.11686965879928 
460	 0.117211042728838 
461	 0.117328038132235 
462	 0.117802266665757 
463	 0.118420148947869 
464	 0.118893884945578 
465	 0.119198696242123 
466	 0.119418501075571 
467	 0.119706598232347 
468	 0.120202520260459 
469	 0.120721907625237 
470	 0.120984285472976 
471	 0.121083968304267 
472	 0.121610557297783 
473	 0.121998987333687 
474	 0.122237048235042 
475	 0.122501997512067 
476	 0.12309370223703 
477	 0.123761712345351 
478	 0.124182695307196 
479	 0.12411660419258 
480	 0.124669008349295 
481	 0.125341021098013 
482	 0.125733338425345 
483	 0.126084188168165 
484	 0.126562040049508 
485	 0.127147993676769 
486	 0.127710366932316 
487	 0.127993801033515 
488	 0.128569197138253 
489	 0.129287045066652 
490	 0.129335556226633 
491	 0.129901978494657 
492	 0.130775429574639 
493	 0.131532098028044 
494	 0.131944614787803 
495	 0.132448810870311 
496	 0.13311383160996 
497	 0.133810625230962 
498	 0.134500176508733 
499	 0.135142340498283 
500	 0.135723728951113 
501	 0.136266906718488 
502	 0.136737943204466 
503	 0.137416672318187 
504	 0.138431423771344 
505	 0.138992210301463 
506	 0.13937330753286 
507	 0.139869613598729 
508	 0.140720763969708 
509	 0.141432318943671 
510	 0.142102529510149 
511	 0.142796126046147 
512	 0.143244499192546 
513	 0.143746316280961 
514	 0.144422791712106 
515	 0.145273053764514 
516	 0.146068270660121 
517	 0.146894908111575 
518	 0.147737479493907 
519	 0.148430425107277 
520	 0.149249331412851 
521	 0.150070170399176 
522	 0.15078175076361 
523	 0.151637967585937 
524	 0.152519980499566 
525	 0.153340595281596 
526	 0.1540658646949 
527	 0.154953404201746 
528	 0.155812694172722 
529	 0.156532574933162 
530	 0.157273266880289 
531	 0.158070614916087 
532	 0.159086479763303 
533	 0.160380715712804 
534	 0.161287573342334 
535	 0.161854833409697 
536	 0.162406407265873 
537	 0.163493809553969 
538	 0.16440616740647 
539	 0.165217226719278 
540	 0.166144177729155 
541	 0.167234079857345 
542	 0.168175816975681 
543	 0.168985552708587 
544	 0.16988434584073 
545	 0.170844683355033 
546	 0.171727409448486 
547	 0.172475773220602 
548	 0.173199243373738 
549	 0.174108286903151 
550	 0.174997147568053 
551	 0.175661782302904 
552	 0.176869706683764 
553	 0.177869032855413 
554	 0.178504435905595 
555	 0.179376449063116 
556	 0.18042532618417 
557	 0.181373778015009 
558	 0.182058517291347 
559	 0.182921167372835 
560	 0.183822471827903 
561	 0.1846258878347 
562	 0.185261534589948 
563	 0.186316245934305 
564	 0.187182705635648 
565	 0.18759458915945 
566	 0.188248693133413 
567	 0.188912951027112 
568	 0.189469244283541 
569	 0.189896969980024 
570	 0.190568982714863 
571	 0.191287120432063 
572	 0.19185189428882 
573	 0.19211726889862 
574	 0.192680129979882 
575	 0.193100862255557 
576	 0.193005556379014 
577	 0.193011510454432 
578	 0.193145787490566 
579	 0.193293867997269 
580	 0.193286287294624 
581	 0.193482414972381 
582	 0.193640562850711 
583	 0.193548018118248 
584	 0.193136298308328 
585	 0.193006174535422 
586	 0.193025638598663 
587	 0.192821244499368 
588	 0.192467496412691 
589	 0.192244696432071 
590	 0.192096310628529 
591	 0.191587212504215 
592	 0.190829218757468 
593	 0.190183452587702 
594	 0.189707495071117 
595	 0.188323857274016 
596	 0.186943500995452 
597	 0.185659095206969 
598	 0.18417636103277 
599	 0.18309144146786 
600	 0.181902444359468 
601	 0.180624672321994 
602	 0.180399112647155 
603	 0.180053850540844 
604	 0.17968162002394 
605	 0.179627642217856 
606	 0.179269476264232 
607	 0.179279666384645 
608	 0.179627432935595 
609	 0.179525762065121 
610	 0.179589330278247 
611	 0.179520201800014 
612	 0.179162883518627 
613	 0.17933219340633 
614	 0.179512668664133 
615	 0.1795560682867 
616	 0.179529389677618 
617	 0.179501608013314 
618	 0.179398479850495 
619	 0.179285860064292 
620	 0.179501406984669 
621	 0.179488994815755 
622	 0.179321334074876 
623	 0.179251317059454 
624	 0.179288873269868 
625	 0.179387199832374 
626	 0.179494496208541 
627	 0.179543784734862 
628	 0.179143056943915 
629	 0.178836625875932 
630	 0.178970546676807 
631	 0.178893956178999 
632	 0.179077832134902 
633	 0.179265301999813 
634	 0.178968642477511 
635	 0.178756779399454 
636	 0.178511863250349 
637	 0.178283377479556 
638	 0.178456398869185 
639	 0.178543508248773 
640	 0.17837610622011 
641	 0.178013844695075 
642	 0.177962524995695 
643	 0.178015364524148 
644	 0.177952676391606 
645	 0.177592798219321 
646	 0.177609411209855 
647	 0.177353570106191 
648	 0.176578802075944 
649	 0.176552070734432 
650	 0.176378786442091 
651	 0.175850863534124 
652	 0.175102238585471 
653	 0.174555584921838 
654	 0.174024292776313 
655	 0.173297495245968 
656	 0.172305304278615 
657	 0.171503719683629 
658	 0.170865258676009 
659	 0.170277604935723 
660	 0.169812481519916 
661	 0.16916390419892 
662	 0.168575474763565 
663	 0.16855486506875 
664	 0.168379841080462 
665	 0.168171753077645 
666	 0.168026802184894 
667	 0.167804672092322 
668	 0.167471763090128 
669	 0.167265755714775 
670	 0.167392417725194 
671	 0.167423485441682 
672	 0.167380630330376 
673	 0.167287519350022 
674	 0.167162176985602 
675	 0.167267494365925 
676	 0.167256211646733 
677	 0.167000760852358 
678	 0.167268301333045 
679	 0.167275709403269 
680	 0.166898543649996 
681	 0.166410047348218 
682	 0.16647874788228 
683	 0.166686766036613 
684	 0.16675674424534 
685	 0.166733510242684 
686	 0.166206056818038 
687	 0.165664191015731 
688	 0.165602681479238 
689	 0.165284334350234 
690	 0.164699209782891 
691	 0.164071728317965 
692	 0.163728194864696 
693	 0.163085030030796 
694	 0.161981658985897 
695	 0.160660348550891 
696	 0.159586051867027 
697	 0.15852155513473 
698	 0.157559848574007 
699	 0.156786672490204 
700	 0.155191180577306 
701	 0.15344737904552 
702	 0.151851234929982 
703	 0.150242655692762 
704	 0.148987661761493 
705	 0.147480861588808 
706	 0.145478983278566 
707	 0.143649136169531 
708	 0.141750914290726 
709	 0.139729800236042 
710	 0.137561578681933 
711	 0.134970946601156 
712	 0.132460018934403 
713	 0.13016125040104 
714	 0.127712809622835 
715	 0.125621965951117 
716	 0.123465536518863 
717	 0.120854665367426 
718	 0.117731561971376 
719	 0.114420962757781 
720	 0.111676163629052 
721	 0.109238309119129 
722	 0.107026247410567 
723	 0.104605622434867 
724	 0.102146447768331 
725	 9.95909796756269E-02 
726	 9.65179040276708E-02 
727	 9.34056911762183E-02 
728	 9.06153156072548E-02 
729	 8.75750857704831E-02 
730	 8.44661035371337E-02 
731	 8.13420454117369E-02 
732	 7.81781176229363E-02 
733	 7.67029661284376E-02 
734	 7.53788618753943E-02 
735	 7.36762028356231E-02 
736	 7.24866339392944E-02 
737	 7.14265680102623E-02 
738	 7.06211972715743E-02 
739	 7.01325699203601E-02 
740	 0.069429790017003 
741	 6.92034014712189E-02 
742	 6.92511591921257E-02 
743	 6.89824286366706E-02 
744	 6.87273115042402E-02 
745	 6.84738682459517E-02 
746	 6.82925263147261E-02 
747	 6.83969126281164E-02 
748	 6.81509077460815E-02 
749	 6.77469496980151E-02 
750	 6.75487934761097E-02 
751	 6.77283764290198E-02 
752	 6.77544538110964E-02 
753	 6.76954149201266E-02 
754	 6.78677964405211E-02 
755	 6.75774431797894E-02 
756	 6.75533364781749E-02 
757	 6.79275413546051E-02 
758	 6.77280629535347E-02 
759	 6.77588753958935E-02 
760	 6.83880790903816E-02 
761	 6.89622166778872E-02 
762	 6.91268841658903E-02 
763	 6.92000742195908E-02 
764	 6.88372931135468E-02 
765	 6.79356604644343E-02 
766	 6.78039780041936E-02 
767	 6.80467487939471E-02 
768	 6.82180614210066E-02 
769	 6.78371289496565E-02 
770	 0.068019080032265 
771	 6.83399453638041E-02 
772	 6.83846537980521E-02 
773	 6.86366083149653E-02 
774	 6.89864633168759E-02 
775	 6.91691668466026E-02 
776	 6.89688750613385E-02 
777	 6.88506117817661E-02 
778	 6.90609400696439E-02 
779	 6.95456180975207E-02 
780	 6.99627251404031E-02 
781	 0.070104968297954 
782	 7.05306537185322E-02 
783	 7.14038318556967E-02 
784	 7.16804041928227E-02 
785	 7.18156898996832E-02 
786	 7.22065986302438E-02 
787	 7.30287596517337E-02 
788	 7.33132287774637E-02 
789	 7.36309486986841E-02 
790	 7.40617114487714E-02 
791	 0.074281662315431 
792	 7.47739892154251E-02 
793	 7.54608710896025E-02 
794	 7.61368817130579E-02 
795	 7.64737284535421E-02 
796	 7.68452701885749E-02 
797	 7.73484609912653E-02 
798	 7.79153641076197E-02 
799	 7.81184892120051E-02 
800	 7.85769068701657E-02 
801	 7.90593610244881E-02 
802	 7.90075362929507E-02 
803	 7.93594829223185E-02 
804	 0.079621890320576 
805	 0.079630333069701 
806	 7.96890041949803E-02 
807	 7.96070133431458E-02 
808	 7.94910588484658E-02 
809	 7.95276258346497E-02 
810	 7.99681305687925E-02 
811	 8.05905490219905E-02 
812	 8.11299591530679E-02 
813	 8.11728417130292E-02 
814	 7.99888354947051E-02 
815	 7.91503371815278E-02 
816	 7.87663648563012E-02 
817	 7.76205434931307E-02 
818	 7.65244719722779E-02 
819	 7.60149636419641E-02 
820	 7.58407772311872E-02 
821	 7.49854525012434E-02 
822	 7.31741645796194E-02 
823	 7.16590673449227E-02 
824	 7.09202047288773E-02 
825	 6.87157520647201E-02 
826	 6.64676978593683E-02 
827	 6.51685539902758E-02 
828	 6.51475881996018E-02 
829	 6.31151591272703E-02 
830	 6.11723758637927E-02 
831	 6.00348764237773E-02 
832	 5.92309136427294E-02 
833	 5.88383748751752E-02 
834	 5.82791286823854E-02 
835	 5.75741862489233E-02 
836	 0.057526673047693 
837	 5.69457925923978E-02 
838	 5.64090517168668E-02 
839	 5.64470901156978E-02 
840	 5.65842199177129E-02 
841	 5.63691689950914E-02 
842	 5.58364888145107E-02 
843	 5.52366899402994E-02 
844	 5.46310356682683E-02 
845	 5.47420044173412E-02 
846	 5.49422777642811E-02 
847	 5.39751526355087E-02 
848	 5.38141930308823E-02 
849	 5.37553049407999E-02 
850	 5.35185741249605E-02 
851	 5.37081632746176E-02 
852	 5.33922513777514E-02 
853	 5.29152984929098E-02 
854	 5.27263220929778E-02 
855	 0.052859023127986 
856	 5.29524136679893E-02 
857	 5.28102638912962E-02 
858	 5.24106290268427E-02 
859	 5.20860699613051E-02 
860	 5.18137463553186E-02 
861	 5.15401369428309E-02 
862	 0.051305116896586 
863	 5.19116578109636E-02 
864	 0.05188560354546 
865	 5.12420875993327E-02 
866	 0.051361871990723 
867	 5.13138343903874E-02 
868	 5.06856998700835E-02 
869	 5.01075212169911E-02 
870	 5.13051782666473E-02 
871	 5.09560100070356E-02 
872	 4.99078875907372E-02 
873	 4.94532345682271E-02 
874	 4.97094613196545E-02 
875	 4.98299938196262E-02 
876	 0.050169328549683 
877	 5.07770382778751E-02 
878	 0.049035534666203 
879	 4.89098602443727E-02 
880	 4.95068340348455E-02 
881	 4.83085649024954E-02 
882	 4.83149530414294E-02 
883	 4.90399694846474E-02 
884	 4.92095736069076E-02 
885	 4.77122306850679E-02 
886	 4.87655645347533E-02 
887	 0.049120980835417 
888	 4.78384642552567E-02 
889	 0.047502397399648 
890	 4.77935252419579E-02 
891	 4.83931526088465E-02 
892	 4.89448057611949E-02 
893	 0.049126860295145 
894	 4.83118522964533E-02 
895	 4.75264352459067E-02 
896	 4.77025876985807E-02 
897	 4.70649316885447E-02 
898	 4.83975979539399E-02 
899	 5.03759923517661E-02 
900	 5.05224753901973E-02 
901	 0.048257704738109 
902	 4.71026853481713E-02 
903	 0.048043005233656 
904	 5.01433061034776E-02 
905	 4.89286709283536E-02 
906	 4.82221002934815E-02 
907	 4.76921928764679E-02 
908	 4.44501954831581E-02 
909	 4.34618840918227E-02 
910	 4.55156500353061E-02 
911	 4.75157591998131E-02 
912	 4.47215568281964E-02 
913	 4.52208914985918E-02 
914	 4.48931653825495E-02 
915	 4.37310190427644E-02 
916	 4.70814883345973E-02 
917	 4.72416372193922E-02 
918	 4.45484877437566E-02 
919	 4.22480882028108E-02 
920	 4.51970238769324E-02 
921	 4.56841090463241E-02 
922	 4.50007496551453E-02 
923	 4.52202478244241E-02 
924	 4.63296891401673E-02 
925	 4.86760591258419E-02 
926	 4.97949384521143E-02 
927	 4.72715074905746E-02 
928	 4.36807608748923E-02 
929	 4.24051092357799E-02 
930	 4.92945252699554E-02 
931	 6.57956772094246E-02 
932	 5.28241705637643E-02 
933	 4.39583156722758E-02 
934	 4.89053522994529E-02 
935	 4.75102083520833E-02 
936	 2.03191164495485E-02 
937	 2.16982030453209E-02 
938	 4.71296038459476E-02 
939	 6.77235074615729E-02 
940	 4.24128541616565E-02 
941	 3.21618578943664E-02 
942	 4.26635584983541E-02 
943	 4.69556679417956E-02 
944	 0.025054828122427 
945	 2.20012805299971E-02 
946	 3.75019521770493E-02 
947	 0.041586469166352 
948	 3.76593750566693E-02 
949	 4.01859121935044E-02 
950	 5.78240928227983E-02 
951	 8.47144493498086E-02 
952	 6.55396909731245E-02 
953	 4.94706663179662E-02 
954	 4.62974627003272E-02 
955	 3.71415943017938E-02 
956	 0.041746616536263 
957	 4.49292510457668E-02 
958	 4.30053612952785E-02 
959	 4.24232432640981E-02 
960	 5.60799702975621E-02 
961	 4.87472332338882E-02 
962	 3.19109435364107E-02 
963	 4.01759535305585E-02 
964	 4.90764332329722E-02 
965	 4.34972828108777E-02 
966	 3.29528020551028E-02 
967	 3.80168124387502E-02 
968	 4.98042752794173E-02 
969	 5.08967990474523E-02 
970	 4.20007779067925E-02 
971	 3.80780093961587E-02 
972	 3.97554869154256E-02 
973	 4.18307245220523E-02 
974	 4.32804177290338E-02 
975	 0.046760150091647 
976	 4.23298733630351E-02 
977	 3.56853904386338E-02 
978	 3.49119729739163E-02 
979	 0.044410542177432 
980	 4.88525575779589E-02 
981	 4.32931448865339E-02 
982	 3.65654745963647E-02 
983	 4.29836920657123E-02 
984	 4.55385136131864E-02 
985	 4.11079894790377E-02 
986	 3.72055508713491E-02 
987	 4.43986610975624E-02 
988	 4.45625004866016E-02 
989	 0.042240292767998 
990	 4.30179122290612E-02 
991	 4.84508641323205E-02 
992	 4.10371034722866E-02 
993	 3.58583928867088E-02 
994	 3.80791413117874E-02 
995	 4.21723966235335E-02 
996	 3.87967096805251E-02 
997	 4.18305681326429E-02 
998	 4.90358436707805E-02 
999	 4.86023548136014E-02 
1000	 4.24630476773841E-02 
1001	 3.58270145187187E-02 
1002	 3.80695188545298E-02 
1003	 3.87576745368093E-02 
1004	 3.96277641088958E-02 
1005	 4.02621494811409E-02 
1006	 4.10120799981041E-02 
1007	 0.039874451070046 
1008	 3.90865425120858E-02 
1009	 0.038367198972711 
1010	 3.81130409478666E-02 
1011	 3.94723586264177E-02 
1012	 4.09705017575262E-02 
1013	 4.20959739916272E-02 
1014	 4.24730519840471E-02 
1015	 4.16724299692117E-02 
1016	 4.13989694070041E-02 
1017	 0.040557820626914 
1018	 4.07199432364414E-02 
1019	 4.16360627808355E-02 
1020	 4.17568497682125E-02 
1021	 4.26309777028091E-02 
1022	 0.042189721173196 
1023	 0.041205946180147 
1024	 4.06224155737054E-02 
1025	 3.98155123762544E-02 
1026	 4.15742451000772E-02 
1027	 4.20651566056637E-02 
1028	 4.27835093313617E-02 
1029	 4.33497708705118E-02 
1030	 4.35656449048625E-02 
1031	 4.35355513360666E-02 
1032	 4.38896744868851E-02 
1033	 4.36732128379546E-02 
1034	 4.27860246174971E-02 
1035	 4.24507036121862E-02 
1036	 4.12858469833764E-02 
1037	 4.11564770384063E-02 
1038	 4.20039138683762E-02 
1039	 4.28345152063664E-02 
1040	 4.25636455170768E-02 
1041	 4.38345900909952E-02 
1042	 4.33796171252529E-02 
1043	 4.14582574005677E-02 
1044	 4.04957058912107E-02 
1045	 3.90462855669697E-02 
1046	 3.89414530754079E-02 
1047	 3.95089953616894E-02 
1048	 4.01874365287019E-02 
1049	 0.042668783259955 
1050	 4.30215973163522E-02 
1051	 4.23336837080653E-02 
1052	 4.18921795752282E-02 
1053	 4.00723406609824E-02 
1054	 3.91814707009391E-02 
1055	 3.79684826628865E-02 
1056	 3.81892167204547E-02 
1057	 3.92427675064272E-02 
1058	 4.16624973129417E-02 
1059	 4.23973390407236E-02 
1060	 4.38681371438775E-02 
1061	 4.43101421758516E-02 
1062	 4.27837029078443E-02 
1063	 4.27192545089787E-02 
1064	 4.35910552536176E-02 
1065	 4.37895994069908E-02 
1066	 4.37163875103467E-02 
1067	 4.38785967232948E-02 
1068	 4.49063839356524E-02 
1069	 4.43105578926079E-02 
1070	 4.13115226014411E-02 
1071	 0.040870684415589 
1072	 4.06091668663988E-02 
1073	 4.10807932351291E-02 
1074	 4.16135622213869E-02 
1075	 4.47487469830554E-02 
1076	 4.52551014683618E-02 
1077	 4.38833319074324E-02 
1078	 0.043652837962776 
1079	 4.38021961451167E-02 
1080	 4.32912652622119E-02 
1081	 4.19090509679985E-02 
1082	 0.041564361462607 
1083	 4.15747864864675E-02 
1084	 0.041315821231158 
1085	 4.13333369788219E-02 
1086	 4.18036393147426E-02 
1087	 4.26592249250767E-02 
1088	 0.042768495553657 
1089	 4.26072220937649E-02 
1090	 0.043273092901234 
1091	 4.37782203949267E-02 
1092	 0.043599142374474 
1093	 0.043798483586796 
1094	 0.045227627518472 
1095	 4.55385142779615E-02 
1096	 4.38090895854063E-02 
1097	 0.044035959527367 
1098	 4.67903468939266E-02 
1099	 4.60876269738863E-02 
1100	 4.35131822238137E-02 
1101	 4.29094186454896E-02 
1102	 3.95574656070758E-02 
1103	 3.87095441003528E-02 
1104	 4.27791795899453E-02 
1105	 4.44708281858182E-02 
1106	 0.043218973374531 
1107	 4.34484002403569E-02 
1108	 4.11134406408293E-02 
1109	 3.81572560263964E-02 
1110	 4.04032667788976E-02 
1111	 5.09887314367435E-02 
1112	 5.20764667241647E-02 
1113	 0.053988006813695 
1114	 5.07061530041615E-02 
1115	 2.05662441655003E-02 
1116	 1.61043469999684E-02 
1117	 4.59870135676094E-02 
1118	 5.18035327707651E-02 
1119	 5.53264427848887E-02 
1120	 7.01206316822849E-02 
1121	 5.95530508334031E-02 
1122	 5.14093266902542E-02 
1123	 6.93221771164317E-02 
1124	 0.137699325445559 
1125	 0.15053544201168 
1126	 3.71028878263603E-02 
1127	-1.78642759991459E-02 
1128	 2.74965574298386E-02 
1129	 4.30262547481492E-02 
1130	 7.11797351545183E-02 
1131	 7.42362916257402E-02 
1132	 7.39789435203398E-02 
1133	 0.064338033643909 
1134	 4.46210360871467E-02 
1135	 4.29979951918776E-02 
1136	 3.58630525987667E-02 
1137	 4.27343094615074E-02 
1138	 6.97655729932935E-02 
1139	 7.18856186331502E-02 
1140	 4.85705068393827E-02 
1141	 5.45596676833299E-02 
1142	 5.28183955763133E-02 
1143	 0.042238523919516 
1144	 5.88889525438634E-02 
1145	 7.22063848880429E-02 
1146	 4.37333763173437E-02 
1147	 3.40854128482163E-02 
1148	 7.77434108816441E-02 
1149	 9.02782931019273E-02 
1150	 0.081361581774396 
1151	 6.63729347030933E-02 
1152	 6.63293530407942E-02 
1153	 4.85478084502118E-02 
1154	 4.56330414537652E-02 
1155	 6.06366853354674E-02 
1156	 6.47152953733632E-02 
1157	 0.049518898532222 
1158	 4.59261891306983E-02 
1159	 5.07118179121684E-02 
1160	 5.13310660397667E-02 
1161	 5.13252764499352E-02 
1162	 4.74014181275474E-02 
1163	 4.33471008998819E-02 
1164	 4.40577690229382E-02 
1165	 0.044666543481005 
1166	 4.51050471702969E-02 
1167	 4.53970132988492E-02 
1168	 0.041132714305474 
1169	 0.03816761922459 
1170	 3.95867048325559E-02 
1171	 3.96759137860132E-02 
1172	 3.87524270563678E-02 
1173	 3.88992540595276E-02 
1174	 0.039644797449113 
1175	 4.13456814203225E-02 
1176	 4.22966195868856E-02 
1177	 4.47927152508564E-02 
1178	 4.61506190151913E-02 
1179	 4.31232717944202E-02 
1180	 4.07843359100702E-02 
1181	 4.12301563781992E-02 
1182	 0.041863796726154 
1183	 4.22493738781685E-02 
1184	 4.37540157015184E-02 
1185	 4.47468645591723E-02 
1186	 4.26341182625215E-02 
1187	 4.30534680466185E-02 
1188	 4.55315085697285E-02 
1189	 4.32717347370635E-02 
1190	 4.15928629545207E-02 
1191	 4.30731211842088E-02 
1192	 4.36734136482449E-02 
1193	 4.30201663948343E-02 
1194	 4.36618299892571E-02 
1195	 4.63383620578402E-02 
1196	 4.45967489932555E-02 
1197	 4.14491294628073E-02 
1198	 4.24436752361921E-02 
1199	 4.29083742900466E-02 
1200	 4.34248568079938E-02 
1201	 4.37487378827553E-02 
1202	 0.041431703571216 
1203	 3.93613692956439E-02 
1204	 4.03172339270206E-02 
1205	 4.26856581265891E-02 
1206	 4.26289578761645E-02 
1207	 4.17185246129091E-02 
1208	 4.09372449231943E-02 
1209	 4.06939569388586E-02 
1210	 4.39744409324004E-02 
1211	 4.62843923344946E-02 
1212	 4.39937466433849E-02 
1213	 4.27259715671936E-02 
1214	 0.042463464088187 
1215	 4.17738787475624E-02 
1216	 4.07283679898279E-02 
1217	 4.12273873364591E-02 
1218	 4.18330534859995E-02 
1219	 4.20636275891233E-02 
1220	 4.19097361637944E-02 
1221	 0.042660132167157 
1222	 4.45003171398818E-02 
1223	 4.40951350578504E-02 
1224	 4.25162350579153E-02 
1225	 4.37682881676131E-02 
1226	 4.47934059710823E-02 
1227	 4.37220373041436E-02 
1228	 4.33410264198395E-02 
1229	 4.28995289181881E-02 
1230	 4.30311350659843E-02 
1231	 4.29487496165883E-02 
1232	 4.30641001067776E-02 
1233	 4.42061669741632E-02 
1234	 4.19728455795511E-02 
1235	 4.13438288293676E-02 
1236	 4.20947454926844E-02 
1237	 4.25031450510062E-02 
1238	 4.27946687759359E-02 
1239	 4.33104633313382E-02 
1240	 4.34890983828002E-02 
1241	 4.21175067502984E-02 
1242	 4.12536593567063E-02 
1243	 4.15102547577076E-02 
1244	 4.24378051362732E-02 
1245	 4.24967260130957E-02 
1246	 4.27842834696954E-02 
1247	 4.33122056896217E-02 
1248	 4.22209591147109E-02 
1249	 4.21343537729943E-02 
1250	 4.26786605613861E-02 
1251	 4.16436608537386E-02 
1252	 4.12737853084125E-02 
1253	 4.16468634866115E-02 
1254	 4.21543389345989E-02 
1255	 4.23504214262239E-02 
1256	 4.19044009384612E-02 
1257	 4.09407908535632E-02 
1258	 4.15786562849862E-02 
1259	 4.22035799143302E-02 
1260	 4.25283569647381E-02 
1261	 4.46614664078911E-02 
1262	 4.55816488194894E-02 
1263	 4.48511642483022E-02 
1264	 4.49166388435538E-02 
1265	 4.47535003370864E-02 
1266	 4.28297716950229E-02 
1267	 4.12015880277632E-02 
1268	 4.05213240209841E-02 
1269	 4.04264278034055E-02 
1270	 4.07121175585812E-02 
1271	 4.06696207741738E-02 
1272	 3.99963392059908E-02 
1273	 4.08218019654799E-02 
1274	 4.34893228547616E-02 
1275	 4.34107430910718E-02 
1276	 4.19325814894351E-02 
1277	 4.12700245037134E-02 
1278	 3.96142177124589E-02 
1279	 3.94455936170348E-02 
1280	 4.07230675916141E-02 
1281	 4.13139080531316E-02 
1282	 4.20190298760619E-02 
1283	 4.16121431829699E-02 
1284	 4.03916613994697E-02 
1285	 4.01441467830579E-02 
1286	 3.91907824804232E-02 
1287	 3.91973477406699E-02 
1288	 4.07593295343231E-02 
1289	 4.16136281394087E-02 
1290	 0.042602175150811 
1291	 4.24965489968112E-02 
1292	 4.30447282029016E-02 
1293	 4.41944884321899E-02 
1294	 4.26183521506275E-02 
1295	 4.13246771438471E-02 
1296	 4.28790416205835E-02 
1297	 4.31961442135427E-02 
1298	 0.043113483218848 
1299	 4.52373511356013E-02 
1300	 0.046182829027164 
1301	 4.43358685851948E-02 
1302	 4.40996304921846E-02 
1303	 4.55663886718482E-02 
1304	 0.043482044638744 
1305	 4.11324702968534E-02 
1306	 4.15679045274947E-02 
1307	 4.50353460173621E-02 
1308	 0.044349550299543 
1309	 4.24040257274349E-02 
1310	 0.043896503697686 
1311	 4.47216703971232E-02 
1312	 4.45629605686564E-02 
1313	 4.85190012126734E-02 
1314	 5.08334212276571E-02 
1315	 4.88466271873352E-02 
1316	 4.72394617150806E-02 
1317	 4.65203283356204E-02 
1318	 4.64651674426172E-02 
1319	 0.046774273508857 
1320	 4.60240080769895E-02 
1321	 4.62902421156057E-02 
1322	 4.46883151753738E-02 
1323	 4.75386491841049E-02 
1324	 4.68937613649803E-02 
1325	 4.77582675529538E-02 
1326	 5.27177897009646E-02 
1327	 5.42879790864601E-02 
1328	 0.050853082746826 
1329	 5.50546859458475E-02 
1330	 7.12477614332665E-02 
1331	 7.90705684661319E-02 
1332	 7.49201214562511E-02 
1333	 7.63258432169838E-02 
1334	 8.06121153965125E-02 
1335	 7.78842505194952E-02 
1336	 7.66316049979278E-02 
1337	 7.05082264245995E-02 
1338	 4.80274567062002E-02 
1339	 3.68732333140571E-02 
1340	 2.97925876890021E-02 
1341	 3.40417138967545E-02 
1342	 5.09999573405416E-02 
1343	 5.89127891392922E-02 
1344	 9.09687590438664E-02 
1345	 0.103351734252236 
1346	 8.06851617285754E-02 
1347	 7.61805406792411E-02 
1348	 5.02263398708407E-02 
1349	 3.59585477750534E-02 
1350	 7.73179965155947E-02 
1351	 8.62796894189858E-02 
1352	-5.40659066415029E-03 
1353	 6.18799758081747E-02 
1354	 0.468482884033962 
1355	 1.16311588647149 
1356	 0.541379143822826 
1357	 0.405998100609963 
1358	 0.714195014489035 
1359	 0.216416940934229 
1360	 0.798750905341505 
1361	-7.08800854459172 
1362	 1.71170770802243 
1363	-6.89439596168039E-02 
1364	 0.093821229737752 
1365	 0.534901652025252 
1366	-0.255687789879919 
1367	-0.886987837026936 
1368	-0.353244739705564 
1369	 0.112827739932881 
1370	 7.55826401562901E-02 
1371	 1.23802261002117 
1372	 4.17622878256155 
1373	-1.56678929296237 
1374	-1.28433068501688 
1375	-8.19673204055837 
1376	-8.19442164829145 
1377	-4.4741117124828 
1378	-6.98632204952981 
1379	 5.78401654986812E-02 
1380	-0.957633080142502 
1381	 3.86131077266514 
1382	 6.02144247953363 
1383	 0.505478232691297 
1384	 8.54908823964036 
1385	 4.00734801747792 
1386	 2.8910976190992 
1387	 14.0080807513569 
1388	-2.46746705372836 
1389	-0.785523436691396 
1390	-1.25915861843627 
1391	-6593.51630987986 
1392	 2.57532477228679 
1393	 27.9060011952378 
1394	 4.7708534107345 
1395	 1.99052910522384 
1396	-19.5458888424743 
1397	-1.36633050711525 
1398	-0.772296456791811 
1399	-2.09942958095267 
1400	 2.76957193412426 
1401	-3.27709700259819 
1402	-7.19926801830211E-02 
1403	 6.27767340767378E-02 
1404	 0.45812723072495 
1405	 0.406811978593866 
1406	-0.07628814670445 
1407	-0.153799798449963 
1408	-1.18390951716111 
1409	-1.6522251667956 
1410	 0.79804881405324 
1411	 1.35817920319524 
1412	 6.41284701868752 
1413	-272.33309718352 
1414	 0.278259918954939 
1415	 0.472634094923117 
1416	 0.934409737250353 
1417	 1.08003842769215 
1418	 1.90078212343879 
1419	 1.67617502528103 
1420	 0.775066310009579 
1421	 0.135893219569749 
1422	-1.95131604887923 
1423	-0.727809333280068 
1424	 0.461936164217186 
1425	 0.731438313909632 
1426	 1.32615411304379 
1427	 1.61483543147538 
1428	 4.67404417947384 
1429	-15.6127682769132 
1430	 4.92945826030208 
1431	 5.60364424664378 
1432	-2.065605511101 
1433	-2.04662104063278 
1434	 0.539003605542044 
1435	 0.012437027213446 
1436	-0.184190976955092 
1437	-0.234149633049107 
1438	-0.689712506535768 
1439	-0.81588405812526 
1440	 0.578262634194455 
1441	 19.4019237352436 
1442	-0.65203975726357 
1443	 0.535420255600339 
1444	 1.66683540286376 
1445	 0.865325691955188 
1446	 0.509965961186784 
1447	 0.341937555908182 
1448	 0.372456981795547 
1449	-0.187416624412665 
1450	-0.226971371718912 
1451	 0.231590061243477 
1452	 0.345126914658441 
1453	 5.95346216298883E-02 
1454	 1.01885500056782E-03 
1455	 7.96604943566932E-02 
1456	 0.384758156991685 
1457	 0.293472025706876 
1458	 0.432414207844543 
1459	 0.774017711099402 
1460	 0.845514889585446 
1461	 0.701945604316417 
1462	 0.73772419146121 
1463	 0.91153418024519 
1464	 0.773919724203013 
1465	 0.397883032997854 
1466	 0.539012893405865 
1467	 1.49194394375639 
1468	 1.07159008433713 
1469	 0.430131628697602 
1470	 0.457438305488264 
1471	 0.570184583595687 
1472	 0.344368262384776 
1473	 0.180680734940999 
1474	 0.299445503448595 
1475	 0.268656465374943 
1476	 0.158667358461215 
1477	 0.281793533371231 
1478	 0.263457937530038 
1479	-0.388510748041646 
1480	-0.530998279832109 
1481	-0.193182765799129 
1482	-0.02699608130941 
1483	 0.155517262604344 
1484	 0.262638625191046 
1485	 0.379979198646225 
1486	 0.323767447717345 
1487	 0.109415435253861 
1488	 0.120084300864131 
1489	 0.202716718947836 
1490	 0.165683671801304 
1491	 0.124553364752254 
1492	 0.140973319302559 
1493	 0.135029651130444 
1494	 9.96782031488839E-02 
1495	 9.01169840856174E-02 
1496	 0.11340627212972 
1497	 0.138271078999041 
1498	 0.119758195083239 
1499	 0.109162440524412 
1500	 0.114228107845261 
1501	 0.083195559943332 
1502	 6.57448325251917E-02 
1503	 7.27606223366668E-02 
1504	 8.33606687751455E-02 
1505	 0.08326072103855 
1506	 9.97748219576423E-02 
1507	 0.114195093192332 
1508	 0.131161001890536 
1509	 0.133961226554742 
1510	 0.106213812920694 
1511	 6.61085857118662E-02 
1512	 5.87757423684821E-02 
1513	 7.23629970928261E-02 
1514	 0.061811641364388 
1515	 6.02234353375577E-02 
1516	 8.87254002576997E-02 
1517	 9.75712460786716E-02 
1518	 9.00680882341307E-02 
1519	 0.082841026782763 
1520	 8.12238638567815E-02 
1521	 8.67787080997281E-02 
1522	 0.08400124997194 
1523	 8.62639915319108E-02 
1524	 8.54219507766785E-02 
1525	 7.11716817445582E-02 
1526	 0.066560493054036 
1527	 7.01456249632967E-02 
1528	 7.01039000222798E-02 
1529	 6.69452526121024E-02 
1530	 6.47039979261556E-02 
1531	 5.93228357439751E-02 
1532	 5.53727808063595E-02 
1533	 5.57534802300883E-02 
1534	 6.10992966429535E-02 
1535	 7.10233769039642E-02 
1536	 6.70321988427468E-02 
1537	 6.73715132557676E-02 
1538	 7.49140622458562E-02 
1539	 7.17485344848454E-02 
1540	 7.23121148905897E-02 
1541	 7.32907861530744E-02 
1542	 7.08892781686928E-02 
1543	 6.71655232845731E-02 
1544	 6.57342171979811E-02 
1545	 0.064376555396524 
1546	 5.64307777213168E-02 
1547	 6.00775122953261E-02 
1548	 7.01671869534868E-02 
1549	 6.66765172158074E-02 
1550	 6.30492191300865E-02 
1551	 6.21289892520637E-02 
1552	 5.70094884151993E-02 
1553	 0.061008744542568 
1554	 6.49405971044553E-02 
1555	 5.59482580738888E-02 
1556	 5.29468218081997E-02 
1557	 6.04503720306424E-02 
1558	 6.57100490693806E-02 
1559	 6.02971652542656E-02 
1560	 5.28387498754457E-02 
1561	 5.34921413459431E-02 
1562	 5.45499350172582E-02 
1563	 0.056973079410224 
1564	 6.23076139319205E-02 
1565	 6.15517826878321E-02 
1566	 5.39469207316799E-02 
1567	 5.27306815968256E-02 
1568	 5.85051234359711E-02 
1569	 5.87706017763492E-02 
1570	 0.05377829398756 
1571	 5.55617510411488E-02 
1572	 6.32866133416091E-02 
1573	 6.01804042105439E-02 
1574	 0.058919282770884 
1575	 6.35077001410864E-02 
1576	 5.71148579860052E-02 
1577	 5.65601940719779E-02 
1578	 5.45092754027387E-02 
1579	 4.04880284560845E-02 
1580	 4.23364466000107E-02 
1581	 5.12965996103571E-02 
1582	 4.93249595941077E-02 
1583	 4.79446644345229E-02 
1584	 4.95985676294524E-02 
1585	 4.48489733392573E-02 
1586	 0.04173640968702 
1587	 4.84904345271153E-02 
1588	 4.97418541978533E-02 
1589	 4.55603199601417E-02 
1590	 4.36565283322083E-02 
1591	 4.26817460920824E-02 
1592	 4.49660015703388E-02 
1593	 4.50709379312919E-02 
1594	 5.15383825883659E-02 
1595	 6.37190363850656E-02 
1596	 5.91553831599321E-02 
1597	 5.27657622341593E-02 
1598	 5.58542833515327E-02 
1599	 4.96449354166252E-02 
1600	 4.62371866681903E-02 
1601	 5.45819382699649E-02 
1602	 5.42757686376416E-02 
1603	 4.60324839503398E-02 
1604	 4.89790632967995E-02 
1605	 6.28712597866775E-02 
1606	 6.59783128195532E-02 
1607	 5.80365520423548E-02 
1608	 5.87511445566034E-02 
1609	 6.23646705945155E-02 
1610	 5.71134922326533E-02 
1611	 5.73521768914889E-02 
1612	 6.12602337337057E-02 
1613	 0.05228688405705 
1614	 4.77610935068115E-02 
1615	 5.86812199500014E-02 
1616	 6.65448834640999E-02 
1617	 5.79394651981421E-02 
1618	 5.03988410016429E-02 
1619	 5.62123859426618E-02 
1620	 5.44346991626761E-02 
1621	 4.74474645355329E-02 
1622	 4.78026451766774E-02 
1623	 4.49391377409242E-02 
1624	 4.00212514112135E-02 
1625	 4.68173830202641E-02 
1626	 5.22420910118098E-02 
1627	 4.54884579559404E-02 
1628	 4.65280971174296E-02 
1629	 5.08986085428681E-02 
1630	 4.93538889559126E-02 
1631	 5.15343511233889E-02 
1632	 5.23138151881221E-02 
1633	 4.90181642614213E-02 
1634	 4.99582734135942E-02 
1635	 5.41670227754696E-02 
1636	 5.29561432627859E-02 
1637	 4.70925682052693E-02 
1638	 4.78060146569958E-02 
1639	 5.36073461483586E-02 
1640	 5.04815735064666E-02 
1641	 4.48619465089384E-02 
1642	 4.80298194017768E-02 
1643	 5.12324293934137E-02 
1644	 5.41994364114335E-02 
1645	 6.10785032040266E-02 
1646	 6.07035895198575E-02 
1647	 5.03027297773605E-02 
1648	 4.66681698634612E-02 
1649	 0.052528156623659 
1650	 5.47021306771641E-02 
1651	 5.53146229282747E-02 
1652	 5.36544792733231E-02 
1653	 5.07454711617083E-02 
1654	 5.03854647667675E-02 
1655	 5.08215101459109E-02 
1656	 4.93719037353168E-02 
1657	 4.45890030066867E-02 
1658	 4.72770094073568E-02 
1659	 5.74514834692291E-02 
1660	 5.90612897529368E-02 
1661	 5.85584455787626E-02 
1662	 5.93779527553464E-02 
1663	 5.53630730784932E-02 
1664	 5.27096270739875E-02 
1665	 5.53786068624308E-02 
1666	 0.057065698660183 
1667	 5.72319756437017E-02 
1668	 6.22394218002144E-02 
1669	 5.40707354615153E-02 
1670	 4.88671417003764E-02 
1671	 4.62551662938759E-02 
1672	 4.34621916711683E-02 
1673	 4.94044983699685E-02 
1674	 0.055630002013059 
1675	 5.66177169678402E-02 
1676	 5.72474450980493E-02 
1677	 0.055962537336735 
1678	 5.39206451396857E-02 
1679	 0.053568412938752 
1680	 5.34892373025463E-02 
1681	 6.18654592050938E-02 
1682	 0.066878763214813 
1683	 5.98397921414276E-02 
1684	 5.45534348829935E-02 
1685	 5.34271301548558E-02 
1686	 5.63212189177408E-02 
1687	 5.56774481650135E-02 
1688	 5.47926527071201E-02 
1689	 5.68367612346094E-02 
1690	 4.93318830944343E-02 
1691	 4.72626594411301E-02 
1692	 5.66753902407062E-02 
1693	 5.73959793040318E-02 
1694	 5.12787035467846E-02 
1695	 4.92445739055007E-02 
1696	 4.81776784421033E-02 
1697	 4.58231751118737E-02 
1698	 4.88546188729246E-02 
1699	 5.64218277285424E-02 
1700	 5.93398946492474E-02 
1701	 5.26798062793459E-02 
1702	 4.35341700138737E-02 
1703	 4.42926948395425E-02 
1704	 4.81743511648122E-02 
1705	 5.09779970449683E-02 
1706	 5.36518204830301E-02 
1707	 5.59904552409316E-02 
1708	 5.57147278591861E-02 
1709	 0.050217959803758 
1710	 5.71665194202504E-02 
1711	 6.48928411031884E-02 
1712	 5.41367238500385E-02 
1713	 5.28187956604411E-02 
1714	 5.32992921087614E-02 
1715	 4.85347213662261E-02 
1716	 0.059854854340703 
1717	 6.42390733208041E-02 
1718	 6.38131220206815E-02 
1719	 6.27810919781197E-02 
1720	 5.92025893257344E-02 
1721	 5.79628206485124E-02 
1722	 5.41357843974729E-02 
1723	 5.70613422241366E-02 
1724	 6.54992630451548E-02 
1725	 6.20762934041937E-02 
1726	 5.62027410398892E-02 
1727	 5.27889875898084E-02 
1728	 5.29624887186166E-02 
1729	 6.63416281363505E-02 
1730	 7.62477674696672E-02 
1731	 7.36240154104707E-02 
1732	 5.95389553052797E-02 
1733	 4.27117964703847E-02 
1734	 4.72128996350856E-02 
1735	 6.45682002703558E-02 
1736	 7.56971546322806E-02 
1737	 7.72909513096434E-02 
1738	 6.65902217707988E-02 
1739	 5.13339517989287E-02 
1740	 5.62329290772262E-02 
1741	 6.75905950144654E-02 
1742	 5.95386877429296E-02 
1743	 5.87482586450993E-02 
1744	 6.20129669400669E-02 
1745	 5.35693413855287E-02 
1746	 6.58407460616616E-02 
1747	 6.53798372012272E-02 
1748	 3.82703672958501E-02 
1749	 0.035510625716295 
1750	 4.72044462513173E-02 
1751	 4.85235373633049E-02 
1752	 6.20420126847989E-02 
1753	 7.18424491218689E-02 
1754	 7.26332936182947E-02 
1755	 6.99263954849629E-02 
1756	 6.64250949311977E-02 
1757	 3.66626918572245E-02 
1758	 2.18871903065151E-02 
1759	 2.95441932390616E-02 
1760	 3.63176608399902E-02 
1761	 4.30231171003742E-02 
1762	 5.84910132702232E-02 
1763	 6.58375156694001E-02 
1764	 7.19645998678077E-02 
1765	 8.91926840615063E-02 
1766	 0.090688961494174 
1767	 0.070554440516416 
1768	 5.93740975213901E-02 
1769	 7.32865155450378E-02 
1770	 0.102171044436181 
1771	 0.122145029136348 
1772	 0.14734989984996 
1773	 0.147903083785118 
1774	 0.102103891820289 
1775	 9.10377451703658E-02 
1776	 9.12516585679522E-02 
1777	 0.148602425194084 
1778	 0.147393308476264 
1779	 7.96527715265407E-02 
1780	 5.71885499279283E-02 
1781	 4.17715784827216E-03 
1782	 1.68670428793708E-03 
1783	 9.65005574430529E-02 
1784	 0.133189655326707 
1785	 0.148333994473652 
1786	 0.153414395210149 
1787	 0.12194957404456 
1788	 9.84005156022271E-02 
1789	 8.20502581538327E-02 
1790	 8.75801016398076E-03 
1791	-3.41717317853974E-03 
1792	 9.80586645185535E-02 
1793	 6.73083195697701E-02 
1794	 9.58308902247001E-02 
1795	 0.167624147225748 
1796	 0.178653792978626 
1797	 0.336813412702245 
1798	 0.564719183861768 
1799	 0.96359322595222 
1800	 0.626099183630853 
1801	 0.486698857288565 
1802	-5.58980774134791E-02 
1803	-6.07053301478571E-02 
1804	 1.59682127128669 
1805	 1.78229310352374 
1806	 2.06386151926196 
1807	 0.744724535837462 
1808	-1.5983658390085 
1809	-1.43952605205528 
1810	 0.862472770785113 
1811	 1.16912660025745 
1812	 1.34551291077173 
1813	 1.88154203260129 
1814	 1.52602518970405 
1815	 6.44423266862923 
1816	-1.82520380583824 
1817	-1.56613997452985 
1818	-1.20294951175901 
1819	 37.1943809551592 
1820	 2.84028867226482 
1821	 2.02160983109359 
1822	 1.66653473032663 
1823	 18.730397805153 
1824	-0.873481762106692 
1825	-0.728807352163666 
1826	-0.713822868777108 
1827	-0.620616613954965 
1828	-0.619199387258543 
1829	 3.05544011525704 
1830	 0.304328526467661 
1831	 1.01808273075006 
1832	 0.824448597465466 
1833	 1.80355634652204 
1834	 1.81303547132359 
1835	 1.30775842587221 
1836	 3.36116827218598 
1837	 1.31633030635535 
1838	 1.46520565351385 
1839	 1.60703583878041 
1840	 0.767175141781478 
1841	 7.30054281543031E-02 
1842	-0.477691847998588 
1843	-0.289834187335846 
1844	-0.204515094780998 
1845	-0.179514369045059 
1846	 7.76011630914584E-02 
1847	 0.177228697942313 
1848	 8.26892809970763E-02 
1849	-2.30223901966043E-02 
1850	-7.63926800853338E-02 
1851	-0.528054868240164 
1852	-0.513843955888396 
1853	-0.443938214443522 
1854	-0.839119882559303 
1855	-22.4191877328602 
1856	 4.39962366352419 
1857	 1.7879709239518 
1858	 1.69219675749169 
1859	-3.17485875266285 
1860	 0.264899754315049 
1861	 0.41304112189299 
1862	 1.72747105550726 
1863	 0.998687559891396 
1864	 1.60682542871215 
1865	 1.95889267982473 
1866	 9.33647752332159 
1867	-16.6742195750324 
1868	-3.86025216020955 
1869	-3.60763303114816 
1870	 1055.73941300005 
1871	 6.08464168409627 
1872	 1.54756459899249 
1873	 0.442573391648348 
1874	 0.580936741635868 
1875	 0.962306880221004 
1876	 0.482708128344199 
1877	 0.124281024555178 
1878	-0.316097770887705 
1879	-3.03778025247878 
1880	-4.07489860568096 
1881	-16.5127091842897 
1882	 12.8177445837323 
1883	-0.579381763901199 
1884	 0.199913677841197 
1885	 0.443802924455598 
1886	 1.27673187172232 
1887	 0.799611305427323 
1888	-7.27462674152979E-02 
1889	-0.144050580541765 
1890	-0.139211220821253 
1891	-0.315449889070705 
1892	-0.758207321373111 
1893	-1.20610801951335 
1894	-1.73454889283268 
1895	-3.95397668822422 
1896	-2.74822967709419 
1897	-3.03024564960203 
1898	-5.55113544673594 
1899	-3.55976001725718 
1900	-3.09669929675321 
1901	-2.86817919291547 
1902	-3.50114488457874 
1903	-7.3899711857776 
1904	-10.0760906851069 
1905	 2.8980272676309 
1906	 0.25171136466335 
1907	-0.564489750299356 
1908	-0.999083770469619 
1909	-0.590027812198221 
1910	-0.404462669342037 
1911	-0.179765877067021 
1912	 0.33724978638948 
1913	 0.443572475896097 
1914	 0.238837853332411 
1915	 0.239862908905483 
1916	 0.251066608288393 
1917	-0.102289455265152 
1918	-0.14416592684858 
1919	-0.169031781107765 
1920	-0.331006957706357 
1921	-0.580407940070445 
1922	-0.280695105797419 
1923	 1.86892972065297 
1924	-10.4020540210726 
1925	 0.693131424809816 
1926	-0.459422812693401 
1927	-0.461254257223246 
1928	 2.33147149911753 
1929	 2.57720408883905 
1930	 1.20507481227147 
1931	 2.31172179569673 
1932	-1.68009775618717 
1933	-0.429721049081226 
1934	-0.120212611392218 
1935	-0.110418137527455 
1936	-0.18829919160708 
1937	 0.35356759990717 
1938	 1.22219063692535 
1939	 0.869008668081363 
1940	-0.27214323004262 
1941	-0.819813299537234 
1942	-0.60996017370755 
1943	-0.654292794126854 
1944	 0.674914540979313 
1945	 2.72057586518937 
1946	 1.59258934782758 
1947	 0.859542938849163 
1948	 0.889303655982196 
1949	 1.73243215387172 
1950	 1.64602955283755 
1951	 1.35027334102681 
1952	 0.631320835817452 
1953	-0.232817716830559 
1954	-0.122444926409422 
1955	-0.454883837352168 
1956	-10.4867740666182 
1957	 7.12388516368225 
1958	 1.01071830902121 
1959	 1.09155586770274 
1960	 1.00376739605115 
1961	 0.341750755549942 
1962	 0.299440076925015 
1963	 0.764174562670438 
1964	 0.958582952594888 
1965	 3.07934678753385 
1966	 8.97026256924967 
1967	 6.53087257111921 
1968	-1.32058536761505 
1969	 0.732995666391906 
1970	 0.284714305904563 
1971	-0.533200341393128 
1972	-1.50968518379281 
1973	-1.94258794032312 
1974	-5.29583558527444 
1975	-9.83461583382928 
1976	-8.16320480724336 
1977	 4.99515441925668 
1978	 2.68193949836022 
1979	 2.03355627264519 
1980	 1.24489040847334 
1981	 0.787690394641304 
1982	 0.622604272818637 
1983	 42.4202276811387 
1984	-0.946666259075191 
1985	-3.03207681059382 
1986	-2.95819601091374 
1987	-2.13934774642189 
1988	-1.58079678179093 
1989	-0.505882779016281 
1990	-0.644742138023655 
1991	-0.689636374296697 
1992	-0.271230527307591 
1993	-0.541440920954517 
1994	-0.824359058688309 
1995	-24.7213771217725 
1996	-2.9051365940038 
1997	 1.63674183265749 
1998	 1.24522760267977 
1999	-4.16795722313801 
2000	-0.367832845877588 
2001	-0.253688555149462 
2002	-0.666466097903669 
2003	 0.157260031726293 
2004	-2.37597894615146E-02 
2005	 4.62418596771694E-02 
2006	 0.286505614160794 
2007	 0.343461534979255 
2008	 0.34686168455706 
2009	 0.37242937102715 
2010	 0.234606228732698 
2011	 0.249988681964714 
2012	 1.69177644296375 
2013	-0.680799542636413 
2014	-1.71117350503932 
2015	-0.949366119356305 
2016	 0.548792889181486 
2017	 2.41992249352673 
2018	 1.10970295767159 
2019	 0.680497128174819 
2020	 0.101795298752223 
2021	-0.113723674941614 
2022	-0.839486783228557 
2023	-0.54557434122713 
2024	-0.139321709713239 
2025	 0.256830239422507 
2026	 0.610856850206158 
2027	 1.29467976282713 
2028	 1.2554396652336 
2029	 1.25208379869982 
2030	 1.21661003832191 
2031	 1.00981546666255 
2032	 0.403698710771414 
2033	 0.125223151534413 
2034	-1.05712029090336E-02 
2035	-0.197535129282583 
2036	-0.347699953456659 
2037	-0.976776935887756 
2038	-1.23801281131346 
2039	-1.14196636190275 
2040	-0.65152486242522 
2041	-0.559675270872389 
2042	-0.460849556833106 
2043	-0.385665019604375 
2044	-0.198542336085465 
2045	-0.724634242830541 
2046	 3.34698944366384 
2047	-6.69282951374846 
2048	-0.593638938384512 
2049	 1.26276159949365E-02 
2050	 0.111862004772715 
2051	 0.464742672105676 
2052	 0.314340101040624 
2053	-4.49514730923374E-02 
2054	-0.20716933669663 
2055	-0.379610113675104 
2056	-0.425458396179549 
2057	-0.299982135119652 
2058	-0.221674776719161 
2059	 0.214151661849609 
2060	 0.210503715280857 
2061	-0.223830516215449 
2062	-0.24527002455201 
2063	-0.269781063566654 
2064	-0.227129239194013 
2065	 0.426903862395567 
2066	 4.33023141571155 
2067	 0.205098326528082 
2068	 0.102234584851982 
2069	 0.177536996034706 
2070	 0.332154675220482 
2071	 0.321177382925742 
2072	 0.182015867375482 
2073	 0.185864569449051 
2074	 0.149572221775701 
2075	 0.164485573350213 
2076	 0.395289468225738 
2077	 0.398876435611008 
2078	 0.160594030120335 
2079	 0.088952736630742 
2080	 3.24729104579517E-02 
2081	 9.04055637683338E-02 
2082	-2.96123380832004E-02 
2083	 6.25225525500336E-02 
2084	 0.127053332566883 
2085	 8.07714796867226E-02 
2086	 0.146746441567651 
2087	 3.68986438689308E-02 
2088	 0.010029228955952 
2089	 8.10968170849231E-02 
2090	 0.144549215999236 
2091	 1.38365833675363 
2092	 1.34686044009328 
2093	 0.421685944509501 
2094	 0.28239471650426 
2095	-5.09968505559593E-02 
2096	-0.144448918207549 
2097	-3.54338526377143E-02 
2098	-7.55279198777021E-02 
2099	-0.08027890738808 
2100	-2.58881654554746E-02 
2101	-0.347512046044463 
2102	-0.723031109077297 
2103	-0.678952198828019 
2104	-0.874064193917209 
2105	-0.931077700831505 
2106	-0.556376368707699 
2107	-0.521668059685232 
2108	-0.455408193738593 
2109	-0.301311381518928 
2110	-0.203965726558517 
2111	-0.123710551271877 
2112	-0.113909374902617 
2113	-0.105250457358725 
2114	-0.247492842315784 
2115	-0.286226467167722 
2116	-0.195901923213158 
2117	-0.216558485098026 
2118	-0.246512000078426 
2119	-0.207887245236496 
2120	-0.221439777345566 
2121	-0.197319737165176 
2122	 8.94499252106266E-02 
2123	 0.196212708222609 
2124	 0.182514956139612 
2125	 0.228698258258969 
2126	-0.10455150371657 
2127	-0.491364714121528 
2128	-0.356612586140981 
2129	-0.134586147727262 
2130	-3.76674596130409E-02 
2131	 8.15666514121836E-02 
2132	 9.40983801105789E-02 
2133	-0.113690480868143 
2134	-0.127581131362634 
2135	-2.59043050689328E-02 
2136	-5.47242520965358E-03 
2137	 9.02277988250604E-02 
2138	 9.77876062804062E-02 
2139	-4.58869982007639E-03 
2140	-5.77858058444759E-02 
2141	-0.158947666193559 
2142	-0.20780618667476 
2143	-0.251504542129778 
2144	-0.16465002345927 
2145	-0.136548866517112 
2146	-9.10951355476692E-02 
2147	-1.61869246007269E-02 
2148	-4.53392448945269E-03 
2149	-0.026643367666168 
2150	 0.013520712259745 
2151	 3.10969832984376E-02 
2152	-9.82144082636959E-02 
2153	-0.185051630256549 
2154	-0.239307634190359 
2155	-0.238482888228104 
2156	-0.188974571276183 
2157	-0.174917841174203 
2158	-0.142589470340883 
2159	-0.131695204651304 
2160	-0.13474930640453 
2161	-0.169349473051239 
2162	-0.246852102514408 
2163	-0.236613194879766 
2164	-0.21020117491136 
2165	-0.219918103750783 
2166	-0.171675757374449 
2167	-0.122263409304407 
2168	-0.120796486281738 
2169	-0.111571722718186 
2170	 5.93763118901414E-02 
2171	 3.78497171819025E-02 
2172	-0.235783331893515 
2173	-0.204950767847027 
2174	-0.107411703757156 
2175	-0.131911659214878 
2176	-8.31162344846308E-03 
2177	 3.66478495400477E-02 
2178	 2.82661835760249E-02 
2179	 4.08661885672547E-02 
2180	 6.73268545815333E-02 
2181	 0.166733404652559 
2182	 0.161322349770362 
2183	 0.198661073202703 
2184	 0.415285994150849 
2185	 0.474302717829409 
2186	 0.477372475529822 
2187	 0.481113653765956 
2188	 0.517016933116767 
2189	 0.354811751396789 
2190	 0.375868422458888 
2191	 0.60562897427504 
2192	 0.529961587899242 
2193	 0.370828309316241 
2194	 0.269048317716029 
2195	-4.44223304263703E-02 
2196	-0.178549807083344 
2197	-0.24947626848756 
2198	-0.258921063373345 
2199	-0.168734003372889 
2200	 9.01805807423027E-02 
2201	 0.134743084590454 
2202	 0.283981765638889 
2203	 0.245299318985388 
2204	 8.09001506150538E-02 
2205	 0.104609145759433 
2206	 0.390768993502784 
2207	 0.487341325777568 
2208	 0.497842618926979 
2209	 0.709801688277762 
2210	 0.45116973393288 
2211	 0.241643250003196 
2212	 0.230872007365886 
2213	 0.016546631408557 
2214	-6.99031745987023E-02 
2215	-0.170653729480172 
2216	-0.137809733625783 
2217	-4.62597981135408E-02 
2218	 0.123563649424244 
2219	 0.150000863049233 
2220	 0.204725171090387 
2221	 0.215979401443886 
2222	 1.65037886423469E-02 
2223	-5.83028400346406E-02 
2224	 0.120271253363888 
2225	 6.58468677126405E-02 
2226	-0.114306691416714 
2227	-4.78244700899791E-02 
2228	 4.67289892272531E-02 
2229	 0.116712440456751 
2230	 0.397194244381089 
2231	 0.539741648775272 
2232	 0.816829363422973 
2233	 0.926806571678 
2234	 0.656447237655231 
2235	 0.228457463271455 
2236	 4.99079771884477E-02 
2237	-3.26094000659852E-02 
2238	-8.33259797429582E-02 
2239	-8.23188579165218E-02 
2240	-6.06047818550467E-02 
2241	-1.11454629816094E-02 
2242	 2.34549264309163E-03 
2243	-8.13681648148814E-02 
2244	-9.86206042681104E-02 
2245	-7.12526652074875E-02 
2246	-0.182525756359597 
2247	 0.135961825794459 
2248	 0.272585511908274 
2249	-7.72368187845226E-02 
2250	-0.249907502011247 
2251	-0.289267113660589 
2252	-9.36839015199335E-02 
2253	 0.796090293428967 
2254	 2.70417517274322 
2255	 3.52346315340898 
2256	 3.11693128271156 
2257	 1.82479883567641 
2258	 0.754768164344084 
2259	 0.272751098564116 
2260	 0.194234922540918 
2261	 0.428008851100682 
2262	 0.467356543669906 
2263	 0.815867213336227 
2264	 1.23781596956772 
2265	 2.31346392279244 
2266	 2.9259430236245 
2267	 2.63595123703575 
2268	 2.10037579715712 
2269	 0.669376125546979 
2270	 0.178567553702702 
2271	 0.222741272612056 
2272	 7.73470024511305E-02 
2273	-0.16750619618351 
2274	-0.269912952037676 
2275	-0.929348052060431 
2276	-1.36920489852559 
2277	-0.556133225593098 
2278	-0.370577774447487 
2279	-0.255857543639334 
2280	-0.118952086790042 
2281	 0.364297811341342 
2282	 0.141375975270624 
2283	-0.529259859964203 
2284	-0.530732841110858 
2285	-0.881165226597145 
2286	-1.30603554645141 
2287	 4.06835528760555 
2288	 0.584581450197282 
2289	 0.57053280015403 
2290	-0.432004325014552 
2291	 4.6375272433971 
2292	 1.15314682521277 
2293	 0.38876874222106 
2294	-0.772280162636726 
2295	-4.87012851129097 
2296	-16.5257105348914 
2297	-1.45197618170884 
2298	-1.36017739311586 
2299	 8.49995890008887 
2300	-0.222819791164196 
2301	-0.175364880065016 
2302	 0.207174847586837 
2303	 0.264976684454144 
2304	-0.124857857721464 
2305	-0.720061555421438 
2306	-1.23812502048125 
2307	-2.13979782734167 
2308	 49.1938343792689 
2309	-9.85839233098419 
2310	-3.50788584683406 
2311	 0.173368041658702 
2312	-0.641448298865483 
2313	-1.47456194418071 
2314	-1.9561833419108 
2315	-7.37625675585069 
2316	 3.92796713183883 
2317	 0.852753700796842 
2318	 3.37218221033001 
2319	 10.4539460643599 
2320	-10.528596630469 
2321	-26.2004369220037 
2322	 0.302311292115438 
2323	-0.334016084945695 
2324	 12.7769726138522 
2325	 0.960557161285225 
2326	 1.15430130882907 
2327	 0.423985626972524 
2328	 0.3895422602063 
2329	 0.841937099615233 
2330	 0.532924273375897 
2331	 0.369775679106451 
2332	 0.811260864916137 
2333	 1.19633167754217 
2334	 0.807083799080412 
2335	 0.807687017057112 
2336	 0.832454454160999 
2337	 0.367623861869279 
2338	 0.692555007640014 
2339	-2.23085549787491 
2340	 1.65688431812293 
2341	 1.43817624742521 
2342	 6.75990768725999 
2343	-0.704247344945451 
2344	 1.23137321924341 
2345	 0.678037946549197 
2346	 1.09846718657673 
2347	 0.277993215633416 
2348	 1.81908546594377E-02 
2349	 0.10138291672775 
2350	 0.240138334176424 
2351	 0.396775273838601 
2352	 0.403036362468536 
2353	 0.602490485564287 
2354	-9.28368153159143E-02 
2355	-817.806616803065 
2356	 2.60370499117447 
2357	-19.8843001034417 
2358	-1.25667154088811 
2359	-0.314644825309105 
2360	 0.88670551123736 
2361	 1.0986117484787 
2362	 7.29401458557377 
2363	-16.1699021414066 
2364	 1.10959179206011 
2365	-2.41239858525332E-02 
2366	-0.480887308372008 
2367	-0.354719031653116 
2368	-0.191983203293368 
2369	 3.50801886998537E-02 
2370	 0.697187353983753 
2371	 0.780123736444295 
2372	 0.370433525702869 
2373	 0.843002771750979 
2374	 0.571563734226241 
2375	 0.990172834506731 
2376	 1.97053241279074 
2377	 1.08334441448118 
2378	 0.240804495710553 
2379	-0.619819057212196 
2380	-0.240222506701 
2381	-8.49472174142102E-03 
2382	-0.105915273922563 
2383	-0.116475568141499 
2384	 0.132447898208944 
2385	 0.465480127527953 
2386	 0.629113257622377 
2387	 0.393021617421426 
2388	-1.91983488715688E-02 
2389	 1.95102318694769 
2390	-3.36005691981025E-02 
2391	-0.62665894078113 
2392	-0.710187631469404 
2393	-0.756729975704346 
2394	-1.03794974612773 
2395	 2.54042686685521 
2396	 5.64914068376327E-02 
2397	-0.173194523729914 
2398	 0.129577921960035 
2399	 3.37444497699262E-02 
2400	 3.78490628834506E-02 
2401	 0.270783100937248 
2402	 0.119920866018569 
2403	-0.520610347992043 
2404	-0.8169245307419 
2405	-1.15418470597931 
2406	-1.33384178852241 
2407	-1.29316549554302 
2408	-0.883650690993267 
2409	-0.734741953407145 
2410	-0.790289544923109 
2411	-0.248326551796286 
2412	 1.21672021488128E-02 
2413	 0.477347558260863 
2414	 0.759504377369052 
2415	 0.853507211647482 
2416	 0.806335724364127 
2417	 0.629009350917612 
2418	 0.860655000682518 
2419	 1.82496190159191 
2420	 2.32794963948687 
2421	 3.6700145166439 
2422	 1.0051272793379 
2423	-0.167915159679819 
2424	-1.9103951445777 
2425	 0.176632162864297 
2426	-0.742274394430342 
2427	 4.34437307056952 
2428	 0.791546030377295 
2429	 1.1801460652416 
2430	 2.45868709781042 
2431	 2.19452140293395 
2432	 7.99999927319462 
2433	-22.5165960871668 
2434	 6.96175147857294 
2435	 5.07772943492821 
2436	 2.90573800263478 
2437	 0.766056587328616 
2438	-0.285041520489921 
2439	 0.137792996892382 
2440	 0.138396427111374 
2441	 1.52025507581072E-02 
2442	 2.32477334491558E-03 
2443	-0.100923499359276 
2444	 0.123138357633052 
2445	 0.79194663305115 
2446	 1.91379784947845 
2447	 0.352312673121981 
2448	-1.72568704413686 
2449	 19.4416025667142 
2450	-12.9341627676851 
2451	-3.10601290460509 
2452	-0.884954051935978 
2453	-1.20978424527531 
2454	-0.466176314449513 
2455	-0.189531807572504 
2456	 0.839787505542547 
2457	-0.895782530332522 
2458	-0.673032984455872 
2459	-1.14018607150579 
2460	 0.540469129196652 
2461	 7.55981184100229E-02 
2462	-0.346694578618253 
2463	-1.62322595359294 
2464	-6.78037762021579 
2465	-6.0620869717419 
2466	-3.32515904851046 
2467	-1.79384173005681 
2468	-3.46341381119311 
2469	 7.16425724382546 
2470	 1.6583816917258 
2471	 0.335086437195992 
2472	-0.412624038915958 
2473	-1.28871428703333 
2474	-1.04879366022979 
2475	-8.9952518078806E-03 
2476	 2.64011846765849 
2477	 3.11664243183494 
2478	-3.97622380774436 
2479	-0.695279928651979 
2480	-0.049940562421191 
2481	 0.313991661050717 
2482	 3.01081696237527 
2483	 5.03557234339495 
2484	 1.05681996571476 
2485	 1.32940656449285 
2486	 0.862495990829092 
2487	 0.450919451762777 
2488	 0.447640163266652 
2489	 0.130717042024635 
2490	-0.121131047179966 
2491	 3.66959676878689E-02 
2492	 0.150297743022433 
2493	 0.303996265509944 
2494	-0.263780236968428 
2495	-0.344510430861776 
2496	-0.208859443736621 
2497	-0.933923678872944 
2498	-2.10501992114267 
2499	-2.35492256502504 
2500	-2.91785077577937 
