Wavelength	rt0707far00004.asd
350	 8.25841632433563E-02 
351	 8.25931696117448E-02 
352	 8.29078825061234E-02 
353	 8.29867151395651E-02 
354	 8.25350412585006E-02 
355	 8.23833153711064E-02 
356	 8.29232632528948E-02 
357	 0.083428133919134 
358	 8.31954270083038E-02 
359	 8.32758396492498E-02 
360	 8.31040170346349E-02 
361	 8.28070972299449E-02 
362	 8.30319028834612E-02 
363	 8.45222969722507E-02 
364	 8.49864935563478E-02 
365	 8.41171739094351E-02 
366	 8.50877132400137E-02 
367	 0.084840932389769 
368	 8.46496791103486E-02 
369	 0.085864064002031 
370	 8.60313569030128E-02 
371	 8.59468409851238E-02 
372	 8.56302141279301E-02 
373	 8.48545096230982E-02 
374	 8.52111643538629E-02 
375	 8.62527142722655E-02 
376	 8.70144509647057E-02 
377	 8.62486947919281E-02 
378	 8.64335090282714E-02 
379	 8.70904570150122E-02 
380	 8.73590978096009E-02 
381	 8.75854725752339E-02 
382	 8.81557977907356E-02 
383	 8.85931207181778E-02 
384	 8.82585457613567E-02 
385	 8.85413504637401E-02 
386	 8.89297971768077E-02 
387	 8.94374569650642E-02 
388	 9.07347757975663E-02 
389	 0.090144190383442 
390	 8.92102537711687E-02 
391	 8.95788564244449E-02 
392	 9.12834296796189E-02 
393	 0.091220061016729 
394	 9.05647068726131E-02 
395	 9.13879805757188E-02 
396	 9.10218323396012E-02 
397	 9.07789377659774E-02 
398	 9.11678341278072E-02 
399	 9.17977618569316E-02 
400	 9.27402849694944E-02 
401	 9.27840570040016E-02 
402	 9.17789221793114E-02 
403	 9.22242686666572E-02 
404	 9.27236365346961E-02 
405	 0.093083325765319 
406	 9.34621319649993E-02 
407	 9.33902225321919E-02 
408	 9.37923900421757E-02 
409	 9.45856617587286E-02 
410	 9.46814420432924E-02 
411	 9.43362471244904E-02 
412	 9.46467625863006E-02 
413	 9.58472174595829E-02 
414	 9.58097421330901E-02 
415	 9.56815235322078E-02 
416	 0.095994561291544 
417	 9.67917700195486E-02 
418	 0.096680096503059 
419	 9.68703325590671E-02 
420	 9.76689066546779E-02 
421	 0.098228203252404 
422	 9.85472394312554E-02 
423	 9.88537168327502E-02 
424	 9.93550060134065E-02 
425	 0.100080377268289 
426	 0.100373765203696 
427	 0.100706971968839 
428	 0.101841436836063 
429	 0.102296185385261 
430	 0.10287375979262 
431	 0.10380063035998 
432	 0.104391828115627 
433	 0.104644307050019 
434	 0.104912221334662 
435	 0.10547720723295 
436	 0.106181260602038 
437	 0.106786366164714 
438	 0.107315917245292 
439	 0.107940084231328 
440	 0.108744973167657 
441	 0.109228554190003 
442	 0.109364691237677 
443	 0.109899276021568 
444	 0.110668955262859 
445	 0.11132174383944 
446	 0.111630300942055 
447	 0.112047050008921 
448	 0.112806596390927 
449	 0.113606637502358 
450	 0.113834388062312 
451	 0.114213035752609 
452	 0.114516505484148 
453	 0.114698657650324 
454	 0.115374926454614 
455	 0.116053722228881 
456	 0.116569662469357 
457	 0.116876375563674 
458	 0.116852999036616 
459	 0.117065365729251 
460	 0.117622399712532 
461	 0.118139727698593 
462	 0.118636721764547 
463	 0.118994620523979 
464	 0.119211543006957 
465	 0.119657779418991 
466	 0.11991717390476 
467	 0.120258484084622 
468	 0.121104626582844 
469	 0.121370019842774 
470	 0.121555537576569 
471	 0.121935379581404 
472	 0.12227748875615 
473	 0.122556496764012 
474	 0.122806864216042 
475	 0.123142678175985 
476	 0.123925811759921 
477	 0.124379953042789 
478	 0.124529328244893 
479	 0.124939783916856 
480	 0.125466889515793 
481	 0.125921331638241 
482	 0.126294455185271 
483	 0.126986651376246 
484	 0.127384298111637 
485	 0.127620014776296 
486	 0.128075541845794 
487	 0.128782053183505 
488	 0.129527302019067 
489	 0.130124040949679 
490	 0.130449687857315 
491	 0.130698544872831 
492	 0.131221042519865 
493	 0.132106856010139 
494	 0.132701893035349 
495	 0.133326600046077 
496	 0.133960018231276 
497	 0.134451852500717 
498	 0.135005285928394 
499	 0.135726913735311 
500	 0.136528420378979 
501	 0.137047093886728 
502	 0.137472255825288 
503	 0.138184086258404 
504	 0.139304970250068 
505	 0.139745645213479 
506	 0.140111977877906 
507	 0.140630589852049 
508	 0.141196286317831 
509	 0.141982760856589 
510	 0.142796706559712 
511	 0.143467685572272 
512	 0.144014591724778 
513	 0.144426468381217 
514	 0.144925404590903 
515	 0.145761906352155 
516	 0.146609829043652 
517	 0.147460483684452 
518	 0.148295015044987 
519	 0.149058564643069 
520	 0.149732703016535 
521	 0.150528718791776 
522	 0.15153158166755 
523	 0.152197244787749 
524	 0.152967087329565 
525	 0.153854674611336 
526	 0.154587635955659 
527	 0.155371909992993 
528	 0.15616461068884 
529	 0.15698915095871 
530	 0.158115470320495 
531	 0.159009335524423 
532	 0.159741359126546 
533	 0.160587804890267 
534	 0.161554212109004 
535	 0.162401398497972 
536	 0.163138488764675 
537	 0.164060650704012 
538	 0.164818224720512 
539	 0.165635372389851 
540	 0.166685116537633 
541	 0.167499559044543 
542	 0.168432451855505 
543	 0.16950118716241 
544	 0.170500772520981 
545	 0.171238697380258 
546	 0.171980899386409 
547	 0.172830747377556 
548	 0.173427801371249 
549	 0.174430922136745 
550	 0.175546029514335 
551	 0.176270082735748 
552	 0.177008180538621 
553	 0.177849857037908 
554	 0.178778007381043 
555	 0.179673103097727 
556	 0.180693154196694 
557	 0.181550320201228 
558	 0.182100021798671 
559	 0.183019825296767 
560	 0.183991811495467 
561	 0.184792555809922 
562	 0.185343497507507 
563	 0.186372074555936 
564	 0.187226973103269 
565	 0.187575790681976 
566	 0.188027182314219 
567	 0.18883108648445 
568	 0.189619743638393 
569	 0.189930102883511 
570	 0.19034077093834 
571	 0.191076283624397 
572	 0.191890007014623 
573	 0.192082130692697 
574	 0.192264784732111 
575	 0.192605431425487 
576	 0.193016555567307 
577	 0.192927448991082 
578	 0.192909146939812 
579	 0.193083671583118 
580	 0.19325560686355 
581	 0.193119085141094 
582	 0.193045499065913 
583	 0.193158591247449 
584	 0.192973419414263 
585	 0.192665106161948 
586	 0.192404664132709 
587	 0.192302628410663 
588	 0.19200544565596 
589	 0.191683942977154 
590	 0.191353409911286 
591	 0.190801185407233 
592	 0.190107476381241 
593	 0.189464136140695 
594	 0.188843373145806 
595	 0.187417314887127 
596	 0.186043919451451 
597	 0.184773443368804 
598	 0.183267934915068 
599	 0.182027768790876 
600	 0.180824815937339 
601	 0.179685145989647 
602	 0.179234054141821 
603	 0.178788973410837 
604	 0.178379172421224 
605	 0.178208422451438 
606	 0.178093235383353 
607	 0.178093331808492 
608	 0.178193835892179 
609	 0.178288922712584 
610	 0.178271147015419 
611	 0.178017563977714 
612	 0.177649523957887 
613	 0.178020773201485 
614	 0.178191788583171 
615	 0.178076962324143 
616	 0.17806493413807 
617	 0.178047290940714 
618	 0.17800884929849 
619	 0.177993283249242 
620	 0.178141148217146 
621	 0.178151871322866 
622	 0.177996603470116 
623	 0.177774239345261 
624	 0.177669369524516 
625	 0.177691632571651 
626	 0.177873059923793 
627	 0.178228796556325 
628	 0.177781403685068 
629	 0.177408517556624 
630	 0.177703950832191 
631	 0.177566296407868 
632	 0.177457235664729 
633	 0.177397184143405 
634	 0.177228659100541 
635	 0.177007433147033 
636	 0.176866509771383 
637	 0.176924080291034 
638	 0.177292388836148 
639	 0.176980278771584 
640	 0.176538083484115 
641	 0.17664146102436 
642	 0.176429161252318 
643	 0.176076353415319 
644	 0.175880542454544 
645	 0.176171328849471 
646	 0.175983718015206 
647	 0.17561099629361 
648	 0.175383257538856 
649	 0.17506802576127 
650	 0.174662343653069 
651	 0.174056589429429 
652	 0.173224669653013 
653	 0.172655694206579 
654	 0.172181314526825 
655	 0.171457605559518 
656	 0.170104578765893 
657	 0.169456207614896 
658	 0.168989133641468 
659	 0.168182630780239 
660	 0.167754515836529 
661	 0.167351058637894 
662	 0.166909891124825 
663	 0.166559793574698 
664	 0.166355472939186 
665	 0.166185500026812 
666	 0.165996027977183 
667	 0.165892362389763 
668	 0.165594394317051 
669	 0.165351396504713 
670	 0.165416572174734 
671	 0.165122266779432 
672	 0.164782047380896 
673	 0.164706977438601 
674	 0.16510715621968 
675	 0.165136865051448 
676	 0.164892669640323 
677	 0.164699212297982 
678	 0.165015829549328 
679	 0.164930497266396 
680	 0.164486891244201 
681	 0.164184498899106 
682	 0.164194923835653 
683	 0.164447208855608 
684	 0.164747031314437 
685	 0.164789558344789 
686	 0.164159527380131 
687	 0.163580288781142 
688	 0.163682101955703 
689	 0.163245584082897 
690	 0.162354785042416 
691	 0.161525154379166 
692	 0.1614218577327 
693	 0.160383459733551 
694	 0.159100193798049 
695	 0.158118185572929 
696	 0.156955532529974 
697	 0.155817338315397 
698	 0.154759331530245 
699	 0.153827768827846 
700	 0.152579456343355 
701	 0.150964313206411 
702	 0.149166559244663 
703	 0.147440928569357 
704	 0.146107306404155 
705	 0.144495814214051 
706	 0.142418095497096 
707	 0.14092752856987 
708	 0.138833493385875 
709	 0.136556821307949 
710	 0.134788350892059 
711	 0.132119980107594 
712	 0.12947564749634 
713	 0.127174521498331 
714	 0.124706728953786 
715	 0.122662326080774 
716	 0.120775402502266 
717	 0.118648392184123 
718	 0.115339708141094 
719	 0.111793399582121 
720	 0.108849716286661 
721	 0.106134762219789 
722	 0.104362757568827 
723	 0.102232472048467 
724	 9.95492075475225E-02 
725	 9.70680000083899E-02 
726	 9.39923243666037E-02 
727	 9.09559062620881E-02 
728	 8.84230329926305E-02 
729	 0.085490766312536 
730	 8.23259837476311E-02 
731	 7.92650466899758E-02 
732	 7.64654747662155E-02 
733	 7.46912159238334E-02 
734	 7.33615744164278E-02 
735	 0.072066558411695 
736	 7.06127175953493E-02 
737	 6.96014931446473E-02 
738	 6.90184597464559E-02 
739	 6.86308168231992E-02 
740	 6.79499510515034E-02 
741	 0.06771458546134 
742	 6.77295378857088E-02 
743	 6.74019977701733E-02 
744	 6.71673931987324E-02 
745	 6.69852327920648E-02 
746	 6.68515218686473E-02 
747	 0.066866173761226 
748	 6.68295500511362E-02 
749	 6.66061544669736E-02 
750	 6.62584381756046E-02 
751	 6.64220332697189E-02 
752	 6.63686590600367E-02 
753	 6.61335906711757E-02 
754	 6.61301683476314E-02 
755	 6.60375183727691E-02 
756	 6.60279554455148E-02 
757	 6.61441248857294E-02 
758	 6.61905226593476E-02 
759	 0.066441577135718 
760	 6.70878286722373E-02 
761	 6.74846240551156E-02 
762	 6.69098038590218E-02 
763	 6.67438461680386E-02 
764	 6.68297199273346E-02 
765	 6.66477148320211E-02 
766	 6.65672059560925E-02 
767	 6.66710117215711E-02 
768	 6.67093135446778E-02 
769	 6.61535859136761E-02 
770	 6.64739450006182E-02 
771	 6.69356790117977E-02 
772	 6.68196842162855E-02 
773	 6.66455683235239E-02 
774	 6.68639804104208E-02 
775	 6.73492453581018E-02 
776	 6.76632301799632E-02 
777	 0.067303837042528 
778	 6.75438737057535E-02 
779	 6.83213076868406E-02 
780	 6.81944863059565E-02 
781	 6.82709126827613E-02 
782	 6.88618026755403E-02 
783	 6.97514804444622E-02 
784	 6.98600399706411E-02 
785	 7.01334826009761E-02 
786	 7.06090254458581E-02 
787	 7.10059892247252E-02 
788	 7.12741888006694E-02 
789	 7.15386488672388E-02 
790	 7.19079261981675E-02 
791	 7.24216198812773E-02 
792	 7.26293150456401E-02 
793	 7.32433519653223E-02 
794	 7.43461818329166E-02 
795	 7.47242503271814E-02 
796	 7.46400359470561E-02 
797	 7.48522000194612E-02 
798	 7.57304587235228E-02 
799	 7.57730429529163E-02 
800	 7.60588310222714E-02 
801	 7.65620413307174E-02 
802	 7.66943013263742E-02 
803	 7.68654497581147E-02 
804	 7.72962539853403E-02 
805	 7.77164950750154E-02 
806	 7.74189900612378E-02 
807	 7.71907638889098E-02 
808	 7.72829371615502E-02 
809	 0.077637319558437 
810	 7.76231813645325E-02 
811	 7.80717666466062E-02 
812	 7.87279837036845E-02 
813	 7.88031133585959E-02 
814	 7.81076957848444E-02 
815	 7.71897104265452E-02 
816	 7.63051195630808E-02 
817	 7.53374354367958E-02 
818	 7.44675671803271E-02 
819	 7.40600830194641E-02 
820	 7.37858851031296E-02 
821	 7.25488944984306E-02 
822	 7.17879046584912E-02 
823	 7.10149571529125E-02 
824	 6.95504857175139E-02 
825	 0.067172459574092 
826	 6.50666395980094E-02 
827	 6.36984753165202E-02 
828	 6.30461893159968E-02 
829	 6.15693279556922E-02 
830	 5.98129530994206E-02 
831	 5.87656760949865E-02 
832	 5.92114104981967E-02 
833	 5.75902288936157E-02 
834	 5.61623177518582E-02 
835	 5.61796751682749E-02 
836	 5.67800258260383E-02 
837	 5.62161322187251E-02 
838	 5.54111245065113E-02 
839	 5.53712206320666E-02 
840	 5.58454955836049E-02 
841	 5.56440976627269E-02 
842	 5.48104625052094E-02 
843	 5.39925154965612E-02 
844	 5.40093951966251E-02 
845	 5.40461333733853E-02 
846	 5.37781088672878E-02 
847	 5.33204997590219E-02 
848	 5.30520521528486E-02 
849	 5.27811715686203E-02 
850	 5.26384885063561E-02 
851	 5.31684411087525E-02 
852	 5.30806039073254E-02 
853	 5.23209460507315E-02 
854	 0.051556956477627 
855	 0.052235651840228 
856	 5.27049603350288E-02 
857	 5.24335860672609E-02 
858	 5.15649602204433E-02 
859	 5.12699589540543E-02 
860	 5.10430822330261E-02 
861	 5.10169990547578E-02 
862	 5.14059449857301E-02 
863	 5.09463849293173E-02 
864	 5.04209209273675E-02 
865	 5.02690163263078E-02 
866	 5.03869975461209E-02 
867	 5.00060184348506E-02 
868	 4.99371818989807E-02 
869	 5.04859783573328E-02 
870	 5.10173914708246E-02 
871	 5.04613118386873E-02 
872	 4.96704431880862E-02 
873	 4.95404336383836E-02 
874	 5.00670739353885E-02 
875	 4.96756573109235E-02 
876	 4.94029803567831E-02 
877	 5.01346648735053E-02 
878	 4.88891173204463E-02 
879	 4.91096121758575E-02 
880	 4.97800598710503E-02 
881	 4.84929745240125E-02 
882	 4.82806277699764E-02 
883	 4.83804846903557E-02 
884	 0.04816579625001 
885	 4.75612403872728E-02 
886	 4.89939044186964E-02 
887	 4.93375138960791E-02 
888	 4.80385507614105E-02 
889	 4.79872179498828E-02 
890	 4.67896022296226E-02 
891	 4.67477582634038E-02 
892	 4.88068467185432E-02 
893	 4.94792832813483E-02 
894	 4.88544842676002E-02 
895	 4.75459279130944E-02 
896	 4.67895785099391E-02 
897	 4.82937085873549E-02 
898	 4.93384802920273E-02 
899	 4.98667606876018E-02 
900	 5.00607260640752E-02 
901	 4.67067443136883E-02 
902	 0.045281775727551 
903	 4.67356522997425E-02 
904	 4.94434896791978E-02 
905	 4.92303282377416E-02 
906	 0.047779921025679 
907	 4.60940201793105E-02 
908	 0.044715697507599 
909	 4.41546418274102E-02 
910	 0.046731461210732 
911	 4.98990757861156E-02 
912	 4.77928165227393E-02 
913	 4.55931565857417E-02 
914	 4.28299662215515E-02 
915	 4.14295364825896E-02 
916	 4.54549886663412E-02 
917	 4.76554547155561E-02 
918	 4.49869154118663E-02 
919	 4.10119949873838E-02 
920	 4.55664388361988E-02 
921	 4.45442632902951E-02 
922	 4.29577988159777E-02 
923	 4.48028520207746E-02 
924	 4.37160025676527E-02 
925	 4.85962747717559E-02 
926	 5.24126828829032E-02 
927	 4.68747253928719E-02 
928	 4.39430915423248E-02 
929	 4.46506418511105E-02 
930	 5.30343111653412E-02 
931	 6.92421695151493E-02 
932	 6.09314365958982E-02 
933	 4.68163088910468E-02 
934	 4.91930595247826E-02 
935	 6.47755472398285E-02 
936	 4.23290106557789E-02 
937	 3.86963894909265E-02 
938	 5.23723482801307E-02 
939	 5.89477767755548E-02 
940	 2.57408934002932E-02 
941	 0.027768314004359 
942	 0.050594267318645 
943	 4.13955504826859E-02 
944	 2.83936575317774E-02 
945	 3.46875954334881E-02 
946	 0.05081605067401 
947	 0.053419023148707 
948	 6.08258403618824E-02 
949	 5.56435528508644E-02 
950	 4.90569250985344E-02 
951	 6.06684739253763E-02 
952	 0.052773069080025 
953	 4.74047999934861E-02 
954	 4.44560796134153E-02 
955	 3.27564110243909E-02 
956	 0.050166050370228 
957	 6.07901093209642E-02 
958	 4.74050294139696E-02 
959	 1.80865768295888E-02 
960	 4.64727602489706E-02 
961	 5.63940580539535E-02 
962	 3.97319476765338E-02 
963	 0.035784023871885 
964	 4.46077023012907E-02 
965	 0.043758365967342 
966	 3.51125718548319E-02 
967	 3.54506208091106E-02 
968	 4.55369074098991E-02 
969	 0.045564639324953 
970	 3.70257253401347E-02 
971	 3.81365572131362E-02 
972	 4.29294425714772E-02 
973	 4.49854787954275E-02 
974	 4.30702881392954E-02 
975	 4.10535191589628E-02 
976	 3.41394793249347E-02 
977	 3.39545228831759E-02 
978	 4.12191102409622E-02 
979	 4.60492243149768E-02 
980	 4.45073155906069E-02 
981	 3.81384790161386E-02 
982	 3.42634002555521E-02 
983	 4.10105450781433E-02 
984	 4.50912571204467E-02 
985	 4.10632354949576E-02 
986	 0.036155900501247 
987	 4.27012219510766E-02 
988	 4.43490552463397E-02 
989	 3.95433098424157E-02 
990	 3.69956190887126E-02 
991	 0.046727505498427 
992	 4.69273632973941E-02 
993	 3.85824230326549E-02 
994	 3.21681365550492E-02 
995	 0.038511874803357 
996	 4.17144406427996E-02 
997	 4.18579252496093E-02 
998	 4.19311762459384E-02 
999	 4.43254448514378E-02 
1000	 0.040945517999057 
1001	 4.07938198742454E-02 
1002	 0.037889093516385 
1003	 3.76990749376025E-02 
1004	 3.91529257249821E-02 
1005	 0.040339451866589 
1006	 4.24972111782611E-02 
1007	 4.56086816169543E-02 
1008	 4.71437563336974E-02 
1009	 4.68739879326597E-02 
1010	 4.56517838372939E-02 
1011	 4.29438051071724E-02 
1012	 4.08329896400608E-02 
1013	 3.99446763080294E-02 
1014	 3.95856445924786E-02 
1015	 4.05071498422703E-02 
1016	 4.09942079780591E-02 
1017	 4.24865660763293E-02 
1018	 4.27794957972051E-02 
1019	 4.28727850136083E-02 
1020	 4.24657820640994E-02 
1021	 4.14136019837207E-02 
1022	 3.92884185992516E-02 
1023	 3.81955861595457E-02 
1024	 3.79988363361034E-02 
1025	 3.90919381749514E-02 
1026	 3.86520338232697E-02 
1027	 3.86225226083456E-02 
1028	 3.83098292824084E-02 
1029	 3.89766545524411E-02 
1030	 4.04465254277154E-02 
1031	 0.040787113454308 
1032	 4.11002185765646E-02 
1033	 4.15393178082662E-02 
1034	 4.06785604578368E-02 
1035	 0.041102757451758 
1036	 4.29343903424976E-02 
1037	 4.41690895109873E-02 
1038	 4.60026401256622E-02 
1039	 4.71170962800302E-02 
1040	 4.67419265450333E-02 
1041	 4.45479954748679E-02 
1042	 4.31490868560591E-02 
1043	 3.95667994258195E-02 
1044	 3.91119857404407E-02 
1045	 4.06993672873102E-02 
1046	 4.11644622115353E-02 
1047	 4.28844219526899E-02 
1048	 4.29717998640957E-02 
1049	 4.11702210754745E-02 
1050	 0.041045956001369 
1051	 4.17051575079743E-02 
1052	 4.14546976044909E-02 
1053	 4.15397744660864E-02 
1054	 4.15334672691954E-02 
1055	 4.03944134261397E-02 
1056	 3.96905982094864E-02 
1057	 0.039262940438608 
1058	 3.93173800509456E-02 
1059	 3.96687590319808E-02 
1060	 4.05339058004396E-02 
1061	 4.05166532123244E-02 
1062	 4.00786547652544E-02 
1063	 0.040775922512038 
1064	 4.15951391849296E-02 
1065	 4.21044174431694E-02 
1066	 4.40306247244123E-02 
1067	 4.46749863326601E-02 
1068	 4.34105681490558E-02 
1069	 4.33494213330943E-02 
1070	 4.46076887989381E-02 
1071	 4.44098680807366E-02 
1072	 4.35806310167538E-02 
1073	 4.28065176046606E-02 
1074	 4.18333489208555E-02 
1075	 0.039407796128839 
1076	 3.86756968728196E-02 
1077	 3.90641824529564E-02 
1078	 3.88597386603113E-02 
1079	 3.89569384760946E-02 
1080	 3.88798171080166E-02 
1081	 3.84606838567755E-02 
1082	 3.83468130901041E-02 
1083	 3.80058329364131E-02 
1084	 3.84790372029619E-02 
1085	 3.99125857160146E-02 
1086	 4.07281946495075E-02 
1087	 4.25464704258269E-02 
1088	 4.30470755757694E-02 
1089	 4.16265896936328E-02 
1090	 4.13817539125402E-02 
1091	 4.10952566622328E-02 
1092	 3.99325469609066E-02 
1093	 0.040293503778347 
1094	 4.28153429056219E-02 
1095	 4.24234654108312E-02 
1096	 4.05860564637952E-02 
1097	 4.08958914196717E-02 
1098	 4.05974372915039E-02 
1099	 4.07403794977686E-02 
1100	 4.32348842397689E-02 
1101	 4.43435406291098E-02 
1102	 0.044433128950662 
1103	 4.41704362191509E-02 
1104	 4.34881227852529E-02 
1105	 4.36027002842004E-02 
1106	 4.22154498219899E-02 
1107	 4.19612676925501E-02 
1108	 4.33748658162716E-02 
1109	 4.47252702405326E-02 
1110	 4.68186179002979E-02 
1111	 5.09169033795783E-02 
1112	 5.25621975401139E-02 
1113	 5.44262222894884E-02 
1114	 5.39599530724035E-02 
1115	 4.24708691534656E-02 
1116	 4.20892583362072E-02 
1117	 5.71004324621327E-02 
1118	 5.99520017061972E-02 
1119	 5.97604014674257E-02 
1120	 6.94185419797724E-02 
1121	 6.99109820772041E-02 
1122	 6.68802730295639E-02 
1123	 7.52193301766694E-02 
1124	 0.103766085665824 
1125	 0.130632788834021 
1126	 8.55448000549001E-02 
1127	 7.97101386601662E-02 
1128	 0.131209640676361 
1129	 0.107461802775319 
1130	 1.02003141287333E-02 
1131	 1.71935960634091E-02 
1132	 5.68734601614187E-02 
1133	 5.95151382470382E-02 
1134	 9.32185493869349E-02 
1135	 0.102820502225373 
1136	 0.075853327430844 
1137	 6.27751579903158E-02 
1138	 5.63592908859473E-02 
1139	 5.16020685756729E-02 
1140	 3.57499144212214E-02 
1141	 2.11994656631545E-02 
1142	 4.13554332283354E-02 
1143	 7.18871049130835E-02 
1144	 5.87459129066027E-02 
1145	 4.57882588745609E-02 
1146	 3.66402051361318E-02 
1147	 1.92254769139784E-02 
1148	 4.08545158075696E-02 
1149	 7.33203588833875E-02 
1150	 7.99812492816816E-02 
1151	 6.78591293385734E-02 
1152	 6.38316507027516E-02 
1153	 5.52872267980665E-02 
1154	 4.80031766588495E-02 
1155	 4.15062028303721E-02 
1156	 4.09940359551369E-02 
1157	 3.89422689571425E-02 
1158	 4.09207854167855E-02 
1159	 4.23974448531596E-02 
1160	 3.78157899545018E-02 
1161	 3.27286546306324E-02 
1162	 3.68523666912389E-02 
1163	 3.97014438477777E-02 
1164	 4.12317682061964E-02 
1165	 4.76827000346546E-02 
1166	 4.63585601708864E-02 
1167	 4.25393846303243E-02 
1168	 4.42051952698655E-02 
1169	 4.41761553877505E-02 
1170	 0.042304047048526 
1171	 4.20897762969694E-02 
1172	 4.52814157071467E-02 
1173	 4.49520595915229E-02 
1174	 4.18914201857577E-02 
1175	 4.12323224680363E-02 
1176	 0.044257882881157 
1177	 4.54039491043562E-02 
1178	 4.48333690907728E-02 
1179	 4.46590262575596E-02 
1180	 4.39253393911521E-02 
1181	 4.42724088438383E-02 
1182	 4.40318870692168E-02 
1183	 4.24010275505581E-02 
1184	 4.40227660447178E-02 
1185	 0.043615723041984 
1186	 0.041194993430597 
1187	 4.37794351335166E-02 
1188	 4.58203951451082E-02 
1189	 4.24156305639904E-02 
1190	 4.04322960334464E-02 
1191	 4.13322203219319E-02 
1192	 0.040670841303933 
1193	 3.73942127667708E-02 
1194	 3.64838727571982E-02 
1195	 3.93372160014152E-02 
1196	 4.04227949639253E-02 
1197	 4.03594252674682E-02 
1198	 4.07781840622413E-02 
1199	 3.98253554430767E-02 
1200	 3.86636233930937E-02 
1201	 4.02680689634336E-02 
1202	 4.22243421445783E-02 
1203	 4.26777640161248E-02 
1204	 4.20827428700862E-02 
1205	 4.18754191251458E-02 
1206	 4.24634140217574E-02 
1207	 4.17796889679465E-02 
1208	 4.08675494700168E-02 
1209	 0.041367493836188 
1210	 4.16809750856256E-02 
1211	 4.16770422656804E-02 
1212	 4.16986406557122E-02 
1213	 4.04350338186879E-02 
1214	 4.00174998516711E-02 
1215	 3.85497994907912E-02 
1216	 3.89503568385278E-02 
1217	 4.03796498681065E-02 
1218	 4.21187214225266E-02 
1219	 4.29276256828086E-02 
1220	 4.33751449289914E-02 
1221	 4.37365568957121E-02 
1222	 4.20622546119083E-02 
1223	 4.18569917417796E-02 
1224	 4.28471925486096E-02 
1225	 4.24487647376981E-02 
1226	 4.34824828734444E-02 
1227	 4.34464247285822E-02 
1228	 4.25035389030607E-02 
1229	 4.28994645610345E-02 
1230	 0.042095737189796 
1231	 4.15624563885289E-02 
1232	 4.17771175995748E-02 
1233	 4.17459455605018E-02 
1234	 4.23979227653543E-02 
1235	 4.27060826928066E-02 
1236	 4.35985378844327E-02 
1237	 4.32972985326121E-02 
1238	 4.20435196632655E-02 
1239	 4.05859059553337E-02 
1240	 0.040792759331533 
1241	 4.09831626472687E-02 
1242	 4.14243103141312E-02 
1243	 4.24772560456605E-02 
1244	 4.27027080125394E-02 
1245	 0.042670134754417 
1246	 0.042220767969912 
1247	 4.19849037633579E-02 
1248	 4.20997774328809E-02 
1249	 0.040828983929401 
1250	 4.00671880072856E-02 
1251	 4.07548342111324E-02 
1252	 4.14062790226795E-02 
1253	 4.17977759004691E-02 
1254	 4.10224467828154E-02 
1255	 3.97113820757811E-02 
1256	 3.94205447197361E-02 
1257	 0.038836607441099 
1258	 3.94632449006407E-02 
1259	 4.24406656028419E-02 
1260	 4.30412208757978E-02 
1261	 4.27779012918853E-02 
1262	 4.26826077163857E-02 
1263	 4.15537424575255E-02 
1264	 4.05913446669467E-02 
1265	 4.06962165632239E-02 
1266	 4.03825156634533E-02 
1267	 3.98096317484571E-02 
1268	 4.10030732022483E-02 
1269	 4.16575933922154E-02 
1270	 4.01170596681273E-02 
1271	 3.97043428543406E-02 
1272	 3.91924133801639E-02 
1273	 3.68927371226434E-02 
1274	 3.73935046636507E-02 
1275	 3.99099234846157E-02 
1276	 0.039634208450212 
1277	 3.88994905391875E-02 
1278	 3.99008897357591E-02 
1279	 0.040002092985453 
1280	 3.97446020066389E-02 
1281	 3.98514805141319E-02 
1282	 4.19259855360652E-02 
1283	 4.24001008170051E-02 
1284	 4.06111871426995E-02 
1285	 4.04549663123982E-02 
1286	 4.22256421804535E-02 
1287	 4.19049580510647E-02 
1288	 4.09198483844716E-02 
1289	 4.04451073581028E-02 
1290	 3.93490069234293E-02 
1291	 3.69044482722929E-02 
1292	 3.72417318321437E-02 
1293	 3.76665799174045E-02 
1294	 3.84302712439265E-02 
1295	 3.88083910160308E-02 
1296	 3.88928733933375E-02 
1297	 3.95941423098852E-02 
1298	 3.91504986522267E-02 
1299	 3.89034655204571E-02 
1300	 3.89807873341186E-02 
1301	 0.038429799799525 
1302	 3.85899790410742E-02 
1303	 4.07091077593781E-02 
1304	 4.12752718592798E-02 
1305	 3.93911190764261E-02 
1306	 3.96779463983971E-02 
1307	 4.09623874528779E-02 
1308	 4.02906924249794E-02 
1309	 3.88783326096058E-02 
1310	 4.10414108289053E-02 
1311	 4.49344065030467E-02 
1312	 4.45366610337975E-02 
1313	 4.32149821309636E-02 
1314	 4.45955068867623E-02 
1315	 4.46603342190829E-02 
1316	 4.33757794093452E-02 
1317	 4.57360001643953E-02 
1318	 4.71115617311499E-02 
1319	 4.27741718468188E-02 
1320	 4.07924945861999E-02 
1321	 0.043437946783371 
1322	 4.37562415512985E-02 
1323	 3.78362238787873E-02 
1324	 3.52505662967788E-02 
1325	 4.09992729579872E-02 
1326	 4.44833381935503E-02 
1327	 4.71057750259982E-02 
1328	 4.64956051308886E-02 
1329	 4.19206020693547E-02 
1330	 4.17747842229108E-02 
1331	 3.89318328761975E-02 
1332	 4.32735368765968E-02 
1333	 5.76136181452181E-02 
1334	 5.59664379037289E-02 
1335	 5.67876783948475E-02 
1336	 7.05543588270432E-02 
1337	 7.52721708858709E-02 
1338	 6.22823164978603E-02 
1339	 5.30216706843571E-02 
1340	 4.33145036650869E-02 
1341	 4.29793230107549E-02 
1342	 4.28423001895892E-02 
1343	 3.93652419944537E-02 
1344	 5.15137006975812E-02 
1345	 0.059261083209285 
1346	 5.78999477684137E-02 
1347	 0.048361292178759 
1348	 0.018783566727286 
1349	 2.65197279590989E-02 
1350	 0.037475172644769 
1351	 0.033247807076853 
1352	 0.236585021900797 
1353	 0.473880460758233 
1354	 0.53948219087134 
1355	 0.542709958404019 
1356	 0.268837255588158 
1357	 4.35249895755625E-02 
1358	 0.870961364698017 
1359	 1.64844803713393 
1360	 0.27023805434122 
1361	-0.510683180519927 
1362	 2.03415955622026 
1363	 0.384792133202564 
1364	 0.382264067609698 
1365	 1.28607179537476 
1366	 1.3620565756123 
1367	 0.476661986827544 
1368	 0.158426951947377 
1369	 0.926231446454797 
1370	 0.801439737764718 
1371	-0.290453622585372 
1372	-1.22524732225427 
1373	 0.160293008015858 
1374	 0.230756163256274 
1375	 0.439268265999682 
1376	-0.59335199554251 
1377	 0.123929584199571 
1378	 0.302619403136295 
1379	 1.0495568873198 
1380	 1.23315876052312 
1381	 0.465009910076664 
1382	 1.85677024930208 
1383	-6.05203651118589 
1384	-17.284773374716 
1385	-2.75147217231623 
1386	-0.859885604563358 
1387	 5.45837835007496 
1388	-1.4547490927978 
1389	-8.15918686119907E-02 
1390	 0.180620075950597 
1391	 2683.46258291648 
1392	-3.10000267963723 
1393	-28.571283265118 
1394	-2.97935294416464 
1395	-0.65317869450564 
1396	 3.36909887786855 
1397	 0.619060194120171 
1398	-1.64443393488036 
1399	-2.19221494400064 
1400	 1.21713354694021 
1401	 0.957608085997895 
1402	 0.306514435773271 
1403	 0.569317058049666 
1404	 0.817464187458081 
1405	 0.740896324189452 
1406	-8.68444377709212E-02 
1407	-5.05200020493562E-02 
1408	 0.269809335804199 
1409	-0.404468886549925 
1410	 1.88686248027621E-02 
1411	-0.184171905308102 
1412	-5.57073045558428 
1413	 335.294989725687 
1414	 6.36280076853977 
1415	-12.1919423709428 
1416	 0.341921175407023 
1417	 0.68366536902908 
1418	 1.51985758161084 
1419	 1.30957582761342 
1420	-0.577637262560202 
1421	-0.938117841187334 
1422	 2.27311035078823 
1423	 0.967195860622659 
1424	 0.123919446601529 
1425	-2.35446334743006E-02 
1426	-1.13701509929899 
1427	-1.32596393373679 
1428	-1.92504771009143 
1429	 2.9140515171083 
1430	-0.245202363449238 
1431	 0.556018999342411 
1432	-0.75656413477826 
1433	-1.08402693581088 
1434	 0.893468001316846 
1435	 0.65750174000744 
1436	 0.503205248187683 
1437	 0.208124295421678 
1438	 0.185158524290759 
1439	 9.27170569415605E-03 
1440	 0.526413669934351 
1441	 140.702552822612 
1442	 1.47325602450958 
1443	 1.97559936838949 
1444	 2.64671405754362 
1445	 1.3319980084343 
1446	 1.22161090320705 
1447	 0.549299708958157 
1448	 0.350822259090249 
1449	 0.632990064158277 
1450	 0.519081886078601 
1451	 0.826919302488358 
1452	 0.877159168005338 
1453	 0.26517295518975 
1454	 0.22015430295919 
1455	 0.887498164984793 
1456	 1.11888246010112 
1457	 0.435420246807792 
1458	 0.450333123872403 
1459	 0.512259910738957 
1460	 0.451262962374332 
1461	 0.526189034280835 
1462	 0.518254363277926 
1463	 0.210405121389841 
1464	 0.124737231770951 
1465	 0.300549748946011 
1466	 0.138302081081871 
1467	-0.34252112615208 
1468	-0.377169892437139 
1469	-0.486455242254712 
1470	-0.456073736392447 
1471	-0.20054355694853 
1472	 0.153728087400785 
1473	 1.12181658801428 
1474	 1.17638835133568 
1475	 0.612782433128402 
1476	 0.530599379628904 
1477	 0.265887874883147 
1478	 0.166792236966458 
1479	 0.300957226876005 
1480	 0.31269268929237 
1481	 0.378129143238396 
1482	 0.323327404827157 
1483	 0.142136200515263 
1484	 0.117558404033251 
1485	 0.11224368982608 
1486	 0.105304681591044 
1487	 0.213026830109165 
1488	 0.197831564580971 
1489	 0.12037828272357 
1490	 7.64051179173112E-02 
1491	-2.32195243430916E-02 
1492	-3.01560500488803E-02 
1493	 2.61030975640315E-02 
1494	 3.50282506667188E-02 
1495	 2.27216058092907E-02 
1496	 0.053692445153631 
1497	 0.126592020970707 
1498	 0.122298778767101 
1499	 9.59319631205964E-02 
1500	 0.104430828417798 
1501	 7.88934181100802E-02 
1502	 6.06863427262592E-02 
1503	 8.97967188988399E-02 
1504	 9.80648343287497E-02 
1505	 8.14193906527871E-02 
1506	 6.36796527274375E-02 
1507	 8.25035682070701E-02 
1508	 7.21514018354596E-02 
1509	 3.34501083033811E-02 
1510	 4.21230651743805E-02 
1511	 6.19448370705166E-02 
1512	 5.99512473160901E-02 
1513	 0.082637604800605 
1514	 0.103537504710155 
1515	 8.84799831937919E-02 
1516	 7.08976134087024E-02 
1517	 5.65169791555249E-02 
1518	 4.02278010662167E-02 
1519	 0.032940827683837 
1520	 4.10970561805784E-02 
1521	 4.69312676822087E-02 
1522	 0.051830623529528 
1523	 0.058104245379878 
1524	 5.13712664857998E-02 
1525	 4.95965934809952E-02 
1526	 4.81676622561841E-02 
1527	 4.76952831702977E-02 
1528	 5.20794281414287E-02 
1529	 5.48046589170534E-02 
1530	 6.20229108562503E-02 
1531	 6.71454700945818E-02 
1532	 6.95099905058917E-02 
1533	 6.99520753449118E-02 
1534	 6.65499705756231E-02 
1535	 5.72365131601997E-02 
1536	 5.01287743760558E-02 
1537	 0.051590107314648 
1538	 5.02808039473644E-02 
1539	 4.50007776564022E-02 
1540	 4.95189725033502E-02 
1541	 5.65761282393381E-02 
1542	 5.55057145763828E-02 
1543	 5.54395729257556E-02 
1544	 5.59790081778465E-02 
1545	 5.58986162176794E-02 
1546	 5.31968130902191E-02 
1547	 4.76848809190226E-02 
1548	 4.49543684404213E-02 
1549	 4.05375966735691E-02 
1550	 3.74929611379191E-02 
1551	 4.21536687980918E-02 
1552	 0.045127223190121 
1553	 0.042171101278141 
1554	 4.61085986435038E-02 
1555	 5.36475695298894E-02 
1556	 5.61607718226071E-02 
1557	 0.062414560040279 
1558	 6.11189336826616E-02 
1559	 5.00550954995673E-02 
1560	 4.88836957515705E-02 
1561	 4.83400547028181E-02 
1562	 4.52288555803098E-02 
1563	 5.19979559309805E-02 
1564	 5.53449291241803E-02 
1565	 5.31008620793565E-02 
1566	 5.42053089142601E-02 
1567	 4.65229242710522E-02 
1568	 4.20145987498337E-02 
1569	 4.78434069789971E-02 
1570	 4.23379493932155E-02 
1571	 4.28551146947685E-02 
1572	 5.18570503550163E-02 
1573	 3.81621402665874E-02 
1574	 0.031704174495016 
1575	 4.88101756770369E-02 
1576	 5.14210420249277E-02 
1577	 4.46225486946281E-02 
1578	 4.94650932618901E-02 
1579	 5.17956253613216E-02 
1580	 4.38346014408105E-02 
1581	 4.02537094282428E-02 
1582	 4.51032608836574E-02 
1583	 5.30978991412148E-02 
1584	 0.05319615857802 
1585	 4.68124671913246E-02 
1586	 0.04681112077755 
1587	 4.34988774483987E-02 
1588	 4.17262666110945E-02 
1589	 5.03056748899785E-02 
1590	 5.48130037128217E-02 
1591	 0.049871737337125 
1592	 0.043696197990604 
1593	 4.19380065937437E-02 
1594	 4.63563777761343E-02 
1595	 5.13397980151587E-02 
1596	 4.90046855489756E-02 
1597	 4.81535531403734E-02 
1598	 4.90176870259017E-02 
1599	 4.63263933869202E-02 
1600	 4.51197177681771E-02 
1601	 4.47195123553757E-02 
1602	 4.69030325851268E-02 
1603	 4.82625278425965E-02 
1604	 4.47257802371881E-02 
1605	 4.44697886646538E-02 
1606	 5.05078104375872E-02 
1607	 5.38955470229813E-02 
1608	 5.02207453056314E-02 
1609	 4.99499041973876E-02 
1610	 5.27736913003267E-02 
1611	 4.99392050864328E-02 
1612	 4.92127306325171E-02 
1613	 0.056160042806279 
1614	 5.28006583571786E-02 
1615	 4.14969763103637E-02 
1616	 4.24162446647925E-02 
1617	 4.41359125096548E-02 
1618	 0.039997558112062 
1619	 4.20527184196258E-02 
1620	 5.03421798968925E-02 
1621	 4.96348801645395E-02 
1622	 4.37412976404201E-02 
1623	 4.92936200456969E-02 
1624	 5.26519854361497E-02 
1625	 4.85002596008724E-02 
1626	 4.90151618009899E-02 
1627	 5.08370118591792E-02 
1628	 5.02685954930482E-02 
1629	 5.20537061726702E-02 
1630	 5.74183699288448E-02 
1631	 5.29919225282374E-02 
1632	 4.56540319631091E-02 
1633	 4.83434348476119E-02 
1634	 4.68276154559664E-02 
1635	 4.72238702368184E-02 
1636	 0.054454429487884 
1637	 5.48488222147527E-02 
1638	 5.42773246070976E-02 
1639	 5.51796326702962E-02 
1640	 5.07500572196267E-02 
1641	 4.60320575021209E-02 
1642	 4.45372337088506E-02 
1643	 4.40010274414303E-02 
1644	 4.43038838818947E-02 
1645	 4.39247080669536E-02 
1646	 4.57535820788845E-02 
1647	 4.81315302598046E-02 
1648	 4.64288026303221E-02 
1649	 4.59689344595283E-02 
1650	 4.39895296549736E-02 
1651	 4.03732332809702E-02 
1652	 4.25340026267932E-02 
1653	 4.33800329968902E-02 
1654	 0.043459772910139 
1655	 4.09295783377638E-02 
1656	 4.10851117206099E-02 
1657	 4.56395019202469E-02 
1658	 4.81185730523451E-02 
1659	 4.91114793332557E-02 
1660	 4.89199084512816E-02 
1661	 5.02249113198627E-02 
1662	 4.78433027040093E-02 
1663	 3.85505706649029E-02 
1664	 0.038939242096009 
1665	 4.26418497877581E-02 
1666	 4.35253053679122E-02 
1667	 5.15684098837236E-02 
1668	 4.62606800273709E-02 
1669	 3.94978021240172E-02 
1670	 4.17318569064122E-02 
1671	 4.78500977044053E-02 
1672	 5.44526426019882E-02 
1673	 5.55342576603641E-02 
1674	 4.54343808855454E-02 
1675	 4.00112913174571E-02 
1676	 4.05857090405252E-02 
1677	 4.26507962508228E-02 
1678	 4.58512534322303E-02 
1679	 4.63647999906307E-02 
1680	 4.82011992434007E-02 
1681	 4.47585119853749E-02 
1682	 4.04988092568566E-02 
1683	 4.28851495540528E-02 
1684	 4.18508252961685E-02 
1685	 4.26098529177172E-02 
1686	 4.73196548359094E-02 
1687	 5.03531357159883E-02 
1688	 5.44085466777292E-02 
1689	 5.18410940571103E-02 
1690	 4.44113627577259E-02 
1691	 4.36465553628806E-02 
1692	 4.28145293494937E-02 
1693	 4.07788334005535E-02 
1694	 4.81350911234244E-02 
1695	 5.31607391278296E-02 
1696	 4.49384072948748E-02 
1697	 0.039883576867371 
1698	 3.77000250127461E-02 
1699	 3.32372145569567E-02 
1700	 3.67329552816816E-02 
1701	 4.35476970912408E-02 
1702	 4.77340853872096E-02 
1703	 4.87530723508263E-02 
1704	 4.32933469302706E-02 
1705	 0.039829728579915 
1706	 4.67365989466982E-02 
1707	 0.05040757428691 
1708	 0.046437035518721 
1709	 4.80430532127129E-02 
1710	 5.09725263151856E-02 
1711	 4.42662323927889E-02 
1712	 4.18407530916056E-02 
1713	 4.53184367793038E-02 
1714	 4.11012627803584E-02 
1715	 3.72671217803322E-02 
1716	 4.18326667158039E-02 
1717	 3.74941685435462E-02 
1718	 4.43584641392567E-02 
1719	 0.049534545024992 
1720	 4.49657544903288E-02 
1721	 4.64320625600178E-02 
1722	 0.04791849320312 
1723	 4.90432785685662E-02 
1724	 5.28907802644795E-02 
1725	 5.57321587170164E-02 
1726	 4.73809409302279E-02 
1727	 3.78424522613058E-02 
1728	 4.45919697995204E-02 
1729	 4.83157992756119E-02 
1730	 4.88842340124564E-02 
1731	 6.37149701202015E-02 
1732	 6.62524132072018E-02 
1733	 4.80912601484293E-02 
1734	 4.52532139952294E-02 
1735	 4.69970967662136E-02 
1736	 4.20843511652245E-02 
1737	 5.37037665861804E-02 
1738	 5.61354130099017E-02 
1739	 4.16214591227984E-02 
1740	 3.33643238503241E-02 
1741	 0.033288629102797 
1742	 5.76309540727871E-02 
1743	 7.56413992098927E-02 
1744	 6.80011432918067E-02 
1745	 6.25751645747056E-02 
1746	 4.28111360270401E-02 
1747	 3.66906914582709E-02 
1748	 5.43561915815371E-02 
1749	 5.25381591718214E-02 
1750	 3.40691119573552E-02 
1751	 3.17030820922102E-02 
1752	 0.035561171906895 
1753	 3.12064652889611E-02 
1754	 2.88422127216571E-02 
1755	 3.21004471009103E-02 
1756	 3.10730655869849E-02 
1757	 4.06257835155544E-02 
1758	 5.09022555701387E-02 
1759	 3.13891317089953E-02 
1760	 1.62722531242896E-02 
1761	 3.04986741179374E-02 
1762	 3.52282892964113E-02 
1763	 4.11632743469546E-02 
1764	 5.79443876063648E-02 
1765	 2.98455842286896E-02 
1766	-1.52585218605811E-02 
1767	 3.3215211634138E-03 
1768	 2.37798903977781E-02 
1769	 0.022546012056587 
1770	 6.75903170080975E-02 
1771	 7.58930060125907E-02 
1772	 4.08454492516268E-02 
1773	 6.53855359956822E-02 
1774	 6.04165530031721E-02 
1775	 1.42355244937062E-02 
1776	-4.53040050203995E-03 
1777	-5.83211283141229E-02 
1778	-5.53687066432826E-02 
1779	 3.62846041761945E-02 
1780	 4.45203651291858E-02 
1781	 0.041758210312899 
1782	 6.16952126187931E-02 
1783	 4.31195133761988E-02 
1784	 5.35382222799118E-02 
1785	 0.12490140033778 
1786	 0.121477684664465 
1787	 5.04563951249654E-02 
1788	 4.34507912774661E-02 
1789	 5.15945827707722E-02 
1790	 8.92268952882543E-02 
1791	 5.14660693846381E-02 
1792	-0.102824636100122 
1793	-0.165364898361905 
1794	-0.14422956231899 
1795	-0.141195493640715 
1796	 1.86759967829188E-02 
1797	 0.187688528528287 
1798	 0.303703652012134 
1799	 0.571515621503431 
1800	-9.26879165686402E-02 
1801	-7.15207541105015E-02 
1802	 0.425980723273095 
1803	 0.569103266961597 
1804	 1.41976632854522 
1805	 1.50284163715879 
1806	-3.03469617011109 
1807	-4.04726878845412 
1808	 0.27199704411747 
1809	 0.146214808098635 
1810	 0.162181174538771 
1811	 0.592111514431617 
1812	 0.792988107181655 
1813	 1.13123947772027 
1814	 3.65006695780883 
1815	 9.17013644923595 
1816	 2.05772593531121 
1817	 1.99488603274495 
1818	 1.30985580188538 
1819	-23.3460301409139 
1820	 1.34430291569678 
1821	 2.17426390725184 
1822	 1.98365634382405 
1823	 6.13581747362216 
1824	-0.290695106944986 
1825	-0.694356478110652 
1826	-0.492821283299252 
1827	-0.301796316481753 
1828	-0.163947868383861 
1829	-12.2560064957573 
1830	-3.19006692080667 
1831	-2.41992967022442 
1832	-1.83478635738626 
1833	-0.55124429417901 
1834	-0.357670939003261 
1835	-0.470731673243542 
1836	-5.90981516685437 
1837	 1.29108821485617 
1838	 1.36687483338827 
1839	 1.14136887664064 
1840	 1.76022125875987 
1841	-1.926953901076 
1842	-0.348607424502361 
1843	-6.22852646161252E-02 
1844	 0.263306768384054 
1845	 0.364123846740215 
1846	 0.43176532871837 
1847	 0.407735227241278 
1848	 0.337724373318738 
1849	 0.149238513718873 
1850	-0.446886623738148 
1851	-0.694274076679946 
1852	-0.736155513409125 
1853	-1.02771433747719 
1854	-1.22395758628348 
1855	-0.632443051162389 
1856	-1.31205124599254 
1857	-0.958733567093189 
1858	-1.16276012562178 
1859	 4.65201065446491 
1860	 0.374610477815019 
1861	-4.0530524935964 
1862	 1.42074140865796 
1863	 2.39354750552201E-02 
1864	 0.175074795000828 
1865	 0.291307843786755 
1866	 1.31997652870286 
1867	-5.34523770367324 
1868	-4.0798547793771 
1869	-4.28334182698823 
1870	 1194.98533312336 
1871	 2.54936735951331 
1872	-0.54190340805622 
1873	-0.22776851283696 
1874	 0.743141309683882 
1875	 1.73537990971125 
1876	 1.66887383570397 
1877	 1.03904733885422 
1878	 0.865658755873742 
1879	-1.41119151203464E-02 
1880	-0.698887012154781 
1881	-3.57593016678905 
1882	 11.0857383376628 
1883	-3.1894477164359 
1884	-1.39889330634611 
1885	-0.925068226289477 
1886	-0.970619264161481 
1887	-0.955767573857015 
1888	-0.504245066912848 
1889	-0.405707471168 
1890	-0.154393374268951 
1891	-0.190378003545895 
1892	-0.527943393335133 
1893	-0.466034031504941 
1894	-0.477603221458066 
1895	-0.488008959424815 
1896	 0.719504685942755 
1897	 1.62844257601184 
1898	 4.00628779283118 
1899	 3.04566075060126 
1900	 3.5627571622966 
1901	-1.40124589282405 
1902	 0.33625086087089 
1903	 4.5596346255496 
1904	 8.8484168922165 
1905	-4.85479783574177 
1906	-1.40313911879137 
1907	-1.08374408668763 
1908	-0.877807051643883 
1909	-0.359537311538666 
1910	-0.293218019126173 
1911	-0.457421007478456 
1912	-0.109123646723381 
1913	 1.23778342963388E-02 
1914	 1.34208995597323E-02 
1915	 7.7140646894814E-03 
1916	 0.106909718642902 
1917	 0.316422597104607 
1918	 0.129057421961658 
1919	 0.328040902924337 
1920	 0.726964749702988 
1921	 1.31825003828521 
1922	 4.45782907379259 
1923	-3.5200261610041 
1924	 16.5403923247611 
1925	-4.36146656152212 
1926	-12.8478447349231 
1927	-6.15122328946321 
1928	 1.86876654337726 
1929	 0.661904270965504 
1930	-0.504915814881316 
1931	-2.0819321405968 
1932	 3.20761343604342 
1933	 2.84101488957803 
1934	 1.36839640477477 
1935	 1.21384421611552 
1936	 1.33867153646027 
1937	 1.91567362188295 
1938	 3.14302911660104 
1939	 3.10736116805301 
1940	 2.96336356962133 
1941	 3.88422709769258 
1942	 0.542907664280093 
1943	 5.79726131722002E-02 
1944	 1.70243665240574 
1945	 0.761181092107918 
1946	 0.536888324204397 
1947	 0.791039670316881 
1948	 0.43946531756206 
1949	 0.976050167900217 
1950	 3.08896037302238 
1951	 4.68830642392468 
1952	 4.80105652969544 
1953	 1.58211053610495 
1954	-0.360106576546106 
1955	-2.39837806404913 
1956	-37.0967278510622 
1957	 23.7252328233805 
1958	 1.8375517536775 
1959	 0.830465719756938 
1960	 0.683997885882039 
1961	 0.192758136365337 
1962	-0.182605118863297 
1963	-0.493791352927799 
1964	-2.20596643761306 
1965	-5.09603932694307 
1966	-13.1733182550125 
1967	-5.39722265357552 
1968	 6.08334840348324 
1969	-0.368251378001119 
1970	-1.0856016561331 
1971	-0.643244653846818 
1972	-0.55549699031337 
1973	-1.00059579247554 
1974	-0.426830562208465 
1975	 2.18986857260036 
1976	-0.246044960561498 
1977	-1.50876202507061 
1978	 0.447949331231602 
1979	 0.740990673300805 
1980	 1.32734505668896 
1981	 1.45228951552223 
1982	 0.977034553857717 
1983	-52.850536416091 
1984	 1.32768873141209 
1985	 4.57623086826242 
1986	 4.70870496972391 
1987	 2.27116896426647 
1988	 2.13449229383669 
1989	 1.08292111288656 
1990	 0.882916102429159 
1991	 1.45782935388427 
1992	 1.07117794729227 
1993	 1.04956453416955 
1994	 1.24796666956749 
1995	 45.890881739782 
1996	 4.49838793553639E-03 
1997	 1.13077103550142 
1998	-1.61540652304165E-02 
1999	 1.14267871685712 
2000	 0.32591038498935 
2001	 9.53559987449648E-02 
2002	-2.82947900490402 
2003	-0.905441639723797 
2004	-0.660581522702203 
2005	-0.250127410259803 
2006	-0.177169706640681 
2007	-1.50698583883624E-02 
2008	 0.310175180097283 
2009	 0.415306279689031 
2010	 0.335027155980982 
2011	 0.475528187434873 
2012	 1.47645628045883 
2013	 0.315998476131817 
2014	-0.70724546853035 
2015	-0.614764999267079 
2016	 2.16440530196647 
2017	 5.75200826231164 
2018	 1.75770607657504 
2019	 1.35287627438119 
2020	 1.04577051872302 
2021	-4.06822828394533E-02 
2022	-1.29018384865671 
2023	-1.68567405090563 
2024	-1.90238336145868 
2025	-2.45213703918462 
2026	-2.4020582789969 
2027	-1.22918796306027 
2028	-9.11112302435487E-02 
2029	 0.13884059340891 
2030	 0.284027472267932 
2031	 6.14259520400144E-03 
2032	-0.594109753804219 
2033	-0.448323784926148 
2034	-0.137721032792699 
2035	-0.378250663017684 
2036	-0.626111398496639 
2037	-0.884418538177389 
2038	-1.18656835925987 
2039	-1.15948595561511 
2040	-0.537507972121409 
2041	-0.549000471990905 
2042	-0.861271919174308 
2043	-1.12164155498552 
2044	-2.01825390714358 
2045	-5.14089604249982 
2046	 10.9619202954846 
2047	-10.9632176455827 
2048	-0.693105358879195 
2049	-5.47157715913739E-02 
2050	-0.153826220108619 
2051	-0.200519978895235 
2052	-0.349624509978607 
2053	-0.525064723218254 
2054	-0.683860571768413 
2055	-0.875791377136473 
2056	-0.893713665119517 
2057	-0.77634570259693 
2058	-0.697659183106335 
2059	-0.238581632901941 
2060	 0.203143644679972 
2061	 0.312206113711952 
2062	 0.145044161450902 
2063	 0.396728847918592 
2064	 0.576052861880793 
2065	 1.08232309541664 
2066	 12.1986836187707 
2067	 3.28907744949709 
2068	 0.238346259185899 
2069	-5.91529373488578E-03 
2070	-0.304511671973653 
2071	-0.346563528510331 
2072	-0.137018162255 
2073	-0.186935289203264 
2074	-0.471345585473882 
2075	-0.535708493824244 
2076	-0.605140453721603 
2077	-0.594118442171076 
2078	-0.293197464819376 
2079	-0.266528145257355 
2080	-0.234366599174003 
2081	-0.546589280988841 
2082	-0.948822702702163 
2083	-1.06917711875726 
2084	-0.810019190634571 
2085	-0.47843292227094 
2086	-0.452136317745552 
2087	-0.617403603650761 
2088	-0.890346738146631 
2089	-1.69215002448454 
2090	-2.45795895051113 
2091	-2.16790300716545 
2092	-1.38768555017851 
2093	-0.378197030496794 
2094	-0.458012090883525 
2095	-1.02390974500912 
2096	-0.98031571611025 
2097	-0.960339332932125 
2098	-0.903480415049991 
2099	-0.574593624794544 
2100	-0.293541644054329 
2101	-0.279323470671507 
2102	-0.455905754179865 
2103	-0.259607124857334 
2104	-0.100843699975027 
2105	-4.46748404929377E-02 
2106	 7.24828782803605E-02 
2107	-2.35334553361132E-02 
2108	-0.220791307870204 
2109	-0.336676257745261 
2110	-0.339943069725791 
2111	-0.29702249478297 
2112	-0.218416399858327 
2113	-0.186331881001884 
2114	-0.107740369886726 
2115	-2.93364500989024E-02 
2116	-8.68210658560905E-02 
2117	-0.119364483959115 
2118	-0.114209022458583 
2119	-0.134514983246009 
2120	-0.22104808615862 
2121	-0.215445312247105 
2122	-0.218487485046634 
2123	-0.118882687477989 
2124	-0.113374144473695 
2125	-0.360981575912469 
2126	-0.33274774921757 
2127	-0.447022452599074 
2128	-0.720434298222324 
2129	-0.402008048000002 
2130	-0.307834486632165 
2131	-0.368801290768641 
2132	-0.423874617820367 
2133	-0.433024639555812 
2134	-0.316664552492453 
2135	-7.76954968805135E-02 
2136	-0.061427024200235 
2137	 9.15437029491542E-04 
2138	-6.56674491213916E-02 
2139	-0.426251874080394 
2140	-0.490890978546808 
2141	-0.422513149994337 
2142	-0.386464530270024 
2143	-0.218835500001809 
2144	-0.168367158150197 
2145	-0.342840164437545 
2146	-0.422318978369821 
2147	-0.441877403272478 
2148	-0.390887826713475 
2149	-0.234396003893414 
2150	-0.106048792400756 
2151	-0.077888041014501 
2152	-0.253275289451564 
2153	-0.31180144256207 
2154	-0.287754727851535 
2155	-0.359898071855495 
2156	-0.383059484167312 
2157	-0.394526807954936 
2158	-0.438310550819404 
2159	-0.416713836564653 
2160	-0.317054280031315 
2161	-0.283111753563077 
2162	-0.249843575862286 
2163	-0.236082381668383 
2164	-0.298935964488357 
2165	-0.237375079239582 
2166	-5.11308522089008E-02 
2167	 1.30375673405002E-02 
2168	 7.92908589689496E-02 
2169	 0.145635237053392 
2170	 0.152690293614023 
2171	 0.101056264253142 
2172	-3.01509545170561E-02 
2173	 8.88644854502757E-02 
2174	 0.15385177394584 
2175	 0.193530678452017 
2176	 0.363074928412618 
2177	 0.488183745516438 
2178	 0.420748463124276 
2179	 7.70150053002942E-02 
2180	-1.30315189035828E-02 
2181	-0.324392097488877 
2182	-0.429299986656298 
2183	-0.207817574558371 
2184	-0.239516492894565 
2185	-2.20456756502814E-02 
2186	 5.53078209825094E-02 
2187	 4.51098713726646E-02 
2188	 8.07639537037037E-02 
2189	 4.69779021731792E-02 
2190	 6.68682654905654E-02 
2191	 0.132465804893094 
2192	 0.205379216284137 
2193	 0.338645238017191 
2194	 0.371906950191993 
2195	 0.397171422953779 
2196	 0.36947298371646 
2197	 0.214059937411207 
2198	 0.113013245631855 
2199	-1.54218321937776E-02 
2200	-3.86933583806833E-02 
2201	-9.83236213911245E-02 
2202	-0.269620230729782 
2203	-0.310053003624949 
2204	-0.069957638937553 
2205	-2.53252623681052E-02 
2206	 7.33886745541104E-02 
2207	 0.357341680776615 
2208	 0.175213271822689 
2209	-0.110818016110764 
2210	-0.35052154436189 
2211	-0.513831661456605 
2212	-0.765740790345247 
2213	-0.863324747342985 
2214	-0.569572526232974 
2215	-0.506668831384896 
2216	-0.382992868260095 
2217	-0.335782405157615 
2218	-0.329860667948598 
2219	-0.350134321558047 
2220	-0.371707771775046 
2221	-0.544192235029374 
2222	-1.12734754249499 
2223	-1.38294510778618 
2224	-1.68845828697577 
2225	-1.50540950594657 
2226	-1.0658562958757 
2227	-0.647663490886909 
2228	-3.35954330674752E-02 
2229	 3.08086281424266E-02 
2230	 7.73811415214947E-02 
2231	 0.164425872722929 
2232	-0.257771358721011 
2233	-0.681205766740148 
2234	-0.784141581470498 
2235	-0.350218137425642 
2236	-0.25627917656521 
2237	-0.272181998481281 
2238	-0.06932044245381 
2239	 0.335966210723143 
2240	 0.374879263725807 
2241	 0.255685952179888 
2242	 0.125062524530761 
2243	-0.110572153536064 
2244	-0.21541131201825 
2245	-0.353586792140037 
2246	-0.546218162731455 
2247	-0.50594571035808 
2248	-0.364842465431149 
2249	-0.15780776332171 
2250	 3.67328709877413E-02 
2251	 0.312961046244128 
2252	 0.684073747716999 
2253	 0.96041307483258 
2254	 1.10620971499195 
2255	 0.72995592174754 
2256	-1.19869174095585E-02 
2257	-0.373183548477986 
2258	-0.345702312908479 
2259	-0.388021317402438 
2260	-0.386502889086481 
2261	-0.292974141948522 
2262	-0.186820669027068 
2263	 0.10597404288427 
2264	 0.254607171740802 
2265	 2.83325072336247E-02 
2266	 0.793648562734691 
2267	 2.20384798587855 
2268	 1.95224577814546 
2269	 1.96120416506274 
2270	 0.903503059776802 
2271	-0.12896824003774 
2272	-0.13450653031745 
2273	 0.277637947560082 
2274	 0.279581359736912 
2275	 0.411124544729361 
2276	 0.41151099859846 
2277	-0.209131214971415 
2278	-0.163674738500681 
2279	 0.386429098082041 
2280	 0.702135693111684 
2281	 1.50554673712425 
2282	 2.24344982022221 
2283	 0.76261875621239 
2284	 0.207785372365214 
2285	 0.205304713529683 
2286	 0.865416803551167 
2287	-5.44845433755065 
2288	-0.981521282659354 
2289	-0.851691279725133 
2290	 0.114924419912156 
2291	-1.59197578619009 
2292	-0.689492519271099 
2293	-2.09498133930122 
2294	-1.78797038579961 
2295	-4.58248902964697 
2296	-9.95138192028053 
2297	-0.994612871302094 
2298	-0.9361624050432 
2299	 0.1774685040222 
2300	 2.51739370534288E-02 
2301	 0.168112865653089 
2302	-0.453967565319449 
2303	 0.448696928725272 
2304	-1.26188161147763E-02 
2305	 3.21307745472647E-03 
2306	 0.250054104673683 
2307	 0.537485936329412 
2308	-21.647392143866 
2309	 6.72938048228211 
2310	-4.57058912027387 
2311	 5.30057369956175 
2312	 5.72245287055257 
2313	 6.66508570781616 
2314	 15.2082094188801 
2315	 118.90503885516 
2316	-41.938051628865 
2317	-13.9441989821362 
2318	-7.78651456081951 
2319	-24.5799171032661 
2320	 28.1407094126513 
2321	 105.971212640665 
2322	 4.79746461592627 
2323	 2.4367645671391 
2324	-43.3558269063392 
2325	-3.72483825508398 
2326	-1.81509337898688 
2327	-1.25037559253403 
2328	-0.710193267731013 
2329	-0.173786577741689 
2330	-0.479826623954337 
2331	-0.803649644165692 
2332	-2.01496133968308 
2333	-4.38600840020572 
2334	-3.52132646177297 
2335	-2.11890068105566 
2336	-1.70085074760588 
2337	-1.15951357769865 
2338	-1.00735434735634 
2339	 0.20984178909034 
2340	 2.84666849617265 
2341	 1.51795551546593 
2342	 7.942459845728 
2343	-0.6797248313202 
2344	 2.52625139649617 
2345	 0.983573847809174 
2346	 1.41401543393819 
2347	 1.18192726313531 
2348	 0.174951150906984 
2349	 0.109637818770559 
2350	 0.30099595969532 
2351	 6.99029872180752E-02 
2352	 0.273235413135228 
2353	 0.70873632439714 
2354	 0.312000627205649 
2355	 769.948123845519 
2356	-2.1351447067846 
2357	 20.6606914379065 
2358	 1.56090213473934 
2359	 0.54257513416049 
2360	 0.371049588082135 
2361	 0.251991156312155 
2362	 2.84269132323577 
2363	-16.3782529123927 
2364	 3.48413387736142 
2365	 2.37802867312152 
2366	 1.25570336164654 
2367	 0.856419822383453 
2368	 0.533154726428429 
2369	 0.137198708771074 
2370	-0.189943090386054 
2371	-1.47288464999231 
2372	-2.7841404556759 
2373	-7.37605867517226 
2374	-0.796108772751229 
2375	 0.144672067107078 
2376	 2.63640254428825 
2377	 2.93784826894462 
2378	 1.3130390366008 
2379	 0.524293747548666 
2380	-0.239968583005482 
2381	-0.648396078341602 
2382	-0.338138365614971 
2383	-0.303988639404427 
2384	-0.138925101976063 
2385	 0.412891272293295 
2386	 0.815826491271208 
2387	 0.679336920241411 
2388	 1.18553521477967 
2389	-3.60945462162109 
2390	-1.59482826522219 
2391	-0.979814344638986 
2392	 0.067249981888376 
2393	 0.924740164204557 
2394	 2.22029516529704 
2395	-3.87270632557468 
2396	-1.18104741933487 
2397	-0.529240181598507 
2398	-0.436317129714768 
2399	-0.277634982196791 
2400	 1.40456380877582E-03 
2401	 0.10405983472292 
2402	-1.25988523488799E-02 
2403	 0.214990266786928 
2404	 0.603583299562669 
2405	 0.666901653515779 
2406	 1.08821505082812 
2407	 1.37205085259997 
2408	 1.91787743526037 
2409	 3.72293536819132 
2410	 2.66289717619903 
2411	 1.33409670795001 
2412	 0.312934372904781 
2413	-5.41658400561496E-02 
2414	 2.99091573346095E-02 
2415	 0.194301316925085 
2416	 0.311874306041373 
2417	 0.386236114996895 
2418	 0.748546397736617 
2419	 1.66866623333971 
2420	 0.69248061978502 
2421	 0.732485338598857 
2422	 1.11431944477537 
2423	 0.902569550422642 
2424	 3.67867689323229 
2425	-2.95817956466281 
2426	-0.850378997602376 
2427	-7.11649096066953 
2428	-1.39602933594499 
2429	-0.80460660081797 
2430	-1.13967328076324 
2431	-0.98926757157085 
2432	-1.87763617344708 
2433	 4.25476347864906 
2434	-3.25465311797201 
2435	-2.71864279831159 
2436	-2.07137755368866 
2437	-2.11789473549725 
2438	 0.299882598927523 
2439	-2.86258742005174E-03 
2440	 0.434217115789007 
2441	 0.897449995792419 
2442	 0.940701426404984 
2443	 1.14356387235706 
2444	 1.76127319787852 
2445	 2.6283598802969 
2446	 5.27584030035251 
2447	 6.04855168936319 
2448	 20.3731162727622 
2449	-39.4329720632299 
2450	 17.3304457652787 
2451	 5.2638159008764 
2452	 1.38405710832506 
2453	 1.28276624012498 
2454	 1.96599818595762 
2455	 16.8944819690258 
2456	-6.64727852128139 
2457	-2.77285599962882 
2458	-1.42896562678386 
2459	-5.15755687216784 
2460	 2.57143016248344 
2461	 1.54460737592962 
2462	 0.683550646481615 
2463	 0.78758432983717 
2464	 1.60864355256458 
2465	 1.42904217155453 
2466	 1.36490210868447 
2467	 9.33899951161689E-02 
2468	-2.51338219673073E-02 
2469	-1.22221751881411 
2470	-0.778112180247726 
2471	-0.59651102419197 
2472	-0.157875442345914 
2473	 0.535001203480287 
2474	 1.92599233063295 
2475	 1.78277024120664 
2476	 2.75952722730442 
2477	 2.46374592717501 
2478	-1.56175821777001 
2479	-0.579225318724027 
2480	-0.370728891442457 
2481	-6.27986494689321E-02 
2482	 1.98237109737115 
2483	 4.25904779686993 
2484	 1.05887355875568 
2485	 0.447699802602186 
2486	-0.436890283506393 
2487	-0.345374254980312 
2488	 0.131584416754096 
2489	 0.42101150486536 
2490	 0.563574286592623 
2491	 0.485064047576285 
2492	-0.392738400608831 
2493	 0.400690590515766 
2494	 0.230804504929239 
2495	 0.160976024975496 
2496	 0.246655153413325 
2497	 0.502575463160776 
2498	 0.66204058198766 
2499	 1.00376335747889 
2500	 1.11341090164771 
