Wavelength	rt0707far00002.asd
350	 8.03086115965586E-02 
351	 0.080797462037765 
352	 8.05787849904893E-02 
353	 8.07026072881319E-02 
354	 8.13448137139971E-02 
355	 8.01055455756169E-02 
356	 8.09237757194309E-02 
357	 8.18111626315142E-02 
358	 8.04315788868967E-02 
359	 8.13725682986893E-02 
360	 0.081398421661178 
361	 8.05951608315368E-02 
362	 8.12585211255574E-02 
363	 8.20136219427905E-02 
364	 8.22885110613487E-02 
365	 8.21687175422547E-02 
366	 8.25602093769931E-02 
367	 8.21363680787158E-02 
368	 0.08178767291498 
369	 8.23942997441908E-02 
370	 8.27364645141882E-02 
371	 8.25483864052399E-02 
372	 8.21394599317724E-02 
373	 8.21562253099762E-02 
374	 8.26446103067225E-02 
375	 8.38967662638218E-02 
376	 8.50234988805284E-02 
377	 8.36556560880387E-02 
378	 8.32240705812263E-02 
379	 8.41089627322718E-02 
380	 8.54654205837343E-02 
381	 8.52787581716878E-02 
382	 8.53486484958795E-02 
383	 8.55877439141893E-02 
384	 8.51886914891355E-02 
385	 8.50967059948747E-02 
386	 8.62955406249912E-02 
387	 8.78785148363025E-02 
388	 8.70728325667986E-02 
389	 8.68668632480925E-02 
390	 8.68242442068041E-02 
391	 8.66002695162328E-02 
392	 8.79303849745806E-02 
393	 8.83031294237215E-02 
394	 8.81111074115561E-02 
395	 8.85157712171648E-02 
396	 8.83553755172897E-02 
397	 8.80831095306414E-02 
398	 8.82255666099012E-02 
399	 8.91967275322329E-02 
400	 8.99233936279194E-02 
401	 8.99607247070847E-02 
402	 8.94504126970812E-02 
403	 8.94192030878015E-02 
404	 8.98568972361121E-02 
405	 9.05330250291116E-02 
406	 9.10590959449369E-02 
407	 9.07907603100436E-02 
408	 9.11791898841106E-02 
409	 9.20513356363221E-02 
410	 9.16536713247895E-02 
411	 9.15348538690133E-02 
412	 9.20574979507133E-02 
413	 9.29034221054502E-02 
414	 9.26432014507873E-02 
415	 9.28885353368112E-02 
416	 0.093571115893321 
417	 9.39671989408941E-02 
418	 9.39378608231431E-02 
419	 9.40991600672458E-02 
420	 9.47051079369709E-02 
421	 9.55394115154566E-02 
422	 9.55839354419663E-02 
423	 9.56148135906554E-02 
424	 9.62933831054858E-02 
425	 9.68925316835489E-02 
426	 9.72609588687755E-02 
427	 9.76090442129391E-02 
428	 9.82718306307215E-02 
429	 9.89525368629192E-02 
430	 9.96187577003564E-02 
431	 0.100294220987817 
432	 0.101041932878253 
433	 0.101106298631135 
434	 0.101283461798939 
435	 0.102170673762857 
436	 0.102753413266374 
437	 0.103390480087389 
438	 0.104037677378657 
439	 0.104472528775825 
440	 0.104913654383708 
441	 0.105546478984007 
442	 0.106215669160489 
443	 0.106262932743638 
444	 0.106810899060445 
445	 0.107681273914726 
446	 0.108363747812293 
447	 0.108586194111799 
448	 0.10888566964929 
449	 0.109470354653577 
450	 0.110229029608025 
451	 0.110515643597159 
452	 0.110711928631157 
453	 0.111124915426575 
454	 0.111576753878328 
455	 0.112174894921031 
456	 0.112706253739615 
457	 0.112913553929206 
458	 0.112878591485102 
459	 0.113199932779331 
460	 0.113870744632028 
461	 0.114260291678729 
462	 0.114356512255762 
463	 0.114711749551916 
464	 0.11553275923087 
465	 0.115775870142516 
466	 0.115761003703356 
467	 0.115985608130862 
468	 0.116855858730826 
469	 0.117294561089367 
470	 0.117529972386659 
471	 0.117785226087024 
472	 0.118100510927483 
473	 0.11827220968708 
474	 0.118476380451492 
475	 0.118947789867048 
476	 0.119834073116461 
477	 0.120258280025355 
478	 0.120282822189497 
479	 0.120604919419348 
480	 0.121045797763092 
481	 0.121558641314771 
482	 0.122065397316897 
483	 0.122377617707133 
484	 0.122974265717119 
485	 0.12349183499668 
486	 0.123536452817618 
487	 0.124322764012236 
488	 0.125058195228641 
489	 0.125439529926528 
490	 0.125755572680145 
491	 0.126223885769957 
492	 0.126882346416028 
493	 0.127610203811412 
494	 0.127967292420155 
495	 0.128580088596786 
496	 0.129275882637873 
497	 0.129586229258654 
498	 0.130264138614849 
499	 0.131022023334135 
500	 0.131633227658622 
501	 0.132133463112748 
502	 0.132629367758635 
503	 0.133302201570045 
504	 0.134178088391087 
505	 0.134612792101644 
506	 0.13514772066335 
507	 0.135841073026829 
508	 0.136365945178467 
509	 0.136988620437616 
510	 0.137677037379858 
511	 0.138330857692432 
512	 0.138804111790253 
513	 0.139195133568228 
514	 0.139723426125738 
515	 0.140581977936664 
516	 0.141372346234618 
517	 0.142139792208485 
518	 0.142934935381231 
519	 0.143770138243608 
520	 0.14445939290769 
521	 0.145131064843754 
522	 0.145913881293725 
523	 0.146666640062562 
524	 0.147362319305926 
525	 0.148133743998994 
526	 0.149167670559918 
527	 0.149850881755659 
528	 0.150513788930268 
529	 0.151383100353952 
530	 0.152224745182211 
531	 0.153001295617766 
532	 0.153892610167475 
533	 0.155026278906777 
534	 0.155707906698431 
535	 0.156313604535632 
536	 0.15706764701023 
537	 0.15793401292139 
538	 0.158761797459152 
539	 0.159630968708634 
540	 0.160600899206435 
541	 0.161471300239405 
542	 0.162297273292839 
543	 0.1631429409672 
544	 0.164061056222145 
545	 0.164899585400541 
546	 0.165639445037292 
547	 0.166314996162213 
548	 0.167007317297305 
549	 0.167891339425106 
550	 0.168812170766432 
551	 0.169563030907278 
552	 0.170399545034109 
553	 0.171255281079643 
554	 0.172087469561782 
555	 0.172897128587094 
556	 0.17380077601326 
557	 0.174698956455919 
558	 0.175492561091838 
559	 0.176289897921257 
560	 0.177091141719617 
561	 0.177856311486313 
562	 0.178541577896755 
563	 0.179301111622924 
564	 0.179992441673292 
565	 0.180545178639336 
566	 0.181097133188146 
567	 0.181731379741781 
568	 0.182351674680255 
569	 0.182834299063044 
570	 0.183354883439516 
571	 0.183958149618333 
572	 0.184529195600088 
573	 0.184802961072267 
574	 0.185163111588368 
575	 0.185464283316928 
576	 0.185553091645682 
577	 0.185652728105204 
578	 0.185736947699082 
579	 0.185833788471859 
580	 0.185975208443062 
581	 0.185935117893333 
582	 0.18589752095143 
583	 0.185884051461762 
584	 0.185500262675158 
585	 0.185244148805664 
586	 0.185191414788106 
587	 0.185193431323192 
588	 0.184777494275469 
589	 0.184369685766004 
590	 0.184032914188159 
591	 0.183345962838404 
592	 0.182726585425356 
593	 0.182165442946954 
594	 0.181508079070378 
595	 0.180393218925519 
596	 0.179156133450392 
597	 0.177796700309595 
598	 0.176215603977465 
599	 0.175157594757333 
600	 0.174020284110504 
601	 0.172745450915235 
602	 0.172510126374906 
603	 0.172025559423761 
604	 0.171506425377308 
605	 0.171469582745052 
606	 0.171311974359823 
607	 0.171292756273621 
608	 0.171462218726777 
609	 0.171610956996297 
610	 0.171558453266266 
611	 0.171424561863888 
612	 0.171355344752754 
613	 0.171341883560482 
614	 0.171443454614936 
615	 0.171546588907785 
616	 0.171474455026174 
617	 0.171459173311809 
618	 0.171419909489794 
619	 0.171362757420696 
620	 0.171498587572137 
621	 0.171566938314969 
622	 0.171479592665578 
623	 0.171269753986169 
624	 0.171231667617295 
625	 0.171197117746976 
626	 0.171198373484254 
627	 0.171443129777207 
628	 0.171307534669756 
629	 0.170917122447545 
630	 0.170602790930166 
631	 0.17084514385339 
632	 0.170949742325317 
633	 0.170840319815077 
634	 0.170731248500898 
635	 0.170518980367261 
636	 0.170401866315692 
637	 0.170460007387972 
638	 0.170584465616986 
639	 0.17035859477836 
640	 0.170052537111095 
641	 0.169982224140887 
642	 0.169657079433148 
643	 0.169695079385306 
644	 0.169956264489902 
645	 0.169692921800532 
646	 0.169460030271095 
647	 0.169165078042799 
648	 0.168771957382751 
649	 0.168630505824856 
650	 0.168340333744159 
651	 0.167730853603889 
652	 0.166862564432435 
653	 0.166439087180842 
654	 0.165895611968018 
655	 0.164937696281469 
656	 0.163909527043127 
657	 0.163234687951267 
658	 0.162683128294337 
659	 0.161999723345433 
660	 0.161308944958051 
661	 0.160748734561777 
662	 0.160446322972987 
663	 0.160457799808658 
664	 0.160161381149567 
665	 0.1599534560273 
666	 0.159985019433878 
667	 0.159743903823368 
668	 0.15931131010427 
669	 0.159046300244715 
670	 0.159228220419539 
671	 0.159220203023337 
672	 0.159054478923012 
673	 0.158843159652561 
674	 0.158742035138802 
675	 0.158836397429802 
676	 0.158909080514037 
677	 0.158850247731983 
678	 0.159015950338311 
679	 0.158830703839063 
680	 0.15840907940897 
681	 0.158184666354606 
682	 0.158309652318417 
683	 0.158555826307639 
684	 0.158677635049345 
685	 0.158445483279374 
686	 0.157973333997062 
687	 0.157482462400621 
688	 0.157171549526968 
689	 0.156894955264356 
690	 0.156239146084171 
691	 0.155393618609915 
692	 0.154893374242881 
693	 0.154382748024803 
694	 0.153548015511257 
695	 0.15238041860014 
696	 0.151099062713448 
697	 0.150223514455776 
698	 0.149392656809292 
699	 0.148171999924568 
700	 0.14693570936073 
701	 0.145343874715672 
702	 0.143547916882709 
703	 0.141992932083597 
704	 0.140833752661384 
705	 0.13940222405408 
706	 0.137428404003808 
707	 0.135610317714103 
708	 0.13353279541375 
709	 0.131520483125481 
710	 0.129890875422059 
711	 0.127346274883039 
712	 0.124808366229964 
713	 0.12254713091197 
714	 0.119965632901228 
715	 0.118133087453841 
716	 0.116258570660176 
717	 0.113525315748447 
718	 0.111109358190113 
719	 0.107676599739045 
720	 0.104644957439455 
721	 0.102718953703537 
722	 0.100574774044347 
723	 9.82427094498234E-02 
724	 9.60202435136432E-02 
725	 9.33732206069997E-02 
726	 0.090563143191043 
727	 8.77765926097974E-02 
728	 8.51079312473483E-02 
729	 8.24320170411432E-02 
730	 0.079546308782388 
731	 7.66739107936694E-02 
732	 7.40306990429423E-02 
733	 7.25198356288704E-02 
734	 7.11327732129086E-02 
735	 6.96370426957569E-02 
736	 6.88394414525031E-02 
737	 6.77893657889215E-02 
738	 6.67046648770183E-02 
739	 6.60261161608444E-02 
740	 6.59982965858053E-02 
741	 6.59770776683741E-02 
742	 6.56764268985081E-02 
743	 6.51341873574555E-02 
744	 6.52309535909201E-02 
745	 6.51112303888674E-02 
746	 6.45904585117706E-02 
747	 0.064593095075719 
748	 6.47253359346733E-02 
749	 6.46435246175624E-02 
750	 6.42749621009196E-02 
751	 6.44057538274116E-02 
752	 6.44912100189325E-02 
753	 6.43984794865398E-02 
754	 6.42351706474787E-02 
755	 6.39637885488814E-02 
756	 6.40409008186417E-02 
757	 6.44391015021094E-02 
758	 6.43349011551564E-02 
759	 6.41431172602839E-02 
760	 6.43571870464463E-02 
761	 6.50006492171655E-02 
762	 6.51394035640329E-02 
763	 6.52130065180755E-02 
764	 6.51344631037601E-02 
765	 6.47988642317575E-02 
766	 6.45081548143194E-02 
767	 6.45191749677893E-02 
768	 6.45953865130464E-02 
769	 6.40850964717575E-02 
770	 6.42069481113651E-02 
771	 6.46803007768447E-02 
772	 6.49738528786557E-02 
773	 6.46971048469499E-02 
774	 6.48211598806366E-02 
775	 6.52177772504635E-02 
776	 6.53424446619721E-02 
777	 0.065410577439221 
778	 6.55664899193221E-02 
779	 6.58057756905705E-02 
780	 6.59904627972396E-02 
781	 6.63787049634235E-02 
782	 6.68540205869453E-02 
783	 6.72480979612483E-02 
784	 6.74286145059974E-02 
785	 6.76356527641094E-02 
786	 6.81290186826861E-02 
787	 6.89643124582951E-02 
788	 6.92007364246932E-02 
789	 6.91978949417604E-02 
790	 6.93899990956086E-02 
791	 7.00727433056471E-02 
792	 7.01803836035921E-02 
793	 7.06553531503446E-02 
794	 7.16983285939434E-02 
795	 7.18377494291634E-02 
796	 7.19006267905909E-02 
797	 7.23943264062807E-02 
798	 7.33445364773474E-02 
799	 7.34481718846244E-02 
800	 7.35923286551195E-02 
801	 7.39093302222028E-02 
802	 7.40996719330771E-02 
803	 7.42030922286243E-02 
804	 7.45961003766003E-02 
805	 7.49902822724658E-02 
806	 7.44525709279979E-02 
807	 0.07429397259986 
808	 7.47242443168681E-02 
809	 7.54079502019019E-02 
810	 7.51166435698637E-02 
811	 7.52863175046242E-02 
812	 7.61298687666822E-02 
813	 7.69299375807049E-02 
814	 7.52515271446313E-02 
815	 7.40041854088493E-02 
816	 7.39420190898748E-02 
817	 7.34391357204119E-02 
818	 7.25930225637819E-02 
819	 7.17219277108912E-02 
820	 7.10462146096177E-02 
821	 7.07712028233937E-02 
822	 6.97720363258425E-02 
823	 6.81982406801871E-02 
824	 6.65836645011965E-02 
825	 6.49850472310323E-02 
826	 6.33564461538253E-02 
827	 6.18894319994615E-02 
828	 6.08559106499948E-02 
829	 5.96539150931257E-02 
830	 0.05869346343846 
831	 5.78232779542115E-02 
832	 5.65996530929212E-02 
833	 5.56309903122663E-02 
834	 5.53607774254571E-02 
835	 5.54848446524421E-02 
836	 5.49001470809948E-02 
837	 5.38860545286433E-02 
838	 5.33717691923622E-02 
839	 5.38238059977439E-02 
840	 5.43839529198832E-02 
841	 5.40180466184878E-02 
842	 5.33632318314019E-02 
843	 5.33417768683664E-02 
844	 5.28648024342123E-02 
845	 5.24458350671046E-02 
846	 5.22421713611267E-02 
847	 5.21357951297673E-02 
848	 5.22264156465658E-02 
849	 0.051878168715779 
850	 5.12615695710777E-02 
851	 5.15693869426565E-02 
852	 5.16963714537744E-02 
853	 5.13218646047982E-02 
854	 5.07265613794223E-02 
855	 5.10019149068779E-02 
856	 5.14743017518216E-02 
857	 5.12848791045952E-02 
858	 5.01613655950337E-02 
859	 4.99067262071096E-02 
860	 0.050039538005951 
861	 5.02427045297415E-02 
862	 5.02891255254706E-02 
863	 5.00620178148047E-02 
864	 4.96500359150504E-02 
865	 4.93013891556222E-02 
866	 4.93472135762061E-02 
867	 0.049781083090881 
868	 4.95503799983193E-02 
869	 4.87478989726917E-02 
870	 4.90105656302545E-02 
871	 4.86715467079924E-02 
872	 4.83137578044625E-02 
873	 4.84962046105762E-02 
874	 4.86601546178042E-02 
875	 4.82901594384543E-02 
876	 4.83610971862028E-02 
877	 4.92777043754087E-02 
878	 4.74769797972265E-02 
879	 4.77114597018877E-02 
880	 4.88059345513196E-02 
881	 4.75549077765195E-02 
882	 4.71891274292885E-02 
883	 4.72644026284368E-02 
884	 4.72286592440349E-02 
885	 0.046808990106535 
886	 4.77690807919412E-02 
887	 4.77541258661791E-02 
888	 4.66318115637145E-02 
889	 4.70984567661457E-02 
890	 4.67174703119533E-02 
891	 4.66471416089472E-02 
892	 4.73146951583993E-02 
893	 4.63943288505231E-02 
894	 4.63704932556558E-02 
895	 4.72880663553154E-02 
896	 4.81093168016342E-02 
897	 0.047247195397436 
898	 4.70036230424952E-02 
899	 4.79997475906491E-02 
900	 4.89467637535365E-02 
901	 4.53189727523507E-02 
902	 4.47624115195641E-02 
903	 4.72426271747391E-02 
904	 4.93229192684486E-02 
905	 4.67333361853662E-02 
906	 4.51093218398945E-02 
907	 4.61187983265801E-02 
908	 4.73534600279701E-02 
909	 4.38153083688493E-02 
910	 4.26160827981957E-02 
911	 4.50432884258941E-02 
912	 4.60407800774281E-02 
913	 4.63794302768593E-02 
914	 4.45939536136369E-02 
915	 4.28820684028177E-02 
916	 4.64458308087606E-02 
917	 4.85855780523187E-02 
918	 4.64465818059951E-02 
919	 0.042515897111406 
920	 4.43929448818211E-02 
921	 4.47847351722693E-02 
922	 4.44354489345761E-02 
923	 4.49536366901267E-02 
924	 4.65717192592403E-02 
925	 4.78622881075342E-02 
926	 4.56876894811243E-02 
927	 0.038427565638267 
928	 0.033873901068253 
929	 3.93420982610418E-02 
930	 5.38978150003272E-02 
931	 6.45654977882596E-02 
932	 4.50416099569476E-02 
933	 3.14355415564797E-02 
934	 0.039744892531131 
935	 5.16367141718737E-02 
936	 0.050877634832216 
937	 0.033750860393591 
938	 0.027349939298927 
939	 4.52109907552813E-02 
940	 0.029116625235354 
941	 2.73849843467645E-02 
942	 3.75506732190994E-02 
943	 3.20062109375783E-02 
944	 7.98245208338794E-03 
945	 1.88530729111471E-02 
946	 4.77054856222736E-02 
947	 4.49104041899464E-02 
948	 0.040762389843581 
949	 4.83905677002101E-02 
950	 0.059888255497561 
951	 5.86537285330192E-02 
952	 4.71664618767278E-02 
953	 4.88282726777554E-02 
954	 5.14295640470725E-02 
955	 0.029049308654805 
956	 3.40023274824684E-02 
957	 0.05014129325131 
958	 0.055343727194184 
959	 3.76181727224859E-02 
960	 4.36681593832178E-02 
961	 4.91858028913717E-02 
962	 4.54453767560047E-02 
963	 3.96874604671962E-02 
964	 4.47764499373017E-02 
965	 4.20997978099693E-02 
966	 3.46186852032207E-02 
967	 3.77495583616447E-02 
968	 4.23780198498672E-02 
969	 4.39378540676789E-02 
970	 4.35147033576732E-02 
971	 4.54298411704201E-02 
972	 4.42255584308906E-02 
973	 4.50786935431785E-02 
974	 0.048308424297976 
975	 4.85147224409077E-02 
976	 4.46242014041075E-02 
977	 4.23277828029911E-02 
978	 0.044571015042963 
979	 4.95672434947604E-02 
980	 4.83713797524094E-02 
981	 4.14326684498178E-02 
982	 3.61254836638372E-02 
983	 4.15782176241237E-02 
984	 4.66999778716964E-02 
985	 4.63384695253938E-02 
986	 4.34241315105664E-02 
987	 4.45901663066408E-02 
988	 3.91369256622268E-02 
989	 3.85474152829925E-02 
990	 4.39504633636426E-02 
991	 4.72366649508155E-02 
992	 4.44166022170932E-02 
993	 3.87253574354537E-02 
994	 3.59484495207852E-02 
995	 3.99576085315375E-02 
996	 3.87683530613222E-02 
997	 4.10019611856552E-02 
998	 0.046411238677736 
999	 4.80815724037842E-02 
1000	 4.12392939910431E-02 
1001	 3.67123691965154E-02 
1002	 3.91681262955257E-02 
1003	 0.040168980860589 
1004	 3.93663667731421E-02 
1005	 3.91640586425405E-02 
1006	 3.92134896609433E-02 
1007	 3.81174113765316E-02 
1008	 3.56236189276077E-02 
1009	 3.50597345916752E-02 
1010	 3.36553696920347E-02 
1011	 3.38002835193636E-02 
1012	 3.63421855595342E-02 
1013	 3.73734589260064E-02 
1014	 3.92754123365583E-02 
1015	 4.19844649851127E-02 
1016	 4.33492989123276E-02 
1017	 4.55911786880576E-02 
1018	 4.60402568182377E-02 
1019	 4.43731043819581E-02 
1020	 4.29148535945729E-02 
1021	 3.99281856548566E-02 
1022	 3.82142069872016E-02 
1023	 3.73662433130552E-02 
1024	 3.78777157431791E-02 
1025	 4.06793000779122E-02 
1026	 4.21688391112212E-02 
1027	 4.25873737703522E-02 
1028	 4.25243784890466E-02 
1029	 4.22885197765433E-02 
1030	 4.03749756828821E-02 
1031	 3.99628077485252E-02 
1032	 4.03421373408134E-02 
1033	 4.02662682420806E-02 
1034	 4.05634701186905E-02 
1035	 4.05071751950208E-02 
1036	 3.98597891675949E-02 
1037	 3.96410708064866E-02 
1038	 3.92116359746504E-02 
1039	 3.95955021682619E-02 
1040	 4.05568927733629E-02 
1041	 4.01807174389003E-02 
1042	 4.02928041546167E-02 
1043	 4.01854764786249E-02 
1044	 4.08202869399667E-02 
1045	 4.20442159846458E-02 
1046	 4.25284862193056E-02 
1047	 4.33494412491742E-02 
1048	 0.043515963646708 
1049	 4.28166959693035E-02 
1050	 0.042338080826132 
1051	 0.041438620385677 
1052	 0.041163974085016 
1053	 4.07264518227718E-02 
1054	 4.08303264369586E-02 
1055	 4.26459123019391E-02 
1056	 4.31254196609796E-02 
1057	 4.31304958633023E-02 
1058	 4.28057720142821E-02 
1059	 4.23563827457823E-02 
1060	 4.04742822740668E-02 
1061	 4.03698494203253E-02 
1062	 4.14190536201248E-02 
1063	 4.16358459213446E-02 
1064	 4.21767565820923E-02 
1065	 4.24712502052984E-02 
1066	 4.21166960100945E-02 
1067	 4.22169106785342E-02 
1068	 4.29060280721819E-02 
1069	 4.31612117682424E-02 
1070	 0.043110245439313 
1071	 4.31250223671557E-02 
1072	 4.26542700111823E-02 
1073	 0.042976245909177 
1074	 4.28416657830137E-02 
1075	 4.31211846887426E-02 
1076	 4.23854578591745E-02 
1077	 4.08485657330209E-02 
1078	 3.99473913309065E-02 
1079	 3.80465427591063E-02 
1080	 3.77910997370799E-02 
1081	 3.92406199576811E-02 
1082	 3.94420381069923E-02 
1083	 3.97895300027041E-02 
1084	 4.03829108784459E-02 
1085	 0.041061114324577 
1086	 4.06985879066613E-02 
1087	 3.88457062556676E-02 
1088	 3.87259354562403E-02 
1089	 3.70042144064904E-02 
1090	 3.93809682160711E-02 
1091	 4.06526052574768E-02 
1092	 4.49726305291941E-02 
1093	 4.53144611379416E-02 
1094	 0.042989699615341 
1095	 4.25023144248393E-02 
1096	 4.06892967774149E-02 
1097	 4.07981096475828E-02 
1098	 4.40147669356441E-02 
1099	 0.044298283916481 
1100	 4.29687141382676E-02 
1101	 4.29837696244184E-02 
1102	 4.22514412227607E-02 
1103	 4.13848351937589E-02 
1104	 0.040898719688338 
1105	 4.21141907734226E-02 
1106	 3.98646891450575E-02 
1107	 3.75140069137083E-02 
1108	 3.65398853434663E-02 
1109	 0.037444173035821 
1110	 4.01662747667367E-02 
1111	 5.02355529313711E-02 
1112	 5.05169915391291E-02 
1113	 4.42923892837957E-02 
1114	 4.29068931467341E-02 
1115	 0.02934143165342 
1116	 2.53824576077589E-02 
1117	 4.92690802414782E-02 
1118	 0.055818299938621 
1119	 4.50886707984382E-02 
1120	 5.33157675332433E-02 
1121	 9.35469441059843E-02 
1122	 5.06972799710649E-02 
1123	 6.62151058602448E-02 
1124	 8.61813352539236E-02 
1125	-2.29555345712359E-02 
1126	-0.017163535152265 
1127	 2.09519696868794E-02 
1128	 1.20895552499495E-02 
1129	 2.78455204683827E-02 
1130	 7.21011957467732E-02 
1131	 8.05150584267051E-02 
1132	 8.47325053774223E-02 
1133	 7.93574601104409E-02 
1134	 6.08455315756196E-02 
1135	 6.38801454502228E-02 
1136	 6.37329164711576E-02 
1137	 5.71084374917302E-02 
1138	 5.73853551754382E-02 
1139	 6.18511973837385E-02 
1140	 4.73127179477356E-02 
1141	 4.59466400158016E-02 
1142	 3.80351477520513E-02 
1143	 4.41254538905166E-02 
1144	 5.83933892765122E-02 
1145	 4.44250913494873E-02 
1146	 5.01220614339878E-02 
1147	 6.69329248897306E-02 
1148	 5.39365027414045E-02 
1149	 5.35449904237159E-02 
1150	 5.47618844222901E-02 
1151	 4.78713251156268E-02 
1152	 5.15057297563861E-02 
1153	 6.91791841251625E-02 
1154	 0.06602591965026 
1155	 5.89258892142939E-02 
1156	 5.23317361255019E-02 
1157	 4.61736051774645E-02 
1158	 0.049358010215827 
1159	 5.09021268048035E-02 
1160	 0.047972454177815 
1161	 4.65981999163651E-02 
1162	 4.29572777572734E-02 
1163	 4.02962007055935E-02 
1164	 4.35834461634392E-02 
1165	 4.61452394089826E-02 
1166	 4.61011228236721E-02 
1167	 4.61441745979102E-02 
1168	 4.47551431769518E-02 
1169	 4.26848808317932E-02 
1170	 4.11847822445165E-02 
1171	 4.09490337511968E-02 
1172	 4.35725386549004E-02 
1173	 4.43636142552378E-02 
1174	 4.44872105938043E-02 
1175	 4.49670929826248E-02 
1176	 4.58807626071345E-02 
1177	 4.47954660559689E-02 
1178	 4.51602666340847E-02 
1179	 4.59323171760129E-02 
1180	 4.48653842185345E-02 
1181	 4.34162866950279E-02 
1182	 0.04056298502802 
1183	 3.93202765772124E-02 
1184	 0.041278098863318 
1185	 4.11528455993542E-02 
1186	 4.19984448556231E-02 
1187	 4.32356654519768E-02 
1188	 4.15385219498244E-02 
1189	 4.33816242778253E-02 
1190	 4.66563752071529E-02 
1191	 4.60453234712467E-02 
1192	 4.60829018778377E-02 
1193	 4.54990732598619E-02 
1194	 4.60885707834867E-02 
1195	 4.57850976208488E-02 
1196	 4.60268284799124E-02 
1197	 4.66307256430198E-02 
1198	 4.51932181020246E-02 
1199	 4.35393083422499E-02 
1200	 4.48959798831657E-02 
1201	 4.66484037210664E-02 
1202	 4.61916366397508E-02 
1203	 4.63217202101371E-02 
1204	 4.59176726545815E-02 
1205	 4.47315159581219E-02 
1206	 0.044932451779545 
1207	 4.49603376308032E-02 
1208	 4.48437408268163E-02 
1209	 0.044390738834104 
1210	 4.32286101323604E-02 
1211	 4.39257407753702E-02 
1212	 0.045800080851363 
1213	 0.044927406153855 
1214	 4.41318714924087E-02 
1215	 4.31235456800574E-02 
1216	 4.30098119007439E-02 
1217	 4.22227357925798E-02 
1218	 4.23243557721282E-02 
1219	 4.34565450143405E-02 
1220	 4.29621673339584E-02 
1221	 4.12999867145079E-02 
1222	 4.18038253118417E-02 
1223	 4.22547923020564E-02 
1224	 4.23784718388819E-02 
1225	 4.22009324545642E-02 
1226	 0.04081286505215 
1227	 0.042232706508807 
1228	 4.32689163051052E-02 
1229	 4.27332228882556E-02 
1230	 4.44678534880199E-02 
1231	 4.42706425966593E-02 
1232	 4.10785712777443E-02 
1233	 3.98412470854472E-02 
1234	 4.08637743427169E-02 
1235	 4.12667320944502E-02 
1236	 4.25266708548097E-02 
1237	 4.27268727859349E-02 
1238	 4.31226884265149E-02 
1239	 4.20896217606193E-02 
1240	 4.01356253488494E-02 
1241	 4.14611601792396E-02 
1242	 4.28855621985649E-02 
1243	 4.14139676301065E-02 
1244	 3.93343624275826E-02 
1245	 3.82002668742293E-02 
1246	 3.84888763096159E-02 
1247	 0.038339992675544 
1248	 3.87624894432768E-02 
1249	 0.039424114192275 
1250	 3.91853098013318E-02 
1251	 0.039146607819701 
1252	 3.91836370240845E-02 
1253	 0.040084911640049 
1254	 4.07616410554967E-02 
1255	 4.08806429810004E-02 
1256	 4.03804523639522E-02 
1257	 0.038748499529477 
1258	 3.87563066868605E-02 
1259	 3.92274486630558E-02 
1260	 3.88069801890675E-02 
1261	 3.92240980675925E-02 
1262	 3.96282104675614E-02 
1263	 3.86955126729022E-02 
1264	 3.87871656283914E-02 
1265	 3.93311767621165E-02 
1266	 4.00599465408486E-02 
1267	 4.09431222116215E-02 
1268	 4.06929025337249E-02 
1269	 4.09427959405121E-02 
1270	 4.20118093435636E-02 
1271	 4.23874297918763E-02 
1272	 4.23911827203242E-02 
1273	 4.23860284727244E-02 
1274	 4.13596467182181E-02 
1275	 3.92369445244624E-02 
1276	 3.81466430737623E-02 
1277	 3.94439389237002E-02 
1278	 3.97104052428952E-02 
1279	 3.96454788904589E-02 
1280	 4.09625231843964E-02 
1281	 4.07728292113987E-02 
1282	 3.81674206466255E-02 
1283	 3.80619804324654E-02 
1284	 3.92581712295422E-02 
1285	 3.94231705838631E-02 
1286	 4.05696448451412E-02 
1287	 4.11348271447302E-02 
1288	 4.00054974652727E-02 
1289	 4.00647914829476E-02 
1290	 4.05869130928314E-02 
1291	 4.16116736727526E-02 
1292	 4.18092895913364E-02 
1293	 4.21056720918328E-02 
1294	 4.13733876610839E-02 
1295	 3.99962057538511E-02 
1296	 4.03612127849309E-02 
1297	 4.00125977164959E-02 
1298	 3.82912988522626E-02 
1299	 3.74389910873871E-02 
1300	 3.58984133977163E-02 
1301	 3.48550923293884E-02 
1302	 3.60698340390959E-02 
1303	 3.84493806824272E-02 
1304	 4.18292618925169E-02 
1305	 0.043108908374668 
1306	 4.30879070505488E-02 
1307	 4.00202476810374E-02 
1308	 0.040146816408439 
1309	 4.08640894276466E-02 
1310	 0.040706881116291 
1311	 4.19351893631526E-02 
1312	 0.043325517181955 
1313	 4.27518568694545E-02 
1314	 4.24088397999421E-02 
1315	 4.53463660995557E-02 
1316	 4.62438705222691E-02 
1317	 4.51066369317895E-02 
1318	 4.25634099654707E-02 
1319	 3.57524395154218E-02 
1320	 3.46263887694237E-02 
1321	 3.50140812036913E-02 
1322	 0.03469938242496 
1323	 3.99108042151086E-02 
1324	 4.52624506788719E-02 
1325	 4.06557489764341E-02 
1326	 0.0366411796121 
1327	 3.68308489714651E-02 
1328	 2.98902547575441E-02 
1329	 2.56128299146589E-02 
1330	 3.87244245662073E-02 
1331	 4.98269690014196E-02 
1332	 4.56537838397902E-02 
1333	 4.41036411084977E-02 
1334	 3.93971319936089E-02 
1335	 3.92147738469146E-02 
1336	 4.77582620928182E-02 
1337	 5.13960351906686E-02 
1338	 0.052452335356905 
1339	 5.57751613597559E-02 
1340	 6.24186402244822E-02 
1341	 5.86135107490155E-02 
1342	 4.21679302547645E-02 
1343	 4.02697175148166E-02 
1344	 3.91519887881901E-02 
1345	 3.20059560841696E-02 
1346	 0.039267602493546 
1347	 5.10210512814517E-02 
1348	 0.034330606467682 
1349	 3.34361235773271E-02 
1350	 0.143296630746466 
1351	 0.206052669721658 
1352	 0.139862287347302 
1353	 0.122630060524147 
1354	-5.92518527986038E-02 
1355	-2.68162005359674E-03 
1356	-0.108640273279159 
1357	-0.109612429988694 
1358	 0.757530930519157 
1359	 1.03727831402748 
1360	-0.775704668712919 
1361	 7.87890290951674 
1362	-0.73720157817066 
1363	 0.327862525115301 
1364	 0.530960723369181 
1365	 1.39983357467435 
1366	 1.17749438523447 
1367	-1.95868706778656 
1368	-2.85794145295428 
1369	 0.607966828107871 
1370	 0.699918336938987 
1371	 0.761868945467128 
1372	 2.08836311472494 
1373	-0.527339572473356 
1374	-0.508914229262484 
1375	-4.98183685358017 
1376	-4.49710619623991 
1377	-1.71742206536585 
1378	-4.128759710764 
1379	 1.13812165008275 
1380	 1.84965349455503 
1381	-1.51592032111474 
1382	-1.85272647610704 
1383	 1.21469184183857 
1384	 1.95216973607884 
1385	-1.64289369219041 
1386	-0.722007959053236 
1387	 7.67705981684445 
1388	-2.18981097119665 
1389	-0.993972009105488 
1390	-1.57171265070862 
1391	-5003.28138641216 
1392	 1.40831710889831 
1393	 8.99353407417922 
1394	-0.821289516150817 
1395	-1.04346896660961 
1396	 13.5104441363163 
1397	 0.706785463128331 
1398	-0.955067009398511 
1399	-3.69290596204772 
1400	 1.32728718925363 
1401	-1.40156261810441 
1402	-0.970130823163808 
1403	-0.987403347468161 
1404	-0.357493500953174 
1405	-0.359542346047654 
1406	-0.673974913868191 
1407	-0.623574655765266 
1408	-0.595090823042638 
1409	-2.18489879412094 
1410	-2.72624897727649 
1411	-2.18501522778458 
1412	-4.01366506342774 
1413	 101.080475660271 
1414	-6.2964265107083 
1415	 26.531046332688 
1416	 1.49604637432473 
1417	 0.88820442616681 
1418	-0.499334274801676 
1419	-0.49237455497779 
1420	 0.437895472152074 
1421	 0.587443143786213 
1422	 1.43918032897811 
1423	 1.17903712472533 
1424	 0.471744832864125 
1425	 2.00884597358114E-02 
1426	-0.850674563380317 
1427	-0.953105698359557 
1428	-4.44798736059084 
1429	 19.9338825747372 
1430	-4.1742901165081 
1431	-4.06726401609088 
1432	 2.49196438330441 
1433	 2.64246852364461 
1434	 0.323221453571589 
1435	 0.73609156112067 
1436	 0.563645431069664 
1437	 0.489106044808599 
1438	 0.643972099772219 
1439	 0.741757990333137 
1440	 1.42185842376709 
1441	 280.266239583267 
1442	 3.11242108610446 
1443	 1.92748981215079 
1444	 0.966126743714577 
1445	 0.646670398990679 
1446	 0.776150697920308 
1447	 0.237078948451599 
1448	-0.294923424909353 
1449	-0.740718480465624 
1450	-0.39664234302179 
1451	-0.718948181727251 
1452	-0.870670871934027 
1453	-0.24315832431356 
1454	-0.276670626843431 
1455	-1.99847717615189 
1456	-2.7737811317572 
1457	-1.30016292554341 
1458	-0.750031470593764 
1459	-9.56079702330529E-02 
1460	 0.128307407777466 
1461	 0.409548339566996 
1462	 0.568753027918483 
1463	 0.558616450645165 
1464	 0.662405132029306 
1465	 0.913369001673241 
1466	 0.969573797172155 
1467	 0.967621832510306 
1468	 0.719210676955496 
1469	 0.396869722830084 
1470	 0.384887818684672 
1471	 0.622677841376739 
1472	 0.569408604516886 
1473	 0.590957969417045 
1474	 0.472204909059661 
1475	 0.110269803866773 
1476	 0.112259731798469 
1477	 0.416133480250926 
1478	 0.305683708252746 
1479	-9.23269191759573E-02 
1480	-7.82853375030705E-02 
1481	-0.118394260879384 
1482	-0.180243627410987 
1483	 4.52212659611354E-02 
1484	 0.143620552630028 
1485	 0.129382652198228 
1486	 0.068447086387716 
1487	 3.39104470003488E-02 
1488	 6.24095007882435E-02 
1489	 4.49662035204249E-02 
1490	 1.17576340857807E-02 
1491	-0.017272116575803 
1492	 1.72781992810191E-02 
1493	 8.92691280413023E-02 
1494	 8.17925959437702E-02 
1495	 7.07682980914036E-02 
1496	 9.73915411649288E-02 
1497	 0.115446350029433 
1498	 8.55995333428284E-02 
1499	 0.05175008236561 
1500	 5.04292094081763E-02 
1501	 1.27014149506955E-02 
1502	-1.7000552663723E-03 
1503	 4.65717161251375E-02 
1504	 6.71227409863439E-02 
1505	 7.07917603673641E-02 
1506	 5.76560239827748E-02 
1507	 5.85332379098717E-02 
1508	 0.059733967238134 
1509	 4.41364278054622E-02 
1510	 3.64100450473985E-02 
1511	 0.055338927989839 
1512	 6.72130791775422E-02 
1513	 6.55875624836808E-02 
1514	 7.11623548343894E-02 
1515	 8.46700638491317E-02 
1516	 7.69837200205303E-02 
1517	 5.59862015725023E-02 
1518	 0.060081719697627 
1519	 6.79360293818539E-02 
1520	 5.32774222109443E-02 
1521	 0.040998945072074 
1522	 4.55697394735971E-02 
1523	 0.049330878366286 
1524	 4.21109291547326E-02 
1525	 4.77347607956579E-02 
1526	 0.052823994018944 
1527	 3.82194845204349E-02 
1528	 3.76915431988313E-02 
1529	 5.21063064503805E-02 
1530	 5.10148625356069E-02 
1531	 4.05523009618038E-02 
1532	 4.51481460964764E-02 
1533	 5.09787384510219E-02 
1534	 5.00851511307188E-02 
1535	 6.15614681157396E-02 
1536	 6.94463595943971E-02 
1537	 6.75966799831035E-02 
1538	 6.80758033252697E-02 
1539	 6.41734593644104E-02 
1540	 5.71398841151344E-02 
1541	 4.77232043536563E-02 
1542	 4.12042728816663E-02 
1543	 4.39480831863826E-02 
1544	 4.32325718806208E-02 
1545	 4.36976236674413E-02 
1546	 5.15282314579215E-02 
1547	 5.23969563663774E-02 
1548	 4.24150779354244E-02 
1549	 3.49449751812392E-02 
1550	 4.00017091452194E-02 
1551	 4.63466314171761E-02 
1552	 5.33394701428545E-02 
1553	 0.059946282845359 
1554	 5.30507526439385E-02 
1555	 4.53641310125306E-02 
1556	 0.046265571031869 
1557	 4.82206138426987E-02 
1558	 4.68969637837449E-02 
1559	 4.98800750759437E-02 
1560	 5.54504096355017E-02 
1561	 5.26893156451295E-02 
1562	 5.25824122155173E-02 
1563	 5.55787662953373E-02 
1564	 4.96754236333204E-02 
1565	 4.59355007774863E-02 
1566	 5.03132343793558E-02 
1567	 4.90875127886409E-02 
1568	 4.88566310608056E-02 
1569	 5.43039102771107E-02 
1570	 4.90153048824862E-02 
1571	 4.19866059265053E-02 
1572	 4.37401121662319E-02 
1573	 4.42227085107081E-02 
1574	 4.36164647080591E-02 
1575	 0.048044727683624 
1576	 5.05370690251435E-02 
1577	 4.59759924328378E-02 
1578	 4.68164436812411E-02 
1579	 5.37411314142381E-02 
1580	 5.25490222663442E-02 
1581	 4.60433157081071E-02 
1582	 4.32707196038432E-02 
1583	 3.60003925438335E-02 
1584	 3.13568361699113E-02 
1585	 3.84752463045902E-02 
1586	 4.37383412592108E-02 
1587	 4.24836847573605E-02 
1588	 4.16470569505425E-02 
1589	 4.92960274786086E-02 
1590	 5.52183153527909E-02 
1591	 5.07130375844467E-02 
1592	 4.70275969368866E-02 
1593	 4.56303740623276E-02 
1594	 4.34618166069852E-02 
1595	 4.31229134795879E-02 
1596	 4.36663896186063E-02 
1597	 4.26040365388963E-02 
1598	 3.97437983857357E-02 
1599	 4.12543046903173E-02 
1600	 4.88543446091086E-02 
1601	 5.23047575702515E-02 
1602	 5.01586018682524E-02 
1603	 4.82572964688136E-02 
1604	 0.051782517177499 
1605	 5.77369661932886E-02 
1606	 5.66986365919339E-02 
1607	 5.40641305681439E-02 
1608	 0.054683719602166 
1609	 4.88435540144404E-02 
1610	 4.14951231244287E-02 
1611	 4.48884699185947E-02 
1612	 4.76678410677372E-02 
1613	 4.54179591463724E-02 
1614	 0.042409328627066 
1615	 3.87423512304979E-02 
1616	 3.67509489186602E-02 
1617	 0.037457780728099 
1618	 4.18722530615079E-02 
1619	 4.54023213537318E-02 
1620	 4.74645558916176E-02 
1621	 4.96366101467067E-02 
1622	 5.07611363370288E-02 
1623	 4.83119582472679E-02 
1624	 4.13527210103597E-02 
1625	 3.54173441724034E-02 
1626	 3.44108797026058E-02 
1627	 4.03191671084536E-02 
1628	 4.72274687818174E-02 
1629	 4.90229798517442E-02 
1630	 4.84356303464173E-02 
1631	 4.62861098767473E-02 
1632	 0.045487665060234 
1633	 4.62853268014208E-02 
1634	 4.64702279650136E-02 
1635	 0.048214999486748 
1636	 4.86988615517998E-02 
1637	 5.19758723145664E-02 
1638	 5.71949792383647E-02 
1639	 5.42939080124959E-02 
1640	 5.12847337876743E-02 
1641	 5.21450176179054E-02 
1642	 4.73493283314715E-02 
1643	 4.42546076262325E-02 
1644	 5.07487890301984E-02 
1645	 5.14941490567874E-02 
1646	 4.72285047942742E-02 
1647	 5.02449349019613E-02 
1648	 4.77434437125829E-02 
1649	 4.19013406295474E-02 
1650	 0.047321003207344 
1651	 5.02733379115609E-02 
1652	 4.61582646421347E-02 
1653	 4.65965248065831E-02 
1654	 4.56553866666939E-02 
1655	 4.35367598344982E-02 
1656	 4.44143926006006E-02 
1657	 4.72505374731787E-02 
1658	 4.69019330999409E-02 
1659	 0.046402673648718 
1660	 4.98506123780595E-02 
1661	 5.30733279346805E-02 
1662	 5.29449359329138E-02 
1663	 5.45457581940051E-02 
1664	 5.47836245495927E-02 
1665	 5.06815542657679E-02 
1666	 4.90310984383845E-02 
1667	 4.80890181874767E-02 
1668	 4.56379249364393E-02 
1669	 5.19916620832507E-02 
1670	 5.11225143953984E-02 
1671	 0.049390542588729 
1672	 5.16799431994858E-02 
1673	 4.79183780966736E-02 
1674	 4.61331205640878E-02 
1675	 4.80624799473512E-02 
1676	 4.74151676797857E-02 
1677	 4.82830617580085E-02 
1678	 5.10459600105068E-02 
1679	 5.12196061444425E-02 
1680	 4.96633339195127E-02 
1681	 5.00426019662171E-02 
1682	 4.70993932780991E-02 
1683	 4.37087220415367E-02 
1684	 5.27675998635498E-02 
1685	 5.84503923400371E-02 
1686	 5.06099565095896E-02 
1687	 4.70175070677216E-02 
1688	 4.47727962720608E-02 
1689	 4.02775961948129E-02 
1690	 4.34240296377493E-02 
1691	 4.55967339112445E-02 
1692	 4.39882564617022E-02 
1693	 4.23974092632119E-02 
1694	 3.99615947157397E-02 
1695	 4.48620317165708E-02 
1696	 0.050283228614766 
1697	 0.051204752375944 
1698	 5.79223698958375E-02 
1699	 6.09882835137166E-02 
1700	 0.059925937314696 
1701	 5.61023659402609E-02 
1702	 4.82644657981163E-02 
1703	 4.75413526028954E-02 
1704	 0.047463721324715 
1705	 4.46337464111418E-02 
1706	 4.26476655030699E-02 
1707	 0.044330251371383 
1708	 4.69183064728789E-02 
1709	 5.02729890624614E-02 
1710	 0.053988644550556 
1711	 4.94175186289106E-02 
1712	 5.08307007345374E-02 
1713	 0.055001921249385 
1714	 5.38607382410752E-02 
1715	 5.39082066663555E-02 
1716	 5.34326946724403E-02 
1717	 5.54657448447815E-02 
1718	 6.03175431398977E-02 
1719	 5.77028152464809E-02 
1720	 0.052372851605346 
1721	 5.52779516048527E-02 
1722	 6.52069434728744E-02 
1723	 6.60017080168941E-02 
1724	 5.68069226605614E-02 
1725	 0.052214194555553 
1726	 0.044835931337749 
1727	 4.47746122927678E-02 
1728	 6.54148688928244E-02 
1729	 6.42710992686912E-02 
1730	 4.51785982460282E-02 
1731	 5.07682911432131E-02 
1732	 6.11913507137748E-02 
1733	 5.80959023614447E-02 
1734	 5.98315600788973E-02 
1735	 6.45382418438083E-02 
1736	 5.18047982789207E-02 
1737	 4.77868357139149E-02 
1738	 5.66266461066507E-02 
1739	 4.14485750851255E-02 
1740	 2.90678119522946E-02 
1741	 2.65165059060612E-02 
1742	 0.029432176478084 
1743	 3.71638771188188E-02 
1744	 3.80004045489375E-02 
1745	 4.81570592724131E-02 
1746	 6.58528986653818E-02 
1747	 6.92511471471726E-02 
1748	 5.85546373428473E-02 
1749	 5.46472242414535E-02 
1750	 4.26670922531539E-02 
1751	 0.039004868278014 
1752	 5.29919527056391E-02 
1753	 4.87901312059883E-02 
1754	 3.27852474542426E-02 
1755	 3.19334784396397E-02 
1756	 2.46254656207705E-02 
1757	 2.82308883671733E-02 
1758	 4.03322542579954E-02 
1759	 3.21641551831251E-02 
1760	 4.39516563071225E-02 
1761	 7.00540223164686E-02 
1762	 7.94154491990299E-02 
1763	 7.92090747554154E-02 
1764	 7.03045640072547E-02 
1765	 5.50147635723427E-02 
1766	 4.07863992508906E-02 
1767	 3.34503262971124E-02 
1768	 5.66733502347728E-02 
1769	 6.51881215923385E-02 
1770	 4.20584597883681E-02 
1771	 4.80147169620028E-02 
1772	 2.65367167240921E-02 
1773	-1.58840355962932E-03 
1774	 3.91462163875916E-02 
1775	 7.52571879712358E-02 
1776	 7.79163832361543E-02 
1777	 4.08439009630954E-02 
1778	 2.79157916299482E-02 
1779	-1.15831551526111E-04 
1780	-2.90138455471806E-03 
1781	 3.63509851986189E-02 
1782	 7.12614862372154E-02 
1783	 0.11548800694406 
1784	 0.155118148775681 
1785	 0.230138123779627 
1786	 0.227854335526168 
1787	 0.144715875505602 
1788	 0.116728041139018 
1789	 6.21676111494768E-02 
1790	 0.145476181974234 
1791	 0.156920553927788 
1792	 8.96426836064315E-02 
1793	-3.88957918989944E-02 
1794	-6.78563455544706E-02 
1795	 1.98406683030111E-02 
1796	 0.166317081957124 
1797	 0.551162170917764 
1798	 0.50430892193514 
1799	 0.22783041816465 
1800	-0.311518543641903 
1801	-0.445885528367285 
1802	 8.23916749876957E-02 
1803	 0.230874280435463 
1804	 0.581846504273995 
1805	 0.842995551085346 
1806	 0.93587198860205 
1807	 0.196599129443885 
1808	-0.221368957861539 
1809	-9.72536746334234E-02 
1810	 0.361390086765661 
1811	 0.601483165473325 
1812	 1.45423829717536 
1813	 2.12611499231853 
1814	 2.1705504466841 
1815	 5.15712432004288 
1816	 0.275430144334336 
1817	 0.357763485839394 
1818	 0.203933298114165 
1819	-5.78767610592143 
1820	 0.617603955142537 
1821	 0.309987919147339 
1822	 0.240723385691323 
1823	 6.74868689071604 
1824	-0.378738979177185 
1825	-4.00813234675667E-03 
1826	-7.30325029656554E-02 
1827	-0.349294086960701 
1828	-0.579180130285347 
1829	 10.9544379498148 
1830	 2.31595201832824 
1831	-0.929350464972089 
1832	-0.607646435368758 
1833	 0.820449505271876 
1834	 1.6055241360674 
1835	 2.2487199324332 
1836	 26.3820147043184 
1837	-0.253263517654796 
1838	-3.98281957623462E-02 
1839	-0.370761723471745 
1840	-2.22877639985055E-02 
1841	-1.34289396469113 
1842	-0.778095649581379 
1843	-0.542118690621793 
1844	-0.320648731892811 
1845	-0.11058233198851 
1846	 0.731032395012324 
1847	 0.948325124345171 
1848	 0.819648336212671 
1849	 0.392528324032992 
1850	-0.608322211800945 
1851	-0.544933457767292 
1852	-0.439420034644163 
1853	-0.513451194658984 
1854	-0.316813719647644 
1855	 13.0170415483183 
1856	-3.21981816548018 
1857	-1.4999882656818 
1858	-1.49120630005886 
1859	 1.70049152565205 
1860	-0.176351129792107 
1861	-2.76546732448161 
1862	 1.02889633150728 
1863	-6.06705033861069E-02 
1864	 0.148554936050584 
1865	 4.39127174639258E-02 
1866	-1.27545754179128 
1867	 3.10899604281001 
1868	 1.30508190805572 
1869	 2.1703827668137 
1870	-858.139950226499 
1871	-7.78393298259725 
1872	-2.89621363798709 
1873	-1.95957475072349 
1874	-2.10415983210188 
1875	-0.925668956972727 
1876	-0.488253860115309 
1877	-0.616929873531923 
1878	-0.29942967053076 
1879	 1.07252732467969 
1880	 1.2571330482632 
1881	 4.86669487873022 
1882	-5.76074733051869 
1883	 1.19745488758613 
1884	-1.31088415552998 
1885	-0.702006663168015 
1886	 0.023783314349451 
1887	-1.19782691427181 
1888	-0.341157668322678 
1889	-0.279475013741792 
1890	-0.2539847560417 
1891	-0.314834358223025 
1892	-0.152741918697018 
1893	-0.941455247761068 
1894	-3.53083744496395 
1895	-4.16803237514759 
1896	-1.84894941463349 
1897	-1.12355917747332 
1898	 0.360001573483415 
1899	 1.67194535651321 
1900	 3.76561108290797 
1901	-4.65885456539553 
1902	-3.78741025013925 
1903	-8.6197652016964 
1904	-15.7479376433102 
1905	 7.85720726376383 
1906	 2.63179716939502 
1907	 1.96436796166648 
1908	 1.03858138474389 
1909	 0.80147410460929 
1910	 0.638634958529863 
1911	-0.1298742576788 
1912	-0.435074833322825 
1913	-0.417134651387171 
1914	-0.275284242845523 
1915	-0.283909613400289 
1916	 6.18666280257633E-02 
1917	 1.86216289654397 
1918	-0.428180309145872 
1919	-0.256698992065894 
1920	-0.377208536577408 
1921	-1.76644909874308 
1922	-3.79001657847908 
1923	 1.1390673027856 
1924	-7.59888383961127 
1925	-1.96547343373658 
1926	-8.18546981717798 
1927	-4.535001103656 
1928	 0.319463379566521 
1929	 0.168537281169292 
1930	-0.125440358828858 
1931	-0.565008353714518 
1932	-0.131038230523398 
1933	 0.302513254207091 
1934	 0.885916858151205 
1935	 0.851051287554147 
1936	 0.636824702580479 
1937	 0.793030904100038 
1938	-0.292033124672904 
1939	-1.41057455220001 
1940	-2.28894514312589 
1941	-2.75756711121642 
1942	-1.09143514266827 
1943	-0.537301338760131 
1944	-0.854869179236735 
1945	-1.22564741781638 
1946	-1.02827275096826 
1947	-0.724276110768797 
1948	-0.504594887680896 
1949	-0.212433146423101 
1950	 0.70090910197775 
1951	 2.28032787529125 
1952	 4.16999964039746 
1953	 3.69172212694188 
1954	 1.972599464455 
1955	 3.07127813643501 
1956	 22.4233207528885 
1957	-12.9902523443603 
1958	-1.39249834365546 
1959	-0.848962621031402 
1960	-0.510951059848856 
1961	-0.320735216808688 
1962	-0.163266863950754 
1963	 4.45185229167329E-02 
1964	-0.667353044013245 
1965	-2.46407700756051 
1966	-7.33579714213656 
1967	-5.12913096726675 
1968	 5.46701819930279 
1969	 0.205221390071274 
1970	-0.482186544608562 
1971	-0.878223077794644 
1972	-0.924316677492557 
1973	-0.632260287621577 
1974	-0.682994414059902 
1975	 0.856129261668341 
1976	 3.9442155324677 
1977	-6.01693669952205 
1978	-1.75002734472837 
1979	-0.971733637996248 
1980	-0.163519911766206 
1981	 0.229090563241874 
1982	 1.71919809057424E-02 
1983	 65.9809202789041 
1984	-0.918578465989874 
1985	-1.46830941962902 
1986	-2.25712610567941 
1987	-1.6913984244972 
1988	-1.33254606689884 
1989	-0.709422871667263 
1990	-0.624381196314461 
1991	 0.271638778851 
1992	 0.759804045729177 
1993	 0.993262695034382 
1994	 2.13791285890655 
1995	 175.750420547598 
1996	 8.36891536865065 
1997	-2.86179990868211 
1998	-3.68012880769678 
1999	 13.1905297242709 
2000	 3.50261827511861 
2001	 8.03069988657634 
2002	 2.2907666887291 
2003	-0.512321017682039 
2004	-0.262831557746222 
2005	 4.02295538423599E-02 
2006	 0.11104830883951 
2007	 0.242288201318142 
2008	 0.142602402242357 
2009	 0.139688753494989 
2010	-2.15427098356564E-02 
2011	-0.226360931276269 
2012	-2.07465625093595 
2013	 0.635374421652973 
2014	 1.67323971308153 
2015	 0.754880232199694 
2016	 1.35786130033995 
2017	-1.3540539402691 
2018	-1.1287884178592 
2019	-0.797516517727669 
2020	-1.19074576543592 
2021	-1.32226008893902 
2022	-1.72621465470527 
2023	-1.73861587737122 
2024	-1.5995617241725 
2025	-1.73850382271776 
2026	-1.83611630885577 
2027	-1.96678245590942 
2028	-1.02845131450401 
2029	-0.157260471741705 
2030	 0.439308289957945 
2031	 0.530553150595162 
2032	 0.623456519084313 
2033	 0.348386111592857 
2034	 0.370759455632275 
2035	 0.570331807070673 
2036	 0.262473815505445 
2037	 0.240347015476111 
2038	 0.330068865265244 
2039	 6.24682384379205E-02 
2040	-0.269816630981027 
2041	-0.268324754858 
2042	-0.272186772555917 
2043	-0.427959388990982 
2044	-0.761690242701307 
2045	-1.43842664453682 
2046	 3.85441705680071 
2047	-7.60278649555749 
2048	-0.943722982516497 
2049	 3.18231965266218E-02 
2050	-0.012003775286397 
2051	-0.144568560972875 
2052	-7.87535027370318E-02 
2053	-0.217452783640404 
2054	-0.252251835803909 
2055	-0.020111870034206 
2056	 9.34714138058456E-02 
2057	 0.383593882760729 
2058	 0.538838328059347 
2059	 0.607143379684547 
2060	 0.388464069034822 
2061	-0.187096241835417 
2062	-0.308983532525343 
2063	-0.322425655554385 
2064	-0.061653576537634 
2065	 0.905861975024676 
2066	 9.70389365981015 
2067	 5.43122931319862 
2068	 0.458539109572995 
2069	-0.100532171325695 
2070	 4.97725074187292E-02 
2071	-1.71649234479224E-02 
2072	-0.217876402578732 
2073	-0.269282424931076 
2074	-0.303553035119795 
2075	-0.22870690625234 
2076	 0.127983951959263 
2077	 0.179420181798682 
2078	 2.08762569401862E-02 
2079	 6.76812121748921E-02 
2080	 8.94497865954895E-02 
2081	-4.56096520854771E-02 
2082	-2.46019153941951E-02 
2083	 0.313324764772635 
2084	 0.247411077602803 
2085	 0.279983244486717 
2086	 0.402042792716102 
2087	 0.417812817047887 
2088	 0.57568202400567 
2089	 0.907454186188463 
2090	 1.33003498251239 
2091	 2.09009937235472 
2092	 1.60596636677864 
2093	 0.393978036052017 
2094	 0.2028363559542 
2095	-5.06275396833186E-02 
2096	-0.15057597260228 
2097	-0.11489724548188 
2098	-7.31226603346958E-02 
2099	 7.49953085226196E-02 
2100	 8.82908239155498E-02 
2101	 8.88668990813854E-02 
2102	 0.223022825676814 
2103	 0.138501600729372 
2104	 6.85998645947914E-02 
2105	 0.084065169195248 
2106	 0.182504906750596 
2107	 0.328397590193955 
2108	 0.510184683621212 
2109	 0.615882611899798 
2110	 0.51603451269422 
2111	 0.495456340551988 
2112	 0.450394301134866 
2113	 0.3875904277507 
2114	 0.199600085718242 
2115	 0.17829762377694 
2116	 0.412274071745509 
2117	 0.405789588847018 
2118	 0.342175285632822 
2119	 0.266440121171778 
2120	 7.95666830515637E-02 
2121	-3.46332544198774E-02 
2122	-1.92314995668164E-02 
2123	 0.133390670338983 
2124	 0.336332516112768 
2125	 0.355635167574443 
2126	 0.224485346567442 
2127	 0.156289400614095 
2128	 0.182052806918062 
2129	 0.245434202633675 
2130	 0.206700379081088 
2131	 0.242730444977138 
2132	 0.307449150603201 
2133	 0.240448190382088 
2134	 0.245561189288187 
2135	 0.381333152062201 
2136	 0.327777764410077 
2137	 0.139777739882657 
2138	 8.55187966156261E-02 
2139	-3.06642941406284E-02 
2140	-2.33407666326474E-02 
2141	 0.211362068891406 
2142	 0.2273354246526 
2143	 0.208700687815435 
2144	 9.48721178572068E-02 
2145	-7.71998399921201E-02 
2146	-0.258740602184098 
2147	-0.329959162019695 
2148	-0.2702047293651 
2149	-0.135290356610057 
2150	-1.75911108805843E-02 
2151	-1.64060082396582E-02 
2152	-5.19739406500423E-02 
2153	-0.137274662082526 
2154	-0.206394263395683 
2155	-0.139221855719064 
2156	-0.123607247092011 
2157	-8.31618799232786E-02 
2158	 8.23196072983014E-03 
2159	 4.68816812489531E-02 
2160	 0.105532655379019 
2161	 0.10855623329177 
2162	-2.56071265032669E-02 
2163	-6.23045286416465E-02 
2164	-0.11355281914935 
2165	-0.101765789467908 
2166	 7.24613284805342E-02 
2167	 0.139990165365674 
2168	 0.253694755395993 
2169	 0.257965373806793 
2170	 7.94723656488912E-02 
2171	-1.13225753306833E-02 
2172	-0.408102178351224 
2173	-0.687175635429507 
2174	-0.502683802812529 
2175	-0.754244793372475 
2176	-0.595561004083194 
2177	-0.358188908836599 
2178	-0.478056887428704 
2179	-0.309519983978342 
2180	-2.41604471869702E-02 
2181	 0.129627538708077 
2182	 0.200921168977632 
2183	 0.197717340645964 
2184	 5.11492448535853E-03 
2185	-7.66011424074392E-02 
2186	-0.135959161331255 
2187	-0.258738967382611 
2188	-0.251882699682156 
2189	 5.52414581352692E-03 
2190	 6.18036723612299E-03 
2191	-6.25902404611953E-02 
2192	-1.15465972547785E-02 
2193	 2.29365452346602E-02 
2194	 2.37181851309937E-02 
2195	 0.116471902798146 
2196	 0.108848827482374 
2197	-0.139950952303809 
2198	-0.192432183356153 
2199	-0.168124285150119 
2200	-4.97242288234341E-02 
2201	 3.17248213809283E-02 
2202	 0.305980342838908 
2203	 0.301980508898276 
2204	 7.60072952370225E-02 
2205	 0.060594869756115 
2206	 0.016328303595811 
2207	 0.079346399645381 
2208	-7.85148838462612E-02 
2209	-0.120512589220223 
2210	-0.137548315827695 
2211	-0.509215062359974 
2212	-0.40271432585813 
2213	-0.154962830867841 
2214	-0.177027412670536 
2215	-0.102920675892393 
2216	 0.290449384822528 
2217	 0.371492315587673 
2218	 0.137399926247922 
2219	 7.85052550023849E-02 
2220	 6.48094232280596E-02 
2221	-3.05466954580755E-02 
2222	-0.411070078389004 
2223	-0.454084585497136 
2224	-0.196605923199259 
2225	-5.98659742442837E-02 
2226	 0.155725885539809 
2227	 0.232274036282541 
2228	 0.194607771440542 
2229	 0.205062923584435 
2230	 0.222591579515268 
2231	 0.327071734060156 
2232	 0.877808887444095 
2233	 1.13803703403421 
2234	 1.1081127115106 
2235	 0.554277130837831 
2236	 0.395544161856052 
2237	 0.277875134565095 
2238	 0.257942047790506 
2239	 0.344560040301845 
2240	 0.122015101073599 
2241	 7.06382444086913E-02 
2242	 0.115748131427534 
2243	 4.78421721540668E-02 
2244	-6.71197125545811E-02 
2245	-0.519057030481283 
2246	-0.861300558123879 
2247	-0.868266010673588 
2248	-0.523342511327701 
2249	-7.94046695967813E-02 
2250	 5.37537873574203E-03 
2251	-0.177095973328606 
2252	-0.376067297639501 
2253	-0.664804610635973 
2254	-1.31610255391891 
2255	-1.28237096414441 
2256	-0.338648083376509 
2257	-7.04906467894155E-02 
2258	-0.177040494447102 
2259	-7.95610613855741E-02 
2260	-0.182335271686276 
2261	-0.661198640172173 
2262	-0.805375989702461 
2263	-0.918863797632316 
2264	-1.25837311665792 
2265	-2.5996073271199 
2266	-3.45660448443774 
2267	-2.97977217529079 
2268	-2.82749986554812 
2269	-2.23696808397841 
2270	-0.956173885781921 
2271	-0.437187976771672 
2272	-0.39734665468863 
2273	-0.321538906548705 
2274	-0.241938505070849 
2275	-0.456457909225552 
2276	-0.423471095386734 
2277	-1.38012374618076E-02 
2278	 5.86877840545834E-02 
2279	 0.30702936631805 
2280	 0.589539850059989 
2281	 0.802732797377862 
2282	 1.31914378364103 
2283	 1.6147553899523 
2284	 0.848948187189984 
2285	 0.724180403851721 
2286	 1.17789778928336 
2287	-3.77194010904019 
2288	 0.382038518743768 
2289	 1.00682802485252 
2290	 0.821406895694081 
2291	-3.21101558014965 
2292	-0.3424199025297 
2293	-1.12014022149559 
2294	-1.60932071079975 
2295	-3.69336773933936 
2296	-10.7428298064073 
2297	-1.30152590168417 
2298	-0.326068301371868 
2299	 0.464352601539642 
2300	 0.397814697083635 
2301	-0.580154600642982 
2302	-1.7534133978165 
2303	 1.23095855049297 
2304	 0.493641798256011 
2305	 0.592191517229326 
2306	 0.883819803057597 
2307	 1.38308987307074 
2308	-42.1107724835488 
2309	 10.5683311214348 
2310	-5.45740996032022 
2311	 1.69929449735651 
2312	-1.02657184739214 
2313	-3.49222563358517 
2314	-12.6148941760502 
2315	-124.369784538761 
2316	 43.0458466468254 
2317	 11.7699278042016 
2318	 6.08339591717792 
2319	 15.3475752650145 
2320	-9.03637640775495 
2321	-15.804675798327 
2322	 0.266581133793364 
2323	 1.26136370204188 
2324	-18.7116846471133 
2325	-1.14196377825294E-02 
2326	 0.114594432790332 
2327	-0.594912876569375 
2328	-0.914359486460503 
2329	-0.655881329559716 
2330	-0.60130349381662 
2331	-0.347833600207453 
2332	-0.234883445851022 
2333	-1.12818746841047 
2334	-1.29605281879586 
2335	-1.29465030256653 
2336	-1.15511215322516 
2337	-1.51762847716743 
2338	-4.38969781235678 
2339	 9.88011463346591 
2340	-12.8701505643167 
2341	-4.17931355512433 
2342	-11.380946542026 
2343	-5.28123320907521 
2344	 1.51392852290946 
2345	 0.271341398659157 
2346	 0.263431496445488 
2347	 1.17601882210421 
2348	 0.956006100258254 
2349	 0.944341570539731 
2350	 1.41586359847339 
2351	 1.19785595236374 
2352	 0.846410242000144 
2353	 0.757759676640759 
2354	 0.584137901719869 
2355	 1250.49471527179 
2356	-2.36516119661082 
2357	 25.669799626794 
2358	 3.27354356465106 
2359	 1.523915152475 
2360	 1.09470077602065 
2361	 2.22397334159219 
2362	 15.598824070808 
2363	-30.6724224019953 
2364	 4.76743699332916 
2365	 1.71060346420965 
2366	 0.403683095680941 
2367	 0.207993355609487 
2368	 0.276514906316842 
2369	 0.32957215412935 
2370	 0.564129566804643 
2371	 1.21399445803555 
2372	 1.50581071508155 
2373	 5.05025597532614 
2374	 1.15864646662972 
2375	 5.83408905035174E-02 
2376	-1.73059626959028 
2377	-0.982784513470926 
2378	-0.707120725172433 
2379	-0.290854350234467 
2380	 0.593878802583298 
2381	 0.196677554275992 
2382	 6.9624262353424E-03 
2383	 0.174722092050528 
2384	 0.145876271364887 
2385	 0.175238488139234 
2386	 0.411956951136583 
2387	 0.305698830643593 
2388	 0.20193027371555 
2389	-0.40342036907849 
2390	 0.151189745128785 
2391	 0.689832777110526 
2392	-0.144344092312474 
2393	-4.66953556587594E-02 
2394	 0.928381150915022 
2395	 1.92366981849645 
2396	 0.453612168714009 
2397	 0.398116390631342 
2398	 0.536278641025117 
2399	 0.443334900162329 
2400	 0.307691117438031 
2401	 0.125034948612416 
2402	 0.121830796620834 
2403	 0.44677254614621 
2404	 0.378285091661371 
2405	 0.685950692608586 
2406	 1.03923861363345 
2407	 0.370716949341679 
2408	-0.193016837154457 
2409	-1.15466327256008 
2410	-3.18832170447067 
2411	-2.86305588352625 
2412	-0.652580037835348 
2413	-0.17412044409441 
2414	 0.107491549744872 
2415	 4.62635233527038E-02 
2416	-0.233948732686417 
2417	-0.291127549009384 
2418	-0.339576356139929 
2419	-0.577834411114723 
2420	 1.6473935360081 
2421	 6.07372390644605 
2422	 4.61884056541071 
2423	 3.01401918482646 
2424	 4.02321235816782 
2425	-3.16443683730635 
2426	-2.2986301670084 
2427	-15.8760808610845 
2428	-4.60351011605074 
2429	-1.85054585830904 
2430	-1.2710239655924 
2431	-1.21841580430035 
2432	-1.57649787897918 
2433	 3.45568877862542 
2434	-2.33915352803709 
2435	-0.432224716398803 
2436	-0.131440528407049 
2437	-0.253017693778033 
2438	-0.730932252452901 
2439	-0.182841819806313 
2440	-0.104039286414761 
2441	-0.139977358235942 
2442	-8.32908415328265E-02 
2443	-0.32695387929162 
2444	-0.388952008563533 
2445	-6.89063676618379E-02 
2446	-0.541898324183749 
2447	 1.60662144623967 
2448	 6.57671100425514 
2449	-21.4261012537018 
2450	 7.93983769968796 
2451	-2.71025481916606 
2452	-1.11433979237217 
2453	-1.00349064169358 
2454	-0.961665154634657 
2455	-0.284098706978484 
2456	-0.447941067353257 
2457	 0.216770830814763 
2458	-0.185736904653685 
2459	-5.0120228028899 
2460	 2.65122571043979 
2461	 1.26419139631159 
2462	 1.3820863984034 
2463	 2.74286455380215 
2464	 8.05437114079753 
2465	 7.27968428187517 
2466	 3.79691709990607 
2467	 2.26037308953464 
2468	 4.16246166572238 
2469	-7.00605189483134 
2470	-1.89150560521526 
2471	-0.471154269553037 
2472	-0.436744152693166 
2473	-1.64171740478864 
2474	-1.05602226330451 
2475	-0.57856435776094 
2476	 1.43072728473981 
2477	 5.01461402358498 
2478	-3.21843118587147 
2479	-0.415265447852225 
2480	 1.29386375442309E-02 
2481	 1.58781654453571E-02 
2482	 0.804613177501184 
2483	 3.89251930416412 
2484	 1.00048090921311 
2485	 1.10999912079638 
2486	 0.838435896502442 
2487	 0.255659325242865 
2488	-8.77639652303127E-02 
2489	-0.256183276444902 
2490	-0.160709988402447 
2491	 0.361636324628688 
2492	 2.28464579823404 
2493	 2.37198549519234 
2494	 2.03516268884198 
2495	 0.65472327435384 
2496	 0.359855884223464 
2497	-0.579157477747543 
2498	-1.20414994441142 
2499	-2.22032962021872 
2500	-2.97848170302511 
