Wavelength	rt0713west_far_sunny_200005.asd
350	 5.82345598874926E-02 
351	 5.73456317914732E-02 
352	 5.70644896542624E-02 
353	 5.74222399978966E-02 
354	 5.77791598537025E-02 
355	 5.67590210708433E-02 
356	 5.64142203953728E-02 
357	 5.66121123403855E-02 
358	 5.65987346631506E-02 
359	 5.62110695162386E-02 
360	 5.59137879921688E-02 
361	 5.58276618066199E-02 
362	 0.055786871679524 
363	 5.54509079329837E-02 
364	 5.52138751419904E-02 
365	 5.52768936599667E-02 
366	 5.54300312188328E-02 
367	 5.52588411669402E-02 
368	 5.49598623662638E-02 
369	 5.48000713124302E-02 
370	 5.45973553429621E-02 
371	 5.47795585044676E-02 
372	 5.50033553803694E-02 
373	 5.46396002931313E-02 
374	 5.47897004178868E-02 
375	 5.49502308106473E-02 
376	 5.47449787877774E-02 
377	 5.42177190531238E-02 
378	 5.42886210496195E-02 
379	 5.44831054805838E-02 
380	 5.43659160115113E-02 
381	 5.47851643974864E-02 
382	 5.48341267374086E-02 
383	 5.46177263617272E-02 
384	 5.46982142215509E-02 
385	 5.50996442147192E-02 
386	 5.48997733384491E-02 
387	 5.43396128428014E-02 
388	 5.49097328147959E-02 
389	 5.46811428402816E-02 
390	 5.44608177152549E-02 
391	 5.49204863830054E-02 
392	 5.51468435833001E-02 
393	 5.51719269968046E-02 
394	 5.51179769731796E-02 
395	 5.51306008089186E-02 
396	 5.51616933100889E-02 
397	 5.52536589686116E-02 
398	 5.53223014259258E-02 
399	 5.51969088392993E-02 
400	 5.51649297658741E-02 
401	 5.52055723669774E-02 
402	 5.52560950661418E-02 
403	 5.52681484216005E-02 
404	 0.055413036395965 
405	 5.55512437793876E-02 
406	 5.54937818242743E-02 
407	 5.54601673157962E-02 
408	 5.55536844461065E-02 
409	 5.57021851792404E-02 
410	 5.56900338639213E-02 
411	 5.57110851826634E-02 
412	 5.58445577200987E-02 
413	 5.60363247401883E-02 
414	 5.59448409254725E-02 
415	 5.60731046356988E-02 
416	 5.63037594866443E-02 
417	 5.63469097739406E-02 
418	 5.65466431116031E-02 
419	 5.67402573874877E-02 
420	 5.68534911903874E-02 
421	 5.69457234733498E-02 
422	 5.70878691352674E-02 
423	 5.73334398550032E-02 
424	 5.76459192828194E-02 
425	 5.77536543327161E-02 
426	 5.79659219026067E-02 
427	 5.82716801401846E-02 
428	 5.85335891623069E-02 
429	 5.89665377226045E-02 
430	 5.92080396895878E-02 
431	 5.92708973533135E-02 
432	 5.96501474727678E-02 
433	 5.99485009041416E-02 
434	 6.01709842563239E-02 
435	 6.04140397969522E-02 
436	 6.07784448468611E-02 
437	 6.11104057644506E-02 
438	 6.13815207251578E-02 
439	 6.16380592174925E-02 
440	 6.19088120191771E-02 
441	 6.22183789667105E-02 
442	 0.062548232393884 
443	 6.28188499619797E-02 
444	 6.31576167427758E-02 
445	 6.34693013937557E-02 
446	 0.063671152941618 
447	 6.39785087477889E-02 
448	 0.064238084866712 
449	 6.44185599489355E-02 
450	 6.45945993207126E-02 
451	 6.49054807109864E-02 
452	 6.51485452367428E-02 
453	 6.52406338059296E-02 
454	 6.54350135055962E-02 
455	 6.56833563813035E-02 
456	 6.58816427415924E-02 
457	 6.59572223706117E-02 
458	 6.61495534684438E-02 
459	 6.63318975173283E-02 
460	 6.64660792161556E-02 
461	 6.66165185413032E-02 
462	 0.066680360533443 
463	 6.68072928538886E-02 
464	 6.70768526820066E-02 
465	 6.72555832123594E-02 
466	 6.73508417845613E-02 
467	 6.74168190680759E-02 
468	 6.75349389422562E-02 
469	 6.77321914455433E-02 
470	 6.78633578704347E-02 
471	 0.067911097275327 
472	 6.80450228928972E-02 
473	 6.82321700245751E-02 
474	 6.84503265628583E-02 
475	 6.86737070608565E-02 
476	 6.88690408912168E-02 
477	 6.90748306602489E-02 
478	 6.93015616328212E-02 
479	 0.069540101822575 
480	 6.97877354305526E-02 
481	 7.00760143111642E-02 
482	 7.03934982755554E-02 
483	 7.06248624759675E-02 
484	 7.09391359560758E-02 
485	 7.12870896504862E-02 
486	 7.15678533421516E-02 
487	 7.18775939455492E-02 
488	 7.21728521296149E-02 
489	 7.24506040424014E-02 
490	 7.27541775891684E-02 
491	 7.31162584073783E-02 
492	 7.35174633859469E-02 
493	 7.39214533556262E-02 
494	 7.42797092688279E-02 
495	 7.46897306909597E-02 
496	 7.50934020072029E-02 
497	 7.53875741372503E-02 
498	 7.58025249530125E-02 
499	 7.62285678707425E-02 
500	 7.65963568245511E-02 
501	 7.69517197220844E-02 
502	 7.73618371334718E-02 
503	 7.77941108422574E-02 
504	 0.078202366474952 
505	 7.86064163497477E-02 
506	 7.90949518143234E-02 
507	 7.96262166955569E-02 
508	 8.00620125714901E-02 
509	 8.04560986425207E-02 
510	 8.09082837964057E-02 
511	 8.14517897881652E-02 
512	 8.19592747225373E-02 
513	 8.24619612070178E-02 
514	 8.29976619710625E-02 
515	 8.35936611549512E-02 
516	 8.41762779219112E-02 
517	 8.47529673817284E-02 
518	 8.53225560770984E-02 
519	 8.58669402770428E-02 
520	 8.64295417695996E-02 
521	 8.69861174332135E-02 
522	 8.75215456790898E-02 
523	 8.80884657590576E-02 
524	 8.86994658832317E-02 
525	 8.93406959650415E-02 
526	 8.99824111033431E-02 
527	 9.06329298400375E-02 
528	 9.12286777816913E-02 
529	 9.17641429808968E-02 
530	 9.23602054594273E-02 
531	 9.29961440551816E-02 
532	 9.36675804487311E-02 
533	 9.43582107628666E-02 
534	 9.50005182912626E-02 
535	 0.095608797137961 
536	 9.62203424974172E-02 
537	 9.68849175155706E-02 
538	 9.74958224914866E-02 
539	 9.80977276610373E-02 
540	 9.87434273300643E-02 
541	 9.93855192139136E-02 
542	 0.100042357857199 
543	 0.100689591642433 
544	 0.101294466755418 
545	 0.102007332826122 
546	 0.102680064654519 
547	 0.103253879259722 
548	 0.103916188944002 
549	 0.104567497149775 
550	 0.105183999403033 
551	 0.105782024852902 
552	 0.10644850692263 
553	 0.107091332714417 
554	 0.107699954611724 
555	 0.108361576537878 
556	 0.108980585799127 
557	 0.109551211547106 
558	 0.110098258399188 
559	 0.110690276794052 
560	 0.111270515357978 
561	 0.111795104129121 
562	 0.112244733634876 
563	 0.112722155444427 
564	 0.113181129381702 
565	 0.1135707963613 
566	 0.113866520196315 
567	 0.114175952281424 
568	 0.114492296058314 
569	 0.114778688778858 
570	 0.115106156722781 
571	 0.115424275341021 
572	 0.11568748365998 
573	 0.115866075884059 
574	 0.11605236296038 
575	 0.11624806968447 
576	 0.1164257219372 
577	 0.116542550785985 
578	 0.116659364814979 
579	 0.116777225583388 
580	 0.116851944651922 
581	 0.116810381958686 
582	 0.116657096047841 
583	 0.116434728453013 
584	 0.116242560923902 
585	 0.115915354240685 
586	 0.115435441567275 
587	 0.114848277885682 
588	 0.114240754972661 
589	 0.113726226732777 
590	 0.113373476078453 
591	 0.113147909541429 
592	 0.11274484051753 
593	 0.112226181845891 
594	 0.111691416111978 
595	 0.11106427943653 
596	 0.110310909669214 
597	 0.10946857558528 
598	 0.108621444846945 
599	 0.107782805921072 
600	 0.107055764343163 
601	 0.106483090369848 
602	 0.105984950008594 
603	 0.105669603677313 
604	 0.105478470357971 
605	 0.105322747367284 
606	 0.105252960670575 
607	 0.10520121316464 
608	 0.10514994135894 
609	 0.105137903257654 
610	 0.105155640786329 
611	 0.105128283599574 
612	 0.105036107195036 
613	 0.105064765123407 
614	 0.105043264982047 
615	 0.104968741697319 
616	 0.104926439605915 
617	 0.104865353433447 
618	 0.104766128787056 
619	 0.10465282503307 
620	 0.104617323753965 
621	 0.104561796459123 
622	 0.104502840794353 
623	 0.104467076661408 
624	 0.104353684624485 
625	 0.104167747884291 
626	 0.103961690174406 
627	 0.103825652040678 
628	 0.10374079661079 
629	 0.1037242614743 
630	 0.103755445268729 
631	 0.103708237111458 
632	 0.103682471316029 
633	 0.103642920634881 
634	 0.103522027951066 
635	 0.103530935907939 
636	 0.103504928632547 
637	 0.103360713874686 
638	 0.103176379032574 
639	 0.103065647236576 
640	 0.102955196033614 
641	 0.102748350749527 
642	 0.10251143664924 
643	 0.102237737835905 
644	 0.101883752849968 
645	 0.101392954164469 
646	 0.100969229416876 
647	 0.100686091224185 
648	 0.100524081729171 
649	 0.100321092763957 
650	 0.100075631932343 
651	 9.98117161296091E-02 
652	 9.95498941146735E-02 
653	 9.91146988721995E-02 
654	 0.098557774953362 
655	 0.097928055741774 
656	 9.73347954755869E-02 
657	 9.67941324790589E-02 
658	 9.63414842517812E-02 
659	 0.095979288094359 
660	 0.095671515328596 
661	 9.53225347071636E-02 
662	 9.49855466469361E-02 
663	 9.47954337529162E-02 
664	 9.46028017521997E-02 
665	 0.094415068384442 
666	 9.42440603437273E-02 
667	 0.094077956547123 
668	 9.39016410072422E-02 
669	 9.37689637967094E-02 
670	 9.37180739363762E-02 
671	 9.35903561458531E-02 
672	 9.34625694829251E-02 
673	 9.33726727412661E-02 
674	 9.33112367889307E-02 
675	 9.32663636215403E-02 
676	 9.32695279530412E-02 
677	 9.33057456974614E-02 
678	 9.32224134545464E-02 
679	 0.093103949652316 
680	 9.30648715936023E-02 
681	 9.31850846572461E-02 
682	 9.31992172079625E-02 
683	 9.32383475567634E-02 
684	 9.32806075267421E-02 
685	 9.30435708173938E-02 
686	 9.26937658995405E-02 
687	 9.24645853566692E-02 
688	 9.24642625863665E-02 
689	 9.23476043443768E-02 
690	 9.20346743048062E-02 
691	 9.15469519372444E-02 
692	 9.09781784556221E-02 
693	 9.04733064438924E-02 
694	 9.01231762945475E-02 
695	 8.98473936034953E-02 
696	 8.93255505302505E-02 
697	 8.85782741916645E-02 
698	 8.76738834296498E-02 
699	 8.67704092494353E-02 
700	 8.59329314048359E-02 
701	 8.51395000420132E-02 
702	 8.43392813026923E-02 
703	 8.34396045975966E-02 
704	 8.23885317939192E-02 
705	 0.081275089204241 
706	 8.01884844068038E-02 
707	 7.90949664477167E-02 
708	 7.78126689419958E-02 
709	 7.64010456087957E-02 
710	 7.49706114649659E-02 
711	 7.33268934168583E-02 
712	 7.15667274992197E-02 
713	 6.97277752167239E-02 
714	 6.77097526116284E-02 
715	 6.54728476054122E-02 
716	 6.29717655451887E-02 
717	 6.05038842554308E-02 
718	 5.83707530064569E-02 
719	 5.66580748555797E-02 
720	 5.53696377019062E-02 
721	 5.41091941353105E-02 
722	 5.24224923315149E-02 
723	 5.03860294892182E-02 
724	 4.84234896281288E-02 
725	 4.66751486403071E-02 
726	 4.50171871195163E-02 
727	 4.32437029054329E-02 
728	 4.12946633684447E-02 
729	 3.94557492220388E-02 
730	 3.77150341773454E-02 
731	 3.62991532001233E-02 
732	 3.52903580664221E-02 
733	 3.42617299741728E-02 
734	 3.32393435409999E-02 
735	 0.032352687844684 
736	 3.18056308050195E-02 
737	 3.14108114413805E-02 
738	 3.11796513018555E-02 
739	 3.11109393406918E-02 
740	 3.10059660618157E-02 
741	 3.09625577324793E-02 
742	 0.030959323592268 
743	 3.09177040420217E-02 
744	 3.08359248787142E-02 
745	 3.07576672869134E-02 
746	 3.07164400980913E-02 
747	 3.07232782015222E-02 
748	 3.07446631366104E-02 
749	 3.07443403442417E-02 
750	 0.03069687824491 
751	 3.06000701919217E-02 
752	 3.05547125032668E-02 
753	 0.030557233601809 
754	 3.05433621003781E-02 
755	 3.05035729850829E-02 
756	 3.04452074464075E-02 
757	 3.02947210523107E-02 
758	 0.029731189786482 
759	 2.90182838765666E-02 
760	 2.84545849502091E-02 
761	 2.84120501666336E-02 
762	 2.83349653525869E-02 
763	 2.85275366767344E-02 
764	 2.90239581028647E-02 
765	 2.96691169331846E-02 
766	 3.00353366062637E-02 
767	 3.02613196571208E-02 
768	 3.04511180187914E-02 
769	 3.06541693641533E-02 
770	 0.030786100256985 
771	 3.09252013691408E-02 
772	 3.11039650969613E-02 
773	 3.11287420869382E-02 
774	 3.12489977426332E-02 
775	 3.14463939740623E-02 
776	 3.15975976567671E-02 
777	 3.17261330836474E-02 
778	 0.031885739225114 
779	 3.20729568690725E-02 
780	 3.22242919049231E-02 
781	 3.22863729805108E-02 
782	 3.23836343672393E-02 
783	 3.25824579408038E-02 
784	 3.27542411029705E-02 
785	 3.28340897095321E-02 
786	 3.29079310241227E-02 
787	 3.30779039344053E-02 
788	 3.31730900987658E-02 
789	 3.33605686891786E-02 
790	 3.36760506784915E-02 
791	 3.40323019083567E-02 
792	 3.43999258381369E-02 
793	 3.46700312982906E-02 
794	 3.48552496536378E-02 
795	 3.51631036540093E-02 
796	 3.54121119767772E-02 
797	 3.55908387206239E-02 
798	 3.57529253206521E-02 
799	 3.59676629473655E-02 
800	 3.61470759505897E-02 
801	 3.62688053454843E-02 
802	 0.036384823388798 
803	 3.67507833292585E-02 
804	 3.69181213535797E-02 
805	 3.68593200396611E-02 
806	 3.70403437913167E-02 
807	 3.71233182605443E-02 
808	 3.69201616765599E-02 
809	 3.64365242338147E-02 
810	 3.60786645704695E-02 
811	 3.59034916762339E-02 
812	 3.55856987991641E-02 
813	 0.034770671575462 
814	 3.42515982412698E-02 
815	 3.39000665945197E-02 
816	 3.35788898509323E-02 
817	 3.32182858933242E-02 
818	 3.30349414968964E-02 
819	 3.29271212484094E-02 
820	 3.26403975808099E-02 
821	 3.17535676435022E-02 
822	 3.09877642967104E-02 
823	 3.03570811297212E-02 
824	 2.97193564310063E-02 
825	 2.90674513558261E-02 
826	 2.81121383660436E-02 
827	 2.69693817326793E-02 
828	 2.60053166484463E-02 
829	 2.53630579453789E-02 
830	 2.47482071629126E-02 
831	 2.41785177066516E-02 
832	 0.023887673604152 
833	 2.34687906599225E-02 
834	 2.31624623829513E-02 
835	 2.30814216646583E-02 
836	 2.30811375951287E-02 
837	 2.28877304689953E-02 
838	 0.022666850251515 
839	 2.26315840997491E-02 
840	 2.29068947616667E-02 
841	 2.27354068233534E-02 
842	 2.24344803449565E-02 
843	 2.25315678296009E-02 
844	 2.24538115295644E-02 
845	 2.23542266827234E-02 
846	 2.22986753238258E-02 
847	 2.22579420854694E-02 
848	 2.20492651377154E-02 
849	 2.19347119388053E-02 
850	 2.19613430731648E-02 
851	 2.18493803931859E-02 
852	 2.17377579474181E-02 
853	 2.16688745252689E-02 
854	 2.16140237581139E-02 
855	 2.14304036644245E-02 
856	 2.13409280947517E-02 
857	 2.14088653661696E-02 
858	 2.15825358656061E-02 
859	 2.16298649828702E-02 
860	 2.14199847858382E-02 
861	 2.11380874170536E-02 
862	 2.10788938847578E-02 
863	 2.11295644110693E-02 
864	 2.09988189512532E-02 
865	 2.07685120236462E-02 
866	 2.08142537944634E-02 
867	 2.06806927987845E-02 
868	 2.06197196034033E-02 
869	 2.06829721794109E-02 
870	 2.05552979222529E-02 
871	 2.03869096689474E-02 
872	 2.02050150352363E-02 
873	 2.00712869330352E-02 
874	 2.01762101870219E-02 
875	 2.02637175585131E-02 
876	 2.02058492606933E-02 
877	 1.99987230083587E-02 
878	 1.98909404736657E-02 
879	 1.97248362237589E-02 
880	 1.94733515120274E-02 
881	 1.92243982036948E-02 
882	 1.92853361612661E-02 
883	 0.019255066241234 
884	 1.91109304026455E-02 
885	 1.91085965805911E-02 
886	 1.90212317412309E-02 
887	 1.88534871402788E-02 
888	 1.86508459085464E-02 
889	 1.84773125513123E-02 
890	 1.84543265513909E-02 
891	 1.82475640975391E-02 
892	 1.78105364799303E-02 
893	 1.78045834751904E-02 
894	 1.73439298235599E-02 
895	 1.67669007270116E-02 
896	 1.65568472160713E-02 
897	 1.63168181082449E-02 
898	 1.64228804150446E-02 
899	 1.65834294024875E-02 
900	 1.64315460980728E-02 
901	 1.61787707889425E-02 
902	 1.60716228294031E-02 
903	 1.61076052958196E-02 
904	 1.61925488551318E-02 
905	 1.63540244163522E-02 
906	 1.63897613960831E-02 
907	 1.63001127933856E-02 
908	 1.61787924172711E-02 
909	 1.55109157557976E-02 
910	 1.49923148624984E-02 
911	 1.50003705053349E-02 
912	 1.53909166697891E-02 
913	 1.54243289173111E-02 
914	 0.015254774699064 
915	 1.51041633484207E-02 
916	 0.015084451425163 
917	 1.50703842217801E-02 
918	 1.48910218661893E-02 
919	 1.47331015341453E-02 
920	 1.51867030008594E-02 
921	 1.54854522431578E-02 
922	 1.52408689295277E-02 
923	 1.45843806049068E-02 
924	 1.45682455684421E-02 
925	 0.014354451257836 
926	 1.39033194637804E-02 
927	 1.33868368921009E-02 
928	 1.28391963346361E-02 
929	 1.19355912322255E-02 
930	 1.18710999959402E-02 
931	 1.41184877295105E-02 
932	 1.38092969083636E-02 
933	 1.52012570579078E-02 
934	 1.49062666121635E-02 
935	 9.43681805574778E-03 
936	 1.04008070205789E-02 
937	 1.14086198318339E-02 
938	 1.11304922319394E-02 
939	 1.04450565704782E-02 
940	 1.08342456896846E-02 
941	 1.15793558117083E-02 
942	 1.12438872648735E-02 
943	 9.33741240956669E-03 
944	 1.32907590401318E-02 
945	 0.011970030559539 
946	 8.09318949360285E-03 
947	 1.10184495133114E-02 
948	 1.21289377008774E-02 
949	 1.19082762055479E-02 
950	 1.14711363742567E-02 
951	 1.17164530073278E-02 
952	 1.17015351501058E-02 
953	 1.20827591081059E-02 
954	 1.18769854313101E-02 
955	 9.91123431621908E-03 
956	 1.08093330443151E-02 
957	 1.29967445103816E-02 
958	 1.43952838568936E-02 
959	 1.36503288172374E-02 
960	 1.28290548220819E-02 
961	 1.15673521041689E-02 
962	 1.14606645449515E-02 
963	 1.41860789401299E-02 
964	 1.32196909756102E-02 
965	 1.24107756793625E-02 
966	 1.27844360380648E-02 
967	 0.012886271922019 
968	 1.33616092751996E-02 
969	 1.31881371733986E-02 
970	 1.27147235322529E-02 
971	 1.32445109238889E-02 
972	 1.30441299844299E-02 
973	 1.35142676834625E-02 
974	 1.42943976427172E-02 
975	 1.34717670518469E-02 
976	 1.37498008038346E-02 
977	 1.31918437387205E-02 
978	 1.23524738980123E-02 
979	 1.36190600810314E-02 
980	 1.34142308142721E-02 
981	 1.30877019886088E-02 
982	 1.34212027633985E-02 
983	 0.0141677857964 
984	 1.43745943537661E-02 
985	 1.47563098388982E-02 
986	 1.50647119845452E-02 
987	 1.44876743144812E-02 
988	 1.46173627376009E-02 
989	 1.46201138510512E-02 
990	 1.47640230706465E-02 
991	 1.58239097595058E-02 
992	 1.51887522960288E-02 
993	 1.51899984649131E-02 
994	 1.57973745292392E-02 
995	 1.53931478202653E-02 
996	 1.52272445540113E-02 
997	 1.52307725575112E-02 
998	 1.50093973011257E-02 
999	 1.44376648917363E-02 
1000	 1.56688669083761E-02 
1001	 1.37273415392658E-02 
1002	 1.32093845554477E-02 
1003	 1.30844922043558E-02 
1004	 1.33712603174779E-02 
1005	 1.35392952199149E-02 
1006	 1.37381168966219E-02 
1007	 1.41330240067597E-02 
1008	 1.43947227967281E-02 
1009	 1.43318985200257E-02 
1010	 1.39988757334089E-02 
1011	 1.38033146218981E-02 
1012	 1.35496296078743E-02 
1013	 1.35379765646397E-02 
1014	 1.35544324283582E-02 
1015	 1.37560265778549E-02 
1016	 1.37649410298321E-02 
1017	 1.37957616406713E-02 
1018	 1.36875441922482E-02 
1019	 1.33348483596996E-02 
1020	 1.33087363839388E-02 
1021	 1.33088144245471E-02 
1022	 1.34465735318649E-02 
1023	 1.39351113424497E-02 
1024	 1.41910727999063E-02 
1025	 1.41620678828824E-02 
1026	 1.41259540849667E-02 
1027	 1.41589126864091E-02 
1028	 1.40429536156402E-02 
1029	 1.40575708650598E-02 
1030	 1.43418573414526E-02 
1031	 1.43132928650096E-02 
1032	 1.40719704638824E-02 
1033	 1.39383316391839E-02 
1034	 1.36175610561775E-02 
1035	 1.35217882881062E-02 
1036	 0.013569359113735 
1037	 1.36401349078814E-02 
1038	 1.37754570023074E-02 
1039	 0.014120404209522 
1040	 1.41636385485846E-02 
1041	 1.41117482884839E-02 
1042	 1.40897157613512E-02 
1043	 1.38469471306108E-02 
1044	 1.39221562296051E-02 
1045	 1.42964962966086E-02 
1046	 1.42979164024284E-02 
1047	 1.41676666830978E-02 
1048	 1.42020509135205E-02 
1049	 1.41497818605074E-02 
1050	 1.41037396934999E-02 
1051	 1.43153891902771E-02 
1052	 1.42866617833966E-02 
1053	 1.38338959713053E-02 
1054	 1.37056380980439E-02 
1055	 1.36105374750784E-02 
1056	 1.36800220252577E-02 
1057	 1.39021215669651E-02 
1058	 1.45685648165727E-02 
1059	 1.45383702312516E-02 
1060	 1.43241344059434E-02 
1061	 1.41464983364716E-02 
1062	 1.33489764842105E-02 
1063	 1.32979199728218E-02 
1064	 1.39731070603234E-02 
1065	 1.39752209544232E-02 
1066	 1.38674358249331E-02 
1067	 1.38141821444002E-02 
1068	 1.31952159161072E-02 
1069	 1.30844260447827E-02 
1070	 0.013710720581304 
1071	 0.0138090247191 
1072	 1.37917347367802E-02 
1073	 1.36805265525557E-02 
1074	 1.35516550871918E-02 
1075	 0.012975679544532 
1076	 1.29755800134524E-02 
1077	 1.33862250699807E-02 
1078	 1.34695300626627E-02 
1079	 1.36000363494063E-02 
1080	 1.36805318145115E-02 
1081	 1.36484469818971E-02 
1082	 1.35805587052293E-02 
1083	 1.35563732595507E-02 
1084	 1.34604217944356E-02 
1085	 1.30691041857533E-02 
1086	 1.29555405560146E-02 
1087	 1.31984670182866E-02 
1088	 1.31065017990662E-02 
1089	 0.012967518936056 
1090	 1.26833709756964E-02 
1091	 1.25346252034048E-02 
1092	 1.21455280692582E-02 
1093	 1.20760600963026E-02 
1094	 1.24205887680091E-02 
1095	 1.23989260754909E-02 
1096	 1.21389196501534E-02 
1097	 1.20123499088659E-02 
1098	 1.20414608230239E-02 
1099	 1.18131634121555E-02 
1100	 1.13538821212699E-02 
1101	 1.11759867769834E-02 
1102	 0.010775961698378 
1103	 1.04658377971286E-02 
1104	 1.02702873796702E-02 
1105	 1.06470191222655E-02 
1106	 1.05174691124766E-02 
1107	 1.05780514519984E-02 
1108	 1.05017418620497E-02 
1109	 1.01871365231003E-02 
1110	 0.010288734935752 
1111	 1.06879799477541E-02 
1112	 1.06892926967428E-02 
1113	 1.09702222241865E-02 
1114	 1.09305673698276E-02 
1115	 9.82387980215373E-03 
1116	 9.35897077184318E-03 
1117	 9.21854711409251E-03 
1118	 9.05672538297169E-03 
1119	 9.93643266639824E-03 
1120	 9.74530548441209E-03 
1121	 8.70213716802548E-03 
1122	 7.86807805179473E-03 
1123	 5.14217247189957E-03 
1124	 3.06640155140576E-03 
1125	 4.47854451789398E-03 
1126	 6.53342908660025E-03 
1127	 7.60286272525092E-03 
1128	 6.50264453167288E-03 
1129	 6.87678065584849E-03 
1130	 5.07936513501202E-03 
1131	 6.97857817271534E-03 
1132	 1.33939382833384E-02 
1133	 1.31735471482442E-02 
1134	 1.05462299655619E-02 
1135	 9.76106855261332E-03 
1136	 6.50560878015949E-03 
1137	 6.21873744523248E-03 
1138	 9.34723518913692E-03 
1139	 9.50736585768723E-03 
1140	 7.37910898302048E-03 
1141	 5.13911800975238E-03 
1142	 2.91372024520438E-03 
1143	 4.17789480346244E-03 
1144	 9.29902678473173E-03 
1145	 1.06428473874091E-02 
1146	 8.24715387600016E-03 
1147	 7.82874695805747E-03 
1148	 6.8125905910617E-03 
1149	 6.19956583825488E-03 
1150	 6.80309375439791E-03 
1151	 9.92358395677306E-03 
1152	 9.83405550564122E-03 
1153	 8.49424792501317E-03 
1154	 8.66437538263419E-03 
1155	 9.01120567184142E-03 
1156	 8.19409887271958E-03 
1157	 9.08806973829643E-03 
1158	 1.00771636863788E-02 
1159	 9.1651948882999E-03 
1160	 9.08195100506641E-03 
1161	 9.83113081088194E-03 
1162	 9.76980852766713E-03 
1163	 9.57209683195165E-03 
1164	 9.81045043896574E-03 
1165	 9.76132419773541E-03 
1166	 9.44106213754429E-03 
1167	 9.93624287058213E-03 
1168	 1.06794074269771E-02 
1169	 1.06889348567298E-02 
1170	 1.05826322228738E-02 
1171	 1.07081159377383E-02 
1172	 1.08871690454535E-02 
1173	 1.08314339139814E-02 
1174	 1.08352893760785E-02 
1175	 1.08106706743167E-02 
1176	 1.04595520213589E-02 
1177	 1.05959924608901E-02 
1178	 1.12433718175738E-02 
1179	 1.14209064624924E-02 
1180	 1.11731826789346E-02 
1181	 1.10258083764003E-02 
1182	 1.07772064775516E-02 
1183	 1.07012787443964E-02 
1184	 1.11516583745577E-02 
1185	 1.12374224060758E-02 
1186	 1.08611479573938E-02 
1187	 1.09682472881029E-02 
1188	 1.13153857657227E-02 
1189	 1.11799786875629E-02 
1190	 1.09183285225225E-02 
1191	 1.08809911925496E-02 
1192	 1.08957390123593E-02 
1193	 1.07753967133719E-02 
1194	 1.10465201791274E-02 
1195	 1.14411799192867E-02 
1196	 1.13132653660486E-02 
1197	 1.11419077860805E-02 
1198	 1.12327438007453E-02 
1199	 1.13518638390764E-02 
1200	 1.14248603913702E-02 
1201	 1.13921838249953E-02 
1202	 1.12444165828963E-02 
1203	 1.12247781493016E-02 
1204	 1.15057666182745E-02 
1205	 1.17239437470871E-02 
1206	 1.15406051922822E-02 
1207	 0.011353336505 
1208	 1.13203325126837E-02 
1209	 1.11841514568257E-02 
1210	 1.12761083587754E-02 
1211	 0.011521667162245 
1212	 1.14895947981627E-02 
1213	 1.13531835452518E-02 
1214	 1.13367572465345E-02 
1215	 1.14069652927068E-02 
1216	 0.011404166073426 
1217	 0.01137953346831 
1218	 1.16382713295011E-02 
1219	 1.17763522765716E-02 
1220	 0.011604813504585 
1221	 1.16087728627792E-02 
1222	 1.16908802982028E-02 
1223	 1.17825383109933E-02 
1224	 1.20442656690224E-02 
1225	 1.21320429868961E-02 
1226	 0.01191093837751 
1227	 1.18151124866619E-02 
1228	 1.19655413034863E-02 
1229	 1.21614206724534E-02 
1230	 1.22974385497914E-02 
1231	 1.22177435567057E-02 
1232	 1.20535667257306E-02 
1233	 1.21975811219487E-02 
1234	 1.23482876702581E-02 
1235	 1.23580651288168E-02 
1236	 1.24535189597917E-02 
1237	 1.25723503832965E-02 
1238	 1.25598571757713E-02 
1239	 1.24036158999735E-02 
1240	 1.25005455675293E-02 
1241	 0.012382150607355 
1242	 1.23086751853369E-02 
1243	 1.25055914855669E-02 
1244	 1.25056931977166E-02 
1245	 1.24702945094605E-02 
1246	 1.24198367364655E-02 
1247	 1.22415814043653E-02 
1248	 1.22563003558874E-02 
1249	 1.24140709784974E-02 
1250	 1.24284996091389E-02 
1251	 1.22984519379133E-02 
1252	 1.20724486363219E-02 
1253	 1.19817857927938E-02 
1254	 1.20110818102137E-02 
1255	 1.19457418201746E-02 
1256	 1.18963376934403E-02 
1257	 0.012016673982671 
1258	 1.20405167401409E-02 
1259	 0.011934496497275 
1260	 1.18709394868744E-02 
1261	 1.18837783407044E-02 
1262	 1.18030025915154E-02 
1263	 1.15642876708768E-02 
1264	 1.14882945363842E-02 
1265	 0.01159765440143 
1266	 1.17000245568121E-02 
1267	 1.16690648583786E-02 
1268	 1.15627543735612E-02 
1269	 1.15586723360389E-02 
1270	 1.16219617534416E-02 
1271	 1.16334806649205E-02 
1272	 0.0118401922907 
1273	 0.011896622984854 
1274	 1.16833707701832E-02 
1275	 1.18498140161769E-02 
1276	 1.19599034636778E-02 
1277	 1.18044870085878E-02 
1278	 1.18994602071174E-02 
1279	 1.19076289163279E-02 
1280	 1.17902134974973E-02 
1281	 1.17467592934389E-02 
1282	 1.17346478509561E-02 
1283	 1.16740602271161E-02 
1284	 1.15640720543211E-02 
1285	 1.15827249881963E-02 
1286	 0.011678905253696 
1287	 1.17105127004262E-02 
1288	 1.19093240217952E-02 
1289	 1.18985567271496E-02 
1290	 1.17127043814126E-02 
1291	 1.14691328233434E-02 
1292	 1.14366354295144E-02 
1293	 0.011395203454808 
1294	 1.13658238159058E-02 
1295	 1.15068493407636E-02 
1296	 1.16334430494906E-02 
1297	 1.13762878239299E-02 
1298	 1.11053693561733E-02 
1299	 1.10356918950578E-02 
1300	 1.10094149174842E-02 
1301	 1.09848942353202E-02 
1302	 1.08679018650762E-02 
1303	 1.08748301992827E-02 
1304	 1.08203380117569E-02 
1305	 1.05446367607744E-02 
1306	 1.03487486425698E-02 
1307	 1.02108532217788E-02 
1308	 1.01333140454397E-02 
1309	 1.01546766242018E-02 
1310	 1.00199143091873E-02 
1311	 9.72886579144259E-03 
1312	 9.82253948304727E-03 
1313	 0.010103068063341 
1314	 0.010011790688905 
1315	 1.01699248938783E-02 
1316	 1.01629561109362E-02 
1317	 9.46043846216582E-03 
1318	 9.24124546070822E-03 
1319	 9.46491554419349E-03 
1320	 9.51064351725909E-03 
1321	 9.64625188968008E-03 
1322	 9.60116722749226E-03 
1323	 9.41442267570495E-03 
1324	 9.45959988776881E-03 
1325	 9.30634526514631E-03 
1326	 9.04872836962111E-03 
1327	 8.77392967318265E-03 
1328	 8.68456116419843E-03 
1329	 8.81370541021706E-03 
1330	 8.98518925607745E-03 
1331	 9.4195915058321E-03 
1332	 9.07383893808987E-03 
1333	 8.36670002983631E-03 
1334	 8.25366214112414E-03 
1335	 8.24342398776619E-03 
1336	 8.59160298609247E-03 
1337	 8.26372188016245E-03 
1338	 7.40461267570637E-03 
1339	 7.91054038879285E-03 
1340	 9.72333344492327E-03 
1341	 9.1075884474166E-03 
1342	 7.18385923526503E-03 
1343	 7.15743308296436E-03 
1344	 5.11796356071194E-03 
1345	 3.96822630292826E-03 
1346	 9.82163564638094E-03 
1347	 1.18546023878337E-02 
1348	 4.78746822932889E-03 
1349	 3.2359278660069E-03 
1350	 9.8897768751969E-03 
1351	 8.23207686362699E-03 
1352	-4.08910652108014E-03 
1353	-6.52272090697367E-03 
1354	-6.73341696763945E-03 
1355	-1.23953578405283E-02 
1356	-2.82804585498986E-02 
1357	-3.65916533517633E-03 
1358	 4.31276758549726E-02 
1359	-6.65968472372164E-02 
1360	-8.53933562629374E-02 
1361	 0.107946867464273 
1362	 0.125303165474055 
1363	 7.14321361601101E-02 
1364	 0.142544585844868 
1365	 0.122923118322238 
1366	 9.46742195735057E-02 
1367	 2.09501203885003E-02 
1368	-3.20288189400974E-02 
1369	 1.33054313909231E-02 
1370	-1.21317010172857E-02 
1371	-0.121972825888599 
1372	-0.112968998725951 
1373	-7.68098859567703E-02 
1374	-4.25848211012507E-02 
1375	 7.98440663648826E-02 
1376	 0.172335102965788 
1377	 0.455218598886443 
1378	 0.633511457139255 
1379	 0.56085480526485 
1380	 0.41793541373898 
1381	-0.126710723097125 
1382	-0.213724800329119 
1383	-0.352059731076547 
1384	-0.616325916978455 
1385	-0.16702808721295 
1386	 7.39540897309854E-02 
1387	 0.117861918569481 
1388	 1.79424765540714E-02 
1389	-0.087460432468612 
1390	 4.26738400510893E-02 
1391	 0.109335450523035 
1392	-0.109847675195025 
1393	-0.294933363730083 
1394	 2.66727259583951E-03 
1395	 0.272259667391937 
1396	 0.208366278642396 
1397	-0.107349462845498 
1398	 0.11421074394598 
1399	 0.23671044606987 
1400	-9.22913278727438E-02 
1401	-2.82058372969023E-02 
1402	 0.404104159043443 
1403	 0.330738183518671 
1404	 0.147993693547322 
1405	 2.68448603020576E-02 
1406	-0.127410603703445 
1407	-5.72452151452883E-02 
1408	 5.03436299546892E-02 
1409	 0.111131505284163 
1410	 0.4101047627172 
1411	 0.305409950149439 
1412	-1.56385583862409E-02 
1413	-3.65716472180605E-02 
1414	-1.38181704309425E-02 
1415	-3.55171857263612E-02 
1416	 7.86620124043348E-04 
1417	 5.02165097934142E-02 
1418	 8.76888068925407E-02 
1419	 6.27178640458044E-02 
1420	 3.81075252171406E-02 
1421	 2.88724108301286E-02 
1422	-8.3598122796565E-03 
1423	-1.85203531818009E-02 
1424	-1.09008526113026E-02 
1425	-4.49425741038697E-05 
1426	 1.50161600744419E-02 
1427	 1.94963425951047E-02 
1428	 3.24685653165592E-02 
1429	 3.21735238211247E-02 
1430	 4.43398216048851E-03 
1431	 3.94601822052157E-03 
1432	 3.21039885356475E-02 
1433	 3.26544305633921E-02 
1434	 1.74300446569138E-02 
1435	 1.97515124280431E-02 
1436	 2.23527198506071E-02 
1437	 1.25581378112586E-02 
1438	-1.76785571610004E-04 
1439	 7.21456083180955E-03 
1440	 1.61901959304777E-02 
1441	 1.46558257559309E-02 
1442	 1.62987668074198E-02 
1443	 1.52242497971257E-02 
1444	 8.04430226842812E-03 
1445	 6.23738484107754E-03 
1446	 0.010554338977243 
1447	 1.46168971741391E-02 
1448	 1.35046325528735E-02 
1449	 9.28541426374248E-03 
1450	 5.69100488647231E-03 
1451	 5.51778182211511E-03 
1452	 6.4661046174932E-03 
1453	 4.11650700399628E-03 
1454	 4.55509107751411E-03 
1455	 8.28343060525154E-03 
1456	 7.98130889261673E-03 
1457	 4.88917771422307E-03 
1458	 5.41426602979372E-03 
1459	 7.26888046611119E-03 
1460	 6.77093874384717E-03 
1461	 6.67801950644853E-03 
1462	 6.82908638392729E-03 
1463	 4.49615045600341E-03 
1464	 4.42673520771633E-03 
1465	 7.82423631950196E-03 
1466	 8.31537785636306E-03 
1467	 7.05467286382644E-03 
1468	 6.57507177834895E-03 
1469	 5.42495696362565E-03 
1470	 5.3283297322684E-03 
1471	 6.15787455318796E-03 
1472	 6.03732953126316E-03 
1473	 5.62263537924997E-03 
1474	 5.8160550694618E-03 
1475	 5.50583085356123E-03 
1476	 6.04864903551219E-03 
1477	 8.41368754796908E-03 
1478	 8.42746430155753E-03 
1479	 6.99917060575353E-03 
1480	 7.24695944025549E-03 
1481	 7.17162630816627E-03 
1482	 6.78770481767428E-03 
1483	 7.5802546504119E-03 
1484	 7.83609987928873E-03 
1485	 6.8358933359055E-03 
1486	 6.92886757627462E-03 
1487	 7.83188939021479E-03 
1488	 8.08950802069613E-03 
1489	 8.38273633178087E-03 
1490	 8.35803136935045E-03 
1491	 7.79502714442283E-03 
1492	 7.95061322135258E-03 
1493	 8.58610845054057E-03 
1494	 8.56919481528641E-03 
1495	 8.24224824479794E-03 
1496	 8.41857958570701E-03 
1497	 8.72554050030686E-03 
1498	 8.66035435383674E-03 
1499	 8.63202196576136E-03 
1500	 8.88682049436869E-03 
1501	 9.07175211386655E-03 
1502	 8.9620051665929E-03 
1503	 8.95989753107272E-03 
1504	 9.10112768655474E-03 
1505	 8.95068600966857E-03 
1506	 8.79434890279791E-03 
1507	 8.97065843763918E-03 
1508	 9.29716284857089E-03 
1509	 0.009373576417996 
1510	 9.44712949817114E-03 
1511	 9.50114572294013E-03 
1512	 9.48467663055922E-03 
1513	 9.63724173591933E-03 
1514	 9.56880827480324E-03 
1515	 9.43384880320056E-03 
1516	 9.5909159746979E-03 
1517	 9.51306169539553E-03 
1518	 9.38544631331508E-03 
1519	 9.55903561237696E-03 
1520	 9.7196449045459E-03 
1521	 9.90504349884152E-03 
1522	 9.98003544110767E-03 
1523	 9.89145617294406E-03 
1524	 9.97484052019627E-03 
1525	 9.90169884310433E-03 
1526	 9.80171627506039E-03 
1527	 1.00724314642991E-02 
1528	 0.010303382513019 
1529	 1.02803023623088E-02 
1530	 1.01121178814657E-02 
1531	 1.00195054502225E-02 
1532	 1.00752628991159E-02 
1533	 1.00636492924925E-02 
1534	 1.01324856948301E-02 
1535	 1.03009424355019E-02 
1536	 1.03375872431217E-02 
1537	 1.04753228535547E-02 
1538	 1.05937047642672E-02 
1539	 1.05674206317343E-02 
1540	 1.05042409963196E-02 
1541	 1.03520031888988E-02 
1542	 1.04452262929931E-02 
1543	 1.06426327957906E-02 
1544	 1.06058221171028E-02 
1545	 0.010476775706885 
1546	 1.04386405797467E-02 
1547	 1.05342146637536E-02 
1548	 1.05906782848453E-02 
1549	 1.07252778574683E-02 
1550	 1.09649054312837E-02 
1551	 1.10588454691613E-02 
1552	 1.10955080740071E-02 
1553	 0.011116258575103 
1554	 1.09397655055895E-02 
1555	 1.07321266363217E-02 
1556	 1.08538401118932E-02 
1557	 1.09692796436565E-02 
1558	 0.010871726181344 
1559	 1.09682424472264E-02 
1560	 0.010952050517657 
1561	 1.06793604247472E-02 
1562	 0.010713213245859 
1563	 0.010788933850532 
1564	 1.06173680725881E-02 
1565	 1.05854134318893E-02 
1566	 1.07027389939908E-02 
1567	 0.010733872537001 
1568	 1.06397503910073E-02 
1569	 1.06640888626562E-02 
1570	 1.08177749464894E-02 
1571	 1.07955458420108E-02 
1572	 1.06482877287999E-02 
1573	 1.06467870934839E-02 
1574	 1.06934577148193E-02 
1575	 0.010672507285249 
1576	 1.07506283246293E-02 
1577	 1.07718536550859E-02 
1578	 1.06558563680033E-02 
1579	 1.06841032654046E-02 
1580	 1.07572592312423E-02 
1581	 1.07099059495374E-02 
1582	 1.07775307131191E-02 
1583	 1.08166017395944E-02 
1584	 1.07289659105062E-02 
1585	 1.09063973290147E-02 
1586	 1.10060004449939E-02 
1587	 1.08027366866844E-02 
1588	 1.08373470383825E-02 
1589	 1.10445096498164E-02 
1590	 1.10455237636083E-02 
1591	 1.09424870357341E-02 
1592	 1.10844288631829E-02 
1593	 1.12723825237598E-02 
1594	 1.09830330084162E-02 
1595	 1.06776500470425E-02 
1596	 1.08510151338791E-02 
1597	 1.08228126710659E-02 
1598	 1.06490572072834E-02 
1599	 1.08717688625069E-02 
1600	 1.09052862614791E-02 
1601	 1.07100399633595E-02 
1602	 1.06836903414653E-02 
1603	 1.07756579027268E-02 
1604	 1.10128449741517E-02 
1605	 1.11038909354473E-02 
1606	 0.011139160723943 
1607	 1.11880589061174E-02 
1608	 1.09153262692872E-02 
1609	 1.08400134131157E-02 
1610	 1.10376337110648E-02 
1611	 1.10681747314591E-02 
1612	 1.10652491511174E-02 
1613	 1.11072275284867E-02 
1614	 1.11595330431888E-02 
1615	 1.11610797605266E-02 
1616	 1.10951376984261E-02 
1617	 1.09634511254243E-02 
1618	 1.08612763900389E-02 
1619	 1.10221960427969E-02 
1620	 1.11650171973961E-02 
1621	 1.10825484009777E-02 
1622	 0.011073806971149 
1623	 1.10060698137354E-02 
1624	 1.09693565494901E-02 
1625	 1.11105774515522E-02 
1626	 1.11217470349345E-02 
1627	 0.011041802476017 
1628	 1.11190991519275E-02 
1629	 1.12769233979505E-02 
1630	 1.11859536847166E-02 
1631	 1.11888834356855E-02 
1632	 1.12680659108336E-02 
1633	 1.11620429147803E-02 
1634	 1.12329508078984E-02 
1635	 1.12454093255194E-02 
1636	 1.11638248557207E-02 
1637	 1.10968857073155E-02 
1638	 1.10021765324173E-02 
1639	 1.10080296974422E-02 
1640	 1.09257391801681E-02 
1641	 1.08736579873067E-02 
1642	 1.09074915149325E-02 
1643	 1.08146056700014E-02 
1644	 1.08125694903087E-02 
1645	 1.09118720306524E-02 
1646	 1.09590887502007E-02 
1647	 1.09559710127939E-02 
1648	 0.010848279334629 
1649	 1.07999068084814E-02 
1650	 1.07866889264941E-02 
1651	 1.08965052729367E-02 
1652	 1.10632364287363E-02 
1653	 1.07803677171874E-02 
1654	 1.08621458935293E-02 
1655	 1.10430181613231E-02 
1656	 1.09561221561735E-02 
1657	 1.09338730501553E-02 
1658	 1.10570210694616E-02 
1659	 1.10839024361756E-02 
1660	 1.10099155071443E-02 
1661	 1.10994358924691E-02 
1662	 1.11279424563655E-02 
1663	 1.08414055341635E-02 
1664	 1.07913626388028E-02 
1665	 0.01102509459939 
1666	 1.10738954090882E-02 
1667	 1.10083370089325E-02 
1668	 1.11256638092289E-02 
1669	 1.11849706482534E-02 
1670	 1.09644781586388E-02 
1671	 1.06669543996347E-02 
1672	 0.010466823851699 
1673	 1.04115080137793E-02 
1674	 1.08050385611999E-02 
1675	 1.12538205008616E-02 
1676	 1.12382554732055E-02 
1677	 1.11450181406167E-02 
1678	 1.09551630076565E-02 
1679	 1.07001332058594E-02 
1680	 0.010924898772978 
1681	 0.011041737316649 
1682	 1.09562448656915E-02 
1683	 1.12032182362059E-02 
1684	 1.11741420192483E-02 
1685	 1.11261926724381E-02 
1686	 1.12494363121983E-02 
1687	 1.09387190333964E-02 
1688	 1.06543905225493E-02 
1689	 1.05861542107918E-02 
1690	 1.06105620022282E-02 
1691	 1.07410764391425E-02 
1692	 1.07815662110113E-02 
1693	 1.09270616184797E-02 
1694	 1.10734098119904E-02 
1695	 1.09574928255167E-02 
1696	 1.09981934210313E-02 
1697	 1.11353015503698E-02 
1698	 0.010980665361358 
1699	 1.09007172221121E-02 
1700	 1.08404927664677E-02 
1701	 1.05228685309268E-02 
1702	 1.04147887463752E-02 
1703	 1.05442853211688E-02 
1704	 1.05631626955107E-02 
1705	 1.06020687259297E-02 
1706	 1.06431965193876E-02 
1707	 1.07553044899067E-02 
1708	 1.10060038750737E-02 
1709	 1.08481878358026E-02 
1710	 1.05354071964612E-02 
1711	 1.05502680084993E-02 
1712	 1.04905598387811E-02 
1713	 1.11518823888358E-02 
1714	 1.13295469959416E-02 
1715	 1.07831481833766E-02 
1716	 1.02175273200119E-02 
1717	 9.96947224865578E-03 
1718	 9.94569061772401E-03 
1719	 1.02841480816784E-02 
1720	 1.05579397228586E-02 
1721	 1.08607950076031E-02 
1722	 1.08004205244092E-02 
1723	 0.010595656666191 
1724	 1.07346556679849E-02 
1725	 0.01046035557361 
1726	 1.03579892809011E-02 
1727	 1.06832567707625E-02 
1728	 1.06841140141999E-02 
1729	 1.05913167302322E-02 
1730	 1.07021625733542E-02 
1731	 1.08218116190405E-02 
1732	 0.010575618743612 
1733	 1.04315946941248E-02 
1734	 1.03937074332657E-02 
1735	 9.92904142891625E-03 
1736	 1.00354951326597E-02 
1737	 1.08130801481264E-02 
1738	 1.07030549624698E-02 
1739	 9.98423661648479E-03 
1740	 9.41210434932126E-03 
1741	 8.9789456824538E-03 
1742	 9.40041639255027E-03 
1743	 1.01261400069385E-02 
1744	 1.04791617575355E-02 
1745	 1.04602962216644E-02 
1746	 9.09705993531268E-03 
1747	 9.04971582509807E-03 
1748	 0.010157361248764 
1749	 1.02194228616087E-02 
1750	 1.01439192027908E-02 
1751	 0.010209999640757 
1752	 9.48015325679253E-03 
1753	 9.47952739128062E-03 
1754	 1.09491579621978E-02 
1755	 1.08543626847589E-02 
1756	 9.43797013128675E-03 
1757	 9.19519516138466E-03 
1758	 8.69541970945841E-03 
1759	 8.90716743833491E-03 
1760	 0.010423031383557 
1761	 1.00939871431919E-02 
1762	 8.78088373635329E-03 
1763	 8.60887628780162E-03 
1764	 7.91320112073798E-03 
1765	 8.05468916563899E-03 
1766	 9.43325873764359E-03 
1767	 0.009369499072994 
1768	 9.22371150391998E-03 
1769	 8.89653212976812E-03 
1770	 0.00807793583338 
1771	 9.03321494392903E-03 
1772	 8.99844230121198E-03 
1773	 8.25954335364614E-03 
1774	 9.34804289163861E-03 
1775	 7.63687881712932E-03 
1776	 7.30261953384761E-03 
1777	 8.30462503806968E-03 
1778	 7.92708615780525E-03 
1779	 7.42700190581903E-03 
1780	 7.70186270894481E-03 
1781	 7.73783378529698E-03 
1782	 8.64918407241091E-03 
1783	 1.16432464455689E-02 
1784	 1.07702356179988E-02 
1785	 6.63980606381903E-03 
1786	 5.82963209209369E-03 
1787	 3.64599674285696E-03 
1788	 4.75172127382249E-03 
1789	 1.29445583970556E-02 
1790	 0.010917976758313 
1791	 8.96712704375756E-03 
1792	 8.69630240182449E-03 
1793	 6.27843824892635E-03 
1794	 8.53562183492448E-03 
1795	 0.01397361937063 
1796	 1.26879021960633E-02 
1797	 6.83038535086966E-03 
1798	 7.27949364286017E-03 
1799	 8.11261212256057E-03 
1800	 1.29685756332486E-02 
1801	 1.81306523941367E-02 
1802	 2.11547915691912E-02 
1803	 2.52503921715522E-02 
1804	 3.39820335690704E-02 
1805	 3.85745686674711E-02 
1806	 3.52028221956744E-02 
1807	 0.036864161372614 
1808	 2.75692230095335E-02 
1809	 2.89118051939766E-02 
1810	 5.04266873237436E-02 
1811	 7.05147306546665E-02 
1812	 0.108938043641872 
1813	 0.100528215124845 
1814	-0.003625514889957 
1815	 2.55745175793663E-02 
1816	 0.112574089656533 
1817	 0.414406823165492 
1818	 0.473722946296033 
1819	 0.249473760445341 
1820	 0.224202630532751 
1821	 0.298814300118388 
1822	 0.306624844048312 
1823	 0.474120461189595 
1824	 0.523591463171236 
1825	 0.219823249271312 
1826	-0.267853859614078 
1827	-0.376268893885672 
1828	-0.306079124170184 
1829	-0.165929481308899 
1830	 3.37523054655647E-02 
1831	-0.65128018321323 
1832	-2.52737295525708 
1833	-2.41416216070381 
1834	-1.972459752162 
1835	-1.51352749412441 
1836	-2.86203924726027 
1837	-9.13304536586671E-03 
1838	-0.29582772315033 
1839	-0.352865809315678 
1840	-0.222104674262445 
1841	-0.541417913173707 
1842	-1.65612709861477 
1843	-1.65940888948737 
1844	-1.00152207976726 
1845	-0.816803981434637 
1846	 8.18943711158156E-02 
1847	 0.175391805159838 
1848	-0.342430971494907 
1849	-0.263904697873231 
1850	 0.237029818784227 
1851	-0.643082323948141 
1852	-0.150822255406338 
1853	 4.66222149408993E-02 
1854	 0.134014874383293 
1855	-8.29597013315129E-02 
1856	 8.01212236920361E-02 
1857	-6.1121567599023 
1858	-4.8812181330259 
1859	 3.29363770249673 
1860	 1.66359840673478 
1861	 1.32189525826016 
1862	 0.71401532278154 
1863	-0.236003750844783 
1864	-20.1881873617894 
1865	 3.52268726918814 
1866	-1.06134572093375 
1867	 0.415200906803483 
1868	 15.6109229358077 
1869	 45.9665291190204 
1870	 6.52505704686327 
1871	 7.78272739466186 
1872	-1.2701881473777 
1873	-9.90183744109165 
1874	 1.03887829519681 
1875	 1.08752841779027 
1876	 0.965735983460524 
1877	 0.81292323060279 
1878	 1.13864650134706 
1879	-9.18208356207904 
1880	-2.02465854053832 
1881	-0.688270411526115 
1882	 0.163771543756355 
1883	 1.24067091216321 
1884	 0.102877990498452 
1885	-1.44280940368184 
1886	-3.09696818577109 
1887	 4.83482292582069 
1888	 0.672650845148374 
1889	 0.112320450024009 
1890	-0.673007193163593 
1891	-0.718425862148828 
1892	-0.352143150722727 
1893	-0.565873540762164 
1894	-0.425227200196684 
1895	-0.173712507778302 
1896	-0.315753480057642 
1897	-2.10794911680384 
1898	-1.05060158280343 
1899	 31.1107181304863 
1900	 5.31299279182482 
1901	 1.28948722209303 
1902	 0.80314402222332 
1903	 0.339655188138837 
1904	 0.355443975066112 
1905	-3.73783376397815E-03 
1906	-0.347749965110397 
1907	-1.91571414251175E-02 
1908	 5.20676096468601E-02 
1909	-0.91899388907295 
1910	-0.979934109864171 
1911	-0.507561251558437 
1912	 0.703947933297374 
1913	 0.58570318380293 
1914	 0.904222662310138 
1915	 0.612467910828301 
1916	 0.342260636997546 
1917	 0.52290910195451 
1918	 0.350381180649062 
1919	 6.25017503193785E-02 
1920	-0.157634779180754 
1921	 9.25406278858239E-02 
1922	 0.262462877816608 
1923	 0.614693638656609 
1924	 1.29951019011733 
1925	 1.78103356697467 
1926	 3.22944848909602 
1927	 10.3559066309785 
1928	-3.15288291376018 
1929	-0.985896658345105 
1930	-0.705877976734431 
1931	-0.828231927100849 
1932	-0.639722326605727 
1933	-0.112812420607736 
1934	-0.150801629575247 
1935	-0.296121071071202 
1936	-0.299066532508224 
1937	-0.216121013057582 
1938	-0.187481818792603 
1939	-8.79175542376069E-02 
1940	 6.87435156432309E-02 
1941	 7.54007720086115E-02 
1942	-3.39900253151769E-02 
1943	-3.49298097180928E-02 
1944	-5.81882976210981E-02 
1945	-0.130131794574134 
1946	-3.01051814089768E-02 
1947	 8.00061763819163E-02 
1948	 0.102496221254942 
1949	 0.12355172436281 
1950	 7.59098113396362E-02 
1951	 8.26597850784125E-03 
1952	-2.45585023377125E-02 
1953	-5.28895160637938E-02 
1954	-7.21746393963711E-02 
1955	-3.55143925852676E-02 
1956	-1.03632469294218E-02 
1957	-7.46353491818445E-03 
1958	 1.60368393392698E-02 
1959	 0.01470609779619 
1960	 4.21162521007543E-03 
1961	 9.22220949321189E-03 
1962	 8.62036548222928E-03 
1963	 6.93710101673349E-03 
1964	 6.99822336943564E-03 
1965	 3.53656135955972E-03 
1966	 3.25060887359784E-03 
1967	 3.61053958847742E-03 
1968	 4.91886350073604E-03 
1969	 4.76231227442118E-03 
1970	 6.27795994614996E-03 
1971	 7.15055913687553E-03 
1972	 6.5705870069499E-03 
1973	 7.5321156957495E-03 
1974	 8.69654013472801E-03 
1975	 7.54123793126016E-03 
1976	 6.36957879776836E-03 
1977	 5.51697356342443E-03 
1978	 3.8095445374256E-03 
1979	 3.27183582309064E-03 
1980	 3.02229254906413E-03 
1981	 3.82658660521805E-03 
1982	 5.30551038366503E-03 
1983	 6.30996554622088E-03 
1984	 6.1583244290765E-03 
1985	 6.42777659491382E-03 
1986	 6.62258832492457E-03 
1987	 7.71579293822498E-03 
1988	 8.6520495942407E-03 
1989	 8.17013369393951E-03 
1990	 7.99448626563458E-03 
1991	 6.40844322845335E-03 
1992	 5.51259335382588E-03 
1993	 6.52080426318439E-03 
1994	 6.27208271690966E-03 
1995	 5.27346552688255E-03 
1996	 4.3999916716486E-03 
1997	 4.35046653788665E-03 
1998	 0.004360669733551 
1999	 6.23042835389273E-03 
2000	 7.29689831265407E-03 
2001	 7.63557404693011E-03 
2002	 9.3502243817408E-03 
2003	 8.89818098630177E-03 
2004	 1.01162457655188E-02 
2005	 1.12972841217718E-02 
2006	 9.07134883233304E-03 
2007	 6.04468903505902E-03 
2008	 1.80705398081184E-03 
2009	 1.00623652794932E-03 
2010	 2.90253597315733E-03 
2011	 3.06750360748283E-03 
2012	 3.90070983770266E-03 
2013	 6.61844268986788E-03 
2014	 6.02419549985192E-03 
2015	 4.43150069997617E-03 
2016	 4.78076626345625E-03 
2017	 4.88879915736185E-03 
2018	 4.91775879538549E-03 
2019	 5.10518981562661E-03 
2020	 6.01385929006296E-03 
2021	 6.7416177844025E-03 
2022	 7.15965126156877E-03 
2023	 8.16095309194287E-03 
2024	 8.40631573294236E-03 
2025	 7.8974944061436E-03 
2026	 8.00819512207328E-03 
2027	 8.6821444897135E-03 
2028	 7.88463646488987E-03 
2029	 7.3344282137271E-03 
2030	 7.20473470603767E-03 
2031	 6.69071718019273E-03 
2032	 7.09209139139214E-03 
2033	 7.57845264262125E-03 
2034	 7.38539816091123E-03 
2035	 7.14735554667328E-03 
2036	 6.96503794279049E-03 
2037	 7.37414364358914E-03 
2038	 8.12408589847357E-03 
2039	 8.23137304728156E-03 
2040	 8.26341579155587E-03 
2041	 8.24769187448223E-03 
2042	 7.05125870485456E-03 
2043	 6.90601014656305E-03 
2044	 7.73804166451406E-03 
2045	 8.10937747345787E-03 
2046	 7.10704244803976E-03 
2047	 7.7237639544883E-03 
2048	 8.28875480053938E-03 
2049	 8.00327096522077E-03 
2050	 8.36272687702751E-03 
2051	 8.52770379956614E-03 
2052	 8.02734030506771E-03 
2053	 7.37131541471947E-03 
2054	 7.62967226456596E-03 
2055	 8.23108084684371E-03 
2056	 8.54735517455154E-03 
2057	 8.93902400627266E-03 
2058	 8.75346862006639E-03 
2059	 7.93756807245218E-03 
2060	 7.69697361662279E-03 
2061	 7.01940997479029E-03 
2062	 6.94000716577976E-03 
2063	 8.38881992858044E-03 
2064	 9.37292538806928E-03 
2065	 9.26640930487733E-03 
2066	 8.76359800828343E-03 
2067	 7.69534122738245E-03 
2068	 7.22032762312506E-03 
2069	 8.29412483634599E-03 
2070	 8.92696439183089E-03 
2071	 9.10446766212847E-03 
2072	 9.76837964627328E-03 
2073	 9.4825201814445E-03 
2074	 7.79133114663979E-03 
2075	 7.79831783274227E-03 
2076	 8.41915180049021E-03 
2077	 8.36736886732412E-03 
2078	 8.87814110293372E-03 
2079	 9.14815408436302E-03 
2080	 9.04713841245528E-03 
2081	 8.60860512281713E-03 
2082	 8.27888026386038E-03 
2083	 7.72545083949441E-03 
2084	 7.36534891690656E-03 
2085	 6.84679638170465E-03 
2086	 6.78731585991438E-03 
2087	 7.52530091769988E-03 
2088	 7.92994374055373E-03 
2089	 8.37661790928172E-03 
2090	 8.61328650158336E-03 
2091	 8.75004899085928E-03 
2092	 8.63944290992755E-03 
2093	 7.86729104233752E-03 
2094	 7.47116992395335E-03 
2095	 7.01577588908652E-03 
2096	 7.05423987300003E-03 
2097	 7.73359197827281E-03 
2098	 7.83439614985548E-03 
2099	 8.13861996023845E-03 
2100	 0.007829761710953 
2101	 7.12680717621831E-03 
2102	 6.71424471246167E-03 
2103	 6.68022605203169E-03 
2104	 7.34743815019851E-03 
2105	 7.94909109638467E-03 
2106	 7.82890843077379E-03 
2107	 7.80570477230776E-03 
2108	 7.7505538599165E-03 
2109	 6.93808574744053E-03 
2110	 7.31089579447113E-03 
2111	 8.52391079059865E-03 
2112	 8.48151881594106E-03 
2113	 8.32500980396002E-03 
2114	 7.89980095515115E-03 
2115	 7.83507297056158E-03 
2116	 7.30017318067172E-03 
2117	 7.23665227387782E-03 
2118	 8.02810645121468E-03 
2119	 8.38762989644187E-03 
2120	 8.44616448208421E-03 
2121	 8.58184447082534E-03 
2122	 9.0100564899397E-03 
2123	 8.41880346963784E-03 
2124	 0.00763916480556 
2125	 7.22646784177882E-03 
2126	 6.84245979658768E-03 
2127	 7.46242510886669E-03 
2128	 8.46858121436113E-03 
2129	 8.74367590157094E-03 
2130	 0.008608099384261 
2131	 8.33886652256984E-03 
2132	 8.37989410712551E-03 
2133	 8.55338310775648E-03 
2134	 8.52265971604838E-03 
2135	 8.59119927232815E-03 
2136	 8.82843973964977E-03 
2137	 9.10272080169935E-03 
2138	 9.06949667451689E-03 
2139	 0.008948582357376 
2140	 9.04775425402762E-03 
2141	 9.08939912594091E-03 
2142	 8.99853918594111E-03 
2143	 9.0503952173194E-03 
2144	 9.2180469090212E-03 
2145	 9.63309750962008E-03 
2146	 8.6012237422598E-03 
2147	 7.32788785290072E-03 
2148	 7.60058978920088E-03 
2149	 8.08958565313884E-03 
2150	 8.62705106322449E-03 
2151	 8.81864880295938E-03 
2152	 8.22570045849453E-03 
2153	 7.64781906307774E-03 
2154	 7.33902746460263E-03 
2155	 0.008566122292589 
2156	 1.01414927404886E-02 
2157	 1.02144048372527E-02 
2158	 8.97571481275166E-03 
2159	 8.35763937562681E-03 
2160	 6.89404852808483E-03 
2161	 6.60528003966498E-03 
2162	 7.10537339960545E-03 
2163	 7.50306350919272E-03 
2164	 8.47854375696771E-03 
2165	 8.76021945422974E-03 
2166	 9.07446448289342E-03 
2167	 8.94124315730811E-03 
2168	 7.97636498143435E-03 
2169	 7.55286332959082E-03 
2170	 6.92103153728918E-03 
2171	 6.66574435565606E-03 
2172	 8.16257097068344E-03 
2173	 8.70647815583712E-03 
2174	 8.07386294403078E-03 
2175	 8.38275297627332E-03 
2176	 8.18276813800632E-03 
2177	 7.38374597749082E-03 
2178	 7.62996023502968E-03 
2179	 8.34818335314865E-03 
2180	 7.76580500504843E-03 
2181	 7.63213602957544E-03 
2182	 8.51061878831213E-03 
2183	 8.2569453624984E-03 
2184	 7.50604731667587E-03 
2185	 7.36556057930614E-03 
2186	 7.68150442945758E-03 
2187	 8.49592187208028E-03 
2188	 8.64029128757311E-03 
2189	 9.30329360833126E-03 
2190	 9.49466124861385E-03 
2191	 8.8441509958718E-03 
2192	 8.19758320970271E-03 
2193	 7.33874465773245E-03 
2194	 6.86420651209378E-03 
2195	 5.73916802159485E-03 
2196	 5.59538868402312E-03 
2197	 7.54605234692263E-03 
2198	 7.88500610207619E-03 
2199	 7.38864697605895E-03 
2200	 6.95061773188169E-03 
2201	 7.1136693695096E-03 
2202	 6.51890551851099E-03 
2203	 7.59875136699849E-03 
2204	 8.82892526624829E-03 
2205	 8.29328133525131E-03 
2206	 7.29570314271021E-03 
2207	 6.66310217661879E-03 
2208	 6.74039331012393E-03 
2209	 7.64914534909708E-03 
2210	 8.22442166275025E-03 
2211	 7.09888911973961E-03 
2212	 6.60409013103859E-03 
2213	 7.38379518932621E-03 
2214	 8.06570902946383E-03 
2215	 9.83614884748387E-03 
2216	 1.09120169773363E-02 
2217	 1.08471052322417E-02 
2218	 9.48933671253135E-03 
2219	 8.7865467001511E-03 
2220	 6.94343378236163E-03 
2221	 6.71929481506639E-03 
2222	 7.59117566408482E-03 
2223	 7.50048464660924E-03 
2224	 7.75508576683406E-03 
2225	 7.62056116577463E-03 
2226	 6.32227045940887E-03 
2227	 6.24441674407232E-03 
2228	 7.01536448055532E-03 
2229	 7.96744664868238E-03 
2230	 1.04848473709137E-02 
2231	 1.03005835079786E-02 
2232	 7.99549339343216E-03 
2233	 7.47507814856562E-03 
2234	 5.67096421203985E-03 
2235	 5.82885193614769E-03 
2236	 8.11080911711982E-03 
2237	 9.94291797655606E-03 
2238	 9.84645029292007E-03 
2239	 8.78349615231823E-03 
2240	 9.25191402785026E-03 
2241	 9.23044743944542E-03 
2242	 7.90653965432034E-03 
2243	 7.47296697031504E-03 
2244	 7.21303747476656E-03 
2245	 6.35240015693127E-03 
2246	 6.27923382284185E-03 
2247	 7.07163908388103E-03 
2248	 6.80254798693011E-03 
2249	 6.59629673431115E-03 
2250	 7.59610120410585E-03 
2251	 6.80954885562715E-03 
2252	 6.06819346638743E-03 
2253	 6.10277992800459E-03 
2254	 5.57186983302445E-03 
2255	 6.92849698769758E-03 
2256	 8.47545824136532E-03 
2257	 0.008887865275356 
2258	 8.14876565550502E-03 
2259	 8.40524616367841E-03 
2260	 8.50295010718062E-03 
2261	 6.93941135015579E-03 
2262	 7.82109855652702E-03 
2263	 1.19076918620951E-02 
2264	 1.22301724845841E-02 
2265	 1.24549883564837E-02 
2266	 1.25346253871312E-02 
2267	 9.31416133600081E-03 
2268	 8.05229785841023E-03 
2269	 8.64754484150276E-03 
2270	 7.79797452590875E-03 
2271	 5.7532037222128E-03 
2272	 5.52782515590091E-03 
2273	 6.3125533316935E-03 
2274	 6.30754476318197E-03 
2275	 6.41995091714436E-03 
2276	 6.59825987659158E-03 
2277	 0.006581631289792 
2278	 6.51076862650603E-03 
2279	 6.91019560746437E-03 
2280	 8.3649914675444E-03 
2281	 1.12888041698692E-02 
2282	 9.66849632755308E-03 
2283	 1.00385214375871E-02 
2284	 0.0108614655336 
2285	 6.82239109851668E-03 
2286	 5.20118528927208E-03 
2287	 6.40435295502371E-03 
2288	 3.33999520136201E-03 
2289	 1.43347254570734E-03 
2290	 4.21416722199345E-03 
2291	 5.26243279139922E-03 
2292	 5.41392694907037E-03 
2293	 5.86090112650952E-03 
2294	 4.08339967357295E-03 
2295	 2.3237932641034E-03 
2296	 2.61454309297511E-03 
2297	 5.26857358702862E-03 
2298	 5.78176030993407E-03 
2299	 4.25270071388365E-03 
2300	 6.11046394861898E-03 
2301	 7.07526335466049E-03 
2302	 8.04986411863473E-03 
2303	 9.45174314211249E-03 
2304	 6.8737237342119E-03 
2305	 1.10015070943595E-03 
2306	-1.53090527111244E-03 
2307	 5.12639950520343E-04 
2308	 1.43610710361463E-03 
2309	 4.65763470310506E-03 
2310	 6.24374074426978E-03 
2311	 4.36036663709283E-03 
2312	 4.64784257514142E-03 
2313	 2.99066640967712E-03 
2314	 2.63597262178905E-03 
2315	 4.91656129783964E-03 
2316	 4.20492936153269E-03 
2317	 4.18732911617094E-03 
2318	 6.65732481689257E-03 
2319	 8.48960290181896E-03 
2320	 7.94803637424799E-03 
2321	 6.35375224674049E-03 
2322	 7.05284176792826E-03 
2323	 5.04657492690088E-03 
2324	 2.84253949168062E-03 
2325	 4.74704791644651E-03 
2326	 4.36218466264777E-03 
2327	 3.20599076676086E-03 
2328	 1.53967629239509E-03 
2329	-1.99410264074883E-03 
2330	-3.91336199029975E-03 
2331	-4.7258265631729E-03 
2332	-5.20554828318173E-03 
2333	-1.2601794394584E-03 
2334	 7.78115470291045E-04 
2335	-4.1297368175283E-03 
2336	-3.93735055776559E-03 
2337	-5.38525010584841E-03 
2338	-5.91411964925405E-03 
2339	 6.19795704422456E-03 
2340	 1.40368146702784E-02 
2341	 0.015905666512863 
2342	 0.012580170514722 
2343	 2.37152942021772E-03 
2344	-4.4900339208559E-03 
2345	-7.11638962294599E-03 
2346	-7.82491077325424E-03 
2347	-8.24157489729545E-03 
2348	-8.37613207075754E-03 
2349	-9.19314386722087E-03 
2350	-5.66695062534371E-03 
2351	 3.78092593450098E-03 
2352	 5.6666097937168E-03 
2353	 4.5930933254285E-03 
2354	 5.10985414710398E-03 
2355	 2.39154616548338E-04 
2356	-1.27911497250088E-03 
2357	 2.47079148974669E-03 
2358	 4.02354599017278E-03 
2359	 2.50501391802302E-03 
2360	 2.25966670643242E-03 
2361	 8.93728969321648E-04 
2362	-4.66731466922513E-04 
2363	 2.16646381060439E-03 
2364	 1.13854881817225E-03 
2365	-4.72906426512524E-04 
2366	-0.004156831570152 
2367	-1.20289913918896E-03 
2368	 1.44698395208452E-02 
2369	 1.93865488114896E-02 
2370	 1.93445915285448E-02 
2371	 9.14253635207717E-03 
2372	-0.014015957928272 
2373	-0.021037873570057 
2374	-2.09625617733516E-02 
2375	-2.97862007620203E-02 
2376	-4.22750800616825E-02 
2377	-3.54078465111455E-02 
2378	-2.51904501966159E-02 
2379	-3.01767160419591E-02 
2380	-2.18756230400515E-02 
2381	-3.59297797531409E-02 
2382	-6.12409130156809E-02 
2383	-4.47114964254706E-02 
2384	-3.05243142011978E-02 
2385	-3.82983278510843E-02 
2386	-4.41327468231589E-02 
2387	-3.76590648490231E-02 
2388	-0.036604846743411 
2389	-2.97731218365879E-02 
2390	-9.21397100716292E-03 
2391	-1.26171116108716E-02 
2392	-0.023526734531471 
2393	-3.05819917291395E-02 
2394	-3.40344217243416E-02 
2395	-4.37389906176741E-02 
2396	-5.26786765500294E-02 
2397	-3.02436086057875E-02 
2398	-0.011756306118729 
2399	-1.86159286253125E-02 
2400	-1.92227402151116E-02 
2401	-1.23855170410865E-02 
2402	-2.19455827548391E-02 
2403	-0.037893401770695 
2404	-3.62980134855241E-02 
2405	-5.21996370369939E-02 
2406	-7.79915175726573E-02 
2407	-9.85105093693042E-02 
2408	-0.132894887246472 
2409	-0.131950754433704 
2410	-0.114133958724867 
2411	-7.07652202544203E-02 
2412	-1.44523811084997E-02 
2413	-6.17769846440348E-02 
2414	-0.133220470380241 
2415	-7.79227183008365E-02 
2416	-1.43017514385798E-02 
2417	 1.55811341903612E-02 
2418	-9.32565682477257E-03 
2419	-0.124892064004483 
2420	-0.144396440013612 
2421	-0.113048726089883 
2422	-4.11736568953992E-02 
2423	-8.08557716289809E-03 
2424	-2.61793396290361E-02 
2425	 4.50071906077173E-03 
2426	 1.48287817114744E-03 
2427	-5.53095566061082E-03 
2428	-4.62732493916194E-02 
2429	-4.35919532936409E-02 
2430	 0.101487707144092 
2431	 0.120861063177421 
2432	 5.35927674619655E-02 
2433	-6.4063065139228E-03 
2434	-0.19885496465021 
2435	-0.261276464670766 
2436	-0.110740506537608 
2437	-5.85260581786383E-02 
2438	 5.95530519299832E-02 
2439	 6.63615215820335E-02 
2440	 2.36700389524816E-02 
2441	 7.97955854680301E-02 
2442	-0.186937751458079 
2443	-0.506389774811746 
2444	-0.354057212313866 
2445	-0.362695958628975 
2446	-0.403415716110616 
2447	 0.38219834528509 
2448	 0.633533620775821 
2449	 0.944675214885686 
2450	 0.895215688543182 
2451	-1.21996382531527 
2452	-0.945939864782537 
2453	-0.246505900523953 
2454	-0.337380097670937 
2455	-0.249872242337553 
2456	-0.282537937221778 
2457	-0.607803691881178 
2458	-0.647391845814392 
2459	-0.58509065501 
2460	-0.777997216302476 
2461	-0.528792627938821 
2462	-2.60255144879895E-02 
2463	 0.175521993952322 
2464	 0.715295622613 
2465	 0.939874874222189 
2466	 0.331396419179797 
2467	-2.12029049968787 
2468	-1.16064499297728 
2469	-0.626797689458862 
2470	 1.15126572360233E-02 
2471	-33.5484520656307 
2472	-2.25321332884771 
2473	-1.23728131363332 
2474	-0.449735517890629 
2475	 0.165281794197443 
2476	-1.00608005102772 
2477	-0.80845431133326 
2478	-1.08503283483334 
2479	-2.57926813638705 
2480	 0.335541761434612 
2481	-12.3001009876783 
2482	 2.0908282903506 
2483	 0.903688380835462 
2484	 2.65190936242814 
2485	 24.7937327454475 
2486	 9.23558201541598 
2487	-0.29018950366823 
2488	-2.79433232562851 
2489	 2.09317999740073 
2490	 1.03412239284567 
2491	 1.19009496651886 
2492	 1.38558662554283 
2493	 1.12470187295912 
2494	 0.573546515586578 
2495	-8.09379556463921E-03 
2496	 0.240991879012919 
2497	 0.691242010687176 
2498	 1.08396608590922 
2499	 1.10741341881674 
2500	 1.19234577659326 
