Wavelength	rt0713west_far_sunny200002.asd
350	 5.63443593055091E-02 
351	 5.62486214224873E-02 
352	 5.57732936271926E-02 
353	 5.53238755251125E-02 
354	 5.51343357311897E-02 
355	 5.48107874485534E-02 
356	 5.50969968525201E-02 
357	 5.54838726647893E-02 
358	 5.53271545543116E-02 
359	 5.51589841169289E-02 
360	 5.47920505692943E-02 
361	 5.45534530155125E-02 
362	 5.49472845635221E-02 
363	 5.45270345908865E-02 
364	 5.42325334985308E-02 
365	 5.44394122302269E-02 
366	 5.42537934268201E-02 
367	 5.38634317857274E-02 
368	 5.35802835476656E-02 
369	 0.053668602897768 
370	 5.41418442057414E-02 
371	 5.41637726068076E-02 
372	 0.053885419876051 
373	 5.39654780817166E-02 
374	 5.38623545511568E-02 
375	 0.053781176397482 
376	 5.38323784944325E-02 
377	 5.38979586671235E-02 
378	 5.36629838158052E-02 
379	 5.36967804214722E-02 
380	 5.42493226333116E-02 
381	 5.39454741228016E-02 
382	 5.38558030683132E-02 
383	 5.40312646191518E-02 
384	 5.40871234270174E-02 
385	 5.43897074853378E-02 
386	 5.43557385469699E-02 
387	 5.41186632697956E-02 
388	 5.45985028284196E-02 
389	 5.43184363485829E-02 
390	 5.41832944794323E-02 
391	 5.47404597699332E-02 
392	 5.45323125620019E-02 
393	 5.47842205683273E-02 
394	 5.51054860641385E-02 
395	 5.48213347438992E-02 
396	 5.50630200975511E-02 
397	 5.51766404276604E-02 
398	 5.50747855264434E-02 
399	 5.52064903251803E-02 
400	 5.50712943771532E-02 
401	 5.50632478764124E-02 
402	 5.53539986183254E-02 
403	 5.53129094376078E-02 
404	 0.055520810722607 
405	 5.58092218334091E-02 
406	 5.58278277628665E-02 
407	 5.58606216350424E-02 
408	 5.59871530724492E-02 
409	 5.61343700797391E-02 
410	 5.61167569294267E-02 
411	 5.63350123240464E-02 
412	 5.65058401618521E-02 
413	 5.64595980477115E-02 
414	 5.65750844584731E-02 
415	 5.68075701091351E-02 
416	 5.69784930040011E-02 
417	 5.69420354513093E-02 
418	 5.71190919675482E-02 
419	 0.05741179534071 
420	 5.76979079143439E-02 
421	 0.057878455699084 
422	 5.79907064584967E-02 
423	 5.81314457656294E-02 
424	 5.83939607259584E-02 
425	 5.88567306764268E-02 
426	 5.92098164803262E-02 
427	 5.93964668876619E-02 
428	 0.059534987547796 
429	 5.99463723767457E-02 
430	 6.03608228595911E-02 
431	 6.06367667819743E-02 
432	 6.08554336585523E-02 
433	 6.11752091502186E-02 
434	 6.15669767283748E-02 
435	 6.19455614239419E-02 
436	 6.21996861437388E-02 
437	 6.24898182890347E-02 
438	 6.28345893661599E-02 
439	 6.31729144930435E-02 
440	 0.063514544537387 
441	 6.38640158336894E-02 
442	 6.42171637572482E-02 
443	 6.45597902714553E-02 
444	 6.48175451825146E-02 
445	 6.50826177088286E-02 
446	 6.54405521654542E-02 
447	 6.57734921021386E-02 
448	 6.60686184670691E-02 
449	 6.63338335444092E-02 
450	 6.65946476936111E-02 
451	 6.68871565324621E-02 
452	 0.06711252574831 
453	 6.72745770228804E-02 
454	 6.76360440616091E-02 
455	 6.78722402375884E-02 
456	 6.79841128444672E-02 
457	 6.81005186640579E-02 
458	 0.068326627478851 
459	 6.85616300398358E-02 
460	 6.87547642839969E-02 
461	 6.89175364004749E-02 
462	 0.069052889400508 
463	 6.91759280008444E-02 
464	 6.93107449177273E-02 
465	 6.94989150441348E-02 
466	 6.97159130120491E-02 
467	 6.99552674527883E-02 
468	 0.070199869289424 
469	 7.02887597789482E-02 
470	 0.070448082962831 
471	 7.07361520038188E-02 
472	 7.09442870123216E-02 
473	 7.10263975813705E-02 
474	 0.071133077371876 
475	 7.13993375428475E-02 
476	 7.17133494953611E-02 
477	 7.19331489558252E-02 
478	 7.21413016615209E-02 
479	 7.25373961771368E-02 
480	 7.27592099377264E-02 
481	 7.29634948735115E-02 
482	 7.32780436224937E-02 
483	 0.073629844495496 
484	 0.074018127563319 
485	 7.43554881804144E-02 
486	 7.45875169996305E-02 
487	 7.49754249846064E-02 
488	 7.53641717587293E-02 
489	 7.57008226978358E-02 
490	 7.60547980713814E-02 
491	 7.64213957974765E-02 
492	 7.68276670673153E-02 
493	 7.72740607752448E-02 
494	 7.76866126216749E-02 
495	 7.80846354262976E-02 
496	 7.85220073674226E-02 
497	 7.90467970750863E-02 
498	 7.94971332606719E-02 
499	 7.98682324964349E-02 
500	 8.02176194530363E-02 
501	 8.06681214088563E-02 
502	 8.10914441214895E-02 
503	 0.081541576134743 
504	 8.20719582304952E-02 
505	 8.25085694011243E-02 
506	 8.30112487899374E-02 
507	 8.35786374150095E-02 
508	 0.084084369532159 
509	 8.46405507829119E-02 
510	 8.51876832969511E-02 
511	 8.56986558412382E-02 
512	 8.62963217647543E-02 
513	 8.68205261228161E-02 
514	 8.73570195485551E-02 
515	 8.80467874997085E-02 
516	 8.86258242318626E-02 
517	 8.92468269722262E-02 
518	 8.99343288649164E-02 
519	 9.05167743247693E-02 
520	 9.12233550075956E-02 
521	 9.18862815465567E-02 
522	 9.23848982114728E-02 
523	 0.093061390627712 
524	 9.37249161104425E-02 
525	 9.43540783706799E-02 
526	 9.50474441036781E-02 
527	 9.57725910718744E-02 
528	 9.64395734791675E-02 
529	 9.70318786746726E-02 
530	 9.76907839666904E-02 
531	 9.83534297685163E-02 
532	 9.90074014870528E-02 
533	 9.96578408485099E-02 
534	 0.100321127110362 
535	 0.101023477816411 
536	 0.101744782297329 
537	 0.102410929677062 
538	 0.103090886000318 
539	 0.103749560064984 
540	 0.104362668858261 
541	 0.105018388445391 
542	 0.105690606771521 
543	 0.106362777173006 
544	 0.10702955457367 
545	 0.107709323760632 
546	 0.108383769406434 
547	 0.109043158896516 
548	 0.109706680682706 
549	 0.110341463485306 
550	 0.110998291944113 
551	 0.111725846923883 
552	 0.112386188589225 
553	 0.112975046172991 
554	 0.113558031362819 
555	 0.114260583778654 
556	 0.11493152580819 
557	 0.11554110003413 
558	 0.116109035601961 
559	 0.116742401508934 
560	 0.117273040919403 
561	 0.117738943001914 
562	 0.118293283517295 
563	 0.118801802185556 
564	 0.119250021294545 
565	 0.119637017500734 
566	 0.11995363553151 
567	 0.120269808308512 
568	 0.120601674985084 
569	 0.120941669783643 
570	 0.121304332369423 
571	 0.121569220373048 
572	 0.121741130606841 
573	 0.121962536002256 
574	 0.122204389064771 
575	 0.122411551033885 
576	 0.122543938751052 
577	 0.12263773511958 
578	 0.122738979391996 
579	 0.122810876633873 
580	 0.122779034301749 
581	 0.122760356060296 
582	 0.122668134906185 
583	 0.122452734791378 
584	 0.122173823329434 
585	 0.121854809384693 
586	 0.121435166466889 
587	 0.120858181930075 
588	 0.120318997360828 
589	 0.119891611730277 
590	 0.119575699733722 
591	 0.119268478266408 
592	 0.118878909177583 
593	 0.118376082046474 
594	 0.117766248866961 
595	 0.11707372280776 
596	 0.116303020588931 
597	 0.115466797096713 
598	 0.114588132005958 
599	 0.113674671564262 
600	 0.112908328437094 
601	 0.112362757852499 
602	 0.111896164659796 
603	 0.111542135617944 
604	 0.111315926348055 
605	 0.111207007103402 
606	 0.111083311986198 
607	 0.111009282285155 
608	 0.110973300943185 
609	 0.110883191146065 
610	 0.110909707792209 
611	 0.110934264411945 
612	 0.110861655481074 
613	 0.110856684380363 
614	 0.11076909642084 
615	 0.110653158752289 
616	 0.110649238135107 
617	 0.11053830234168 
618	 0.110455778742662 
619	 0.110454457800688 
620	 0.110397552430973 
621	 0.110323225372598 
622	 0.110278884072125 
623	 0.110275611727875 
624	 0.110122891353438 
625	 0.1099722470896 
626	 0.109864444480926 
627	 0.10972839759554 
628	 0.109686165934276 
629	 0.109677330631197 
630	 0.109636104414344 
631	 0.109579419707617 
632	 0.109533594031319 
633	 0.10950485420078 
634	 0.10947511532991 
635	 0.109343607303595 
636	 0.109175728496116 
637	 0.10902835646154 
638	 0.108921666433715 
639	 0.108754945875016 
640	 0.108533511164301 
641	 0.10829491028701 
642	 0.108048389121908 
643	 0.107794096030737 
644	 0.107497731892552 
645	 0.107103879485833 
646	 0.106655379454507 
647	 0.106337941211726 
648	 0.106206208114845 
649	 0.105948500279442 
650	 0.105710296950913 
651	 0.105426031588639 
652	 0.105003066089137 
653	 0.104611538823898 
654	 0.104088759037666 
655	 0.103404282605692 
656	 0.102829469808675 
657	 0.102269483383159 
658	 0.101787573044495 
659	 0.10140905319494 
660	 0.10100810393596 
661	 0.100660951813329 
662	 0.100372700309766 
663	 0.100108432370161 
664	 9.98516646397567E-02 
665	 9.95798840973298E-02 
666	 9.93213957362544E-02 
667	 9.92055604519549E-02 
668	 9.90613907994721E-02 
669	 9.88864445184725E-02 
670	 9.87422485595356E-02 
671	 9.87033574680887E-02 
672	 9.86371077896431E-02 
673	 9.85090618153568E-02 
674	 9.83898062427148E-02 
675	 9.83519168399108E-02 
676	 9.83990715781741E-02 
677	 9.84839131796529E-02 
678	 9.84687902867922E-02 
679	 9.85176825428454E-02 
680	 9.85807683694088E-02 
681	 9.85493710460231E-02 
682	 9.86410135409179E-02 
683	 9.87286320017857E-02 
684	 9.87284397635921E-02 
685	 9.86478920349362E-02 
686	 9.84418055415577E-02 
687	 9.83320885836272E-02 
688	 9.84558589601554E-02 
689	 9.84248392287621E-02 
690	 9.82801655146748E-02 
691	 9.79490686512386E-02 
692	 9.73231452239368E-02 
693	 9.67851879157669E-02 
694	 0.096548895873269 
695	 9.64989823256674E-02 
696	 9.61135230016508E-02 
697	 9.54144805620681E-02 
698	 9.44823713026656E-02 
699	 9.35226832279604E-02 
700	 0.09276163640604 
701	 9.20444750770344E-02 
702	 9.12900899532379E-02 
703	 9.04669381364586E-02 
704	 8.94243491316108E-02 
705	 8.83137536547174E-02 
706	 8.72478585647406E-02 
707	 8.60671113381009E-02 
708	 8.48024375718876E-02 
709	 8.34227223726772E-02 
710	 0.081887652774725 
711	 0.080208420712602 
712	 7.84674210054382E-02 
713	 0.076616652234054 
714	 7.44179838158275E-02 
715	 0.07217916551461 
716	 6.96656316813003E-02 
717	 6.69494449717077E-02 
718	 6.47376090203887E-02 
719	 6.30306191793138E-02 
720	 6.17396866404772E-02 
721	 6.04168415767805E-02 
722	 5.86615811826823E-02 
723	 5.64735096536285E-02 
724	 5.43197993255982E-02 
725	 5.25286219725245E-02 
726	 5.08910618700007E-02 
727	 4.91209350478383E-02 
728	 4.70852681432395E-02 
729	 4.49945385764319E-02 
730	 4.31174750753306E-02 
731	 4.16917566876116E-02 
732	 4.06725008503698E-02 
733	 3.96101362425582E-02 
734	 3.85947297593819E-02 
735	 3.77117103699661E-02 
736	 3.69780450086407E-02 
737	 3.66468288104648E-02 
738	 3.65181707904623E-02 
739	 3.63727677887723E-02 
740	 3.62651313239819E-02 
741	 3.61987174222453E-02 
742	 3.61590419943015E-02 
743	 3.61195601108608E-02 
744	 3.60509438725564E-02 
745	 3.60060050113015E-02 
746	 3.59819499339682E-02 
747	 3.58907696022759E-02 
748	 3.58692959468803E-02 
749	 3.58967198157117E-02 
750	 3.59040205232159E-02 
751	 0.03580187527545 
752	 3.57704734666195E-02 
753	 3.57769134513119E-02 
754	 3.56940555052645E-02 
755	 3.56985133939978E-02 
756	 3.56445701717721E-02 
757	 3.54483369866666E-02 
758	 3.50747918511818E-02 
759	 3.44572584427836E-02 
760	 3.38521411646647E-02 
761	 3.38493725327688E-02 
762	 3.39627004312558E-02 
763	 3.41903317921135E-02 
764	 3.45794768897724E-02 
765	 3.51181512035162E-02 
766	 3.54848689635753E-02 
767	 3.56816351771505E-02 
768	 3.57874920168685E-02 
769	 3.59330334481303E-02 
770	 0.03609332109844 
771	 0.036213935379579 
772	 0.036287650046563 
773	 3.64613861251553E-02 
774	 3.65803976137321E-02 
775	 3.66685391867939E-02 
776	 3.68081429273416E-02 
777	 0.036907701698365 
778	 0.037039885375618 
779	 3.72245795929486E-02 
780	 3.74164834431248E-02 
781	 3.75679254808814E-02 
782	 3.77522355307257E-02 
783	 3.79935663576171E-02 
784	 3.81601393716392E-02 
785	 3.82449241019785E-02 
786	 3.83304393371942E-02 
787	 0.03851815773306 
788	 3.87925868567515E-02 
789	 3.90303182556029E-02 
790	 0.039270831877716 
791	 3.96659532271364E-02 
792	 3.99902434181188E-02 
793	 4.02523386572382E-02 
794	 4.04912859815006E-02 
795	 4.07280702429685E-02 
796	 4.09308705965243E-02 
797	 4.11578742066086E-02 
798	 4.14366129363994E-02 
799	 4.15710291564788E-02 
800	 4.17341508145676E-02 
801	 4.19587098768795E-02 
802	 4.21905919533359E-02 
803	 4.24028340937507E-02 
804	 4.26161204763147E-02 
805	 4.27831072123315E-02 
806	 4.27868541151293E-02 
807	 0.042727358282877 
808	 4.25676161231651E-02 
809	 4.22809453319807E-02 
810	 4.19293237285215E-02 
811	 4.15313569789026E-02 
812	 4.10079716579473E-02 
813	 0.040324264243588 
814	 3.99467389334003E-02 
815	 0.039667865414381 
816	 3.93511774187102E-02 
817	 3.89871217746409E-02 
818	 3.87039847295555E-02 
819	 3.84539361376336E-02 
820	 3.81059503790925E-02 
821	 3.74551759698638E-02 
822	 3.65834084856437E-02 
823	 3.57313534474608E-02 
824	 3.50503644647923E-02 
825	 3.43642067704321E-02 
826	 3.34465829672273E-02 
827	 3.23887030843716E-02 
828	 3.14718874000844E-02 
829	 3.06877722116888E-02 
830	 0.029929824051547 
831	 0.02929666591911 
832	 2.90051178675913E-02 
833	 2.86611097533218E-02 
834	 2.84205906208959E-02 
835	 2.83198362191394E-02 
836	 0.028167711768073 
837	 2.80114988001225E-02 
838	 2.80127459018493E-02 
839	 2.81582396625411E-02 
840	 2.79281159051879E-02 
841	 2.77192064865538E-02 
842	 2.76283906528979E-02 
843	 2.76278404215756E-02 
844	 2.76799447108962E-02 
845	 2.75703757095293E-02 
846	 2.73983888048877E-02 
847	 2.74295711788289E-02 
848	 2.73065352718456E-02 
849	 2.72380520355932E-02 
850	 2.72442397805037E-02 
851	 2.70480900674433E-02 
852	 2.70292431939789E-02 
853	 2.69509889150114E-02 
854	 2.67031317944891E-02 
855	 0.02670568070755 
856	 2.66662349847941E-02 
857	 0.026549227198442 
858	 0.026427739938673 
859	 2.65033468746812E-02 
860	 0.026447873552663 
861	 2.63200201815789E-02 
862	 2.63147929462433E-02 
863	 2.60956945776064E-02 
864	 2.60924949927751E-02 
865	 2.62325273236491E-02 
866	 2.60057528083403E-02 
867	 2.58250610975583E-02 
868	 2.58138168521199E-02 
869	 2.58235057624705E-02 
870	 2.54486239280235E-02 
871	 2.55607487590139E-02 
872	 2.56255816053686E-02 
873	 2.52594466651942E-02 
874	 2.50977472121763E-02 
875	 2.50454723979636E-02 
876	 2.50787848486147E-02 
877	 0.025116405686977 
878	 2.48611399704908E-02 
879	 2.46589692871412E-02 
880	 2.46481222133653E-02 
881	 2.47614631509954E-02 
882	 2.45279407237615E-02 
883	 2.43013868822975E-02 
884	 2.42463635178625E-02 
885	 2.43164514964976E-02 
886	 2.43565645902786E-02 
887	 2.42272522573768E-02 
888	 2.39722644387046E-02 
889	 2.38143633268425E-02 
890	 2.35706094785964E-02 
891	 2.31900164674117E-02 
892	 2.27061424126506E-02 
893	 2.22740825560622E-02 
894	 2.21167866492962E-02 
895	 2.19083431235788E-02 
896	 2.14013670377369E-02 
897	 2.11914552918329E-02 
898	 2.12571756627143E-02 
899	 2.13441247814152E-02 
900	 2.12026141302404E-02 
901	 0.020881868034381 
902	 2.11675812023623E-02 
903	 2.14194042091207E-02 
904	 2.08372881498358E-02 
905	 2.06647135213602E-02 
906	 2.03392204767148E-02 
907	 2.01787634109869E-02 
908	 2.08192024011062E-02 
909	 1.99153459433129E-02 
910	 1.95440059532649E-02 
911	 2.01048119802685E-02 
912	 2.01570296771232E-02 
913	 2.01417197900386E-02 
914	 1.98489666146295E-02 
915	 1.94116703481551E-02 
916	 1.93742257992825E-02 
917	 2.00524431546658E-02 
918	 2.03613826167553E-02 
919	 1.98473560109668E-02 
920	 1.91128655189678E-02 
921	 1.95029517485735E-02 
922	 1.99208253477741E-02 
923	 1.95613399737155E-02 
924	 1.92927192125808E-02 
925	 1.83569025479808E-02 
926	 1.79507107933256E-02 
927	 1.88007630528705E-02 
928	 1.71210467183967E-02 
929	 1.64924347740326E-02 
930	 1.75070784980426E-02 
931	 1.83477965627591E-02 
932	 1.53867705215141E-02 
933	 1.40511285629948E-02 
934	 1.40020881889693E-02 
935	 1.22640595828625E-02 
936	 1.33479011805111E-02 
937	 1.44299963307408E-02 
938	 1.44044504326401E-02 
939	 1.35372384627286E-02 
940	 1.41658285663004E-02 
941	 1.54754776679585E-02 
942	 0.016866360486579 
943	 1.74851300334443E-02 
944	 1.47921023111898E-02 
945	 1.39491388025462E-02 
946	 1.51044504512002E-02 
947	 1.53671895890123E-02 
948	 1.68985160939178E-02 
949	 1.63578951648516E-02 
950	 1.47251493217185E-02 
951	 1.53335606903364E-02 
952	 1.80089748967914E-02 
953	 1.50975260303097E-02 
954	 1.06033290018829E-02 
955	 1.42592737710138E-02 
956	 1.81376469886834E-02 
957	 1.77414538710792E-02 
958	 1.57312428355397E-02 
959	 1.76118169862685E-02 
960	 1.50808399406729E-02 
961	 1.57425434078133E-02 
962	 1.85793011191844E-02 
963	 1.72261157702254E-02 
964	 1.63127308301545E-02 
965	 1.60276350016739E-02 
966	 1.64628268740291E-02 
967	 1.75573828929634E-02 
968	 1.67448335615927E-02 
969	 1.59955647279908E-02 
970	 1.63582179832256E-02 
971	 1.74417357907438E-02 
972	 1.68334462365563E-02 
973	 1.67648048428772E-02 
974	 1.78520190994218E-02 
975	 1.85123188668873E-02 
976	 1.71677919803892E-02 
977	 1.79115993836692E-02 
978	 1.94163665220758E-02 
979	 1.68184793349152E-02 
980	 1.87629842916016E-02 
981	 1.95575248992385E-02 
982	 1.84842204438398E-02 
983	 1.92483982498722E-02 
984	 1.83458033940673E-02 
985	 1.89294851947172E-02 
986	 2.00193600466329E-02 
987	 1.81052685594631E-02 
988	 1.87391933414903E-02 
989	 1.97335488597129E-02 
990	 2.01547159206872E-02 
991	 2.03797564369828E-02 
992	 1.87734621376862E-02 
993	 1.89110053652945E-02 
994	 2.02703327285978E-02 
995	 1.97358136589431E-02 
996	 1.88340837176144E-02 
997	 1.91896056780826E-02 
998	 2.04452169386974E-02 
999	 2.09938215248542E-02 
1000	 0.02023528019643 
1001	 2.09383593137051E-02 
1002	 2.09636876741709E-02 
1003	 2.06623528208865E-02 
1004	 1.99134829989676E-02 
1005	 1.95755177397177E-02 
1006	 1.90267747354977E-02 
1007	 1.89205351835601E-02 
1008	 1.91914857874412E-02 
1009	 1.94708225434141E-02 
1010	 1.99602947073597E-02 
1011	 2.01591850159484E-02 
1012	 2.04272801341519E-02 
1013	 0.020607220109438 
1014	 2.06343407772881E-02 
1015	 2.04565802185064E-02 
1016	 2.03476180630905E-02 
1017	 2.00913926031388E-02 
1018	 2.00874670434186E-02 
1019	 2.02032802076174E-02 
1020	 2.02019161426165E-02 
1021	 2.04123095421991E-02 
1022	 2.02888635747099E-02 
1023	 1.97754148160628E-02 
1024	 1.97299488119702E-02 
1025	 0.019889890311682 
1026	 2.00379546047038E-02 
1027	 2.02528354904766E-02 
1028	 0.020889413234595 
1029	 2.09901418670972E-02 
1030	 2.07653545638658E-02 
1031	 0.020692959947217 
1032	 2.04339499104276E-02 
1033	 2.04064528753818E-02 
1034	 0.02051535105273 
1035	 2.06083440648651E-02 
1036	 2.07794647311831E-02 
1037	 2.09146138567982E-02 
1038	 2.10704330611627E-02 
1039	 0.0212859122155 
1040	 2.10135829697312E-02 
1041	 2.10108387298994E-02 
1042	 2.09984527031205E-02 
1043	 2.08648928597709E-02 
1044	 2.07837281702605E-02 
1045	 2.09161329370255E-02 
1046	 2.08467221974976E-02 
1047	 2.04626906690728E-02 
1048	 2.04372510416241E-02 
1049	 2.06231774611778E-02 
1050	 2.07209186800064E-02 
1051	 2.10734643399826E-02 
1052	 2.11153411895559E-02 
1053	 2.07936796907184E-02 
1054	 2.07332409016138E-02 
1055	 2.06540463436967E-02 
1056	 0.020633815033035 
1057	 2.06989953517494E-02 
1058	 2.11134626173405E-02 
1059	 2.09851209656614E-02 
1060	 2.04663538890379E-02 
1061	 2.04239490262267E-02 
1062	 2.03145065194788E-02 
1063	 2.03693831349395E-02 
1064	 2.09950712744829E-02 
1065	 0.021082977991666 
1066	 2.07935069480281E-02 
1067	 2.07245517344911E-02 
1068	 2.05937083470272E-02 
1069	 2.04723970862163E-02 
1070	 2.05106167684424E-02 
1071	 0.020428396352297 
1072	 2.01248592385864E-02 
1073	 1.99489560120782E-02 
1074	 1.99276346252071E-02 
1075	 1.99429322281738E-02 
1076	 2.00841971864827E-02 
1077	 2.05696212738317E-02 
1078	 2.06368248243949E-02 
1079	 2.05878640089372E-02 
1080	 2.05291226094752E-02 
1081	 2.01936700054965E-02 
1082	 2.00696891286935E-02 
1083	 2.00996190005916E-02 
1084	 2.00579529905996E-02 
1085	 2.00680648294747E-02 
1086	 1.99732237412034E-02 
1087	 1.96494184985177E-02 
1088	 1.95309023513631E-02 
1089	 1.94158206487488E-02 
1090	 1.95053019726941E-02 
1091	 1.94908584585367E-02 
1092	 1.97330435254283E-02 
1093	 1.96072531253609E-02 
1094	 1.91682712700391E-02 
1095	 1.89490719115018E-02 
1096	 0.018607145196558 
1097	 1.85079271365968E-02 
1098	 0.018687706336359 
1099	 0.018654799071973 
1100	 1.87282448722482E-02 
1101	 1.85168970396052E-02 
1102	 1.79763338717198E-02 
1103	 1.76640314138945E-02 
1104	 1.72163368220117E-02 
1105	 1.68723814598588E-02 
1106	 1.71824447038817E-02 
1107	 1.70485396909946E-02 
1108	 0.016669882384635 
1109	 1.69059680084631E-02 
1110	 0.016752526328237 
1111	 1.61641659693183E-02 
1112	 0.015848012631662 
1113	 1.54660982289715E-02 
1114	 0.015190238286632 
1115	 1.54365377799607E-02 
1116	 1.52036825537594E-02 
1117	 1.45616378936681E-02 
1118	 1.44565206254004E-02 
1119	 1.38950574722812E-02 
1120	 0.013178784061804 
1121	 1.28555018038966E-02 
1122	 0.014957692800046 
1123	 1.08081689102363E-02 
1124	 9.05165177764288E-03 
1125	 1.30438989412814E-02 
1126	 0.013893201956573 
1127	 1.71423874297252E-02 
1128	 2.08141925642309E-02 
1129	 1.89385368920044E-02 
1130	 9.91686107292501E-03 
1131	 8.62656572498779E-03 
1132	 8.0462863843228E-03 
1133	 8.66291905412848E-03 
1134	 1.39217382072888E-02 
1135	 1.40975118180442E-02 
1136	 1.08539085955768E-02 
1137	 1.08181323809978E-02 
1138	 1.16054959124922E-02 
1139	 1.01755569061038E-02 
1140	 9.90388595966572E-03 
1141	 1.14910996404041E-02 
1142	 1.12419267943351E-02 
1143	 1.03240499826496E-02 
1144	 1.10777515198832E-02 
1145	 1.19990429021012E-02 
1146	 1.07387068079852E-02 
1147	 9.7954151340551E-03 
1148	 1.08183878950761E-02 
1149	 1.17346011559395E-02 
1150	 1.21344568866884E-02 
1151	 1.29296508712578E-02 
1152	 1.37597871801843E-02 
1153	 1.42630128955045E-02 
1154	 0.014189310515124 
1155	 1.41369276903377E-02 
1156	 1.43104936258724E-02 
1157	 1.39118392341966E-02 
1158	 1.38096019881456E-02 
1159	 1.45143183908891E-02 
1160	 1.50344147172285E-02 
1161	 1.51320303061232E-02 
1162	 1.53332532374248E-02 
1163	 1.55400196998419E-02 
1164	 1.55062154054839E-02 
1165	 1.57248700440125E-02 
1166	 1.60204849948575E-02 
1167	 1.59285058464288E-02 
1168	 1.63094906803688E-02 
1169	 1.67931309539882E-02 
1170	 1.67230086689829E-02 
1171	 1.68774639861944E-02 
1172	 1.72811607497489E-02 
1173	 1.71813131801904E-02 
1174	 1.67043882884889E-02 
1175	 1.67299634919859E-02 
1176	 1.69508198509322E-02 
1177	 1.71008414352887E-02 
1178	 1.73981624441178E-02 
1179	 0.017461729448338 
1180	 1.71313330234309E-02 
1181	 1.69004287525385E-02 
1182	 1.68241468435962E-02 
1183	 1.68844917978017E-02 
1184	 1.70228913192255E-02 
1185	 1.70557496297805E-02 
1186	 1.70320874659414E-02 
1187	 1.71797971330226E-02 
1188	 1.74586620386882E-02 
1189	 1.74450803834658E-02 
1190	 1.72966060651316E-02 
1191	 1.72999468695994E-02 
1192	 1.73076560682039E-02 
1193	 1.71873180088734E-02 
1194	 1.72261242515044E-02 
1195	 0.017457841241882 
1196	 0.017411583446009 
1197	 1.75335921144549E-02 
1198	 1.77639931763005E-02 
1199	 1.75783495964703E-02 
1200	 1.75196807608842E-02 
1201	 1.73597661975357E-02 
1202	 1.69190624422687E-02 
1203	 1.70646615550331E-02 
1204	 1.76251782598689E-02 
1205	 1.77957530961946E-02 
1206	 1.76755121101124E-02 
1207	 1.77904914589066E-02 
1208	 1.78725184427749E-02 
1209	 1.77383972512292E-02 
1210	 1.76949856150825E-02 
1211	 1.76516619859125E-02 
1212	 1.76028011148245E-02 
1213	 1.75794271818611E-02 
1214	 1.75745123645389E-02 
1215	 1.78079582268929E-02 
1216	 1.78515624576993E-02 
1217	 1.75785483884298E-02 
1218	 1.77733459557811E-02 
1219	 1.80384543952163E-02 
1220	 1.78696070983305E-02 
1221	 1.78816904478002E-02 
1222	 0.017988338755562 
1223	 1.80095473336296E-02 
1224	 1.80825084318988E-02 
1225	 1.82320756347412E-02 
1226	 0.018378300270205 
1227	 1.82717352269859E-02 
1228	 1.81503786271556E-02 
1229	 1.83258638743542E-02 
1230	 1.84024007817539E-02 
1231	 1.83195612117626E-02 
1232	 1.84218649773775E-02 
1233	 0.01851639197767 
1234	 1.82745809077332E-02 
1235	 1.81837979134925E-02 
1236	 1.82792056698761E-02 
1237	 0.018375425280685 
1238	 1.84692687611449E-02 
1239	 1.84670862699155E-02 
1240	 1.86402396575935E-02 
1241	 1.86101529915824E-02 
1242	 0.018419138411059 
1243	 1.83794470394841E-02 
1244	 1.83978307313879E-02 
1245	 1.83934658784194E-02 
1246	 1.85952709961556E-02 
1247	 1.88130102327826E-02 
1248	 1.86886844248021E-02 
1249	 1.84712623892342E-02 
1250	 1.85076562024046E-02 
1251	 1.85853202918538E-02 
1252	 1.86331335974966E-02 
1253	 0.018729915021067 
1254	 1.85228149018977E-02 
1255	 1.82761298310791E-02 
1256	 1.82182242410724E-02 
1257	 1.84235408687448E-02 
1258	 1.84040870428976E-02 
1259	 1.83343385561463E-02 
1260	 1.82723214584626E-02 
1261	 1.81427171905941E-02 
1262	 1.80127442650909E-02 
1263	 1.78530893652045E-02 
1264	 1.78454166495885E-02 
1265	 1.79008701706114E-02 
1266	 1.77553449335742E-02 
1267	 0.017705863254748 
1268	 1.78781010315485E-02 
1269	 1.77373254211344E-02 
1270	 1.74794897005978E-02 
1271	 1.77148873682351E-02 
1272	 1.79395320176746E-02 
1273	 1.78368791151837E-02 
1274	 1.78294725834483E-02 
1275	 1.78287973774669E-02 
1276	 1.78041320216294E-02 
1277	 0.017963449742277 
1278	 1.81408005072045E-02 
1279	 1.80956032410107E-02 
1280	 1.79435857599668E-02 
1281	 1.79047115446471E-02 
1282	 1.78979557420963E-02 
1283	 1.78535487261771E-02 
1284	 1.78603433958319E-02 
1285	 1.78840179130005E-02 
1286	 1.78579549884308E-02 
1287	 1.77668388457995E-02 
1288	 1.77470694710721E-02 
1289	 1.76659749784649E-02 
1290	 1.73313037321872E-02 
1291	 1.72582273893634E-02 
1292	 1.75045203797711E-02 
1293	 1.74780148214285E-02 
1294	 1.72942627082972E-02 
1295	 1.73636069726482E-02 
1296	 1.74610315530102E-02 
1297	 0.017254905164587 
1298	 1.69578158434359E-02 
1299	 0.016932337727868 
1300	 1.68727389680391E-02 
1301	 0.0167282875586 
1302	 1.69814856482172E-02 
1303	 1.71084321927381E-02 
1304	 1.66590438440409E-02 
1305	 1.63258590343501E-02 
1306	 1.62152466622003E-02 
1307	 1.61737979828839E-02 
1308	 1.60395111375309E-02 
1309	 0.016187663351357 
1310	 1.61924602899357E-02 
1311	 1.59238286488294E-02 
1312	 1.56905439388483E-02 
1313	 1.55753335051158E-02 
1314	 1.54020326609572E-02 
1315	 1.49722618064027E-02 
1316	 1.48450191790832E-02 
1317	 1.50793105194335E-02 
1318	 1.50467251364074E-02 
1319	 1.49851578924166E-02 
1320	 1.48759178290743E-02 
1321	 1.46177714746356E-02 
1322	 1.43285051870068E-02 
1323	 1.42463005950338E-02 
1324	 1.39947655536495E-02 
1325	 0.013523994799807 
1326	 1.33892376439354E-02 
1327	 1.35204129166441E-02 
1328	 1.34521409397701E-02 
1329	 1.37406416242183E-02 
1330	 1.40117459186642E-02 
1331	 1.31219358844009E-02 
1332	 1.25272084047088E-02 
1333	 1.31295725020613E-02 
1334	 1.31710280454694E-02 
1335	 1.29292475566447E-02 
1336	 1.26981613286481E-02 
1337	 1.29333169398222E-02 
1338	 1.30316204406653E-02 
1339	 0.012547060523496 
1340	 1.21180754428643E-02 
1341	 1.24027396147415E-02 
1342	 1.22486071249677E-02 
1343	 1.17381843725218E-02 
1344	 1.22202429802415E-02 
1345	 1.26679046363935E-02 
1346	 1.16279852885986E-02 
1347	 0.011154472380694 
1348	 1.34676691076866E-02 
1349	 1.50843108325988E-02 
1350	 1.55741605561291E-02 
1351	 1.32943774667864E-02 
1352	 2.43697960217885E-03 
1353	-1.44768486991884E-03 
1354	 1.05658744455271E-03 
1355	-7.52303236276857E-03 
1356	 8.99843977985954E-03 
1357	 2.10686573400011E-02 
1358	-3.04791578393139E-02 
1359	-2.15298864059707E-02 
1360	 8.65650867090173E-02 
1361	 0.153345857402194 
1362	 0.15423998318484 
1363	 0.109713694625705 
1364	 7.72437030662085E-02 
1365	 0.138864031064074 
1366	 0.212268326148086 
1367	 0.115924848255782 
1368	 0.130963832657561 
1369	 0.12896378103854 
1370	 3.76766604672557E-02 
1371	 7.05514801734056E-02 
1372	 5.47821004117879E-02 
1373	-0.240767408326991 
1374	-0.293134220441909 
1375	-6.17385273627969E-02 
1376	-5.89539539978764E-04 
1377	 0.156335591614059 
1378	 0.108137510232915 
1379	-0.366621433020466 
1380	-0.375807591765181 
1381	-0.233069767260994 
1382	-0.24012150096865 
1383	-2.35812158127373E-02 
1384	 5.90834855100771E-02 
1385	-2.96690939764148E-02 
1386	-5.83200003205421E-02 
1387	 1.36988970088814E-02 
1388	 5.17713456200348E-02 
1389	-2.93472229263469E-02 
1390	-2.39861194853168E-02 
1391	-1.39104329014447E-02 
1392	 0.156901755303984 
1393	 0.155201694516283 
1394	-6.61299919159468E-02 
1395	-0.135847778170964 
1396	 0.018909244766412 
1397	-0.034210776760363 
1398	-5.51284270516811E-02 
1399	-4.34798788083061E-02 
1400	-0.13206092594443 
1401	-0.154275517167926 
1402	-6.63133339732354E-02 
1403	 4.53277738826958E-02 
1404	-9.26067030929375E-02 
1405	-8.05075842048014E-02 
1406	 0.10193427886675 
1407	 0.24073794440803 
1408	 0.31631244856795 
1409	 0.206579707024427 
1410	 1.80994420830055E-02 
1411	 3.36118520193977E-02 
1412	 4.85273098603867E-02 
1413	 1.66978537248594E-02 
1414	 3.93875538102155E-02 
1415	 1.66812428156103E-02 
1416	-0.124223999111549 
1417	-0.131244606421788 
1418	-3.68281579459111E-02 
1419	-3.93622450552212E-03 
1420	 2.66100222840559E-02 
1421	 1.89925270128133E-02 
1422	-9.99104018317308E-03 
1423	-0.005890506105516 
1424	-4.3746432903236E-03 
1425	-0.002900618211689 
1426	 1.09588759004993E-02 
1427	 1.59648277352166E-02 
1428	 1.23708438107928E-02 
1429	 1.30120502796794E-02 
1430	 1.92640971690114E-02 
1431	 2.22779514927429E-02 
1432	 0.022680097571766 
1433	 2.26613971323064E-02 
1434	 0.026521991736263 
1435	 2.29525061762747E-02 
1436	 9.04841843476996E-03 
1437	 2.78656747912766E-03 
1438	 1.38641945398658E-02 
1439	 1.88365991895704E-02 
1440	 1.74584989002468E-02 
1441	 1.22521029067253E-02 
1442	 2.58661127082521E-03 
1443	-1.85351779906537E-03 
1444	 8.33705388854761E-04 
1445	 8.09009487073877E-03 
1446	 1.48822043039032E-02 
1447	 1.32921694219084E-02 
1448	 1.19649909874236E-02 
1449	 1.38106259102387E-02 
1450	 1.14549710572844E-02 
1451	 6.7310059604648E-03 
1452	 2.22523862856045E-03 
1453	 3.75796378873081E-03 
1454	 5.20834687062869E-03 
1455	 8.60605895891922E-03 
1456	 8.73220204082145E-03 
1457	 8.92832849013472E-03 
1458	 9.10757052488498E-03 
1459	 8.2323244510426E-03 
1460	 7.77369970218075E-03 
1461	 7.50685440613686E-03 
1462	 7.46949023512453E-03 
1463	 6.82118096298787E-03 
1464	 7.09059000585835E-03 
1465	 9.50620787922351E-03 
1466	 9.80841067511639E-03 
1467	 7.93291639974755E-03 
1468	 8.41193896080351E-03 
1469	 1.03347476348187E-02 
1470	 1.00717000060793E-02 
1471	 8.83540621206543E-03 
1472	 1.00669484732619E-02 
1473	 1.20440992463124E-02 
1474	 1.14037450716424E-02 
1475	 1.08693220847867E-02 
1476	 1.15707514421503E-02 
1477	 0.011034288685027 
1478	 9.91386221594445E-03 
1479	 0.009507804235071 
1480	 1.07739482533522E-02 
1481	 0.011638980587471 
1482	 1.12965264139915E-02 
1483	 1.27292843947791E-02 
1484	 1.29903566680883E-02 
1485	 1.10144987588527E-02 
1486	 1.03652333925007E-02 
1487	 1.02276401305117E-02 
1488	 1.06336121015473E-02 
1489	 1.15435342389792E-02 
1490	 1.17218853567761E-02 
1491	 1.19731611092501E-02 
1492	 1.22855281552667E-02 
1493	 1.19931742751363E-02 
1494	 1.19823628803905E-02 
1495	 1.27963268600347E-02 
1496	 0.012923628934382 
1497	 1.21640315995197E-02 
1498	 1.22241855290493E-02 
1499	 1.28680157210451E-02 
1500	 1.28807621415966E-02 
1501	 1.26143968747941E-02 
1502	 1.28314660889575E-02 
1503	 1.31331852323855E-02 
1504	 1.31744900417124E-02 
1505	 1.33545252052868E-02 
1506	 1.37254442463523E-02 
1507	 1.38647082094161E-02 
1508	 1.35390622256839E-02 
1509	 1.34442816135676E-02 
1510	 1.36517912990324E-02 
1511	 1.39282012447868E-02 
1512	 1.41105653847051E-02 
1513	 1.39334353647189E-02 
1514	 1.39491235555804E-02 
1515	 1.41771519607962E-02 
1516	 1.39463194093732E-02 
1517	 1.40568464754365E-02 
1518	 0.014662093302021 
1519	 1.47026350009712E-02 
1520	 1.45544680418842E-02 
1521	 1.46888269933305E-02 
1522	 1.47549798373154E-02 
1523	 1.46656669319109E-02 
1524	 1.46231255850827E-02 
1525	 1.47681781287712E-02 
1526	 0.01481996216755 
1527	 1.47427043878803E-02 
1528	 1.49147670115445E-02 
1529	 1.51287592610202E-02 
1530	 1.50923663604498E-02 
1531	 1.51411574902912E-02 
1532	 1.53037179123412E-02 
1533	 0.015218737293417 
1534	 0.015110545056337 
1535	 1.52846726010689E-02 
1536	 1.54049072570202E-02 
1537	 1.53827290174104E-02 
1538	 1.55178390201312E-02 
1539	 1.56740691198561E-02 
1540	 1.56767220423601E-02 
1541	 1.55813791178427E-02 
1542	 1.54823980595066E-02 
1543	 1.53907122330405E-02 
1544	 1.52774596879896E-02 
1545	 1.54573515452244E-02 
1546	 1.58348807467337E-02 
1547	 1.58110961319614E-02 
1548	 1.55179268026049E-02 
1549	 1.53980010766256E-02 
1550	 1.54334622424299E-02 
1551	 1.55596204826106E-02 
1552	 1.56832685378735E-02 
1553	 1.56957737531806E-02 
1554	 1.56479641894044E-02 
1555	 1.55761029521109E-02 
1556	 1.57031737687163E-02 
1557	 1.59538198416179E-02 
1558	 1.58519156189334E-02 
1559	 1.56610487188298E-02 
1560	 1.57977806358729E-02 
1561	 1.58081736537411E-02 
1562	 1.57028547706518E-02 
1563	 1.58228039718923E-02 
1564	 1.57019381438523E-02 
1565	 1.55684640779066E-02 
1566	 1.57556334306937E-02 
1567	 1.57368693801576E-02 
1568	 1.56677833107815E-02 
1569	 1.58250746556615E-02 
1570	 1.58057358423533E-02 
1571	 1.56174069154583E-02 
1572	 1.56351996135574E-02 
1573	 1.56372028128202E-02 
1574	 1.54551434824035E-02 
1575	 1.54922592860181E-02 
1576	 1.57478363581754E-02 
1577	 1.57814883241376E-02 
1578	 1.56373416170007E-02 
1579	 1.56146868862964E-02 
1580	 1.56442365085388E-02 
1581	 1.58055655466045E-02 
1582	 1.59448797959915E-02 
1583	 1.56413162953428E-02 
1584	 1.53745812123813E-02 
1585	 1.56078941688004E-02 
1586	 1.57783711758702E-02 
1587	 1.56653672498059E-02 
1588	 1.56794748316982E-02 
1589	 1.56367983951357E-02 
1590	 1.55353131628308E-02 
1591	 1.57360902030781E-02 
1592	 1.59525829254661E-02 
1593	 1.58186331685397E-02 
1594	 1.56538134219568E-02 
1595	 1.58133436559922E-02 
1596	 1.58304310989841E-02 
1597	 1.56952659823732E-02 
1598	 1.58403410254044E-02 
1599	 1.58423547979225E-02 
1600	 1.57469336860342E-02 
1601	 1.58527947439292E-02 
1602	 1.57592094923771E-02 
1603	 1.56480971242578E-02 
1604	 1.58043478805433E-02 
1605	 0.015976704951239 
1606	 1.59208796958116E-02 
1607	 1.57204974490792E-02 
1608	 1.56837302452727E-02 
1609	 0.015560957266601 
1610	 1.54083042151659E-02 
1611	 1.55229575990795E-02 
1612	 1.56979816417717E-02 
1613	 1.58642194161586E-02 
1614	 1.58673432853975E-02 
1615	 1.57318737299534E-02 
1616	 0.015788382165042 
1617	 1.59367159257698E-02 
1618	 1.59534776844787E-02 
1619	 1.60021371045735E-02 
1620	 1.59880968849663E-02 
1621	 1.57479224414599E-02 
1622	 1.57077307725201E-02 
1623	 1.59795107764079E-02 
1624	 1.59964068967666E-02 
1625	 1.55567639597756E-02 
1626	 1.54234870775538E-02 
1627	 1.55871827663429E-02 
1628	 1.54561512923643E-02 
1629	 1.56587375805327E-02 
1630	 1.60812792690297E-02 
1631	 1.59812187939351E-02 
1632	 1.58707677461368E-02 
1633	 1.60568735627501E-02 
1634	 1.60830029770701E-02 
1635	 1.59742975835869E-02 
1636	 1.59180236052754E-02 
1637	 1.57705909608294E-02 
1638	 1.56099660147115E-02 
1639	 1.55836243329588E-02 
1640	 1.56550443906315E-02 
1641	 1.57089633005998E-02 
1642	 1.57053150176927E-02 
1643	 1.57999900857619E-02 
1644	 1.56889282527506E-02 
1645	 1.53751614731327E-02 
1646	 0.015308609430256 
1647	 1.51682997441891E-02 
1648	 1.51530912005344E-02 
1649	 1.55089683763479E-02 
1650	 1.56116037984595E-02 
1651	 0.0154780217813 
1652	 1.53974181116768E-02 
1653	 1.54584193320777E-02 
1654	 1.54266546741488E-02 
1655	 1.52775339469536E-02 
1656	 1.53050477726687E-02 
1657	 1.54486899244983E-02 
1658	 1.54410220040944E-02 
1659	 1.54616178195783E-02 
1660	 1.55126980948506E-02 
1661	 1.54941614119004E-02 
1662	 1.54233963122729E-02 
1663	 1.53467399248372E-02 
1664	 0.015400324915728 
1665	 1.54097889604548E-02 
1666	 1.52888044601688E-02 
1667	 0.015379411685074 
1668	 1.53118242614379E-02 
1669	 1.50226974187342E-02 
1670	 1.52895131823421E-02 
1671	 0.015447598541512 
1672	 1.53499213066247E-02 
1673	 1.55150668722179E-02 
1674	 1.56206081895364E-02 
1675	 1.56675582939558E-02 
1676	 1.56375294901486E-02 
1677	 1.55563975923362E-02 
1678	 1.56657610551819E-02 
1679	 1.56286968939882E-02 
1680	 1.54832609805765E-02 
1681	 1.56574677527538E-02 
1682	 0.015719006114683 
1683	 1.55861425367407E-02 
1684	 1.57759889261899E-02 
1685	 1.57360542322929E-02 
1686	 1.52892917252341E-02 
1687	 1.51215803781991E-02 
1688	 1.50929187243617E-02 
1689	 1.51595331706034E-02 
1690	 1.54671152996298E-02 
1691	 0.015431918070654 
1692	 1.52332860662293E-02 
1693	 1.52110325597098E-02 
1694	 1.49503207956893E-02 
1695	 1.49116514973325E-02 
1696	 0.015308476273461 
1697	 1.51508519234055E-02 
1698	 1.48464804744062E-02 
1699	 1.51293847459949E-02 
1700	 1.50883306384558E-02 
1701	 1.47786726374296E-02 
1702	 0.014752487687702 
1703	 1.45297926899176E-02 
1704	 1.43565232518977E-02 
1705	 1.47148705860046E-02 
1706	 1.51744074615611E-02 
1707	 1.50672267567124E-02 
1708	 1.45609438826746E-02 
1709	 1.47048225642065E-02 
1710	 1.48997620413041E-02 
1711	 1.45588981495135E-02 
1712	 0.014808838200318 
1713	 1.45300739664728E-02 
1714	 1.41901668535607E-02 
1715	 1.44245491142283E-02 
1716	 1.44034792907099E-02 
1717	 1.40482568359202E-02 
1718	 1.42202934178938E-02 
1719	 0.014600978008716 
1720	 1.46886178428233E-02 
1721	 1.46901771486186E-02 
1722	 1.43396526208392E-02 
1723	 1.40270917321931E-02 
1724	 1.41584976370642E-02 
1725	 1.43267713381232E-02 
1726	 0.014688777523736 
1727	 0.014718836966283 
1728	 1.42537460508626E-02 
1729	 1.41227151553503E-02 
1730	 0.014169139953569 
1731	 1.43968552557441E-02 
1732	 1.47393650098116E-02 
1733	 0.01452834163201 
1734	 0.014375505237626 
1735	 1.45698204385333E-02 
1736	 1.45643676939664E-02 
1737	 1.47282415878489E-02 
1738	 1.47143955518575E-02 
1739	 1.43678056426858E-02 
1740	 1.40049704606376E-02 
1741	 0.013501612690191 
1742	 0.01363164961202 
1743	 1.38231990442083E-02 
1744	 1.34880867293612E-02 
1745	 1.36739290092546E-02 
1746	 0.014024579799134 
1747	 1.40029071908606E-02 
1748	 0.01391905114927 
1749	 1.38474974735383E-02 
1750	 1.34447697237661E-02 
1751	 1.32956821648813E-02 
1752	 1.36708218621847E-02 
1753	 0.013687371232754 
1754	 1.31698046809657E-02 
1755	 1.30875243689115E-02 
1756	 1.32542948065069E-02 
1757	 0.013476871164296 
1758	 1.38260156202909E-02 
1759	 1.33922772149963E-02 
1760	 1.27579794599782E-02 
1761	 1.24143577692483E-02 
1762	 1.24977163669528E-02 
1763	 1.31248025926942E-02 
1764	 1.30110194357688E-02 
1765	 1.27658821957878E-02 
1766	 0.012166513673627 
1767	 1.14779347977165E-02 
1768	 1.19607540032736E-02 
1769	 1.13077245047584E-02 
1770	 1.08622769288811E-02 
1771	 1.17264578228072E-02 
1772	 1.10829213194871E-02 
1773	 1.15521984383499E-02 
1774	 1.26583744859174E-02 
1775	 1.02877111479386E-02 
1776	 1.01859614759874E-02 
1777	 1.11911568929938E-02 
1778	 1.09727383469069E-02 
1779	 1.19015438831217E-02 
1780	 1.22583159284587E-02 
1781	 1.01659516011314E-02 
1782	 1.01284904891592E-02 
1783	 1.28590743941307E-02 
1784	 1.27687467514567E-02 
1785	 1.12110582017103E-02 
1786	 1.10212660318424E-02 
1787	 9.27512050545313E-03 
1788	 8.84701237921652E-03 
1789	 1.17755959135547E-02 
1790	 1.04500836769053E-02 
1791	 8.92111363457309E-03 
1792	 1.01544010650708E-02 
1793	 6.68214761530298E-03 
1794	 7.20072239694734E-03 
1795	 1.14308366594164E-02 
1796	 1.07619688014328E-02 
1797	 1.24643417749002E-02 
1798	 8.23022753605372E-03 
1799	 4.76478935587341E-03 
1800	 2.18706931856998E-03 
1801	 3.28033658335206E-03 
1802	 2.50686167395913E-02 
1803	 2.85779874949092E-02 
1804	 1.60385553810916E-02 
1805	 1.47106721280422E-02 
1806	-1.74948275431019E-02 
1807	-2.93730381260903E-02 
1808	 2.71729633485842E-02 
1809	 1.40544816700372E-02 
1810	-7.46098526281053E-02 
1811	-0.136052509586668 
1812	-0.272270291625216 
1813	-0.300593761846796 
1814	-0.141339512089591 
1815	-7.29668281382229E-02 
1816	 9.76941034992276E-02 
1817	 1.89615222644891E-02 
1818	 7.12406721823068E-02 
1819	-9.45060616374326E-02 
1820	-0.574661015781212 
1821	-0.920575890405361 
1822	-0.91476553672854 
1823	-0.235305211531928 
1824	-3.10507692584617E-02 
1825	 0.298498267450504 
1826	 0.305224865416553 
1827	-0.239777752670738 
1828	-0.810940630888682 
1829	 2.39588346741845 
1830	 2.88214214149217 
1831	 0.951045736963038 
1832	 0.852451844944942 
1833	 0.791376318886656 
1834	-0.612389295933901 
1835	-1.09024254996916 
1836	 0.820867196098707 
1837	-0.706605992012731 
1838	-0.882883105307519 
1839	-6.72889595479576 
1840	 2.0548097352451 
1841	 0.597348501561897 
1842	-0.348976350691597 
1843	-0.339042600456032 
1844	 0.429189175736569 
1845	 0.127266560465161 
1846	-1.16125359206414 
1847	-1.57106435086174 
1848	-6.74334847121866 
1849	 2.23583221637115 
1850	 3.15739870659347 
1851	 3.26560853483424 
1852	 0.875367975585561 
1853	 2.88147925434703 
1854	-3.49030205414641 
1855	-1.24180126726011 
1856	-0.807712162093457 
1857	-0.361302482290172 
1858	-0.273535581476761 
1859	-3.73109629223265E-02 
1860	 0.650245851628974 
1861	 0.868504324450415 
1862	 1.32489948591812 
1863	 1.23555027239421 
1864	 1.77125594399378 
1865	 1.47280261010079 
1866	 1.80828746256198 
1867	 1.40833460038932 
1868	-0.484934465537408 
1869	-0.518859607068429 
1870	-0.591163434670526 
1871	-1.24690711700915 
1872	-1.27473669349751 
1873	-1.16687452025828 
1874	-13.5792846167502 
1875	 8.0365271668515 
1876	 8.27574758168658 
1877	 0.483910459741388 
1878	 0.882252804630588 
1879	 0.417639409591935 
1880	 0.21879040838842 
1881	-7.11589098185551 
1882	 35.6374114811698 
1883	 3.96264944936992 
1884	-170.861187434675 
1885	-2.18974208540433 
1886	-3.67375632078649 
1887	-272.094021796003 
1888	 610.099482119775 
1889	-30.5768248930014 
1890	-3.27855686245373 
1891	-1.62777407903673 
1892	 0.318580539075421 
1893	-0.386938516823767 
1894	-0.204750309087541 
1895	 0.207837629647853 
1896	 6.71631993206588E-02 
1897	 0.187602164755836 
1898	 1.36699159702493 
1899	 2.71505649250195 
1900	 5.2057861666947 
1901	-0.799031424656205 
1902	-0.915867363053263 
1903	 0.440999759913647 
1904	 3.50520674877033E-02 
1905	-0.326697263405732 
1906	-0.590897373547625 
1907	-0.566518216299822 
1908	-1.19191874223182 
1909	 0.444803989736724 
1910	-0.11526010103897 
1911	 0.162562819480694 
1912	 0.447530720100648 
1913	 0.5756252426519 
1914	 0.963670208655653 
1915	 3.23058453015677E-02 
1916	-7.87171782150862E-02 
1917	-0.543544150262433 
1918	-1.76425155496777 
1919	-2.11689398482872 
1920	 3.35138416920717 
1921	 4.0217862376806 
1922	 0.695553128616383 
1923	-0.837497807424125 
1924	-0.56656430316069 
1925	 0.316994516308102 
1926	 0.776275819353178 
1927	 1.40730206936679 
1928	 1.69601962846938 
1929	 4.27879510117969 
1930	-0.27056288080662 
1931	-1.73974196375604E-02 
1932	-0.149038856201819 
1933	-0.390400379143058 
1934	-1.20860607583728 
1935	-0.982512408512771 
1936	 1.01707801914724E-02 
1937	 9.64159852452093E-02 
1938	 8.74819038172537E-02 
1939	 0.101780511906694 
1940	 0.129224041970201 
1941	 2.18147503996971E-02 
1942	-3.74423799504462E-02 
1943	-8.4108267897164E-03 
1944	-0.024366388237237 
1945	-5.06968840602036E-02 
1946	-3.09140738868187E-03 
1947	 2.07689701785135E-02 
1948	 2.30701246839809E-02 
1949	 4.78512923945019E-02 
1950	 4.32376893956329E-02 
1951	 9.74105076669662E-03 
1952	-7.50706317197195E-03 
1953	-2.55884342010384E-02 
1954	-3.67811219465915E-02 
1955	-3.25737272882927E-02 
1956	-2.39153507848514E-02 
1957	-2.31668997432981E-02 
1958	-1.39585418930278E-02 
1959	-6.58110349492747E-03 
1960	-3.17917422893623E-05 
1961	 6.0959550857167E-03 
1962	 4.5216962951554E-03 
1963	 2.57208127466906E-03 
1964	 4.92006112855081E-03 
1965	 6.49492712879895E-03 
1966	 6.31410742457446E-03 
1967	 6.93952708156432E-03 
1968	 6.92038803447971E-03 
1969	 3.44601222251798E-03 
1970	 2.50710233991386E-03 
1971	 4.99992324404055E-03 
1972	 6.17294505780755E-03 
1973	 7.84614565978582E-03 
1974	 0.008921680875629 
1975	 6.89484637367063E-03 
1976	 5.18437720965942E-03 
1977	 6.07676333632564E-03 
1978	 6.77502234520191E-03 
1979	 7.17930936101801E-03 
1980	 8.04397513876801E-03 
1981	 9.84070575483311E-03 
1982	 9.66473723925777E-03 
1983	 8.21937620031568E-03 
1984	 7.43088292511887E-03 
1985	 7.17224356368172E-03 
1986	 7.97621295336353E-03 
1987	 9.04495854623579E-03 
1988	 1.02150663268853E-02 
1989	 1.05890448130309E-02 
1990	 9.28823825407137E-03 
1991	 8.78214211467954E-03 
1992	 8.88869867210702E-03 
1993	 8.62160300545387E-03 
1994	 8.78360017910333E-03 
1995	 9.53227428273515E-03 
1996	 1.02539516761675E-02 
1997	 1.06311659952328E-02 
1998	 1.08670243853812E-02 
1999	 1.03604966982319E-02 
2000	 8.07631015082736E-03 
2001	 5.85052081889476E-03 
2002	 6.91505486654043E-03 
2003	 6.2415585672131E-03 
2004	 4.65730174792614E-03 
2005	 6.74007724528859E-03 
2006	 6.60847984232159E-03 
2007	 7.32638556959812E-03 
2008	 8.24329861365657E-03 
2009	 9.15985543667899E-03 
2010	 9.79099578990969E-03 
2011	 9.81816387978003E-03 
2012	 9.43905318191115E-03 
2013	 9.54656675623393E-03 
2014	 9.2951624502015E-03 
2015	 7.97892262006051E-03 
2016	 8.56752615234829E-03 
2017	 9.77830112728174E-03 
2018	 1.04236352541062E-02 
2019	 0.010368409038753 
2020	 8.72683354540727E-03 
2021	 7.86277340483848E-03 
2022	 8.76824903634088E-03 
2023	 8.79000079131707E-03 
2024	 9.23436746987121E-03 
2025	 1.08317748068745E-02 
2026	 0.011448713258461 
2027	 1.15606831175029E-02 
2028	 1.14936862670539E-02 
2029	 1.20114848651275E-02 
2030	 1.27741554355146E-02 
2031	 1.32439966217148E-02 
2032	 1.30834123561613E-02 
2033	 1.26635097229846E-02 
2034	 1.21700884904626E-02 
2035	 1.18613383867475E-02 
2036	 1.19048992873397E-02 
2037	 1.26128848781136E-02 
2038	 0.013134335624908 
2039	 0.013307972476128 
2040	 1.34968219009767E-02 
2041	 1.36716085903284E-02 
2042	 1.32603820135215E-02 
2043	 1.31386996996094E-02 
2044	 1.31059152512969E-02 
2045	 1.33652621375411E-02 
2046	 1.33140428329475E-02 
2047	 1.32587526698181E-02 
2048	 1.36185051472571E-02 
2049	 1.33778876301881E-02 
2050	 1.27537654588776E-02 
2051	 1.24845171179067E-02 
2052	 1.18210872981621E-02 
2053	 1.15306578142608E-02 
2054	 1.21775189276385E-02 
2055	 1.24414930567379E-02 
2056	 1.26745487003942E-02 
2057	 1.29660888718827E-02 
2058	 1.31447712047625E-02 
2059	 1.32805170603935E-02 
2060	 1.32861232527234E-02 
2061	 1.34256733327117E-02 
2062	 1.27488275113017E-02 
2063	 1.21953998155354E-02 
2064	 1.24228430381298E-02 
2065	 1.26123125592179E-02 
2066	 1.25481876971322E-02 
2067	 1.19458734604276E-02 
2068	 1.07735461770193E-02 
2069	 1.02923492943872E-02 
2070	 1.05184176181241E-02 
2071	 0.011218344435678 
2072	 1.22866835559482E-02 
2073	 1.28173228373593E-02 
2074	 0.013531124350416 
2075	 1.31580936519765E-02 
2076	 1.13068839302379E-02 
2077	 1.10410680134314E-02 
2078	 1.06979332784248E-02 
2079	 1.09801410333555E-02 
2080	 1.23984943691204E-02 
2081	 1.40094288207934E-02 
2082	 1.42431759090812E-02 
2083	 1.36038254410552E-02 
2084	 0.013209230735137 
2085	 1.33149041814428E-02 
2086	 1.34188257838929E-02 
2087	 1.36654543844748E-02 
2088	 1.42348497853241E-02 
2089	 1.44649563647132E-02 
2090	 1.46559048838901E-02 
2091	 1.47937925433266E-02 
2092	 1.44726604890918E-02 
2093	 1.30013275612027E-02 
2094	 1.27462759252572E-02 
2095	 1.31207952293664E-02 
2096	 1.30444645495399E-02 
2097	 1.31544369953667E-02 
2098	 1.33299492842166E-02 
2099	 1.31570913305466E-02 
2100	 1.32170753313089E-02 
2101	 1.41570289068177E-02 
2102	 1.47602681952418E-02 
2103	 1.46382836504888E-02 
2104	 1.46251066006276E-02 
2105	 1.50295748311224E-02 
2106	 1.51746242532309E-02 
2107	 0.014864299687457 
2108	 1.43662242623709E-02 
2109	 1.38791387668141E-02 
2110	 1.35352127488289E-02 
2111	 1.34759879575529E-02 
2112	 0.014147615289823 
2113	 1.42649880787567E-02 
2114	 1.35063841476125E-02 
2115	 1.34294432413059E-02 
2116	 1.40133073718785E-02 
2117	 1.40063713687841E-02 
2118	 1.35217000229787E-02 
2119	 1.37467075439791E-02 
2120	 1.40760703490414E-02 
2121	 1.45485211446248E-02 
2122	 1.55179103739193E-02 
2123	 1.60310827308493E-02 
2124	 1.63545542575284E-02 
2125	 1.57338442128868E-02 
2126	 1.42473949141439E-02 
2127	 1.47800828160541E-02 
2128	 1.56982209206993E-02 
2129	 1.52646313737256E-02 
2130	 1.53315057585934E-02 
2131	 1.53596646153763E-02 
2132	 1.38631347633782E-02 
2133	 1.27651171070056E-02 
2134	 1.26876284474881E-02 
2135	 1.34389341529314E-02 
2136	 1.35560854368808E-02 
2137	 1.44035136397255E-02 
2138	 1.47491545484279E-02 
2139	 1.44044525170628E-02 
2140	 1.40374117177313E-02 
2141	 1.37485485057673E-02 
2142	 1.35830860553276E-02 
2143	 1.29198660354824E-02 
2144	 1.29170874647037E-02 
2145	 1.35569777217608E-02 
2146	 0.013675762577702 
2147	 1.42042994053824E-02 
2148	 1.39872585735426E-02 
2149	 1.31500211561981E-02 
2150	 1.31558461318585E-02 
2151	 1.39799693322581E-02 
2152	 1.44519952959393E-02 
2153	 0.014489745414601 
2154	 1.48058722137541E-02 
2155	 1.36993597813173E-02 
2156	 1.26379302893193E-02 
2157	 1.26020594246584E-02 
2158	 1.38330423543241E-02 
2159	 1.35803012117225E-02 
2160	 1.29988369116999E-02 
2161	 1.30023337102914E-02 
2162	 1.25053869300566E-02 
2163	 1.27927419555722E-02 
2164	 1.41843442146183E-02 
2165	 1.46444046625787E-02 
2166	 0.014620668256265 
2167	 1.48713287429347E-02 
2168	 1.54062261648244E-02 
2169	 1.56041554056983E-02 
2170	 0.016004229023598 
2171	 1.54654310181661E-02 
2172	 1.50873481017686E-02 
2173	 1.48581679520701E-02 
2174	 0.014774877770058 
2175	 1.52622816630694E-02 
2176	 1.43795662979496E-02 
2177	 1.32543805388116E-02 
2178	 0.013674420460869 
2179	 1.36339194341073E-02 
2180	 1.36262408847719E-02 
2181	 1.40389088180689E-02 
2182	 1.46356559891418E-02 
2183	 1.49500156756618E-02 
2184	 1.50040674459874E-02 
2185	 1.52895742761918E-02 
2186	 1.48806694188563E-02 
2187	 1.28115980046418E-02 
2188	 0.012287007539115 
2189	 0.012134617375542 
2190	 1.18942287130603E-02 
2191	 1.24170307792394E-02 
2192	 1.22001650030931E-02 
2193	 1.14722863101541E-02 
2194	 1.14949265257067E-02 
2195	 1.18527725053345E-02 
2196	 1.17230836582288E-02 
2197	 1.13265495500559E-02 
2198	 1.16884146950997E-02 
2199	 1.28681734913232E-02 
2200	 0.012059975232867 
2201	 1.27813266792839E-02 
2202	 1.43903893178155E-02 
2203	 0.012243764733581 
2204	 1.09572980406388E-02 
2205	 1.16026558385571E-02 
2206	 1.10718401027408E-02 
2207	 1.23520015371698E-02 
2208	 0.014148735515495 
2209	 1.24036735286654E-02 
2210	 1.03674421390581E-02 
2211	 1.08694085860598E-02 
2212	 1.20214734413937E-02 
2213	 1.28172423453857E-02 
2214	 1.39361060203611E-02 
2215	 1.43569333756038E-02 
2216	 1.32057638101871E-02 
2217	 1.23264511230808E-02 
2218	 1.08541554935578E-02 
2219	 1.15617124681054E-02 
2220	 1.35371796625433E-02 
2221	 1.40802550033426E-02 
2222	 0.015722990408601 
2223	 1.60888052227474E-02 
2224	 0.014144713032133 
2225	 1.29339449513325E-02 
2226	 1.26307650438976E-02 
2227	 1.20118420677415E-02 
2228	 9.75075082728875E-03 
2229	 1.00332608215644E-02 
2230	 1.27002599108926E-02 
2231	 1.32384102582157E-02 
2232	 1.42171082221122E-02 
2233	 1.40026239508822E-02 
2234	 0.01158655273527 
2235	 1.03889022065213E-02 
2236	 9.86522422504011E-03 
2237	 9.17893371382684E-03 
2238	 8.78042610027926E-03 
2239	 8.24538433184064E-03 
2240	 7.29607960966598E-03 
2241	 8.24825560756697E-03 
2242	 1.00989552938165E-02 
2243	 1.00390828014861E-02 
2244	 0.010961699740002 
2245	 0.011967818492568 
2246	 0.011075496351635 
2247	 1.10326281275144E-02 
2248	 9.70005983112105E-03 
2249	 9.10530944766586E-03 
2250	 1.06600410164051E-02 
2251	 9.86609752365562E-03 
2252	 9.31867860578993E-03 
2253	 9.50558805454241E-03 
2254	 9.29811256902598E-03 
2255	 1.09546508525212E-02 
2256	 1.23326750953495E-02 
2257	 1.29266224162936E-02 
2258	 1.35572686250657E-02 
2259	 0.012005561764543 
2260	 1.11234084008023E-02 
2261	 1.04712509298309E-02 
2262	 1.02169111053505E-02 
2263	 9.8256601190395E-03 
2264	 1.00785302851051E-02 
2265	 1.08412723116688E-02 
2266	 0.011260627279011 
2267	 1.14959360243313E-02 
2268	 1.27331190872076E-02 
2269	 1.51016425438318E-02 
2270	 1.62384589244517E-02 
2271	 1.85823513285326E-02 
2272	 1.75912231893964E-02 
2273	 1.18543603319045E-02 
2274	 1.11985523627577E-02 
2275	 1.15183333745708E-02 
2276	 1.14993127754947E-02 
2277	 1.63085169338758E-02 
2278	 1.71602430258221E-02 
2279	 1.33625781818347E-02 
2280	 1.23122007866312E-02 
2281	 1.18795189804918E-02 
2282	 1.04668550691699E-02 
2283	 1.02147468609964E-02 
2284	 1.21838413501852E-02 
2285	 0.012412086809989 
2286	 1.35375916917723E-02 
2287	 1.56359886258558E-02 
2288	 1.50214519948613E-02 
2289	 1.34101631176003E-02 
2290	 1.27302495362845E-02 
2291	 1.06665057816697E-02 
2292	 9.04651465589675E-03 
2293	 9.26599330043647E-03 
2294	 9.50329259058201E-03 
2295	 1.25088010853511E-02 
2296	 1.38541585722751E-02 
2297	 1.42764240817352E-02 
2298	 1.45186446904796E-02 
2299	 1.11174175352381E-02 
2300	 1.09730648152366E-02 
2301	 1.23558988847713E-02 
2302	 1.22724200969621E-02 
2303	 1.21340300671656E-02 
2304	 1.01739337516017E-02 
2305	 8.88072592795739E-03 
2306	 7.58623968412166E-03 
2307	 4.98856190613566E-03 
2308	 5.47042830601145E-03 
2309	 9.02873250580339E-03 
2310	 1.14916379053993E-02 
2311	 1.30921625004732E-02 
2312	 1.40802715416432E-02 
2313	 1.22922953010752E-02 
2314	 1.10018537073952E-02 
2315	 1.26701314721629E-02 
2316	 0.012730097037961 
2317	 8.65657271456211E-03 
2318	 5.12841153450959E-03 
2319	 6.69673367380517E-03 
2320	 9.54940135298957E-03 
2321	 1.09255909996608E-02 
2322	 0.014712893070198 
2323	 1.66075262112579E-02 
2324	 1.43264567188887E-02 
2325	 1.46841252709053E-02 
2326	 1.20588084790899E-02 
2327	 7.43727327951778E-03 
2328	 6.28366492739379E-03 
2329	 4.55054895191273E-03 
2330	 7.76938039690759E-03 
2331	 1.22188034564897E-02 
2332	 8.57200761369302E-03 
2333	 7.0115643745712E-03 
2334	 8.14429408692271E-03 
2335	 3.26706273529551E-03 
2336	 2.64911430287934E-03 
2337	 9.53688663694205E-03 
2338	 1.21177939739427E-02 
2339	 9.33513708554532E-03 
2340	 0.011844914241647 
2341	 1.46231474812753E-02 
2342	 1.17621462003929E-02 
2343	 1.08798547064214E-02 
2344	 9.0834300747681E-03 
2345	 3.33667768360643E-03 
2346	-7.0280437815471E-03 
2347	-6.89071526394825E-03 
2348	 5.11671694568331E-03 
2349	 2.82733772035773E-03 
2350	 3.73224813577433E-04 
2351	 4.82906086854785E-03 
2352	-4.42148698955325E-03 
2353	-5.50260657233786E-03 
2354	 3.33758608593265E-03 
2355	-2.07675193696637E-03 
2356	-7.93055601199464E-03 
2357	-1.07909614318229E-02 
2358	-6.16567082917617E-03 
2359	 6.02613703177775E-03 
2360	 3.43164155288095E-03 
2361	-3.57755484225821E-03 
2362	-7.55924213358497E-03 
2363	-1.75772755384922E-02 
2364	-2.15789161567022E-02 
2365	-8.30434895730802E-03 
2366	 6.77264883767676E-03 
2367	 6.92824432553897E-03 
2368	 3.91173580375249E-03 
2369	 5.9526442138931E-03 
2370	 3.04956850143055E-03 
2371	 1.39912055449855E-03 
2372	 2.20346575587202E-02 
2373	 2.69744100804948E-02 
2374	-3.29788598013015E-04 
2375	-9.06140838507157E-04 
2376	-3.23206155409062E-03 
2377	-2.01238086464276E-02 
2378	-6.10257167138038E-03 
2379	 4.85906004076951E-03 
2380	-3.42406563206842E-03 
2381	-1.35741800983656E-02 
2382	-2.85124654437784E-02 
2383	-5.00963836747533E-02 
2384	-5.49416076804003E-02 
2385	-1.63472723730931E-02 
2386	 0.011388720124227 
2387	 3.09496432379706E-03 
2388	 3.86938937465578E-03 
2389	-1.52358228306369E-02 
2390	-3.61918113368742E-02 
2391	-9.71702454030487E-03 
2392	 2.23294692945125E-03 
2393	-1.66000288439438E-02 
2394	-1.87391521719927E-04 
2395	 3.97900144739721E-03 
2396	-6.67033499747489E-03 
2397	 1.39940290939851E-02 
2398	 0.006502744416458 
2399	-9.32258680489286E-03 
2400	-6.59337596825674E-03 
2401	-1.65885092858205E-02 
2402	-1.31744740791658E-03 
2403	 1.12114546070721E-02 
2404	-7.82754189655024E-03 
2405	-0.013717025358991 
2406	-3.70178502129966E-02 
2407	-8.63970125050647E-02 
2408	-6.43281599245666E-02 
2409	-5.06472743548421E-02 
2410	-0.129674649005974 
2411	-9.96942098957005E-02 
2412	-6.86845933367177E-02 
2413	-0.117242117429904 
2414	-1.73452314853445E-02 
2415	 9.09022015564005E-02 
2416	-8.42163322082912E-03 
2417	-1.47356675758713E-02 
2418	-3.73481034532562E-02 
2419	-8.91089417988064E-02 
2420	-4.24939405251249E-02 
2421	-0.042737045291954 
2422	-3.15118578204877E-02 
2423	-5.30174935059782E-02 
2424	-0.175246456410454 
2425	-0.183549081303448 
2426	-0.127339439751659 
2427	-0.143408088645354 
2428	-0.147803294131511 
2429	-0.194070838218632 
2430	-0.288763760271539 
2431	-0.207310068092923 
2432	-7.46757002424787E-02 
2433	-5.03279927719055E-02 
2434	-3.87189425807806E-02 
2435	-9.39775069983772E-02 
2436	-0.125198503016525 
2437	-0.141254442786126 
2438	-0.231163990919454 
2439	-0.24545986899149 
2440	-0.337544370011435 
2441	-0.403760513567838 
2442	-0.2844945711391 
2443	-0.21155364436794 
2444	-0.244030357728053 
2445	-0.127833812656221 
2446	-1.39395918126482E-02 
2447	-6.23953769402506E-02 
2448	-0.067159925513237 
2449	-0.181157360239275 
2450	-0.144998423984931 
2451	 8.507528855031E-04 
2452	 0.1914802400137 
2453	 0.215543457661287 
2454	-8.03541939882993E-02 
2455	-0.229211771192635 
2456	-0.48673491509745 
2457	-0.378117284706351 
2458	-0.194533479178611 
2459	-0.239485073919894 
2460	-0.254476260880335 
2461	-0.243479022052927 
2462	-0.366724009813303 
2463	-0.347574009855986 
2464	-0.291682518866686 
2465	-7.95862526018731E-02 
2466	 0.26232039705868 
2467	 0.66205599294791 
2468	 0.174603792428371 
2469	-7.33260759274161E-02 
2470	-0.415228489335499 
2471	-0.758348173497056 
2472	-0.735117244118719 
2473	-0.727975306968444 
2474	-0.560124535321841 
2475	-0.281902399490859 
2476	-0.145227367092983 
2477	-5.53281242654279E-02 
2478	 0.1918346725065 
2479	 0.304977331598131 
2480	 0.371724005950304 
2481	 0.938282899887163 
2482	 1.58453162571602 
2483	 1.67154910497065 
2484	 1.62784176150848 
2485	 0.872164666366085 
2486	 0.175985312550081 
2487	-0.85246983538646 
2488	 0.468837968322722 
2489	 1.39914172763372 
2490	 1.19914079395132 
2491	 1.73255778545048 
2492	-0.760896388750553 
2493	-5.26515320831656 
2494	-2.60385404506625 
2495	-4.1127196882891 
2496	 9.6580824396747 
2497	 0.770277515862914 
2498	-3.92640408445231 
2499	-0.581764516799891 
2500	-0.50672859798051 
