Wavelength	rt0713west_close_sunny_200006.asd
350	 4.28489537221088E-02 
351	 4.27909087439571E-02 
352	 4.26174481264174E-02 
353	 0.042847354684563 
354	 4.33322005466545E-02 
355	 4.23517674940093E-02 
356	 0.042100801365983 
357	 4.24077826770925E-02 
358	 4.24547965658424E-02 
359	 4.21178369293478E-02 
360	 4.20489058529514E-02 
361	 4.21613883778211E-02 
362	 4.19099134191535E-02 
363	 0.041635271519707 
364	 4.16619871634637E-02 
365	 4.19673245234266E-02 
366	 4.20385701700225E-02 
367	 4.19926823411477E-02 
368	 4.18099466529213E-02 
369	 4.15431994485681E-02 
370	 4.15427310301044E-02 
371	 4.17732086185559E-02 
372	 4.18877084801129E-02 
373	 4.15172806406591E-02 
374	 4.16944948727085E-02 
375	 4.20127760519312E-02 
376	 4.20951991402347E-02 
377	 4.18386122285882E-02 
378	 4.18665442848533E-02 
379	 4.19811297335016E-02 
380	 4.19881147110399E-02 
381	 4.24044001849231E-02 
382	 4.25089062126663E-02 
383	 4.23961569611755E-02 
384	 4.25185081470537E-02 
385	 4.27593106192288E-02 
386	 4.28125246380721E-02 
387	 4.27364834887142E-02 
388	 4.29750058925053E-02 
389	 4.28800883580611E-02 
390	 4.28434528327583E-02 
391	 4.31623191759563E-02 
392	 4.34544003368657E-02 
393	 4.36120014720008E-02 
394	 4.36321259850957E-02 
395	 4.35881197142931E-02 
396	 4.35988243468467E-02 
397	 4.37036870231774E-02 
398	 4.38166047401869E-02 
399	 0.043776345919396 
400	 4.39262141889595E-02 
401	 4.41189077488133E-02 
402	 4.41930815130682E-02 
403	 4.40955985777011E-02 
404	 4.41576615864059E-02 
405	 4.42906261871361E-02 
406	 4.43122698353947E-02 
407	 4.45069578670736E-02 
408	 4.47113970205887E-02 
409	 4.47925845189768E-02 
410	 4.46953494913847E-02 
411	 4.47806934684191E-02 
412	 4.49639910391271E-02 
413	 4.51158385168164E-02 
414	 4.52033913429327E-02 
415	 4.53687086296056E-02 
416	 4.55796652026113E-02 
417	 4.57504243659632E-02 
418	 4.59635340890408E-02 
419	 4.61008271787074E-02 
420	 4.61738312239713E-02 
421	 4.63405172346551E-02 
422	 4.65605762344287E-02 
423	 0.046797047527823 
424	 4.70298594789856E-02 
425	 4.72859913987379E-02 
426	 4.76036715356814E-02 
427	 4.78996215271179E-02 
428	 4.80775150137163E-02 
429	 4.84076376412805E-02 
430	 4.86867317749621E-02 
431	 4.88896107043072E-02 
432	 4.92452142625064E-02 
433	 4.95511167211574E-02 
434	 4.97831292871705E-02 
435	 5.00012211464608E-02 
436	 5.03946298997218E-02 
437	 5.07527529234749E-02 
438	 5.10552372709969E-02 
439	 5.13747933809529E-02 
440	 0.051600319879661 
441	 5.18690808225941E-02 
442	 5.22165743082848E-02 
443	 5.24940079378306E-02 
444	 5.27644008653614E-02 
445	 5.30325836525089E-02 
446	 5.32974626182467E-02 
447	 5.35994416223199E-02 
448	 5.38483303818729E-02 
449	 0.054029153270395 
450	 0.05419377322644 
451	 5.44507089146073E-02 
452	 0.054676279592856 
453	 5.48060758049627E-02 
454	 5.49526748129269E-02 
455	 5.52352612823661E-02 
456	 5.54812811582139E-02 
457	 5.55001055007572E-02 
458	 5.56333852164271E-02 
459	 5.57750234659176E-02 
460	 5.58873298318884E-02 
461	 5.60215955360224E-02 
462	 5.61670290507699E-02 
463	 5.62988700220739E-02 
464	 5.64196738378823E-02 
465	 5.66267454679343E-02 
466	 5.67500411405988E-02 
467	 5.67933902264974E-02 
468	 5.68567867641076E-02 
469	 5.70165700055629E-02 
470	 5.71916438638082E-02 
471	 5.73347420011799E-02 
472	 5.74651537201423E-02 
473	 5.75911048898751E-02 
474	 5.77740693697024E-02 
475	 5.80317161522167E-02 
476	 5.81843687231407E-02 
477	 5.83590227641174E-02 
478	 5.85959061865484E-02 
479	 5.88629454850281E-02 
480	 5.90483160650399E-02 
481	 5.92608921742213E-02 
482	 5.95468263689935E-02 
483	 5.97626044257359E-02 
484	 0.059976914429633 
485	 6.02335783192367E-02 
486	 6.05582431129305E-02 
487	 6.09274822637805E-02 
488	 6.12434797622701E-02 
489	 6.15171482907112E-02 
490	 6.18604229720657E-02 
491	 6.21356541640797E-02 
492	 6.24436514672699E-02 
493	 6.28461168677101E-02 
494	 6.31753856937843E-02 
495	 6.35610050294065E-02 
496	 6.39515439523278E-02 
497	 6.42346999262292E-02 
498	 6.45986496473302E-02 
499	 6.49679853148442E-02 
500	 6.53280172945903E-02 
501	 6.58019118906695E-02 
502	 6.61828759760737E-02 
503	 6.65508338313854E-02 
504	 6.70142930789154E-02 
505	 6.74292766888149E-02 
506	 6.78966316820301E-02 
507	 6.83925757078556E-02 
508	 6.87988790523865E-02 
509	 6.91864721596421E-02 
510	 6.96207565201648E-02 
511	 7.01226610287742E-02 
512	 7.06234878884191E-02 
513	 7.11267959883028E-02 
514	 7.16524207874253E-02 
515	 7.22208468963983E-02 
516	 7.28041700826856E-02 
517	 0.073415149258979 
518	 7.39983212184721E-02 
519	 7.44185071173955E-02 
520	 7.50219062576567E-02 
521	 7.56203594794851E-02 
522	 7.60450838876188E-02 
523	 7.66208210031806E-02 
524	 7.72342231009738E-02 
525	 7.78401071888446E-02 
526	 7.84475649737904E-02 
527	 7.90647208794814E-02 
528	 7.96854699596688E-02 
529	 0.080293568608621 
530	 8.08473806228574E-02 
531	 8.14874296928515E-02 
532	 8.21883332238163E-02 
533	 8.28590850606268E-02 
534	 8.34622299861369E-02 
535	 8.40711434164736E-02 
536	 8.47044906803592E-02 
537	 8.53074112067613E-02 
538	 8.59716063122188E-02 
539	 8.66553650877296E-02 
540	 8.73131553201078E-02 
541	 8.80035945659517E-02 
542	 0.08867537378655 
543	 8.93269269193021E-02 
544	 8.99921865739417E-02 
545	 9.06999817341238E-02 
546	 9.13574522682329E-02 
547	 9.19479670157697E-02 
548	 9.26319613482737E-02 
549	 0.093312953277458 
550	 9.39640992920816E-02 
551	 9.45971966837316E-02 
552	 9.52970705540386E-02 
553	 0.095962781811731 
554	 9.65765548329894E-02 
555	 9.72215790962961E-02 
556	 9.78794183526993E-02 
557	 9.84988497882599E-02 
558	 9.90600470152445E-02 
559	 9.97015087366725E-02 
560	 0.100294697013609 
561	 0.100811363028213 
562	 0.101295096405222 
563	 0.101782400349951 
564	 0.102276235024011 
565	 0.102751412445181 
566	 0.103139762976581 
567	 0.103520466127318 
568	 0.103888839594279 
569	 0.104227758156996 
570	 0.10464142843868 
571	 0.105013173665898 
572	 0.105295293922649 
573	 0.10552917103324 
574	 0.105774122185177 
575	 0.106043118949277 
576	 0.106318589696671 
577	 0.106540609964406 
578	 0.106740551882791 
579	 0.106925347225061 
580	 0.107084117599901 
581	 0.107195809784658 
582	 0.1072194783533 
583	 0.107157827846682 
584	 0.107099857799959 
585	 0.106909620762823 
586	 0.106667339427502 
587	 0.106490283636203 
588	 0.106209485257632 
589	 0.105984591331624 
590	 0.105856753348389 
591	 0.105700537033003 
592	 0.105457082239796 
593	 0.105158210546496 
594	 0.104840503193392 
595	 0.104472936146599 
596	 0.103990195342872 
597	 0.10341491850391 
598	 0.10282435885654 
599	 0.102224997827777 
600	 0.101689969916226 
601	 0.101289719578143 
602	 0.101087029489175 
603	 0.10089356291821 
604	 0.100714809926788 
605	 0.100618242037311 
606	 0.10061750101759 
607	 0.100629191411901 
608	 0.100623790406042 
609	 0.10063322778242 
610	 0.100671368268655 
611	 0.100679498169344 
612	 0.10063463138791 
613	 0.100666988261924 
614	 0.100662560126516 
615	 0.100639097651564 
616	 0.100673842411407 
617	 0.100667901561718 
618	 0.100615040073944 
619	 0.100545683444126 
620	 0.100533132486821 
621	 0.100487664659865 
622	 0.100472678546745 
623	 0.100540982168943 
624	 0.100455532430797 
625	 0.100348393967049 
626	 0.100255063866308 
627	 0.100115749298982 
628	 0.100139104314634 
629	 0.100206411402034 
630	 0.100199143169041 
631	 0.100169059558471 
632	 0.100185631246476 
633	 0.100192211854366 
634	 0.100100445719042 
635	 0.100113482327364 
636	 0.100067347862295 
637	 9.99176017320381E-02 
638	 9.98354088484754E-02 
639	 0.099770370036825 
640	 9.96814250094438E-02 
641	 9.95388141523023E-02 
642	 9.93596672551245E-02 
643	 0.099154552962019 
644	 9.89183125544563E-02 
645	 9.86400726644847E-02 
646	 9.84058067792253E-02 
647	 9.82366364485997E-02 
648	 9.81171743800857E-02 
649	 9.79858275423159E-02 
650	 9.77971281362753E-02 
651	 0.097579436719105 
652	 0.097370235321832 
653	 9.69769041833519E-02 
654	 9.65938803177598E-02 
655	 9.62775742552213E-02 
656	 9.58979607807312E-02 
657	 9.54554748149006E-02 
658	 9.50528088075063E-02 
659	 9.47546933265622E-02 
660	 9.45132695683172E-02 
661	 9.42700861643898E-02 
662	 9.40452391608264E-02 
663	 9.39065387120731E-02 
664	 9.38109173549842E-02 
665	 9.36838496488883E-02 
666	 9.35181971064965E-02 
667	 9.34372485732152E-02 
668	 9.33211903547208E-02 
669	 0.093199920444711 
670	 9.31411713248371E-02 
671	 9.31404511548412E-02 
672	 9.31236446149141E-02 
673	 9.30851223143586E-02 
674	 9.30833326141679E-02 
675	 9.30545578440466E-02 
676	 9.30683425456622E-02 
677	 0.093154392956926 
678	 9.31778336479198E-02 
679	 9.32378104948879E-02 
680	 9.33569441218689E-02 
681	 9.35036993705642E-02 
682	 9.35267091947817E-02 
683	 9.36318091176888E-02 
684	 9.38068133880481E-02 
685	 9.37103395784954E-02 
686	 9.36626001545092E-02 
687	 9.37514789883558E-02 
688	 9.38993307800859E-02 
689	 9.38589099038969E-02 
690	 9.36846099224879E-02 
691	 9.34452627564995E-02 
692	 9.32121943590685E-02 
693	 9.29324647892345E-02 
694	 9.27645202392803E-02 
695	 0.09266290832062 
696	 9.22285307303121E-02 
697	 9.16429884498577E-02 
698	 9.09861951315169E-02 
699	 9.03648002461948E-02 
700	 8.98303493650369E-02 
701	 8.92605068597895E-02 
702	 8.86136652858367E-02 
703	 0.087900127869196 
704	 8.70710491754191E-02 
705	 8.61741316208824E-02 
706	 8.52668905105868E-02 
707	 8.43385783410218E-02 
708	 8.32170732878939E-02 
709	 8.19870688042031E-02 
710	 0.080775990069719 
711	 7.93335365678328E-02 
712	 7.78171689050344E-02 
713	 7.62466386117957E-02 
714	 0.074429304011088 
715	 7.25889911432199E-02 
716	 7.06177065666468E-02 
717	 6.85799470348066E-02 
718	 6.65954343328097E-02 
719	 6.48365129665195E-02 
720	 6.34000458585751E-02 
721	 6.19524279786586E-02 
722	 6.02596040088261E-02 
723	 5.82662520480196E-02 
724	 5.62860578745452E-02 
725	 5.44265688675308E-02 
726	 5.25206596784247E-02 
727	 5.04388936279153E-02 
728	 4.81740302720183E-02 
729	 4.59194408948552E-02 
730	 4.37147567006399E-02 
731	 4.17778325537337E-02 
732	 4.01671259485123E-02 
733	 3.86527761634992E-02 
734	 3.72586785754681E-02 
735	 3.60792490938425E-02 
736	 3.52455547199212E-02 
737	 3.46602985934419E-02 
738	 0.034224070663536 
739	 3.38747919039375E-02 
740	 3.36269000131896E-02 
741	 3.34552243808115E-02 
742	 3.33468991537936E-02 
743	 3.32860683499145E-02 
744	 3.32048615448005E-02 
745	 3.31066617952922E-02 
746	 3.30299339043962E-02 
747	 3.30457408645777E-02 
748	 3.30566829378322E-02 
749	 3.30350300069371E-02 
750	 3.29746842518208E-02 
751	 3.28609991039793E-02 
752	 3.28185310129919E-02 
753	 3.28627847882765E-02 
754	 3.29294976354581E-02 
755	 3.28958165064275E-02 
756	 3.28227098239804E-02 
757	 3.27177245611559E-02 
758	 3.24213990936845E-02 
759	 3.22539061461682E-02 
760	 3.21888667966283E-02 
761	 3.20413146008665E-02 
762	 3.20713577811526E-02 
763	 3.22639253448349E-02 
764	 3.25694823684688E-02 
765	 3.28972567056122E-02 
766	 3.30090365741963E-02 
767	 3.31411208152224E-02 
768	 3.33577038428258E-02 
769	 3.35544789781801E-02 
770	 3.36538410075769E-02 
771	 3.37889044138104E-02 
772	 3.40242003043341E-02 
773	 3.41045781377502E-02 
774	 3.42934504591875E-02 
775	 0.034555340251541 
776	 3.47477829313505E-02 
777	 3.49311530855642E-02 
778	 3.51638400751968E-02 
779	 3.54320761442442E-02 
780	 3.56549551765959E-02 
781	 0.03587509517519 
782	 3.61107183036942E-02 
783	 3.63813918561539E-02 
784	 3.67326014712054E-02 
785	 3.69818563303755E-02 
786	 3.71955422650602E-02 
787	 3.74992051246112E-02 
788	 3.77856666079361E-02 
789	 3.81251493259171E-02 
790	 3.85400641832894E-02 
791	 3.90016592843472E-02 
792	 3.94134011548322E-02 
793	 3.97602902606685E-02 
794	 4.00742244215955E-02 
795	 4.04228394825319E-02 
796	 4.07944969474759E-02 
797	 4.10897875592702E-02 
798	 4.12815565242162E-02 
799	 4.16177477511396E-02 
800	 4.19448822084053E-02 
801	 4.21876749501061E-02 
802	 4.23558111392474E-02 
803	 4.26659209549166E-02 
804	 4.28146411383971E-02 
805	 4.27931578234393E-02 
806	 4.29402868235755E-02 
807	 4.30714890078485E-02 
808	 4.29534312120476E-02 
809	 4.25258461876039E-02 
810	 4.21670481178187E-02 
811	 4.21766922748572E-02 
812	 4.20984680606809E-02 
813	 4.13204139286448E-02 
814	 4.08399160572087E-02 
815	 4.05004703163514E-02 
816	 0.040092487759272 
817	 0.039489111590069 
818	 3.91104340714581E-02 
819	 3.87529431641207E-02 
820	 3.81690910607336E-02 
821	 3.71369331176167E-02 
822	 3.61292560499912E-02 
823	 3.51200697096921E-02 
824	 3.40517333575391E-02 
825	 3.30683313424784E-02 
826	 3.17097021517265E-02 
827	 3.00426929182485E-02 
828	 2.85027392118991E-02 
829	 2.74344377329623E-02 
830	 2.64275354492363E-02 
831	 2.54522800664767E-02 
832	 2.47778431014762E-02 
833	 2.40548143145053E-02 
834	 2.35088489623082E-02 
835	 2.31780794464956E-02 
836	 2.27941634306917E-02 
837	 2.25239749715369E-02 
838	 2.22506165578137E-02 
839	 2.19422628915399E-02 
840	 2.19568297150287E-02 
841	 2.18005191025689E-02 
842	 2.14929054359722E-02 
843	 2.12464429136294E-02 
844	 0.021167104069035 
845	 2.10496755830781E-02 
846	 2.08312775260039E-02 
847	 0.02057245710495 
848	 2.03782665932556E-02 
849	 2.03016398157092E-02 
850	 2.02692093492219E-02 
851	 2.00780987447454E-02 
852	 1.99731686623961E-02 
853	 1.98193269238823E-02 
854	 1.95432111984271E-02 
855	 1.93541119519411E-02 
856	 1.92179529825309E-02 
857	 1.91640002653224E-02 
858	 1.92086252521703E-02 
859	 1.93345293359966E-02 
860	 1.89932128784368E-02 
861	 1.85239892625279E-02 
862	 1.85590317991753E-02 
863	 1.84694888446939E-02 
864	 1.83685234165254E-02 
865	 1.82802560227623E-02 
866	 1.81174441966744E-02 
867	 1.79125956109628E-02 
868	 1.77212378666186E-02 
869	 1.75720253964917E-02 
870	 0.017456457921421 
871	 1.74188865377455E-02 
872	 1.72693664380214E-02 
873	 1.69606097724764E-02 
874	 1.68639429543154E-02 
875	 1.68002839871492E-02 
876	 1.66065351434755E-02 
877	 1.62574603550061E-02 
878	 1.61836000694643E-02 
879	 1.61488523421416E-02 
880	 1.59847326342905E-02 
881	 0.015625816246 
882	 1.52758085627227E-02 
883	 0.01524793794554 
884	 1.53882055927045E-02 
885	 1.52465541922766E-02 
886	 0.015084675239961 
887	 1.49540845630048E-02 
888	 1.48174510129497E-02 
889	 1.45801225468183E-02 
890	 0.014559357651506 
891	 1.43810124803093E-02 
892	 1.39718592554306E-02 
893	 1.40709433135321E-02 
894	 1.36119948286331E-02 
895	 1.30589979702495E-02 
896	 1.30265078473371E-02 
897	 1.29437303820715E-02 
898	 1.30940401479207E-02 
899	 1.31893004745698E-02 
900	 1.29359824062257E-02 
901	 1.26249205389183E-02 
902	 1.26272700266403E-02 
903	 0.01272971767824 
904	 1.26087383631782E-02 
905	 1.26037925180636E-02 
906	 1.25504755233896E-02 
907	 1.24566363874483E-02 
908	 1.23747711773138E-02 
909	 1.15654683488238E-02 
910	 1.13788002423414E-02 
911	 1.18325246372044E-02 
912	 1.16430012109159E-02 
913	 1.10282668254933E-02 
914	 1.07836370160503E-02 
915	 1.11168895926165E-02 
916	 0.011428402595534 
917	 1.12412257805512E-02 
918	 1.05940623086618E-02 
919	 1.00964917774362E-02 
920	 1.08361447100769E-02 
921	 1.09520754375803E-02 
922	 1.07627977074721E-02 
923	 1.06477634682824E-02 
924	 1.01919381901079E-02 
925	 9.53640792889732E-03 
926	 9.41347939948498E-03 
927	 1.01064779220916E-02 
928	 9.30910257733064E-03 
929	 8.07708339249509E-03 
930	 8.10651162564709E-03 
931	 1.08641564824586E-02 
932	 1.09688676103468E-02 
933	 1.16958259816057E-02 
934	 1.14438719692414E-02 
935	 8.04136802801589E-03 
936	 7.43692686543789E-03 
937	 7.60448904505007E-03 
938	 7.83672066555599E-03 
939	 7.97244651582254E-03 
940	 7.69096132501432E-03 
941	 7.14105531519439E-03 
942	 7.6540521854158E-03 
943	 1.00791666383568E-02 
944	 8.94279415511747E-03 
945	 7.76547517832236E-03 
946	 7.94497594326171E-03 
947	 8.72800870113953E-03 
948	 8.81508358820072E-03 
949	 8.23051524325537E-03 
950	 6.43398475577488E-03 
951	 3.74154537271137E-03 
952	 7.74382154801839E-03 
953	 1.04887860091383E-02 
954	 9.12300683710012E-03 
955	 5.98898214278165E-03 
956	 5.71808965248691E-03 
957	 6.8900102422563E-03 
958	 8.24485283686147E-03 
959	 8.93296868156663E-03 
960	 6.47276461297918E-03 
961	 5.99080195139525E-03 
962	 8.31500847842753E-03 
963	 1.04854678445478E-02 
964	 9.41293304681392E-03 
965	 8.40602881311427E-03 
966	 8.16672227487658E-03 
967	 7.39756225636427E-03 
968	 7.29668874773264E-03 
969	 7.81641104906658E-03 
970	 8.56051997584049E-03 
971	 8.94918827938371E-03 
972	 8.32814493242894E-03 
973	 8.3536758790081E-03 
974	 9.18155169374916E-03 
975	 9.29371430557147E-03 
976	 8.3298681250024E-03 
977	 7.68334907748279E-03 
978	 0.007884905580414 
979	 8.33922963015052E-03 
980	 7.84533422875365E-03 
981	 7.97716296519597E-03 
982	 8.87099490703088E-03 
983	 9.38678606604822E-03 
984	 9.74131929852688E-03 
985	 1.00807547522011E-02 
986	 1.02754093861432E-02 
987	 1.00076052015107E-02 
988	 9.17127604267649E-03 
989	 8.51634762728842E-03 
990	 8.43224923940228E-03 
991	 8.75660186789408E-03 
992	 8.33800003840091E-03 
993	 8.46789035686009E-03 
994	 9.14651634829633E-03 
995	 9.39304510718148E-03 
996	 9.10172262805983E-03 
997	 9.20995198182706E-03 
998	 9.91858594944894E-03 
999	 1.07043650953151E-02 
1000	 1.05661451242843E-02 
1001	 7.66958408082845E-03 
1002	 7.86925981200948E-03 
1003	 7.92607536008504E-03 
1004	 7.86946957929153E-03 
1005	 7.87797702546602E-03 
1006	 7.77927670310096E-03 
1007	 7.92855641351049E-03 
1008	 8.15780275572622E-03 
1009	 8.28361686753298E-03 
1010	 8.36174597738073E-03 
1011	 8.37886039786893E-03 
1012	 8.4185042553586E-03 
1013	 8.2004525702245E-03 
1014	 8.16475730674317E-03 
1015	 8.18350477542122E-03 
1016	 8.26582821121541E-03 
1017	 8.49619478297187E-03 
1018	 8.56271916656043E-03 
1019	 8.71027921194179E-03 
1020	 8.68665192264024E-03 
1021	 8.28614092530514E-03 
1022	 8.25720052159288E-03 
1023	 8.24570437611817E-03 
1024	 8.23828571508488E-03 
1025	 8.6455072205968E-03 
1026	 8.66986531635632E-03 
1027	 8.78267457917548E-03 
1028	 8.91733483263954E-03 
1029	 8.93452838118709E-03 
1030	 8.90569969237272E-03 
1031	 8.81957119383922E-03 
1032	 8.55859173781923E-03 
1033	 8.53666144273414E-03 
1034	 8.53471540097696E-03 
1035	 8.57288274468618E-03 
1036	 8.81060584421293E-03 
1037	 8.8894197612419E-03 
1038	 8.79776337766669E-03 
1039	 8.93982844228809E-03 
1040	 9.01460752367208E-03 
1041	 8.99728195141565E-03 
1042	 8.98067923835766E-03 
1043	 8.93696636068555E-03 
1044	 8.93114076488041E-03 
1045	 8.85343448200049E-03 
1046	 8.92132249342406E-03 
1047	 9.17078083579416E-03 
1048	 9.21571388095388E-03 
1049	 9.23913340387544E-03 
1050	 9.23479342572146E-03 
1051	 9.10740358743182E-03 
1052	 8.99974517136057E-03 
1053	 8.7969060363001E-03 
1054	 8.77357153401055E-03 
1055	 8.89456721384682E-03 
1056	 8.90624883618148E-03 
1057	 8.92662321423998E-03 
1058	 9.07440261523064E-03 
1059	 9.10352239684358E-03 
1060	 8.94727601882996E-03 
1061	 8.9726903860754E-03 
1062	 9.19586066897435E-03 
1063	 9.16726615911655E-03 
1064	 8.9390535010159E-03 
1065	 8.95270084014711E-03 
1066	 9.02473487075271E-03 
1067	 9.00736501745224E-03 
1068	 9.27801794810786E-03 
1069	 9.21235499858139E-03 
1070	 8.53149801723443E-03 
1071	 8.35427718003228E-03 
1072	 8.2019633960712E-03 
1073	 8.3309636745024E-03 
1074	 8.53641958956004E-03 
1075	 9.26074184707714E-03 
1076	 9.37736935754939E-03 
1077	 9.32418443683887E-03 
1078	 9.1932174955893E-03 
1079	 8.71115129414418E-03 
1080	 8.51839622048967E-03 
1081	 8.33768478338827E-03 
1082	 8.26032385514073E-03 
1083	 8.38272462589093E-03 
1084	 8.38078925152582E-03 
1085	 8.39455330394447E-03 
1086	 8.40014360862004E-03 
1087	 8.31646941799236E-03 
1088	 8.26170508941902E-03 
1089	 8.31933288783925E-03 
1090	 8.20575500404882E-03 
1091	 8.15445385180986E-03 
1092	 8.12968417155084E-03 
1093	 8.15516877789515E-03 
1094	 8.18732831670757E-03 
1095	 8.22426801028697E-03 
1096	 8.37585493876482E-03 
1097	 8.26452199733661E-03 
1098	 7.95611980782546E-03 
1099	 7.78068207328414E-03 
1100	 7.38789629661421E-03 
1101	 7.28582923773294E-03 
1102	 7.43579603731411E-03 
1103	 7.56415019599459E-03 
1104	 8.09195417961582E-03 
1105	 8.2121284844393E-03 
1106	 7.81248493024292E-03 
1107	 7.4897588084261E-03 
1108	 6.54336619903558E-03 
1109	 6.02671620072876E-03 
1110	 6.04347519005768E-03 
1111	 7.14199756671766E-03 
1112	 7.11078543271405E-03 
1113	 6.51618077703224E-03 
1114	 6.91182475892749E-03 
1115	 8.07278894018882E-03 
1116	 8.02585531110578E-03 
1117	 8.40852081581121E-03 
1118	 8.60041406693817E-03 
1119	 4.09860864191114E-03 
1120	 2.43579157269646E-03 
1121	 4.61121382912004E-03 
1122	 9.27657452517342E-03 
1123	 1.07277709144753E-02 
1124	 8.34835116396494E-03 
1125	 2.93440929728604E-03 
1126	 1.77605670543642E-03 
1127	 4.37471655414526E-03 
1128	 6.36116782796609E-03 
1129	 6.45306009852839E-03 
1130	 6.21924233684106E-03 
1131	 5.30260803877534E-03 
1132	 1.80594658835776E-03 
1133	 2.8368285558002E-03 
1134	 6.78218085735407E-03 
1135	 6.64631500538653E-03 
1136	 7.10638704969535E-03 
1137	 6.36678327471913E-03 
1138	 2.23657743256459E-03 
1139	 1.00205605653788E-03 
1140	 3.08670004218559E-03 
1141	 2.54632772974245E-03 
1142	 4.01082860566098E-03 
1143	 7.0511484879313E-03 
1144	 6.60969636889534E-03 
1145	 6.11155725068936E-03 
1146	 5.97697775011653E-03 
1147	 3.47752180374031E-03 
1148	 2.86452160828098E-03 
1149	 4.75536510190594E-03 
1150	 5.03922611087629E-03 
1151	 5.14895981233556E-03 
1152	 5.50163740310854E-03 
1153	 5.20431544229006E-03 
1154	 5.22547388908486E-03 
1155	 5.56708079868675E-03 
1156	 6.08148151325827E-03 
1157	 5.79311845435606E-03 
1158	 5.73708605930411E-03 
1159	 5.88988776670452E-03 
1160	 5.84186303208514E-03 
1161	 5.82623832793286E-03 
1162	 6.12545150077774E-03 
1163	 6.34207976002994E-03 
1164	 6.06125312688978E-03 
1165	 6.25699297117936E-03 
1166	 6.49991204365342E-03 
1167	 5.8739729838868E-03 
1168	 5.92423401820565E-03 
1169	 6.69714127433902E-03 
1170	 6.9386822351954E-03 
1171	 6.95215874801943E-03 
1172	 7.08294517063548E-03 
1173	 7.08856117643794E-03 
1174	 6.50747197461409E-03 
1175	 6.50651055224319E-03 
1176	 7.10622175496701E-03 
1177	 7.35247436886686E-03 
1178	 7.0748316796218E-03 
1179	 6.6971208019168E-03 
1180	 6.56982646072376E-03 
1181	 6.72121254818901E-03 
1182	 6.96693751208808E-03 
1183	 6.96491288403616E-03 
1184	 6.71153831067672E-03 
1185	 6.70849644226405E-03 
1186	 6.8811736899906E-03 
1187	 6.94651351573379E-03 
1188	 7.03792493432171E-03 
1189	 7.05258771318514E-03 
1190	 7.02515894998446E-03 
1191	 7.2642998074095E-03 
1192	 7.27044361765551E-03 
1193	 7.15583106935239E-03 
1194	 6.77524076761868E-03 
1195	 6.81272213009196E-03 
1196	 6.96910440519083E-03 
1197	 7.08294741716772E-03 
1198	 7.1643955581924E-03 
1199	 7.03011049782614E-03 
1200	 6.80021906406568E-03 
1201	 6.81417584946015E-03 
1202	 7.03966749029265E-03 
1203	 7.05260629114843E-03 
1204	 7.11388096462188E-03 
1205	 7.19937200749303E-03 
1206	 7.13485605995929E-03 
1207	 7.20896183684099E-03 
1208	 7.04291098452973E-03 
1209	 6.6425357478122E-03 
1210	 6.61085047748947E-03 
1211	 6.79115494606209E-03 
1212	 6.82971843278531E-03 
1213	 6.87332327572743E-03 
1214	 7.01592703709592E-03 
1215	 7.12262195057106E-03 
1216	 7.16938985985953E-03 
1217	 7.24444789671415E-03 
1218	 7.30128170200035E-03 
1219	 7.22375105491415E-03 
1220	 6.99559830363436E-03 
1221	 6.98564051847409E-03 
1222	 7.12755883477591E-03 
1223	 7.06781625112807E-03 
1224	 7.01098473504113E-03 
1225	 7.06129089694698E-03 
1226	 7.16145193520106E-03 
1227	 7.15866219549819E-03 
1228	 7.08322900275508E-03 
1229	 7.21443289687129E-03 
1230	 7.26945381429816E-03 
1231	 7.25533448922129E-03 
1232	 7.4292039658081E-03 
1233	 7.50230324893458E-03 
1234	 7.44310999543204E-03 
1235	 7.41648362460271E-03 
1236	 7.49658556177042E-03 
1237	 7.53677208413936E-03 
1238	 7.50124918162492E-03 
1239	 7.49824001002456E-03 
1240	 7.50887377527421E-03 
1241	 7.40586696441768E-03 
1242	 7.33516981654448E-03 
1243	 7.28437129069721E-03 
1244	 7.20821098156788E-03 
1245	 7.28785444370325E-03 
1246	 7.33684664505556E-03 
1247	 7.26575293788142E-03 
1248	 7.31536543026184E-03 
1249	 7.39537400091313E-03 
1250	 7.38254047706871E-03 
1251	 7.4498877473055E-03 
1252	 7.53286358526952E-03 
1253	 7.49039324587265E-03 
1254	 7.41875625296653E-03 
1255	 7.41862833160186E-03 
1256	 7.36632896834156E-03 
1257	 7.1931081517226E-03 
1258	 7.13094216749473E-03 
1259	 7.15300293301855E-03 
1260	 7.15016053522688E-03 
1261	 7.27699011229283E-03 
1262	 7.24878861233261E-03 
1263	 7.18035195139979E-03 
1264	 0.006865504242862 
1265	 6.93244948442473E-03 
1266	 7.13445325592371E-03 
1267	 7.09138224380561E-03 
1268	 0.007083662672756 
1269	 6.91040487502817E-03 
1270	 6.73163466894075E-03 
1271	 6.90128559259021E-03 
1272	 7.12253635745641E-03 
1273	 7.14347988556986E-03 
1274	 7.05815232666776E-03 
1275	 7.0783170652627E-03 
1276	 7.17755550242605E-03 
1277	 7.14947390562596E-03 
1278	 7.22995526663464E-03 
1279	 7.46852472502014E-03 
1280	 7.38994638611838E-03 
1281	 7.28745653772588E-03 
1282	 7.11760951295954E-03 
1283	 7.12417581736634E-03 
1284	 7.13200025030506E-03 
1285	 7.08849018406802E-03 
1286	 7.16570957862055E-03 
1287	 7.24681641232379E-03 
1288	 7.1973394796655E-03 
1289	 7.05395737447872E-03 
1290	 6.96577400288491E-03 
1291	 6.95956485374954E-03 
1292	 6.74032182798096E-03 
1293	 6.77802935091599E-03 
1294	 6.99081037090673E-03 
1295	 6.88897903324631E-03 
1296	 0.006693482508884 
1297	 6.4594645086632E-03 
1298	 6.34151143693203E-03 
1299	 6.58419065780326E-03 
1300	 6.73103008693545E-03 
1301	 6.66816267384998E-03 
1302	 6.68348248594654E-03 
1303	 6.6937267135257E-03 
1304	 6.75524810024181E-03 
1305	 6.87702205154516E-03 
1306	 6.75557967133572E-03 
1307	 6.35034904243553E-03 
1308	 6.34317580542873E-03 
1309	 6.36727648483128E-03 
1310	 6.31469642479448E-03 
1311	 6.69542470169444E-03 
1312	 6.65050821687288E-03 
1313	 5.89314825277435E-03 
1314	 5.86379631062586E-03 
1315	 6.3930514149352E-03 
1316	 6.34934357191022E-03 
1317	 6.2251835729421E-03 
1318	 0.006360351602761 
1319	 6.40491583235576E-03 
1320	 6.17559088205785E-03 
1321	 5.95744192695581E-03 
1322	 5.93435585590052E-03 
1323	 5.8121953788339E-03 
1324	 5.72192265922879E-03 
1325	 6.05362637252216E-03 
1326	 6.31710527569663E-03 
1327	 6.02513442933408E-03 
1328	 5.4553681468074E-03 
1329	 5.38108657289981E-03 
1330	 5.66605365498228E-03 
1331	 5.67121323906346E-03 
1332	 5.63753116268166E-03 
1333	 5.49384722536911E-03 
1334	 5.05332111642116E-03 
1335	 4.83231117973586E-03 
1336	 4.35317220193278E-03 
1337	 4.48923723189801E-03 
1338	 5.26590464560782E-03 
1339	 5.45981030511848E-03 
1340	 5.92684661336674E-03 
1341	 5.88423796594109E-03 
1342	 4.9040204464205E-03 
1343	 4.74336284250765E-03 
1344	 4.71609032934637E-03 
1345	 4.5164454298442E-03 
1346	 4.48755348427148E-03 
1347	 5.27299644855502E-03 
1348	 8.61129475000237E-03 
1349	 9.53966048322578E-03 
1350	 7.07316363791157E-03 
1351	 7.20790437264227E-03 
1352	 5.18236114779419E-03 
1353	-6.85854621505682E-04 
1354	-1.26773329951388E-02 
1355	-1.63478170190316E-03 
1356	 3.72451529787259E-02 
1357	 1.26574289168343E-02 
1358	-5.59284586471822E-02 
1359	-5.47216952155305E-02 
1360	-1.13346370862166E-02 
1361	-4.58353675042039E-02 
1362	-0.161358448691336 
1363	-8.70506472744926E-02 
1364	-2.83384879089429E-02 
1365	-0.134848523266581 
1366	-0.137078982169523 
1367	 4.68287538308174E-02 
1368	 0.108442404150056 
1369	-0.197689062911 
1370	-0.160464473435217 
1371	 0.309945151356873 
1372	 0.301614483609478 
1373	 0.19474351205757 
1374	 0.073337431244499 
1375	-0.510472701988822 
1376	-0.547717269247583 
1377	 5.51084362170922E-02 
1378	 0.223829825377034 
1379	 0.147100286889525 
1380	 0.153542265817705 
1381	-0.139835341426002 
1382	-0.262379761422764 
1383	-0.145194638518795 
1384	-0.262084423321987 
1385	-0.463536769190392 
1386	-0.458389051371331 
1387	-0.632890027857088 
1388	-0.679688574928531 
1389	-0.124387560472061 
1390	 2.54141214517685E-02 
1391	-6.74193251574608E-02 
1392	-0.133707304327549 
1393	 0.103918814886034 
1394	 0.354366419570472 
1395	 0.371293259188844 
1396	 0.435644330314259 
1397	-5.25271936500596E-02 
1398	-0.424966605536239 
1399	-0.312047273557598 
1400	-0.264939288743417 
1401	-0.176179654524562 
1402	 2.95126240403464E-02 
1403	-0.163966962962248 
1404	-0.234009661827878 
1405	-0.16803617084297 
1406	-7.21405771388983E-02 
1407	-0.179698047576434 
1408	-0.256753661700947 
1409	-0.169523748182532 
1410	-0.140388110263953 
1411	-0.142428031367743 
1412	 1.97842783927159E-02 
1413	 5.54209358880797E-02 
1414	-0.110594228967238 
1415	-0.109220990087164 
1416	 7.18658802311679E-03 
1417	 2.32562869285822E-02 
1418	 1.88229814831468E-02 
1419	-4.31075603307458E-03 
1420	-6.98323393374504E-02 
1421	-6.43650657699464E-02 
1422	-4.51724946729931E-02 
1423	-3.44455880756872E-02 
1424	 6.00704861854897E-03 
1425	 1.10277127228044E-02 
1426	-1.24484216798546E-02 
1427	-1.20546565616799E-02 
1428	-7.92497612933773E-04 
1429	-3.91846916607034E-03 
1430	-1.46046752266762E-02 
1431	-1.32862685334452E-02 
1432	-1.01478428265444E-02 
1433	-1.00969906600591E-02 
1434	-3.76065187474297E-03 
1435	 2.99973907087039E-03 
1436	 1.24367253588095E-02 
1437	 7.07998350837257E-03 
1438	-1.08080177650967E-02 
1439	-8.74549543508896E-03 
1440	 7.5727556954356E-03 
1441	 9.8472993036951E-03 
1442	 8.02115448224049E-03 
1443	 1.15894674143175E-02 
1444	 1.03526773404934E-02 
1445	 4.57894728265468E-03 
1446	 1.22242810361994E-03 
1447	 3.42175869410012E-03 
1448	 5.00950860191364E-03 
1449	 8.79378660481936E-04 
1450	 1.16716592500966E-04 
1451	 4.57576023525576E-03 
1452	 4.6208279054892E-03 
1453	 2.6187352292681E-03 
1454	 3.04759664848514E-03 
1455	 5.41842224959765E-03 
1456	 5.98953502339201E-03 
1457	 5.9634631298747E-03 
1458	 5.77837289218456E-03 
1459	 5.68626880664317E-03 
1460	 4.86425553397741E-03 
1461	 2.90706502183835E-03 
1462	 2.7969541806547E-03 
1463	 3.34552240636145E-03 
1464	 2.97854577469391E-03 
1465	 3.06857710859651E-03 
1466	 3.42858791462407E-03 
1467	 3.03351877769134E-03 
1468	 2.63368907360745E-03 
1469	 3.22519832408682E-03 
1470	 3.85329140802334E-03 
1471	 4.20200995245189E-03 
1472	 3.48746251969623E-03 
1473	 1.57631252303512E-03 
1474	 2.29168611985274E-03 
1475	 4.3010736677807E-03 
1476	 4.37141896554206E-03 
1477	 5.57365213581733E-03 
1478	 5.68064162888544E-03 
1479	 2.92351715008235E-03 
1480	 2.13137550852779E-03 
1481	 2.67817343092117E-03 
1482	 3.28947493368864E-03 
1483	 4.24693686487936E-03 
1484	 4.41184777057504E-03 
1485	 4.37296087587221E-03 
1486	 4.69009525490551E-03 
1487	 4.7520655847531E-03 
1488	 4.83830765976317E-03 
1489	 5.47789656643709E-03 
1490	 5.59680486517052E-03 
1491	 5.00360033400004E-03 
1492	 5.01283493621714E-03 
1493	 5.28495282971566E-03 
1494	 5.40946521469086E-03 
1495	 5.82006599290891E-03 
1496	 5.97182682512843E-03 
1497	 5.81998951834642E-03 
1498	 5.77890582673234E-03 
1499	 5.72885347099044E-03 
1500	 5.69462547421059E-03 
1501	 5.75261761063874E-03 
1502	 5.7483287382663E-03 
1503	 5.65607917098746E-03 
1504	 5.6461960652746E-03 
1505	 5.55949594357128E-03 
1506	 5.68806147560121E-03 
1507	 5.88265518972324E-03 
1508	 5.77246942384214E-03 
1509	 5.61349652460035E-03 
1510	 5.6930524701875E-03 
1511	 5.95592658357406E-03 
1512	 5.92162720494828E-03 
1513	 5.56380009177739E-03 
1514	 5.48190496037393E-03 
1515	 5.97154537707939E-03 
1516	 6.35514420810411E-03 
1517	 6.24678788665377E-03 
1518	 6.22422046883235E-03 
1519	 6.30377475909356E-03 
1520	 6.13848736554855E-03 
1521	 6.09744300585026E-03 
1522	 6.34941745835474E-03 
1523	 6.23485990563384E-03 
1524	 5.93728887507249E-03 
1525	 5.98264975516081E-03 
1526	 6.14576608626766E-03 
1527	 6.30897770426366E-03 
1528	 6.30736636596001E-03 
1529	 6.23480714808395E-03 
1530	 6.36491362795968E-03 
1531	 6.36041042473028E-03 
1532	 6.21000958999032E-03 
1533	 6.33266358944578E-03 
1534	 6.50046993567363E-03 
1535	 6.30958955737679E-03 
1536	 6.12468865472082E-03 
1537	 6.30123550217024E-03 
1538	 6.36697499497008E-03 
1539	 6.24547016935325E-03 
1540	 6.38323642191415E-03 
1541	 6.56652206839912E-03 
1542	 6.45162345965723E-03 
1543	 6.40557584477849E-03 
1544	 6.61684301866289E-03 
1545	 6.6896744434275E-03 
1546	 6.67233061600554E-03 
1547	 6.59352782071994E-03 
1548	 6.28303609994652E-03 
1549	 6.08656163666803E-03 
1550	 6.25067517071247E-03 
1551	 6.53221240573301E-03 
1552	 6.6217677178995E-03 
1553	 6.47396430770875E-03 
1554	 6.27778147825316E-03 
1555	 6.28861092706217E-03 
1556	 6.3624265102101E-03 
1557	 6.32561941601258E-03 
1558	 6.31012638266563E-03 
1559	 6.3417553873358E-03 
1560	 6.48226771259067E-03 
1561	 6.62577438419215E-03 
1562	 6.70013865652392E-03 
1563	 6.59830021813919E-03 
1564	 6.29162077910531E-03 
1565	 6.19736200724559E-03 
1566	 6.27906525517409E-03 
1567	 6.21242649529823E-03 
1568	 6.30898596579614E-03 
1569	 6.51854964308098E-03 
1570	 6.3263634879221E-03 
1571	 6.25726851899081E-03 
1572	 6.35563994576687E-03 
1573	 6.1597576678095E-03 
1574	 6.16935833617844E-03 
1575	 6.38981187286138E-03 
1576	 6.47784465595469E-03 
1577	 6.55878808006019E-03 
1578	 6.56253720457572E-03 
1579	 6.38960231936263E-03 
1580	 6.24750190630127E-03 
1581	 6.28852623323596E-03 
1582	 6.33009535698268E-03 
1583	 6.27571359519625E-03 
1584	 6.36059108423561E-03 
1585	 6.4211307761718E-03 
1586	 6.32603751486526E-03 
1587	 6.37667272258624E-03 
1588	 6.40725681681549E-03 
1589	 6.23141653646196E-03 
1590	 6.27751365827061E-03 
1591	 6.38110922098413E-03 
1592	 6.20788811130447E-03 
1593	 6.17989001148778E-03 
1594	 6.27538878135956E-03 
1595	 6.30363630503732E-03 
1596	 6.29235433776528E-03 
1597	 6.15013565085512E-03 
1598	 6.03399013599251E-03 
1599	 6.23469149835356E-03 
1600	 6.44117653717488E-03 
1601	 6.31877765029792E-03 
1602	 6.35921575852657E-03 
1603	 6.50239968938303E-03 
1604	 6.40947675344779E-03 
1605	 6.62170246092738E-03 
1606	 0.006818320107376 
1607	 6.36574574712978E-03 
1608	 6.20778936568903E-03 
1609	 6.52989713683978E-03 
1610	 6.5595615943366E-03 
1611	 6.41156173182421E-03 
1612	 6.43816207043011E-03 
1613	 6.45295903522471E-03 
1614	 6.23470501475926E-03 
1615	 6.16720281890409E-03 
1616	 6.37511395560991E-03 
1617	 6.45081532205349E-03 
1618	 6.45321091858623E-03 
1619	 6.72059164258053E-03 
1620	 6.63247846734127E-03 
1621	 6.27945592623453E-03 
1622	 6.36915209457521E-03 
1623	 6.41979065383422E-03 
1624	 6.44999566524865E-03 
1625	 6.63118627566802E-03 
1626	 6.69962992211215E-03 
1627	 6.53157756210803E-03 
1628	 6.33316187565039E-03 
1629	 6.55989678457612E-03 
1630	 6.60668922611417E-03 
1631	 6.37976238636592E-03 
1632	 6.57408533513044E-03 
1633	 6.54938319890736E-03 
1634	 6.18053598289341E-03 
1635	 6.29310323821745E-03 
1636	 6.40051095345846E-03 
1637	 6.03789708885873E-03 
1638	 5.92732064407894E-03 
1639	 6.08504967754307E-03 
1640	 6.26000811036033E-03 
1641	 6.50908509318107E-03 
1642	 6.51321810458923E-03 
1643	 6.26484328052887E-03 
1644	 6.11770633895681E-03 
1645	 6.41392178523152E-03 
1646	 6.70078438864578E-03 
1647	 6.6764926512881E-03 
1648	 6.66916478129782E-03 
1649	 6.29930896416564E-03 
1650	 5.96899834580756E-03 
1651	 6.27345940155023E-03 
1652	 6.44403942927154E-03 
1653	 6.21160244079804E-03 
1654	 6.29238643572051E-03 
1655	 6.63256774478313E-03 
1656	 6.61157216424048E-03 
1657	 6.43997683399226E-03 
1658	 6.50584642646679E-03 
1659	 6.33414140578939E-03 
1660	 6.22920945918523E-03 
1661	 6.63662757931818E-03 
1662	 6.71841464728496E-03 
1663	 6.41441483927589E-03 
1664	 6.27834850139423E-03 
1665	 6.08753002153126E-03 
1666	 6.08175057210977E-03 
1667	 6.31058562310209E-03 
1668	 6.49596104240293E-03 
1669	 6.36784351729455E-03 
1670	 6.03818890800078E-03 
1671	 5.90333682745329E-03 
1672	 5.91658594212702E-03 
1673	 5.8744550512123E-03 
1674	 6.11441824548673E-03 
1675	 6.2059607877298E-03 
1676	 6.26252751812416E-03 
1677	 6.47046892401237E-03 
1678	 6.28294679570384E-03 
1679	 6.23589675347415E-03 
1680	 6.28935913575281E-03 
1681	 6.13864754985505E-03 
1682	 6.36983671041475E-03 
1683	 6.51237935441022E-03 
1684	 6.23350573258129E-03 
1685	 6.1105659716274E-03 
1686	 6.1373505779405E-03 
1687	 6.30054543587616E-03 
1688	 6.35660334893414E-03 
1689	 6.10859036413834E-03 
1690	 6.24886714105544E-03 
1691	 6.39908747496693E-03 
1692	 6.18290066315262E-03 
1693	 6.41603631018245E-03 
1694	 6.63361089739548E-03 
1695	 6.15618056167104E-03 
1696	 6.14815210367216E-03 
1697	 6.6072205700989E-03 
1698	 6.16591481013986E-03 
1699	 5.74454839700993E-03 
1700	 5.88923013686677E-03 
1701	 5.92132967504758E-03 
1702	 6.09342258600362E-03 
1703	 6.31000173506288E-03 
1704	 6.20591756771104E-03 
1705	 5.74281058141143E-03 
1706	 5.57441648027086E-03 
1707	 5.82206698535937E-03 
1708	 5.92539087288127E-03 
1709	 6.16373331535851E-03 
1710	 6.38059220607764E-03 
1711	 6.20523140802751E-03 
1712	 5.91594735542737E-03 
1713	 5.6466619713785E-03 
1714	 5.69008109153002E-03 
1715	 6.2354723896395E-03 
1716	 6.19786930446944E-03 
1717	 5.97042155928678E-03 
1718	 6.00425351163185E-03 
1719	 6.31716985660728E-03 
1720	 6.20815657937419E-03 
1721	 6.05308482839869E-03 
1722	 6.18110188366096E-03 
1723	 5.84986191942336E-03 
1724	 5.87371559158117E-03 
1725	 6.58438487840596E-03 
1726	 0.006515405163885 
1727	 5.70786001167857E-03 
1728	 5.40871696175037E-03 
1729	 5.48096965322025E-03 
1730	 5.60466231993356E-03 
1731	 6.18325657347046E-03 
1732	 6.2152107084556E-03 
1733	 5.26282198968312E-03 
1734	 4.76290729321776E-03 
1735	 4.90143534058993E-03 
1736	 5.45123222674905E-03 
1737	 6.30091985448678E-03 
1738	 6.05790784296983E-03 
1739	 5.2954619428121E-03 
1740	 5.20290476329329E-03 
1741	 4.85455574625225E-03 
1742	 4.85244292342434E-03 
1743	 5.75096001180735E-03 
1744	 5.88490207267646E-03 
1745	 5.34821107948708E-03 
1746	 5.02879004198044E-03 
1747	 5.0525985260931E-03 
1748	 5.60185446627798E-03 
1749	 5.64606296599213E-03 
1750	 5.61112901845708E-03 
1751	 0.005499213115984 
1752	 4.46852578423025E-03 
1753	 4.19839178461676E-03 
1754	 4.82772403351599E-03 
1755	 5.18489630643307E-03 
1756	 5.76543984843281E-03 
1757	 5.87343051585933E-03 
1758	 5.33122391678765E-03 
1759	 4.6960722965486E-03 
1760	 4.19341482031232E-03 
1761	 4.38253276619731E-03 
1762	 4.87285638492449E-03 
1763	 4.90430471881454E-03 
1764	 5.09130258660869E-03 
1765	 5.45166535145755E-03 
1766	 5.15730596650843E-03 
1767	 5.35904880513373E-03 
1768	 5.69442575756402E-03 
1769	 4.6901511313765E-03 
1770	 4.65718661736645E-03 
1771	 5.19533549482754E-03 
1772	 4.65820358632446E-03 
1773	 5.47005756869784E-03 
1774	 5.89326794837906E-03 
1775	 6.20450485424267E-03 
1776	 6.09100295995991E-03 
1777	 4.45157434043759E-03 
1778	 4.00409195026728E-03 
1779	 3.13120362846866E-03 
1780	 2.76329725264553E-03 
1781	 5.59079179803481E-03 
1782	 6.39359784010896E-03 
1783	 5.73176620143242E-03 
1784	 5.15633302208208E-03 
1785	 1.86418233895192E-03 
1786	 1.37769446385255E-03 
1787	 3.61988229500054E-03 
1788	 4.45763073437162E-03 
1789	 6.94453922605363E-03 
1790	 7.13825240695072E-03 
1791	 4.43647134011908E-03 
1792	 2.1827162605986E-03 
1793	 2.44463570668855E-03 
1794	 2.40593294539615E-03 
1795	 1.43943142891307E-03 
1796	 4.65476043137743E-03 
1797	 8.16547586301114E-03 
1798	 6.76820718341234E-03 
1799	 4.23342150286785E-03 
1800	-9.68033172708061E-03 
1801	-1.38263541969946E-02 
1802	 8.63376378489419E-03 
1803	 0.013432127115723 
1804	 8.47427617879899E-03 
1805	 7.63834231135935E-03 
1806	-3.63179260560256E-02 
1807	-5.02069425352017E-02 
1808	 4.29081594688102E-03 
1809	 2.65482435722297E-02 
1810	 5.22398279311609E-02 
1811	 8.36825950571419E-02 
1812	 8.50729658827248E-02 
1813	 0.109746288464044 
1814	 0.157611511212876 
1815	 0.20979026778537 
1816	 0.226216603145166 
1817	 3.86013019776984E-02 
1818	 2.16879533271783E-02 
1819	-0.193509950620679 
1820	-0.328552807203233 
1821	-0.221008014787107 
1822	-0.238114939745306 
1823	-0.391244557690161 
1824	-0.489890803236834 
1825	-1.27934604479396 
1826	-1.03406711509473 
1827	 0.232871660555939 
1828	 0.27690798969017 
1829	 0.124673128521624 
1830	 0.136930947376694 
1831	 2.77001436732389 
1832	-24.0863763857549 
1833	-0.172871558402181 
1834	-0.149245011569063 
1835	 0.579881582349713 
1836	 0.994757033588402 
1837	 1.53955137421853 
1838	 1.51003888376851 
1839	 1.15887369685958 
1840	 0.764303067652498 
1841	 0.686265545184585 
1842	 1.19659473456235 
1843	 0.944488048017815 
1844	 0.74364593304317 
1845	 0.56196114409547 
1846	 8.52136478304383E-02 
1847	-0.137791115383751 
1848	-1.02523235652653 
1849	-1.27211637857571 
1850	-1.27032183731696 
1851	-0.848376076695602 
1852	-0.241503663312615 
1853	-9.66904109944527E-02 
1854	-3.08956743948585E-02 
1855	-3.26826985262637E-02 
1856	 7.34498637146932E-02 
1857	 4.76444915132114E-02 
1858	-0.136244905700715 
1859	 0.461369115034428 
1860	 0.673511868434135 
1861	 0.393215536841775 
1862	 0.132005917840329 
1863	 9.41015088817745E-02 
1864	-2.3764015214122 
1865	 0.930924283356302 
1866	 0.535468555422153 
1867	 0.318708775199824 
1868	-2.73196515893243 
1869	-7.34613782058706 
1870	-0.605322378219085 
1871	-0.862829202241336 
1872	-0.456893213715829 
1873	-6.17248079506751 
1874	-0.273920048915408 
1875	 0.357054614593481 
1876	 0.542459645395967 
1877	 0.431509572553755 
1878	 0.431844736984906 
1879	-1.34049133629683 
1880	 9.65000043446493E-03 
1881	 0.921782331364404 
1882	 0.490789163297825 
1883	-0.234251414165117 
1884	-0.9203314335241 
1885	-0.705686599717432 
1886	-0.818706713005603 
1887	-0.496311202285267 
1888	-0.740162740725124 
1889	-0.5135929259211 
1890	 0.128697908733716 
1891	 0.744951394945269 
1892	 5.61043224247455 
1893	 3.39244064747126 
1894	 1.60416337076293 
1895	 1.03309329333773 
1896	 0.940723856887162 
1897	-2.19797339725643 
1898	 2.53968412673106 
1899	-43.4585513894003 
1900	-4.12105766276251 
1901	 0.222869362282292 
1902	 0.398510030505329 
1903	 0.508002368612928 
1904	 0.883238350292933 
1905	 0.723579847625118 
1906	 0.940397745426735 
1907	 1.37173628262319 
1908	 1.42903601374174 
1909	 2.25976391738508 
1910	 10.1929085800288 
1911	 1.48757147731996 
1912	 1.31293372410098 
1913	 1.46985439067222 
1914	 3.22181295308369E-02 
1915	 0.13549994045414 
1916	 0.150124197739795 
1917	 0.561797719987909 
1918	 0.248885772522502 
1919	 0.143304527814076 
1920	 0.349891175661771 
1921	 7.76284002537346E-02 
1922	-9.29461314307594E-02 
1923	-0.292482923824878 
1924	-0.491650923816099 
1925	-0.480320148944488 
1926	-0.617058472624163 
1927	 0.432792172747361 
1928	-0.452147890924015 
1929	-0.95506526754136 
1930	-1.26754594968105 
1931	-0.750060875518579 
1932	-0.958200781628376 
1933	-0.263441240161198 
1934	 0.296982349107032 
1935	 0.372380469571359 
1936	 5.93081790524338E-02 
1937	-0.198832937082561 
1938	-0.373133890506074 
1939	-0.340506785281674 
1940	-0.223141838979472 
1941	-0.177806014286261 
1942	-0.17555636957651 
1943	-0.166556424032635 
1944	-0.156342011465349 
1945	-9.86867768100725E-02 
1946	-4.47301642781685E-02 
1947	-2.85354318342996E-02 
1948	-4.28933451979681E-02 
1949	-3.51855128860917E-02 
1950	-2.07351431400062E-02 
1951	-2.77758200343134E-02 
1952	-2.36314457544264E-02 
1953	-3.58011890327859E-03 
1954	-2.76086683230332E-02 
1955	-0.048156212554489 
1956	-1.96046738385544E-02 
1957	-1.41331970378287E-02 
1958	-1.00943267770644E-02 
1959	 7.76486405390352E-03 
1960	 1.19358467359961E-02 
1961	 2.23618261506072E-03 
1962	-5.07797888880638E-03 
1963	-5.58074028721103E-03 
1964	-6.88332117411635E-03 
1965	-4.30449714113874E-03 
1966	-2.1517610606615E-03 
1967	 2.84641606414141E-03 
1968	 1.52820695725841E-03 
1969	-2.17350091079735E-04 
1970	-2.84509144865824E-04 
1971	-4.0724742358941E-04 
1972	 1.38464180625473E-03 
1973	 3.12177830862627E-03 
1974	 3.31361708445431E-03 
1975	 2.02933368111767E-03 
1976	-2.22448542690395E-04 
1977	-2.0147652034211E-04 
1978	 9.71285937544996E-04 
1979	 1.46612838619811E-03 
1980	 2.8782591230457E-03 
1981	 4.28505239894119E-03 
1982	 4.15246273789469E-03 
1983	 3.69853806226293E-03 
1984	 3.97505857704381E-03 
1985	 4.30987857735079E-03 
1986	 4.3067491422587E-03 
1987	 4.21681977835848E-03 
1988	 4.91537861266461E-03 
1989	 5.54458690931707E-03 
1990	 5.19948830575816E-03 
1991	 4.8372042771461E-03 
1992	 4.26390591881968E-03 
1993	 3.33527172357101E-03 
1994	 3.29598730325733E-03 
1995	 4.24030188022393E-03 
1996	 5.58959009856004E-03 
1997	 5.78328296941344E-03 
1998	 5.7446553279967E-03 
1999	 5.6264819960464E-03 
2000	 5.82444085222951E-03 
2001	 6.89418542279861E-03 
2002	 8.90593591344557E-03 
2003	 9.95649884474986E-03 
2004	 9.34847549473346E-03 
2005	 9.60450881685561E-03 
2006	 9.57167767311388E-03 
2007	 8.13095539342632E-03 
2008	 6.14736661917433E-03 
2009	 5.08035797908425E-03 
2010	 2.98988756473642E-03 
2011	 2.84222687997737E-03 
2012	 4.88365398815309E-03 
2013	 5.56225500645271E-03 
2014	 5.29345616217829E-03 
2015	 5.79217125351302E-03 
2016	 5.47417609437211E-03 
2017	 5.12372441193405E-03 
2018	 4.89248496458649E-03 
2019	 4.58550056617407E-03 
2020	 3.24506895778962E-03 
2021	 1.39768706975493E-03 
2022	 5.49754245141692E-04 
2023	 1.6823488462695E-03 
2024	 2.29433638189824E-03 
2025	 3.59932080706475E-03 
2026	 4.26888598967566E-03 
2027	 5.29915263331752E-03 
2028	 4.48498795995358E-03 
2029	 4.2722754493719E-03 
2030	 4.52282835838334E-03 
2031	 4.3738225093809E-03 
2032	 4.71019297220106E-03 
2033	 4.61962665146745E-03 
2034	 4.40367942784883E-03 
2035	 5.0572715375873E-03 
2036	 5.43569231519224E-03 
2037	 5.18610311109563E-03 
2038	 5.74608015727259E-03 
2039	 5.99101598544422E-03 
2040	 5.62658407816696E-03 
2041	 5.48275332343258E-03 
2042	 5.77846050679842E-03 
2043	 5.83971730507629E-03 
2044	 5.52339254035652E-03 
2045	 5.69166649510859E-03 
2046	 6.02685081750784E-03 
2047	 5.20356896070616E-03 
2048	 4.6928274512752E-03 
2049	 4.6877590326883E-03 
2050	 4.45028970781736E-03 
2051	 4.26115201530891E-03 
2052	 3.84199955044569E-03 
2053	 3.28070030964481E-03 
2054	 3.16628105035653E-03 
2055	 3.64215245598953E-03 
2056	 3.84153435163515E-03 
2057	 4.19398324241937E-03 
2058	 4.61448727068513E-03 
2059	 4.98764812037746E-03 
2060	 5.04768160952216E-03 
2061	 5.25981711596699E-03 
2062	 5.12976135595651E-03 
2063	 4.49509010509852E-03 
2064	 3.91205291992518E-03 
2065	 3.2174917166147E-03 
2066	 3.26044371866591E-03 
2067	 3.86839207758674E-03 
2068	 3.61631522245684E-03 
2069	 3.34143608994804E-03 
2070	 3.07044282501728E-03 
2071	 2.97639824237496E-03 
2072	 4.2357966449102E-03 
2073	 4.48071469768509E-03 
2074	 4.94716805480162E-03 
2075	 4.80192483589442E-03 
2076	 3.36167695982903E-03 
2077	 3.13995983667919E-03 
2078	 3.8592482955277E-03 
2079	 4.15962865560914E-03 
2080	 4.66361907616516E-03 
2081	 4.89070029131557E-03 
2082	 4.50690921281774E-03 
2083	 4.5250948857638E-03 
2084	 4.61154429134111E-03 
2085	 4.05151266153892E-03 
2086	 3.90222386236108E-03 
2087	 3.66956818770993E-03 
2088	 3.61442909752608E-03 
2089	 3.93931218894601E-03 
2090	 4.53526492416935E-03 
2091	 5.31409975872027E-03 
2092	 5.5591271156795E-03 
2093	 5.62424123923356E-03 
2094	 5.68527845639813E-03 
2095	 5.26902885253124E-03 
2096	 4.87577783457108E-03 
2097	 4.2851330211951E-03 
2098	 4.35771338966429E-03 
2099	 4.80061992172061E-03 
2100	 4.98026343079069E-03 
2101	 4.88194735579831E-03 
2102	 4.30119482493101E-03 
2103	 0.003884354325885 
2104	 4.37000276050804E-03 
2105	 4.44262944223102E-03 
2106	 4.47049710527646E-03 
2107	 5.26724334269789E-03 
2108	 5.34933380082008E-03 
2109	 5.15822431235665E-03 
2110	 5.98481897455866E-03 
2111	 5.8116125801662E-03 
2112	 4.35216478155337E-03 
2113	 4.01806266773927E-03 
2114	 4.98876546262404E-03 
2115	 5.01535313298099E-03 
2116	 4.5564785922222E-03 
2117	 4.42566019584612E-03 
2118	 4.03990173823123E-03 
2119	 3.95395983796286E-03 
2120	 4.22286824333918E-03 
2121	 4.51633788098343E-03 
2122	 4.18053571574205E-03 
2123	 4.3650230955111E-03 
2124	 4.11513909283817E-03 
2125	 3.78117986322129E-03 
2126	 4.16914714299783E-03 
2127	 3.9947158995516E-03 
2128	 4.14552049569583E-03 
2129	 4.42863711479977E-03 
2130	 4.32850972192027E-03 
2131	 4.78019244258313E-03 
2132	 5.07023878673871E-03 
2133	 5.05566026749733E-03 
2134	 5.31598619585863E-03 
2135	 6.17633717003449E-03 
2136	 6.29314519162679E-03 
2137	 6.06838410917355E-03 
2138	 5.83972078976719E-03 
2139	 4.99418595637915E-03 
2140	 4.96262799904603E-03 
2141	 5.41733736882394E-03 
2142	 5.65761970314326E-03 
2143	 6.72066333504452E-03 
2144	 6.53205678208367E-03 
2145	 5.66461907129072E-03 
2146	 4.69042603465611E-03 
2147	 4.09233859902665E-03 
2148	 3.66005287724815E-03 
2149	 2.9687994578577E-03 
2150	 2.46555281461685E-03 
2151	 2.48058521111382E-03 
2152	 3.17418973617167E-03 
2153	 3.75582213807429E-03 
2154	 3.85970971465862E-03 
2155	 3.60462620500211E-03 
2156	 3.18556197998409E-03 
2157	 2.92174150559367E-03 
2158	 2.83550150945428E-03 
2159	 3.24610847771388E-03 
2160	 3.91934411146916E-03 
2161	 4.22426260559782E-03 
2162	 4.96986584013326E-03 
2163	 5.40034644455425E-03 
2164	 5.50979989250007E-03 
2165	 5.5707561700608E-03 
2166	 5.59965421434167E-03 
2167	 5.54475819252733E-03 
2168	 5.04223738504372E-03 
2169	 4.51747794108506E-03 
2170	 3.53276439019715E-03 
2171	 3.80261803037206E-03 
2172	 4.06955199268094E-03 
2173	 4.51290754053254E-03 
2174	 5.16322382523825E-03 
2175	 4.85617974605949E-03 
2176	 4.3761319399382E-03 
2177	 4.21654811359198E-03 
2178	 4.63262944604187E-03 
2179	 5.80801786675933E-03 
2180	 6.76499573037894E-03 
2181	 7.49965224294048E-03 
2182	 7.56607052706798E-03 
2183	 6.70455212004589E-03 
2184	 6.60183789342169E-03 
2185	 5.97847797936796E-03 
2186	 5.45845846647868E-03 
2187	 5.09437155688297E-03 
2188	 4.88608125065511E-03 
2189	 4.51003661321453E-03 
2190	 4.46270759040805E-03 
2191	 4.65817003134261E-03 
2192	 4.85705839267016E-03 
2193	 5.21977960917712E-03 
2194	 5.16084944911934E-03 
2195	 5.08088585292342E-03 
2196	 4.96642912857582E-03 
2197	 4.51874409298582E-03 
2198	 4.15102307007687E-03 
2199	 3.78980374250446E-03 
2200	 3.92816899226384E-03 
2201	 2.34560258366472E-03 
2202	 2.38950462974177E-03 
2203	 3.64239490768979E-03 
2204	 4.31753444152955E-03 
2205	 5.12782913596147E-03 
2206	 5.53280163449764E-03 
2207	 6.33359760464383E-03 
2208	 5.33013268525488E-03 
2209	 4.27708416864746E-03 
2210	 4.79575139219324E-03 
2211	 3.04288214589916E-03 
2212	 1.76286406213862E-03 
2213	 2.39074785386626E-03 
2214	 2.46164575905013E-03 
2215	 4.5872730967483E-03 
2216	 6.53764661030435E-03 
2217	 6.02079669484188E-03 
2218	 2.78498382153898E-03 
2219	 2.56903260341097E-03 
2220	 2.31516438054835E-03 
2221	 1.90847054580745E-03 
2222	 3.06017521815075E-03 
2223	 4.1106929624721E-03 
2224	 4.47391900886062E-03 
2225	 3.53469545225906E-03 
2226	 2.96297330377195E-03 
2227	 2.86421589178757E-03 
2228	 6.21258394092619E-04 
2229	 3.95964258731304E-04 
2230	 3.32172904568969E-03 
2231	 3.94739813954918E-03 
2232	 3.10783392661451E-03 
2233	 3.31424133067629E-03 
2234	 3.96232338562698E-03 
2235	 3.30526395649494E-03 
2236	 3.31131132354645E-03 
2237	 3.8434301796791E-03 
2238	 3.08071300920317E-03 
2239	 2.46425559834219E-03 
2240	 2.94976428682244E-03 
2241	 2.2245576837823E-03 
2242	 1.64157123832271E-03 
2243	 3.42737296764133E-03 
2244	 4.3588418360412E-03 
2245	 3.94943908608325E-03 
2246	 4.69326824459249E-03 
2247	 4.99125901870738E-03 
2248	 3.22788834871219E-03 
2249	 3.01307046688719E-03 
2250	 3.72454975516213E-03 
2251	 3.07663723417396E-03 
2252	 4.09232689854278E-03 
2253	 5.8140423311697E-03 
2254	 5.58559276088752E-03 
2255	 4.48922844679439E-03 
2256	 4.38469177310199E-03 
2257	 3.54915255058698E-03 
2258	 3.15652492367322E-03 
2259	 4.55497393134166E-03 
2260	 4.48148005679161E-03 
2261	 3.31267328472819E-03 
2262	 3.08713899987875E-03 
2263	 2.23412439277268E-03 
2264	 2.13463909450615E-03 
2265	 3.66152901340675E-03 
2266	 3.09242317916495E-03 
2267	 1.10507264285271E-03 
2268	 1.37745635198644E-03 
2269	 1.67227383481237E-03 
2270	 1.65680632691125E-03 
2271	 3.65340359719013E-03 
2272	 3.97245546063767E-03 
2273	 2.45076852773199E-03 
2274	 1.52649438800908E-03 
2275	-6.91712182417651E-05 
2276	 9.46256169593259E-04 
2277	 4.36202667091876E-03 
2278	 4.55684118818427E-03 
2279	 4.50746260082416E-03 
2280	 4.23563509406666E-03 
2281	 1.15345466661339E-03 
2282	-1.84622297121112E-04 
2283	-3.69930272246095E-04 
2284	 1.13931246480481E-03 
2285	 2.08780280505059E-03 
2286	 1.84008772013105E-03 
2287	 3.91868791530593E-03 
2288	 5.48564693515543E-03 
2289	 4.13206165040138E-03 
2290	 1.5638110290616E-03 
2291	 9.53849948567413E-04 
2292	 6.22843169717479E-04 
2293	-1.82017071743622E-03 
2294	-1.7922470257901E-03 
2295	-9.41136509263293E-04 
2296	-3.45281939625298E-03 
2297	-4.26852618817609E-03 
2298	-1.05412296702291E-03 
2299	-2.20750890024048E-03 
2300	-4.24529294604294E-03 
2301	-2.27866622285404E-04 
2302	 1.14941701388758E-03 
2303	 1.69939682582364E-03 
2304	 4.31174397821093E-03 
2305	 1.6980335341938E-03 
2306	-1.51997448976056E-03 
2307	-1.56285900791174E-03 
2308	-1.87964702217789E-03 
2309	 3.88613087407142E-04 
2310	 2.22283268803783E-03 
2311	 1.42363224633517E-03 
2312	 3.22851859027601E-03 
2313	 4.39759448529756E-03 
2314	 3.55676112429753E-03 
2315	 4.08461451617055E-04 
2316	-4.77051374284528E-03 
2317	-4.30585543643859E-03 
2318	-4.73271389571352E-03 
2319	-5.8148047431333E-03 
2320	 4.30719699251342E-04 
2321	-4.19285752087287E-04 
2322	-5.19210428402327E-03 
2323	-1.62869246050636E-03 
2324	 1.26508712540686E-03 
2325	 1.86811585077436E-04 
2326	 9.30163049539618E-04 
2327	 1.83125396408248E-03 
2328	-9.6215377295321E-05 
2329	 2.1303213518019E-03 
2330	 6.14059235950615E-03 
2331	 6.69350119000787E-03 
2332	 6.50941953208515E-03 
2333	 2.72818915782496E-03 
2334	-2.47143407868918E-03 
2335	-5.8606817070872E-03 
2336	-9.85676161031173E-03 
2337	-9.40476360263425E-03 
2338	-2.68960737712071E-03 
2339	 1.51043455441767E-03 
2340	 3.41321323051117E-03 
2341	 4.82987448534371E-03 
2342	 3.39255849534527E-03 
2343	 2.96000863579194E-03 
2344	 8.63309699288163E-03 
2345	 8.41002206432326E-03 
2346	-1.38785666649402E-03 
2347	-6.81979175071484E-03 
2348	-1.09803805226524E-02 
2349	-9.47011461240544E-03 
2350	 1.8028040564752E-04 
2351	 5.40802509884694E-03 
2352	 3.65912150925306E-03 
2353	 4.52271610666234E-03 
2354	 4.83317761959948E-03 
2355	 2.81152217334321E-03 
2356	 4.4855655018469E-03 
2357	-2.00380139094324E-03 
2358	-1.42260311196297E-02 
2359	-2.07621842937987E-02 
2360	-1.75665242938064E-02 
2361	-1.15055751342652E-02 
2362	-9.72403445483528E-03 
2363	-6.70074601491588E-03 
2364	-5.5905522598057E-03 
2365	-7.72176357730655E-03 
2366	-5.03317569239911E-03 
2367	-5.24757205686331E-03 
2368	-1.45813925061653E-02 
2369	-2.55004274896959E-02 
2370	-3.47296601737982E-02 
2371	-4.26661320892272E-02 
2372	-3.68166762198827E-02 
2373	-2.31386076193813E-02 
2374	-2.04658572469679E-02 
2375	-1.78653585789354E-02 
2376	-1.28134545943301E-02 
2377	-7.34789429463507E-03 
2378	-4.44201498242933E-03 
2379	 3.81214140978283E-03 
2380	-2.40279724752616E-03 
2381	-4.10122698576595E-02 
2382	-4.81214475523335E-02 
2383	-3.78319271072249E-02 
2384	-4.77079149476389E-02 
2385	-3.52597159678943E-02 
2386	-4.31134155483882E-02 
2387	-0.069244520713294 
2388	-4.24019342706403E-02 
2389	-1.63346940975537E-02 
2390	-1.09472981253396E-04 
2391	 2.20584403775572E-02 
2392	 2.68259293542416E-02 
2393	 2.25464237656637E-02 
2394	 1.55989466218431E-02 
2395	 1.50184795475847E-02 
2396	 2.58881670550161E-02 
2397	 2.68103708232399E-02 
2398	-1.99796703935672E-05 
2399	 5.89581440403604E-03 
2400	 0.034601651598479 
2401	 7.15352405631013E-03 
2402	-4.76747749099662E-03 
2403	-1.30536146165718E-03 
2404	-5.70455625863165E-02 
2405	-8.35477451749168E-02 
2406	-6.14817923449811E-02 
2407	-6.85803748072672E-02 
2408	-9.35912945255104E-02 
2409	-8.07158323853757E-02 
2410	-1.24447407466582E-02 
2411	 2.05178429312936E-02 
2412	 2.03886422402135E-02 
2413	 0.035392726592524 
2414	-0.113327239099453 
2415	-0.28123567725876 
2416	-0.27823514009351 
2417	-0.295174498582637 
2418	-0.262656534870692 
2419	-3.10911557671878E-02 
2420	 4.09813851843993E-02 
2421	-4.83717983224976E-02 
2422	-2.06003062537842E-02 
2423	 3.30206461656719E-02 
2424	-9.19702924884106E-02 
2425	-0.179903706440702 
2426	-0.137888401034877 
2427	-0.196093643708973 
2428	-0.172777567284139 
2429	 6.32460924974105E-03 
2430	 2.82160597628085E-02 
2431	-2.73536891398979E-02 
2432	 1.20861046134368E-02 
2433	-8.18078813779415E-02 
2434	-0.145930331346398 
2435	-5.56361319704682E-02 
2436	-5.42647453262747E-02 
2437	-6.02665968198755E-02 
2438	-6.24308614954388E-02 
2439	 3.58720376077699E-03 
2440	 0.053180639498978 
2441	 6.37985032839514E-02 
2442	 0.1256877200374 
2443	-0.07318318253195 
2444	-0.140450976300214 
2445	-4.06577713195528E-02 
2446	-0.252667684493503 
2447	-0.54121809935225 
2448	-0.841330078857434 
2449	-1.23919694955847 
2450	-1.41625758870862 
2451	-1.64792660877924 
2452	-0.413419323899643 
2453	-0.146181868627871 
2454	-0.238078067043675 
2455	-3.50405773883836E-02 
2456	-0.180490881608175 
2457	-0.392875186932661 
2458	-0.172693170312078 
2459	 1.88236079999672E-02 
2460	 0.113126966135783 
2461	 0.260940797915923 
2462	 0.053823634997667 
2463	-0.340593747524493 
2464	-0.768440708500149 
2465	-1.10681046101472 
2466	-1.95209458333515 
2467	-3.62472925994259 
2468	-0.35074778494217 
2469	-0.168389792695467 
2470	-0.403387999565365 
2471	 45.0322224041763 
2472	 1.34333182776674 
2473	 1.50086412164255 
2474	 2.04908007699143 
2475	 5.71715890349591 
2476	 1.90476615503729 
2477	 0.71792178432236 
2478	 1.5814614379243 
2479	 7.2740591131869 
2480	 2.86144953871745 
2481	-31.7518243925761 
2482	 2.45870095989195 
2483	 0.479862392174408 
2484	 4.61542982725653 
2485	 18.7900154422956 
2486	 7.38551175465425 
2487	-1.55252530195535 
2488	-2.7806243747962 
2489	 2.1893394289078 
2490	 1.60704452953956 
2491	 0.657695560531186 
2492	 0.400655440154892 
2493	-2.50349089706639E-02 
2494	 0.256831129468334 
2495	 0.771034893518102 
2496	 0.14807116183714 
2497	 0.276341059463083 
2498	 0.388979906982762 
2499	 0.14295611839127 
2500	 0.682254850376108 
