Wavelength	rt0713east_close200002.asd
350	 7.24319875671881E-02 
351	 7.15031818136987E-02 
352	 7.12195708180547E-02 
353	 7.11805051020281E-02 
354	 7.08464662420667E-02 
355	 7.04410178438146E-02 
356	 7.00764047111931E-02 
357	 6.99572161153484E-02 
358	 7.01676221600697E-02 
359	 7.02807116636218E-02 
360	 7.04513156303349E-02 
361	 7.02314690728579E-02 
362	 6.90586722045721E-02 
363	 6.95897693730411E-02 
364	 7.00517502542795E-02 
365	 6.95984091325651E-02 
366	 6.96061550847262E-02 
367	 6.94120854598208E-02 
368	 6.96724548375194E-02 
369	 7.05977494465996E-02 
370	 6.96404576817679E-02 
371	 6.94811804805704E-02 
372	 7.01366788135457E-02 
373	 7.00689533495499E-02 
374	 0.069360118197548 
375	 6.93548143131127E-02 
376	 0.070218206669204 
377	 7.03633329985194E-02 
378	 7.00922999549239E-02 
379	 6.97136418147037E-02 
380	 6.95232050307536E-02 
381	 6.96336053539285E-02 
382	 7.00667096941662E-02 
383	 7.05084552769568E-02 
384	 7.05459011393371E-02 
385	 7.01969423464944E-02 
386	 7.06004260706674E-02 
387	 0.071320161247561 
388	 7.02571871508201E-02 
389	 7.00331815691291E-02 
390	 7.04640737351322E-02 
391	 7.09766863794355E-02 
392	 7.16789840422015E-02 
393	 7.12543753420333E-02 
394	 7.07106209778291E-02 
395	 7.13781342966717E-02 
396	 7.13723267872801E-02 
397	 7.14100568903239E-02 
398	 7.15732336248274E-02 
399	 7.13225044984016E-02 
400	 0.071458434521905 
401	 7.16370855796632E-02 
402	 7.15892584929144E-02 
403	 7.15961425901944E-02 
404	 7.16624879072802E-02 
405	 0.071762524559062 
406	 7.18728806825174E-02 
407	 7.21317888921837E-02 
408	 7.21719853682158E-02 
409	 7.20740178916481E-02 
410	 7.23407249598871E-02 
411	 7.23755925908951E-02 
412	 7.23884455377877E-02 
413	 7.25524367103593E-02 
414	 7.25784512976359E-02 
415	 7.27691532793887E-02 
416	 7.31110297672063E-02 
417	 7.34169282051845E-02 
418	 7.32995200437409E-02 
419	 7.33989437095634E-02 
420	 7.37632527962189E-02 
421	 7.37561536314311E-02 
422	 7.39040489698075E-02 
423	 7.41203168326846E-02 
424	 7.43200499305481E-02 
425	 7.48250439189155E-02 
426	 7.50333146343372E-02 
427	 0.075125052007196 
428	 0.075564829580395 
429	 7.58431923840117E-02 
430	 7.61345008504279E-02 
431	 7.64579874466172E-02 
432	 7.65868275533975E-02 
433	 7.67803586109247E-02 
434	 7.71605365412308E-02 
435	 7.76749579624819E-02 
436	 7.78751996057267E-02 
437	 7.80688020730647E-02 
438	 7.83696034616355E-02 
439	 7.87498073570714E-02 
440	 7.89742767796495E-02 
441	 7.92583515026315E-02 
442	 7.96402398049878E-02 
443	 7.98217702375768E-02 
444	 8.01713650413901E-02 
445	 8.05633140977967E-02 
446	 8.08018206108196E-02 
447	 8.09572310601318E-02 
448	 0.081275446104089 
449	 8.16830537241331E-02 
450	 8.18911484030719E-02 
451	 8.20970980287088E-02 
452	 8.22739068264913E-02 
453	 0.082421162414889 
454	 0.082645480058951 
455	 8.30275408401838E-02 
456	 8.33191800543265E-02 
457	 0.083297392948101 
458	 8.35601877231463E-02 
459	 8.37948231433824E-02 
460	 8.39168449707929E-02 
461	 8.41138853996713E-02 
462	 0.084412679761706 
463	 8.45647700775821E-02 
464	 8.45024115830239E-02 
465	 8.48146676576811E-02 
466	 8.50382464597972E-02 
467	 8.51364059810233E-02 
468	 8.52878639308686E-02 
469	 8.56024639871147E-02 
470	 8.57911916316579E-02 
471	 0.085798376586591 
472	 0.085923061020453 
473	 0.086106382884527 
474	 8.64068916107056E-02 
475	 8.68093578848268E-02 
476	 8.69746939519402E-02 
477	 0.087064933549494 
478	 0.087274713034571 
479	 0.087751449168582 
480	 8.79194424600997E-02 
481	 8.80186674582635E-02 
482	 8.82668780447844E-02 
483	 8.86098606541239E-02 
484	 8.89556636587224E-02 
485	 0.089253465758724 
486	 8.95110110155135E-02 
487	 8.99103005400705E-02 
488	 9.03155125167676E-02 
489	 9.06234402001879E-02 
490	 0.090796582311531 
491	 9.11262883771164E-02 
492	 9.15088604473461E-02 
493	 9.18233281187319E-02 
494	 0.092127574257022 
495	 9.25269014639182E-02 
496	 9.28872063201476E-02 
497	 9.30242267545726E-02 
498	 9.34238767062697E-02 
499	 9.39814368252894E-02 
500	 9.45116982556883E-02 
501	 9.48113689089501E-02 
502	 0.095104994247977 
503	 9.54558470451349E-02 
504	 0.095859382758091 
505	 0.09621690033165 
506	 9.68205447996702E-02 
507	 9.74813425315158E-02 
508	 9.76786073087936E-02 
509	 0.097978256755929 
510	 9.84166980591022E-02 
511	 9.89309150832437E-02 
512	 9.94587079303189E-02 
513	 9.99592657780158E-02 
514	 0.100419792852522 
515	 0.100867272102393 
516	 0.101499804919591 
517	 0.102053695023591 
518	 0.102447412643124 
519	 0.102874455880978 
520	 0.103483389963077 
521	 0.104043946089062 
522	 0.10438794214872 
523	 0.104851210015577 
524	 0.105437423968801 
525	 0.106038622884732 
526	 0.106500901820217 
527	 0.107110830068756 
528	 0.107724894735113 
529	 0.108251760622668 
530	 0.108825766826658 
531	 0.109426665204464 
532	 0.110019186789574 
533	 0.110561708025553 
534	 0.111037861233703 
535	 0.111578218981338 
536	 0.112210474856412 
537	 0.112834090611269 
538	 0.113296544175247 
539	 0.11383573523734 
540	 0.114591297457007 
541	 0.115055391054731 
542	 0.115543516634066 
543	 0.116155411035853 
544	 0.116829836184918 
545	 0.117330233182272 
546	 0.117895043728594 
547	 0.11860917066754 
548	 0.119140021621048 
549	 0.119730376388794 
550	 0.12031073442211 
551	 0.120779728680812 
552	 0.12149659114025 
553	 0.122124629477517 
554	 0.122572215229051 
555	 0.123064310765159 
556	 0.123658314658948 
557	 0.124270739526676 
558	 0.12481322210094 
559	 0.125358665962028 
560	 0.125768919546672 
561	 0.126169456563213 
562	 0.126802541472074 
563	 0.127251686670077 
564	 0.127688499747146 
565	 0.128172496198357 
566	 0.128378781148699 
567	 0.128686242918364 
568	 0.129066920916011 
569	 0.129381592224274 
570	 0.129805013759571 
571	 0.130124889364011 
572	 0.130356720352705 
573	 0.130770344871343 
574	 0.130992823999037 
575	 0.131139260391814 
576	 0.131383425056097 
577	 0.131721575696874 
578	 0.131972459139934 
579	 0.132187149977786 
580	 0.132537820922434 
581	 0.132840513779891 
582	 0.133071994719188 
583	 0.133191998573991 
584	 0.133069977367548 
585	 0.133013988162471 
586	 0.132906304005176 
587	 0.132551044389257 
588	 0.132326038247629 
589	 0.132169976482013 
590	 0.132139836138815 
591	 0.132406681101127 
592	 0.132375215547359 
593	 0.132175385542985 
594	 0.132035571535062 
595	 0.131974955357111 
596	 0.131971001442299 
597	 0.13195173379292 
598	 0.131824224813973 
599	 0.131566710388276 
600	 0.131396243201168 
601	 0.131401185749288 
602	 0.131411165080441 
603	 0.131367878874244 
604	 0.131306649172003 
605	 0.131290273217724 
606	 0.131299751793886 
607	 0.131393105919934 
608	 0.131513414019838 
609	 0.131492446155794 
610	 0.131528562782011 
611	 0.131552643048154 
612	 0.131509439238743 
613	 0.131549346216948 
614	 0.131627982215745 
615	 0.131700896195971 
616	 0.131736019729214 
617	 0.131854638558552 
618	 0.13192372734227 
619	 0.131901443637827 
620	 0.131932349799465 
621	 0.131939713472454 
622	 0.131920828200755 
623	 0.131908878940471 
624	 0.1320167758383 
625	 0.131957313046247 
626	 0.131757149293995 
627	 0.131749158982388 
628	 0.131904318631924 
629	 0.13208265892555 
630	 0.132166794611561 
631	 0.132153265883605 
632	 0.132173066371771 
633	 0.132226799862766 
634	 0.132263142322944 
635	 0.132391613391566 
636	 0.132460168345215 
637	 0.132477382201563 
638	 0.132722207304481 
639	 0.132673030579543 
640	 0.1325556511538 
641	 0.13266040415903 
642	 0.13258437141821 
643	 0.1324177567061 
644	 0.132141022920205 
645	 0.131666457631014 
646	 0.131415472746872 
647	 0.131336973050227 
648	 0.131329306004034 
649	 0.131440866611259 
650	 0.131374169994504 
651	 0.131204990344452 
652	 0.131114276525353 
653	 0.130864918111763 
654	 0.130506181640155 
655	 0.130147579621403 
656	 0.129990355066096 
657	 0.12977538598319 
658	 0.129509384965689 
659	 0.129252419483513 
660	 0.129067842946498 
661	 0.128892494256875 
662	 0.128701552062239 
663	 0.128502524582046 
664	 0.128321654276899 
665	 0.128208006115093 
666	 0.12815494491284 
667	 0.128063879070891 
668	 0.127885857087494 
669	 0.127715964263181 
670	 0.127681030118509 
671	 0.127787386253517 
672	 0.127853228579729 
673	 0.127851032483853 
674	 0.127906446196219 
675	 0.128064060899874 
676	 0.128123931368871 
677	 0.128042926011659 
678	 0.128292209519105 
679	 0.128599413485952 
680	 0.12879698784205 
681	 0.128822885411993 
682	 0.129020230571392 
683	 0.129231683925493 
684	 0.129282402945167 
685	 0.129016676216019 
686	 0.128958141790948 
687	 0.129025158370966 
688	 0.129021458208595 
689	 0.129230016640149 
690	 0.129257752210608 
691	 0.129029008559715 
692	 0.128684564742168 
693	 0.128507416265489 
694	 0.128602294909709 
695	 0.128877991946196 
696	 0.129111118184667 
697	 0.12869814294807 
698	 0.127962814433998 
699	 0.127498571676422 
700	 0.127217466528412 
701	 0.127125747600875 
702	 0.127015928522182 
703	 0.126578496579613 
704	 0.126340212693695 
705	 0.12595658834677 
706	 0.125266844872044 
707	 0.124755358639872 
708	 0.124222900976826 
709	 0.123579530713557 
710	 0.122791355566771 
711	 0.121977777372303 
712	 0.120934157223385 
713	 0.119632362711071 
714	 0.118195886140782 
715	 0.116279100361072 
716	 0.113987313618658 
717	 0.111892028540916 
718	 0.110398121301523 
719	 0.109613357151488 
720	 0.109154210200676 
721	 0.108430810554046 
722	 0.106914985525605 
723	 0.104677779717542 
724	 0.10254401822247 
725	 0.101575991065643 
726	 0.100124611040214 
727	 9.83157528520089E-02 
728	 9.65256475287857E-02 
729	 9.45039549788613E-02 
730	 9.26645782560476E-02 
731	 0.091286134318401 
732	 9.02615545706181E-02 
733	 8.88545014640991E-02 
734	 0.087516590477596 
735	 8.64693744219101E-02 
736	 8.55378847909416E-02 
737	 8.51642128072187E-02 
738	 8.49189692798366E-02 
739	 0.084467782307387 
740	 8.43440158387417E-02 
741	 8.44408291764614E-02 
742	 8.44451692014867E-02 
743	 8.40615223431321E-02 
744	 8.39956626090008E-02 
745	 8.41110836738568E-02 
746	 0.084226452524437 
747	 8.42254347296307E-02 
748	 8.41156482515663E-02 
749	 8.40113918267867E-02 
750	 0.084015259330791 
751	 8.41173217837854E-02 
752	 8.39719149597014E-02 
753	 8.37810756861671E-02 
754	 8.39655803468934E-02 
755	 0.084038667717496 
756	 0.083970152408373 
757	 8.37476252737141E-02 
758	 8.31916005098537E-02 
759	 8.24428899004873E-02 
760	 8.15716293743121E-02 
761	 8.12282429805494E-02 
762	 8.19077647642281E-02 
763	 8.25918510286554E-02 
764	 8.30848477830101E-02 
765	 8.35612155566274E-02 
766	 8.39989640686484E-02 
767	 8.43723061133197E-02 
768	 0.084665504908352 
769	 8.48536882254631E-02 
770	 8.49621513827485E-02 
771	 8.51389901889027E-02 
772	 8.54326428438866E-02 
773	 8.55481999894545E-02 
774	 8.58411743012614E-02 
775	 8.61396413443293E-02 
776	 8.61616854600264E-02 
777	 8.64181388295377E-02 
778	 8.68133154667637E-02 
779	 8.71729160413121E-02 
780	 8.73220791506659E-02 
781	 8.77073103435718E-02 
782	 8.80949164525992E-02 
783	 8.83023246675873E-02 
784	 8.85605543387528E-02 
785	 8.87073121809879E-02 
786	 0.088813127829896 
787	 8.90192400289168E-02 
788	 8.93451325998572E-02 
789	 8.97518061424921E-02 
790	 9.01997725666103E-02 
791	 9.06818869042612E-02 
792	 9.14941005758508E-02 
793	 0.091831683071105 
794	 9.15930118376012E-02 
795	 9.20194529825571E-02 
796	 9.25589351095959E-02 
797	 9.30056063284214E-02 
798	 0.093298849869727 
799	 9.35032085604144E-02 
800	 0.093508238601224 
801	 9.36127633530937E-02 
802	 9.41950634847086E-02 
803	 9.44405566022425E-02 
804	 9.47741751134086E-02 
805	 9.52141855672439E-02 
806	 9.52417118611487E-02 
807	 9.48128480937674E-02 
808	 9.44412059451435E-02 
809	 9.43702233443099E-02 
810	 9.37938385009605E-02 
811	 9.31561572628804E-02 
812	 9.23156219007259E-02 
813	 9.11497792676349E-02 
814	 9.10935958095842E-02 
815	 9.07198281229647E-02 
816	 8.98894993131989E-02 
817	 8.96316551510884E-02 
818	 8.95184875931481E-02 
819	 8.92867124024863E-02 
820	 8.87565564090732E-02 
821	 0.087789080352987 
822	 0.086883530379759 
823	 0.085683315556958 
824	 8.41008730572943E-02 
825	 0.082976801363803 
826	 8.13106538999997E-02 
827	 7.95852601191183E-02 
828	 7.86425746186411E-02 
829	 7.69777790028414E-02 
830	 7.52369794963961E-02 
831	 7.39113129192827E-02 
832	 0.073247370187543 
833	 7.28822368250311E-02 
834	 7.21785627203438E-02 
835	 7.11406031010309E-02 
836	 7.05799724942605E-02 
837	 7.05150040873865E-02 
838	 7.04154958949679E-02 
839	 6.99370169733694E-02 
840	 6.94798082427817E-02 
841	 6.93785117039587E-02 
842	 6.93307167153257E-02 
843	 6.90034871664248E-02 
844	 6.92472277693943E-02 
845	 6.88536247224162E-02 
846	 0.068103613875514 
847	 6.81701569157526E-02 
848	 6.80056741214007E-02 
849	 6.76684120727963E-02 
850	 6.73071988844255E-02 
851	 6.70156332290033E-02 
852	 6.66292099461642E-02 
853	 6.64659674705613E-02 
854	 6.65797584767212E-02 
855	 6.62903175807843E-02 
856	 6.58476192455398E-02 
857	 6.54421907738214E-02 
858	 6.52580312357968E-02 
859	 6.55984175991174E-02 
860	 6.52735312969604E-02 
861	 6.46319658831317E-02 
862	 6.46362895890672E-02 
863	 6.46177076328926E-02 
864	 6.45913263031153E-02 
865	 6.43466767454733E-02 
866	 0.063624357511397 
867	 6.40871588698413E-02 
868	 6.38357455630363E-02 
869	 6.25284888608142E-02 
870	 6.23746450080629E-02 
871	 6.25798774816826E-02 
872	 6.23282005800904E-02 
873	 6.15016992346656E-02 
874	 6.15949124980243E-02 
875	 6.12751152965801E-02 
876	 6.07921049655762E-02 
877	 6.06214850441682E-02 
878	 6.01529229737464E-02 
879	 5.99791238867479E-02 
880	 5.98512993883203E-02 
881	 0.059273867518042 
882	 5.88457479415422E-02 
883	 0.058247814704508 
884	 5.78093755793066E-02 
885	 5.81541977328081E-02 
886	 5.78637685441225E-02 
887	 5.76312726904821E-02 
888	 0.057636838665548 
889	 5.71995596708377E-02 
890	 5.56497057117315E-02 
891	 5.49835426395896E-02 
892	 5.58030513671508E-02 
893	 5.50222467980981E-02 
894	 5.40607695683181E-02 
895	 5.32520412585607E-02 
896	 5.26657483122401E-02 
897	 5.23134081404364E-02 
898	 0.052585363635688 
899	 5.27426006831912E-02 
900	 5.20098694787804E-02 
901	 5.06694274590231E-02 
902	 5.10720124641042E-02 
903	 5.20705184626175E-02 
904	 5.16378530621549E-02 
905	 5.02712756410927E-02 
906	 5.03712188049535E-02 
907	 5.13245248806654E-02 
908	 0.050453376614471 
909	 4.92674413036206E-02 
910	 4.86695296196388E-02 
911	 4.91226149867467E-02 
912	 5.03150819871203E-02 
913	 4.89631945110934E-02 
914	 0.047046205257191 
915	 0.046414470683614 
916	 4.73623710443645E-02 
917	 4.61857515982262E-02 
918	 0.045735898440505 
919	 4.63889172976624E-02 
920	 0.044445473329034 
921	 4.50086738640899E-02 
922	 4.52827108727721E-02 
923	 4.35730482675525E-02 
924	 4.37815427422192E-02 
925	 4.44082449530691E-02 
926	 0.044095295728457 
927	 4.21918117830337E-02 
928	 4.13008103067605E-02 
929	 0.039171125775061 
930	 3.77123217329012E-02 
931	 4.05397332320403E-02 
932	 4.00706904681381E-02 
933	 4.12144004220929E-02 
934	 4.15229482747528E-02 
935	 3.78759422122016E-02 
936	 4.05722785286476E-02 
937	 0.043568417300379 
938	 4.14911024018692E-02 
939	 3.32710603075026E-02 
940	 2.96813031155511E-02 
941	 3.42061739958551E-02 
942	 3.66426170622867E-02 
943	 2.62868560614843E-02 
944	 3.52465512074986E-02 
945	 0.038583146901795 
946	 3.41930963642287E-02 
947	 3.47927711493641E-02 
948	 3.59339645785663E-02 
949	 3.26134885863477E-02 
950	 3.10323810692627E-02 
951	 3.93394478792134E-02 
952	 3.62414536333942E-02 
953	 3.33711058671427E-02 
954	 3.20149776600945E-02 
955	 2.73511710088877E-02 
956	 3.46300794935229E-02 
957	 3.24611490375905E-02 
958	 2.59235088600015E-02 
959	 3.43235420396822E-02 
960	 3.47382922691543E-02 
961	 3.13938029922626E-02 
962	 3.02740821594407E-02 
963	 3.41000427452643E-02 
964	 3.18784980662474E-02 
965	 3.30059608974339E-02 
966	 3.57804542212072E-02 
967	 3.23361639698333E-02 
968	 3.65047916479864E-02 
969	 3.60079667820337E-02 
970	 3.19831208719144E-02 
971	 3.63105023549549E-02 
972	 3.62608872603267E-02 
973	 3.41759980058669E-02 
974	 3.38795744349966E-02 
975	 0.037593898132972 
976	 3.72752571235598E-02 
977	 3.34759364312694E-02 
978	 3.10611735710152E-02 
979	 0.03504666443894 
980	 3.36948561691484E-02 
981	 3.42159962758904E-02 
982	 3.63740450723139E-02 
983	 3.42655598334006E-02 
984	 0.036894356443916 
985	 3.66597689926281E-02 
986	 3.36789461175969E-02 
987	 3.44392876675747E-02 
988	 3.70523467863043E-02 
989	 0.039396925772939 
990	 3.93244998021119E-02 
991	 3.59196807297575E-02 
992	 3.37366909383213E-02 
993	 3.66269838232541E-02 
994	 3.95528769373175E-02 
995	 3.45066781017792E-02 
996	 3.23963338248687E-02 
997	 3.69341434822347E-02 
998	 4.16546646646076E-02 
999	 3.75872511337295E-02 
1000	 3.49700011927747E-02 
1001	 3.04897243454391E-02 
1002	 3.05925933797407E-02 
1003	 3.04788234906694E-02 
1004	 3.10127578244555E-02 
1005	 3.12081561387708E-02 
1006	 3.10552983587325E-02 
1007	 3.06406606054898E-02 
1008	 3.02649323917744E-02 
1009	 3.03498683175563E-02 
1010	 3.03372535574309E-02 
1011	 3.07296141420272E-02 
1012	 3.16932002079007E-02 
1013	 3.16082378826688E-02 
1014	 3.16526764694546E-02 
1015	 3.12014310992253E-02 
1016	 3.12458435378817E-02 
1017	 3.15592262495078E-02 
1018	 3.17521032088045E-02 
1019	 3.22882146792697E-02 
1020	 0.032345400424462 
1021	 0.032175816906468 
1022	 3.14659647952758E-02 
1023	 3.14864551657195E-02 
1024	 3.14437451478963E-02 
1025	 3.15876017646186E-02 
1026	 3.18726072563928E-02 
1027	 3.19857269532223E-02 
1028	 3.16918013320023E-02 
1029	 3.19870201180707E-02 
1030	 3.28979419411549E-02 
1031	 3.31049627564136E-02 
1032	 3.31836382154932E-02 
1033	 3.32616155926851E-02 
1034	 3.27792347433609E-02 
1035	 3.26858541371513E-02 
1036	 0.032849115094194 
1037	 3.30896840469881E-02 
1038	 3.37115459256633E-02 
1039	 3.37730483052486E-02 
1040	 3.41230698628437E-02 
1041	 3.42592332752648E-02 
1042	 3.40256025564459E-02 
1043	 3.29428453719844E-02 
1044	 3.33303327688637E-02 
1045	 3.43095980782073E-02 
1046	 3.47458790128933E-02 
1047	 3.62530399573536E-02 
1048	 3.63246319499208E-02 
1049	 3.47396141012039E-02 
1050	 3.43762604603135E-02 
1051	 3.39007776521217E-02 
1052	 3.39240108553053E-02 
1053	 3.51532248280366E-02 
1054	 3.55224445018911E-02 
1055	 3.54706577960738E-02 
1056	 0.035631017138852 
1057	 3.57135648375835E-02 
1058	 3.54131367529969E-02 
1059	 3.54150847947692E-02 
1060	 0.035744551960319 
1061	 3.58207175471082E-02 
1062	 3.55384592689282E-02 
1063	 0.035764399757229 
1064	 3.65273570452802E-02 
1065	 3.66592881846289E-02 
1066	 3.68548913801048E-02 
1067	 3.67432066296678E-02 
1068	 3.57634811326433E-02 
1069	 3.53963870165846E-02 
1070	 0.035489382970597 
1071	 3.52371332271393E-02 
1072	 0.035039182827779 
1073	 3.45525501573501E-02 
1074	 3.46464589859108E-02 
1075	 3.47631087408448E-02 
1076	 3.49111763665832E-02 
1077	 3.58477840834288E-02 
1078	 0.035766392350075 
1079	 0.03471511931575 
1080	 3.44364469406637E-02 
1081	 3.42537850502437E-02 
1082	 3.40343610226419E-02 
1083	 3.42412893222201E-02 
1084	 3.41841254932752E-02 
1085	 3.35138979553379E-02 
1086	 0.033355234333727 
1087	 3.38037421424104E-02 
1088	 3.38416698192959E-02 
1089	 3.40279102999039E-02 
1090	 3.37803471182502E-02 
1091	 3.37560564228388E-02 
1092	 3.34073091022521E-02 
1093	 3.32287782052015E-02 
1094	 3.35727203385462E-02 
1095	 3.32542416317961E-02 
1096	 0.032050334897386 
1097	 3.18413988454332E-02 
1098	 3.20307483707065E-02 
1099	 3.19314266950569E-02 
1100	 0.032634489639233 
1101	 3.25346646076621E-02 
1102	 3.09091383531821E-02 
1103	 3.04425256341823E-02 
1104	 3.02596674328622E-02 
1105	 3.09019670978629E-02 
1106	 3.08000681227937E-02 
1107	 0.030558528236784 
1108	 3.04681870345375E-02 
1109	 0.030509201968461 
1110	 2.97672053834022E-02 
1111	 2.86368080821393E-02 
1112	 2.88434413902867E-02 
1113	 2.90752969610907E-02 
1114	 2.81505027683917E-02 
1115	 2.89896988720534E-02 
1116	 2.90040762279976E-02 
1117	 2.47480445709591E-02 
1118	 2.26837190256893E-02 
1119	 2.52472624248478E-02 
1120	 2.46325950600797E-02 
1121	 2.36840110169187E-02 
1122	 1.42692767896759E-02 
1123	 8.68460753992609E-03 
1124	 1.37881223136024E-02 
1125	 1.67519109370174E-02 
1126	 1.63934442986596E-02 
1127	 1.78677477237969E-02 
1128	 2.20351522825604E-02 
1129	 2.34023971499666E-02 
1130	 2.80128868609159E-02 
1131	 2.79399712207653E-02 
1132	 2.22969107648909E-02 
1133	 2.02436423517875E-02 
1134	 1.86491037663596E-02 
1135	 1.93572493128387E-02 
1136	 2.22352448940458E-02 
1137	 0.02247676238828 
1138	 0.021740480868304 
1139	 2.27116997281855E-02 
1140	 2.38994616609674E-02 
1141	 0.025810636051322 
1142	 2.46606900592005E-02 
1143	 2.12902841028655E-02 
1144	 1.80208576817037E-02 
1145	 1.57571671773411E-02 
1146	 1.70979183265873E-02 
1147	 1.84739349110942E-02 
1148	 2.19219282139971E-02 
1149	 2.44945223106058E-02 
1150	 2.45834010534102E-02 
1151	 2.38007118163559E-02 
1152	 2.51422125898613E-02 
1153	 2.54378123311894E-02 
1154	 2.53902320412409E-02 
1155	 2.67921811874839E-02 
1156	 2.64302851076428E-02 
1157	 2.45519725825101E-02 
1158	 0.024808263675277 
1159	 2.59659878809559E-02 
1160	 2.62407345591556E-02 
1161	 2.67431942067641E-02 
1162	 2.69239792632791E-02 
1163	 2.63703511776743E-02 
1164	 2.65092329868273E-02 
1165	 2.75012712979595E-02 
1166	 2.75990511845302E-02 
1167	 2.66719970114943E-02 
1168	 2.67344077865287E-02 
1169	 2.78258440653165E-02 
1170	 2.83684639146663E-02 
1171	 2.84836334004713E-02 
1172	 2.90660602328538E-02 
1173	 0.029136291339605 
1174	 2.82286812313949E-02 
1175	 2.76993344501551E-02 
1176	 2.79823790409507E-02 
1177	 2.83720507215362E-02 
1178	 2.94305360080344E-02 
1179	 2.96655328284605E-02 
1180	 2.92179572270505E-02 
1181	 2.93709275806213E-02 
1182	 2.84618825293979E-02 
1183	 2.81590872819713E-02 
1184	 2.92657713483581E-02 
1185	 2.95034504339742E-02 
1186	 2.96826557582362E-02 
1187	 2.97579574645326E-02 
1188	 2.87894895690439E-02 
1189	 2.83422678002086E-02 
1190	 2.86290094029881E-02 
1191	 2.86137481998106E-02 
1192	 2.86985535453751E-02 
1193	 2.92615070330763E-02 
1194	 2.95330063050645E-02 
1195	 2.91014825740101E-02 
1196	 2.90408853345043E-02 
1197	 2.92640686042496E-02 
1198	 2.95877706400333E-02 
1199	 2.98330235909956E-02 
1200	 2.96628296045547E-02 
1201	 2.96664285601198E-02 
1202	 2.96153538727757E-02 
1203	 2.93218541016702E-02 
1204	 2.94976212704449E-02 
1205	 2.96134676668634E-02 
1206	 2.95317863209172E-02 
1207	 2.96528918822671E-02 
1208	 2.99061248751274E-02 
1209	 0.02989197430573 
1210	 2.97746868305556E-02 
1211	 2.95590851633106E-02 
1212	 0.029060072161509 
1213	 2.94126086073193E-02 
1214	 2.95710758957003E-02 
1215	 2.98485280024264E-02 
1216	 2.96978946637493E-02 
1217	 2.98421552201754E-02 
1218	 2.97201499014542E-02 
1219	 2.96786499717813E-02 
1220	 2.98179860058707E-02 
1221	 2.99902193602483E-02 
1222	 3.01469568500581E-02 
1223	 2.97063534529095E-02 
1224	 2.96148529867883E-02 
1225	 3.01898203957276E-02 
1226	 3.03384492006684E-02 
1227	 3.00496868612874E-02 
1228	 2.95536564150687E-02 
1229	 0.029356397014846 
1230	 2.99492455127787E-02 
1231	 3.06086460333136E-02 
1232	 3.05956869116589E-02 
1233	 3.01968848624036E-02 
1234	 2.98915449999318E-02 
1235	 0.029699009290347 
1236	 0.029706614566511 
1237	 2.97453134388333E-02 
1238	 3.01138649313693E-02 
1239	 2.98967958058882E-02 
1240	 2.94756944628084E-02 
1241	 2.97521633027426E-02 
1242	 3.02304718354611E-02 
1243	 3.00091654719646E-02 
1244	 2.99563271437396E-02 
1245	 3.03168259497894E-02 
1246	 3.03202149247642E-02 
1247	 3.01303552145864E-02 
1248	 3.02533263534661E-02 
1249	 3.03499276915075E-02 
1250	 3.00916988725289E-02 
1251	 3.00428096543856E-02 
1252	 2.99083088777417E-02 
1253	 2.96579561418919E-02 
1254	 3.00592211890791E-02 
1255	 3.04403017842488E-02 
1256	 3.03250028155634E-02 
1257	 2.96159250801914E-02 
1258	 2.95888327408471E-02 
1259	 2.97848437431084E-02 
1260	 2.96715247635582E-02 
1261	 2.97064170385524E-02 
1262	 2.97739199511441E-02 
1263	 2.95432651847647E-02 
1264	 2.92015493822069E-02 
1265	 2.92396889634107E-02 
1266	 2.96621667376643E-02 
1267	 2.95533169312693E-02 
1268	 2.87112272363487E-02 
1269	 2.86705264136147E-02 
1270	 2.90164821914054E-02 
1271	 2.89175740970827E-02 
1272	 2.94939327841338E-02 
1273	 2.98679757449027E-02 
1274	 2.93392699764966E-02 
1275	 0.029137484445855 
1276	 2.95443686188464E-02 
1277	 2.97751936280088E-02 
1278	 0.029695118799707 
1279	 2.98056110257675E-02 
1280	 3.00192301367144E-02 
1281	 3.01466741408024E-02 
1282	 3.02896929763363E-02 
1283	 3.02345388538967E-02 
1284	 3.02423918719541E-02 
1285	 3.00754259118306E-02 
1286	 2.90746029395893E-02 
1287	 2.90232676929951E-02 
1288	 3.00839841373195E-02 
1289	 2.99362570123939E-02 
1290	 2.91196829784735E-02 
1291	 2.92864243597969E-02 
1292	 2.94242205112161E-02 
1293	 2.85277829203379E-02 
1294	 2.80848287165275E-02 
1295	 2.84673184985745E-02 
1296	 2.88308830391305E-02 
1297	 2.84160455844215E-02 
1298	 2.80981003295456E-02 
1299	 2.87163018889612E-02 
1300	 2.89407692807931E-02 
1301	 2.85404273487685E-02 
1302	 2.83305979102746E-02 
1303	 2.83656114914535E-02 
1304	 2.84493799446701E-02 
1305	 0.02806849055526 
1306	 2.77356801944634E-02 
1307	 0.028036629577449 
1308	 2.79760761108587E-02 
1309	 2.66244424543489E-02 
1310	 2.68268962121237E-02 
1311	 2.89429608198413E-02 
1312	 2.89661504881459E-02 
1313	 2.83012063207041E-02 
1314	 2.81585174857793E-02 
1315	 0.026663163110848 
1316	 2.62057008469707E-02 
1317	 2.74071945558866E-02 
1318	 2.74414848688999E-02 
1319	 0.02644802747982 
1320	 2.63739895981652E-02 
1321	 2.64509468717098E-02 
1322	 2.65775425429181E-02 
1323	 2.72539517270451E-02 
1324	 2.80306893607539E-02 
1325	 2.64253912995241E-02 
1326	 2.52992974700596E-02 
1327	 2.58054948128229E-02 
1328	 2.53942038196229E-02 
1329	 0.025718531351263 
1330	 2.58492756324397E-02 
1331	 2.54397876775636E-02 
1332	 2.52926803446991E-02 
1333	 2.46106010300821E-02 
1334	 2.38069268772806E-02 
1335	 2.33397819216613E-02 
1336	 2.19498616268662E-02 
1337	 2.15490929964118E-02 
1338	 2.25184825091841E-02 
1339	 2.32608963152204E-02 
1340	 2.40950775093876E-02 
1341	 2.39883590307711E-02 
1342	 2.48075512995174E-02 
1343	 2.40273620539279E-02 
1344	 1.79477161900709E-02 
1345	 1.59317542925607E-02 
1346	 1.87757863032181E-02 
1347	 1.72940872457911E-02 
1348	 1.33266615257312E-02 
1349	 1.60787895562894E-02 
1350	 2.58677388983107E-02 
1351	 0.02154742560997 
1352	-9.87149662361457E-05 
1353	 2.53400103872756E-03 
1354	 2.77046296192043E-02 
1355	 1.77159638726638E-03 
1356	-3.86962100146309E-02 
1357	 5.29163917215826E-02 
1358	-6.46604593271402E-02 
1359	-0.329664591476377 
1360	-0.295323244580536 
1361	-0.248461473592751 
1362	-0.413980568392408 
1363	-0.26496415399364 
1364	 0.120168822108801 
1365	 0.484731555201701 
1366	 0.118507757899751 
1367	-0.133037053644923 
1368	 0.069952880237731 
1369	 0.299295784642516 
1370	 4.82462612575104E-02 
1371	 0.339541397560015 
1372	 0.389508279702514 
1373	-0.828054797127064 
1374	-1.09345926761767 
1375	-0.608637468182415 
1376	-0.490750715371818 
1377	-0.251141928232502 
1378	-0.285938610381203 
1379	-0.410156798320396 
1380	-0.354029057599859 
1381	-0.195934708575966 
1382	-0.160065993403142 
1383	 0.461899837212006 
1384	 1.01225150328449 
1385	-0.983085930043082 
1386	-0.994260136197931 
1387	-0.736525264898763 
1388	-0.700016691060576 
1389	 0.684419236091988 
1390	 0.885379329413307 
1391	 3.05829915107281 
1392	 1.64499336363991 
1393	-0.731899106542873 
1394	-1.06331503337371 
1395	 0.681962480676093 
1396	 2.19595968029848 
1397	 1.91460684530792 
1398	-0.129720143996258 
1399	-0.301707201525438 
1400	-0.895105761895781 
1401	-0.90141381930863 
1402	-1.10956270845618 
1403	-2.11972197867814 
1404	-1.29543373057063 
1405	-1.77109743705147 
1406	-0.381125595264699 
1407	-0.496300337810031 
1408	-1.49525589795275 
1409	-1.18984107678729 
1410	-0.480025240652493 
1411	-0.303907702889984 
1412	 0.786155355455474 
1413	 0.866029297714178 
1414	 7.31159928501283E-02 
1415	-4.29307155705513E-03 
1416	-0.118258466325504 
1417	-0.19054624851268 
1418	-0.302158485003264 
1419	-0.20651924451595 
1420	-7.18009460997995E-02 
1421	-5.30321167733894E-02 
1422	 5.61702295156492E-02 
1423	 6.59136464108698E-02 
1424	-6.47326314991965E-02 
1425	-6.74984630006843E-02 
1426	-3.84920589715196E-03 
1427	 1.37234266975286E-03 
1428	 3.03547570736681E-03 
1429	 1.15555108858767E-02 
1430	 7.13304337821998E-03 
1431	 5.80004913578305E-03 
1432	 2.66055032573074E-02 
1433	 2.69918257842429E-02 
1434	-0.015813087312784 
1435	-1.96534785042954E-02 
1436	 1.30605328903531E-02 
1437	 1.68840067438778E-02 
1438	-1.39902921988826E-02 
1439	 1.27791630843382E-04 
1440	-7.75005851396813E-03 
1441	-2.04430097470892E-02 
1442	 1.58915406464678E-02 
1443	 2.16376263243843E-02 
1444	-5.12155451574203E-03 
1445	 1.40657340101403E-03 
1446	 1.74534794995475E-02 
1447	 2.21358636146927E-02 
1448	 2.74223105050514E-02 
1449	 2.61094404826009E-02 
1450	 2.09603479151772E-02 
1451	 1.64843144775606E-02 
1452	 1.60303328055287E-02 
1453	 2.00440368150603E-02 
1454	 0.017069418727188 
1455	 7.88566901532924E-03 
1456	 1.10595702244136E-02 
1457	 1.94507693405227E-02 
1458	 1.68733334562111E-02 
1459	 1.48129704501634E-02 
1460	 1.70973654227422E-02 
1461	 1.35643002857043E-02 
1462	 1.17068028959838E-02 
1463	 1.74657292081487E-02 
1464	 2.01052847981155E-02 
1465	 1.88534083504347E-02 
1466	 1.32213991741798E-02 
1467	 4.14272741920136E-03 
1468	 6.77446490356508E-03 
1469	 7.29966226584404E-03 
1470	 8.26256721774014E-03 
1471	 2.75097297233471E-02 
1472	 0.031049746319798 
1473	 1.72930088214904E-02 
1474	 1.59669974373155E-02 
1475	 1.94179699512461E-02 
1476	 2.07334852551077E-02 
1477	 2.31468143532355E-02 
1478	 2.39875695412072E-02 
1479	 2.47813944163372E-02 
1480	 2.46447043338123E-02 
1481	 2.38883387053961E-02 
1482	 2.31587983944889E-02 
1483	 1.84724108256225E-02 
1484	 2.05697837266272E-02 
1485	 2.94950524359181E-02 
1486	 2.89380551443247E-02 
1487	 2.53360724021641E-02 
1488	 2.57125269284922E-02 
1489	 2.39411366116845E-02 
1490	 2.28242826333484E-02 
1491	 2.42128724869367E-02 
1492	 2.56043020426543E-02 
1493	 2.64451265544222E-02 
1494	 2.60829231567212E-02 
1495	 2.60493638374509E-02 
1496	 2.66518874986231E-02 
1497	 2.58388037847914E-02 
1498	 2.58486704615842E-02 
1499	 2.82563612093471E-02 
1500	 0.028448019725062 
1501	 2.63933562569623E-02 
1502	 2.63329427858514E-02 
1503	 2.69296713063869E-02 
1504	 2.68171863621711E-02 
1505	 2.70558265058435E-02 
1506	 2.78156801228238E-02 
1507	 2.76953914227984E-02 
1508	 2.76736300952915E-02 
1509	 2.84049402944545E-02 
1510	 2.87863853724498E-02 
1511	 2.89928687495406E-02 
1512	 2.86690507985639E-02 
1513	 0.027811027001679 
1514	 2.77519126664082E-02 
1515	 2.77351349288113E-02 
1516	 0.028052692146227 
1517	 2.89355129286861E-02 
1518	 2.90035719495702E-02 
1519	 0.028987124401018 
1520	 2.86333214450837E-02 
1521	 2.79441160814995E-02 
1522	 2.83767577292188E-02 
1523	 2.87075962848453E-02 
1524	 2.82995270658355E-02 
1525	 2.84713933728686E-02 
1526	 2.88878915472781E-02 
1527	 2.87265306190641E-02 
1528	 2.86605119197281E-02 
1529	 2.92292198182511E-02 
1530	 2.94783125049819E-02 
1531	 0.029049296794544 
1532	 2.89373377152984E-02 
1533	 2.92630508457244E-02 
1534	 2.92234972383675E-02 
1535	 2.91417698422173E-02 
1536	 0.029216185987561 
1537	 2.87765823299111E-02 
1538	 0.028496517472343 
1539	 2.85336230047141E-02 
1540	 0.028840265985595 
1541	 0.029614527860069 
1542	 2.94516836836818E-02 
1543	 2.90037988472705E-02 
1544	 2.91369926697794E-02 
1545	 2.89053847232361E-02 
1546	 2.90665817038482E-02 
1547	 0.02939795954183 
1548	 2.91225660660423E-02 
1549	 0.029158939429094 
1550	 0.02914156170333 
1551	 2.87300542679338E-02 
1552	 2.89476511948235E-02 
1553	 2.92594334418105E-02 
1554	 2.89391545881408E-02 
1555	 2.91041413422483E-02 
1556	 2.96935705060337E-02 
1557	 2.98192062362208E-02 
1558	 2.95382986366256E-02 
1559	 2.89370420371638E-02 
1560	 2.87688478293761E-02 
1561	 2.89737436440329E-02 
1562	 2.91572953279539E-02 
1563	 2.99413395141686E-02 
1564	 3.01258386799936E-02 
1565	 2.99090680891195E-02 
1566	 3.02451992306272E-02 
1567	 2.96503055759496E-02 
1568	 2.92221896644893E-02 
1569	 2.92020840793475E-02 
1570	 2.87131079235431E-02 
1571	 2.88094591312288E-02 
1572	 2.89701427538285E-02 
1573	 2.93569310770404E-02 
1574	 2.98531122042057E-02 
1575	 2.99421484185698E-02 
1576	 3.03510015593202E-02 
1577	 0.030747075019459 
1578	 3.04400316425572E-02 
1579	 2.97505784240495E-02 
1580	 2.96061079725211E-02 
1581	 2.97064497127503E-02 
1582	 2.95081490321088E-02 
1583	 2.97877817854727E-02 
1584	 0.030190300355285 
1585	 2.96046124080993E-02 
1586	 2.95418593777296E-02 
1587	 3.07268963686588E-02 
1588	 3.11841790132113E-02 
1589	 3.11692650615904E-02 
1590	 0.031320661370598 
1591	 3.06740223272725E-02 
1592	 2.98523122236435E-02 
1593	 2.99198649274458E-02 
1594	 3.00827444208573E-02 
1595	 2.96096649961283E-02 
1596	 2.95220438720015E-02 
1597	 2.98992450606635E-02 
1598	 2.98192054241784E-02 
1599	 2.95814553586879E-02 
1600	 2.97400775996047E-02 
1601	 2.97591394688712E-02 
1602	 2.96535214829134E-02 
1603	 3.03214029663197E-02 
1604	 3.04004544507219E-02 
1605	 3.00274680578496E-02 
1606	 3.05573779821313E-02 
1607	 3.03070888385244E-02 
1608	 2.96986115375624E-02 
1609	 3.00904082432833E-02 
1610	 3.03597559164303E-02 
1611	 3.03366776897741E-02 
1612	 3.05705371315094E-02 
1613	 3.03582479463009E-02 
1614	 2.96498532086596E-02 
1615	 2.95360083312541E-02 
1616	 2.96120264128153E-02 
1617	 2.98026531897595E-02 
1618	 3.03349031298272E-02 
1619	 3.01083369962031E-02 
1620	 3.04763993639675E-02 
1621	 3.14565297413574E-02 
1622	 3.07772256528634E-02 
1623	 3.02417663303807E-02 
1624	 3.07604134796085E-02 
1625	 0.030276978610179 
1626	 3.00190776900948E-02 
1627	 3.06822133188442E-02 
1628	 3.02735633219076E-02 
1629	 3.02084399658498E-02 
1630	 3.09029545488429E-02 
1631	 3.05621413575478E-02 
1632	 3.00877753740284E-02 
1633	 2.99547387648967E-02 
1634	 2.98612108968595E-02 
1635	 2.95751851851474E-02 
1636	 2.94535738201424E-02 
1637	 3.00205200749609E-02 
1638	 3.01777079816408E-02 
1639	 0.030130449658535 
1640	 3.06485957003487E-02 
1641	 0.030649974632631 
1642	 2.99851748205801E-02 
1643	 2.98542225185311E-02 
1644	 3.00502961793136E-02 
1645	 3.01148377719683E-02 
1646	 3.00688978550319E-02 
1647	 0.030095544739146 
1648	 3.08484951776175E-02 
1649	 3.07065091887874E-02 
1650	 3.01122553048478E-02 
1651	 3.09770646599479E-02 
1652	 3.08828063024622E-02 
1653	 3.05728506790767E-02 
1654	 3.07477966093523E-02 
1655	 3.02986793152894E-02 
1656	 3.00403535497735E-02 
1657	 3.02808773455553E-02 
1658	 3.03822789378502E-02 
1659	 0.03024548731332 
1660	 3.00606262440329E-02 
1661	 3.02719411702889E-02 
1662	 3.01948738585449E-02 
1663	 2.91938826420258E-02 
1664	 2.91765027127243E-02 
1665	 0.030259865793251 
1666	 3.00298804016149E-02 
1667	 2.89467020726099E-02 
1668	 3.00065155366068E-02 
1669	 3.07415512939983E-02 
1670	 3.15946393621854E-02 
1671	 3.20268271253519E-02 
1672	 0.03032017808333 
1673	 2.94743025884109E-02 
1674	 0.030453415905902 
1675	 3.03983390006521E-02 
1676	 2.98525426934983E-02 
1677	 3.03292966824092E-02 
1678	 3.02515862323099E-02 
1679	 2.97685499350478E-02 
1680	 3.07571094587983E-02 
1681	 3.09503609312107E-02 
1682	 2.91106043454846E-02 
1683	 2.90452760443086E-02 
1684	 3.00498310814917E-02 
1685	 2.98173429271737E-02 
1686	 3.04518079343335E-02 
1687	 3.09164813534543E-02 
1688	 3.02316309259835E-02 
1689	 3.04590695537246E-02 
1690	 3.12146767282319E-02 
1691	 3.12628587350104E-02 
1692	 3.08599195984144E-02 
1693	 3.02889761661762E-02 
1694	 2.98223658586649E-02 
1695	 2.95019526017931E-02 
1696	 2.93669649955567E-02 
1697	 2.94374290789802E-02 
1698	 2.91123624560581E-02 
1699	 2.93931704944256E-02 
1700	 3.08184957385657E-02 
1701	 3.13539358047011E-02 
1702	 3.09667914499493E-02 
1703	 0.030224931890323 
1704	 0.028708706594962 
1705	 2.82356639905289E-02 
1706	 2.90402230997701E-02 
1707	 2.95765739431783E-02 
1708	 3.03063723427529E-02 
1709	 3.07560751689437E-02 
1710	 2.95461321651968E-02 
1711	 2.86815590775593E-02 
1712	 2.96732206755319E-02 
1713	 2.92649145305652E-02 
1714	 2.96071966245397E-02 
1715	 3.14497287047965E-02 
1716	 3.14624404349575E-02 
1717	 3.11940117029958E-02 
1718	 3.04990589241202E-02 
1719	 2.95128428186165E-02 
1720	 2.90324558076834E-02 
1721	 0.02946617114547 
1722	 0.030427409791174 
1723	 2.96074720124423E-02 
1724	 2.90624999660994E-02 
1725	 3.09959704139115E-02 
1726	 0.03228424574748 
1727	 3.18674467011792E-02 
1728	 0.030625578226559 
1729	 2.93571796298665E-02 
1730	 2.90928437094826E-02 
1731	 0.029628327080988 
1732	 0.030574496900127 
1733	 3.05474042361305E-02 
1734	 3.04315912894494E-02 
1735	 3.08667626193328E-02 
1736	 0.029768574644613 
1737	 2.93573785052258E-02 
1738	 2.93543756112916E-02 
1739	 2.75826588431656E-02 
1740	 2.74601032952895E-02 
1741	 2.81022537930449E-02 
1742	 2.75755490247002E-02 
1743	 2.87561826542486E-02 
1744	 2.97729252803672E-02 
1745	 0.02979607503829 
1746	 2.91292535513126E-02 
1747	 2.82842325389446E-02 
1748	 2.79590473055876E-02 
1749	 2.82379585861946E-02 
1750	 2.80785614795923E-02 
1751	 2.77405375476771E-02 
1752	 2.83987584625113E-02 
1753	 2.90386231016143E-02 
1754	 2.90515753903055E-02 
1755	 2.87533589898765E-02 
1756	 0.029041789285072 
1757	 0.028048848754592 
1758	 2.69282590216259E-02 
1759	 0.026801154847436 
1760	 2.76983587812903E-02 
1761	 2.74510224583579E-02 
1762	 2.61022488760233E-02 
1763	 2.62825935023904E-02 
1764	 2.64874425541179E-02 
1765	 2.56183143855371E-02 
1766	 0.026437438103935 
1767	 2.81852213112821E-02 
1768	 2.72909910644351E-02 
1769	 2.62295595769056E-02 
1770	 2.74268666208365E-02 
1771	 2.71095211624311E-02 
1772	 2.76391393019677E-02 
1773	 2.86683839261528E-02 
1774	 2.59322891779863E-02 
1775	 2.07401480746063E-02 
1776	 2.07609441619814E-02 
1777	 3.06665145882804E-02 
1778	 3.22309689969333E-02 
1779	 3.03078512375803E-02 
1780	 0.028965579012853 
1781	 1.68014504058868E-02 
1782	 1.36134731365529E-02 
1783	 2.07385411647356E-02 
1784	 2.35314978317437E-02 
1785	 2.78680675131754E-02 
1786	 2.94629168599745E-02 
1787	 2.92566760163767E-02 
1788	 2.93426321057277E-02 
1789	 2.84611494574719E-02 
1790	 3.15306226795746E-02 
1791	 2.17626481240728E-02 
1792	 1.47089094028727E-02 
1793	 1.50685401660227E-02 
1794	 1.38710647725066E-02 
1795	 3.30270248523024E-02 
1796	 5.17019707841222E-02 
1797	 4.35960899095714E-02 
1798	 2.55786674145566E-02 
1799	-4.54387542474814E-03 
1800	-9.64666680716007E-04 
1801	 2.96206294039745E-03 
1802	 7.35359695574114E-02 
1803	 9.38596272689351E-02 
1804	 3.11536226059731E-02 
1805	-1.49367082801111E-03 
1806	-0.146988624004676 
1807	-0.219977299488712 
1808	 0.114280473136133 
1809	 0.211345393544742 
1810	 0.20465761987683 
1811	 0.142210713335895 
1812	-0.291713474022414 
1813	-0.455908803314784 
1814	 2.4406806647602 
1815	 1.36780729563671 
1816	-85.5979266319305 
1817	-0.443010582813188 
1818	 9.92108569845647E-02 
1819	 0.596474552203016 
1820	 3.15545859195776 
1821	 0.188017519339413 
1822	 0.514010682121811 
1823	-0.455920726377867 
1824	-0.332912465742827 
1825	-0.695390573815192 
1826	-0.535452756253972 
1827	 11.7321650146127 
1828	 0.669200210419235 
1829	 3.35525457193309 
1830	 1.94691223335187 
1831	 1.45305813693493 
1832	 1.36294382856765 
1833	 0.22760445774167 
1834	 0.144908707896179 
1835	-1.12937971330481 
1836	 0.872198345965628 
1837	-3.06306013579047 
1838	-12.5576615441992 
1839	-3.32694833985784E-02 
1840	-0.288585832808177 
1841	-0.163006366810483 
1842	-0.30148793555459 
1843	-0.33491775205146 
1844	 1.71671806006392 
1845	 5.99456084196952 
1846	-2.58646765737974 
1847	-3.07996367050037 
1848	-2.7072314987835 
1849	-1.70582775117673 
1850	-0.809207026978029 
1851	-0.296798281242776 
1852	 0.48369392350608 
1853	 6.89620925234134 
1854	-7.25330202568554 
1855	-0.570138125743819 
1856	 0.358440270098823 
1857	 4.45102697787866 
1858	 6.87281109250828 
1859	 9.35372113310972 
1860	 6.1059216461693 
1861	 5.87443047473241 
1862	 1.45003726629411 
1863	 1.60242012571013 
1864	 0.589674177408713 
1865	 0.183906226185612 
1866	 0.567744603900719 
1867	 0.676383300137702 
1868	 0.323131778216324 
1869	 2.67905421760973 
1870	 0.772974820827017 
1871	 0.739763030782025 
1872	 0.878612507297498 
1873	 0.647662803405186 
1874	 9.61888542961988E-02 
1875	-0.240557799257148 
1876	-0.272742250722844 
1877	 0.149511390446981 
1878	 0.30725574039735 
1879	 1.02495064655013 
1880	 1.1800377708842 
1881	 0.516503067398815 
1882	 0.344118819016496 
1883	 0.254191928195136 
1884	 0.243165154335941 
1885	 1.36855630040447 
1886	 0.528953212317097 
1887	-3.08569468441655 
1888	-3.18933179645038 
1889	-3.25287781267189 
1890	-2.0359567859356 
1891	-0.809272376804723 
1892	 2.47920522453922 
1893	 1.50092879803208 
1894	 0.660870069371611 
1895	 0.329454116709592 
1896	 3.35859981604316E-02 
1897	-0.174995356519874 
1898	-1.99680656112003 
1899	-3.99211114806136 
1900	-2.14864434175054 
1901	-0.676339303611301 
1902	-0.603243822338524 
1903	-0.660656861325092 
1904	-0.209949986770422 
1905	 1.85692439968846E-02 
1906	 2.31295447751221E-02 
1907	 2.05613325725231E-02 
1908	-0.151029638034251 
1909	-0.49767275654655 
1910	-2.68853244851271 
1911	 1.32161077567232 
1912	 1.93431996141781 
1913	 2.59007201825918 
1914	 4.18690714819625 
1915	 3.04951581826017 
1916	 2.86780096961251 
1917	 0.2319330604342 
1918	-0.654955979714448 
1919	-2.52669514645895 
1920	-1.78170172976715 
1921	-1.25423424663767 
1922	-0.795358565467712 
1923	-0.433330873226898 
1924	-0.46099988315092 
1925	-0.153007509594735 
1926	 3.69334673328228E-02 
1927	 0.43105653014578 
1928	 5.43996630879466 
1929	-3.3867291806974 
1930	-0.134995497612738 
1931	 4.97794098531786E-02 
1932	 0.390368222870874 
1933	 0.41717923226269 
1934	-2.3355127834343 
1935	-9.12964608735983 
1936	-3.57944306864851 
1937	-1.36009267774315 
1938	-2.82519168750348 
1939	-3.43875766900642 
1940	 95.8547146216179 
1941	-1.84653167314083 
1942	-1.48562519929292 
1943	 1.83071425917895 
1944	 1.97341531659443 
1945	 0.826776029687448 
1946	 0.184206137376861 
1947	-0.117911309585953 
1948	-0.395119490474523 
1949	-0.194946181648553 
1950	 1.94136137015789E-02 
1951	 5.43394659076358E-02 
1952	 7.63851343492895E-02 
1953	 0.06624666979297 
1954	-1.70298868400998E-02 
1955	-6.30739473762802E-02 
1956	 5.23310516174684E-02 
1957	 0.114369632230149 
1958	 7.69990535547255E-02 
1959	 5.08913820119948E-02 
1960	 2.74510387570244E-02 
1961	-1.80731417626049E-02 
1962	-1.79050598033399E-02 
1963	 1.94044028236052E-02 
1964	 1.66809313982344E-02 
1965	 9.29214921067468E-03 
1966	 1.49361670585635E-02 
1967	 2.57842513020792E-02 
1968	 1.97669793710711E-02 
1969	 2.11137133498575E-02 
1970	 3.40542984322466E-02 
1971	 2.96897207607882E-02 
1972	 0.023574108127695 
1973	 2.91559064325926E-02 
1974	 3.11492332773043E-02 
1975	 3.20326804090704E-02 
1976	 3.28406131699302E-02 
1977	 3.00201972082141E-02 
1978	 2.53680584798069E-02 
1979	 0.025250025967775 
1980	 2.89293547710133E-02 
1981	 3.17415768850201E-02 
1982	 2.82130059885338E-02 
1983	 2.87237423353278E-02 
1984	 2.81816916256729E-02 
1985	 2.30869563377762E-02 
1986	 1.94252948006085E-02 
1987	 1.52393819232097E-02 
1988	 7.92123876768159E-03 
1989	 8.00833713107842E-03 
1990	 1.49694643056449E-02 
1991	 2.10674093327882E-02 
1992	 2.61307164842044E-02 
1993	 2.81924500450745E-02 
1994	 2.87616099699274E-02 
1995	 2.64395720617131E-02 
1996	 2.10505296006399E-02 
1997	 1.62852815449623E-02 
1998	 9.99852702233247E-03 
1999	-9.12417088904278E-04 
2000	-3.30072005949003E-03 
2001	-1.47506563488209E-03 
2002	 1.23340339844166E-03 
2003	 1.27040202309324E-02 
2004	 0.026854031775823 
2005	 3.78910037595958E-02 
2006	 4.46620591309701E-02 
2007	 3.29392668704199E-02 
2008	 0.011494498007912 
2009	 8.73764794734173E-03 
2010	 1.39369447107484E-02 
2011	 0.012549459907573 
2012	 1.91067441414994E-02 
2013	 0.032227536878171 
2014	 0.017875905227458 
2015	 4.36875690074718E-03 
2016	 1.43846113988151E-02 
2017	 1.64450973243717E-02 
2018	 1.20681035627546E-02 
2019	 9.91347225067223E-03 
2020	 5.44365742473716E-03 
2021	 1.44653571317077E-03 
2022	 3.48238778316689E-03 
2023	 1.10845067142011E-02 
2024	 1.70648662627398E-02 
2025	 2.38077976957175E-02 
2026	 2.63851578800667E-02 
2027	 2.91631572222772E-02 
2028	 3.04657980154138E-02 
2029	 2.87041495615543E-02 
2030	 2.68177693847377E-02 
2031	 0.024871690964623 
2032	 2.25438563006108E-02 
2033	 2.24944942788507E-02 
2034	 2.18060095324342E-02 
2035	 2.26028327022436E-02 
2036	 2.57079202895439E-02 
2037	 2.64807338132534E-02 
2038	 2.58795625781064E-02 
2039	 2.51539736245877E-02 
2040	 2.33550334931531E-02 
2041	 0.023785851090853 
2042	 2.51878764691872E-02 
2043	 2.47973309370324E-02 
2044	 0.024709343809514 
2045	 2.54371140619524E-02 
2046	 2.42835920711965E-02 
2047	 2.27227204999447E-02 
2048	 2.48881759089761E-02 
2049	 2.30385662563851E-02 
2050	 2.18264062232266E-02 
2051	 2.55196847578384E-02 
2052	 2.70896201555927E-02 
2053	 3.02259289793072E-02 
2054	 3.32251876442036E-02 
2055	 3.35038517404888E-02 
2056	 3.35009167553633E-02 
2057	 3.31671248582995E-02 
2058	 3.34825259032963E-02 
2059	 3.41150645886564E-02 
2060	 3.13680816341801E-02 
2061	 2.66037582106534E-02 
2062	 2.53765453919092E-02 
2063	 2.24961809620678E-02 
2064	 1.87064231114459E-02 
2065	 2.00988401468101E-02 
2066	 0.021819541254815 
2067	 2.36196355239033E-02 
2068	 2.91533314129335E-02 
2069	 3.30097979995505E-02 
2070	 3.34869564505098E-02 
2071	 2.99949686531053E-02 
2072	 2.59443284264942E-02 
2073	 2.39061035540806E-02 
2074	 2.07744691865353E-02 
2075	 2.11915025707082E-02 
2076	 2.57520023046655E-02 
2077	 2.71701699884491E-02 
2078	 2.99586266647459E-02 
2079	 3.07394717335371E-02 
2080	 2.97010292153105E-02 
2081	 0.027201661777479 
2082	 2.77403954163083E-02 
2083	 2.79511119138497E-02 
2084	 2.63228657131574E-02 
2085	 2.50940341804517E-02 
2086	 2.51771872131568E-02 
2087	 2.41497311366864E-02 
2088	 2.45075895035762E-02 
2089	 2.77847351319434E-02 
2090	 2.87438572212989E-02 
2091	 2.81500017746914E-02 
2092	 2.76938135685176E-02 
2093	 2.71549184813742E-02 
2094	 2.57676208419445E-02 
2095	 2.27289331524892E-02 
2096	 2.23977473662826E-02 
2097	 2.37550239564025E-02 
2098	 0.025289396679484 
2099	 2.86835471004798E-02 
2100	 2.91313056266585E-02 
2101	 0.030916971239071 
2102	 3.23671257461172E-02 
2103	 3.12359067179344E-02 
2104	 3.02431151545412E-02 
2105	 3.03824985956654E-02 
2106	 2.97804494247013E-02 
2107	 2.84372822024976E-02 
2108	 0.029217986750053 
2109	 3.06133391121938E-02 
2110	 3.11036913086969E-02 
2111	 3.17874008588251E-02 
2112	 3.18117469815355E-02 
2113	 3.17433402230213E-02 
2114	 2.97463312037481E-02 
2115	 2.88570937919557E-02 
2116	 2.87121903321197E-02 
2117	 0.028371539663 
2118	 2.70770934037251E-02 
2119	 2.73336345208351E-02 
2120	 2.81979523899068E-02 
2121	 3.10978480638415E-02 
2122	 3.23412008195482E-02 
2123	 3.12934970844904E-02 
2124	 2.99787994533006E-02 
2125	 2.71579968590286E-02 
2126	 2.51428500278122E-02 
2127	 2.48172645015466E-02 
2128	 2.56375055590688E-02 
2129	 2.63540529922428E-02 
2130	 2.60777649410308E-02 
2131	 2.65601212817087E-02 
2132	 0.025496301625257 
2133	 0.024528024631861 
2134	 2.50619558144192E-02 
2135	 2.75048738840818E-02 
2136	 2.84606193848658E-02 
2137	 0.029865818408622 
2138	 0.030288133813902 
2139	 3.04199322731896E-02 
2140	 0.029660570427396 
2141	 2.71636269584676E-02 
2142	 2.63031098242989E-02 
2143	 2.47665936271663E-02 
2144	 2.50191789944945E-02 
2145	 2.76484262666632E-02 
2146	 2.94854074431539E-02 
2147	 3.07222596217931E-02 
2148	 0.028942235698076 
2149	 2.83964144642135E-02 
2150	 2.83754137277933E-02 
2151	 2.79179024907993E-02 
2152	 2.74152322959697E-02 
2153	 2.27542108906943E-02 
2154	 2.17331151224515E-02 
2155	 0.023908133561629 
2156	 2.53251929028229E-02 
2157	 2.62386107890359E-02 
2158	 2.93661420406658E-02 
2159	 2.90311236270359E-02 
2160	 0.02470037531015 
2161	 2.34573826359153E-02 
2162	 2.10274689690517E-02 
2163	 2.22292383578869E-02 
2164	 2.80751377376573E-02 
2165	 3.05633383071727E-02 
2166	 3.56941968316446E-02 
2167	 3.68846618526137E-02 
2168	 3.11064617460117E-02 
2169	 2.97599765402733E-02 
2170	 2.97776587372399E-02 
2171	 3.01044128897401E-02 
2172	 2.78652541076996E-02 
2173	 2.80352381778013E-02 
2174	 2.73249443723613E-02 
2175	 0.023497292303218 
2176	 0.025286830357189 
2177	 2.56621380970362E-02 
2178	 2.18236873606798E-02 
2179	 2.21197571690417E-02 
2180	 2.23392237164713E-02 
2181	 2.26846611827907E-02 
2182	 0.026965417804791 
2183	 2.92458166342734E-02 
2184	 3.00105813186939E-02 
2185	 3.15581928116205E-02 
2186	 2.97102477761973E-02 
2187	 2.33370654482698E-02 
2188	 0.022120509619765 
2189	 1.93903122073897E-02 
2190	 2.02093195321306E-02 
2191	 2.79824598728158E-02 
2192	 3.13377040008378E-02 
2193	 3.47617780270694E-02 
2194	 3.63495869798396E-02 
2195	 3.51388068580597E-02 
2196	 3.50512742651728E-02 
2197	 3.32016653211332E-02 
2198	 3.19576597649979E-02 
2199	 3.03537342060351E-02 
2200	 3.31465470896041E-02 
2201	 3.16060349316343E-02 
2202	 3.23292614006358E-02 
2203	 2.99920654939892E-02 
2204	 2.51118732616025E-02 
2205	 3.08958320380032E-02 
2206	 3.27303190113088E-02 
2207	 3.51694326035851E-02 
2208	 3.76162154429466E-02 
2209	 3.16521995816974E-02 
2210	 3.07105745228547E-02 
2211	 0.03037089447253 
2212	 2.91615729953359E-02 
2213	 2.86153965075758E-02 
2214	 2.75957926885249E-02 
2215	 2.92562139009374E-02 
2216	 3.05838503263727E-02 
2217	 3.13333757579915E-02 
2218	 3.25817781220865E-02 
2219	 3.23168191317409E-02 
2220	 3.17352076981569E-02 
2221	 2.94505721616557E-02 
2222	 2.30193857932303E-02 
2223	 2.00090588987197E-02 
2224	 1.72112718529522E-02 
2225	 1.67175048254747E-02 
2226	 2.10766656257612E-02 
2227	 2.20420744297842E-02 
2228	 2.27954576303867E-02 
2229	 2.14352968365266E-02 
2230	 1.35968807531723E-02 
2231	 1.29210120677843E-02 
2232	 1.72834075977363E-02 
2233	 0.018436808632587 
2234	 1.92734994592717E-02 
2235	 2.70790401837094E-02 
2236	 3.12247746020413E-02 
2237	 0.028220366365697 
2238	 2.86485454799228E-02 
2239	 2.50469729271632E-02 
2240	 2.12148308378146E-02 
2241	 1.85520064360667E-02 
2242	 1.54246089010752E-02 
2243	 1.67562554322146E-02 
2244	 1.82748882210162E-02 
2245	 2.31317784588352E-02 
2246	 2.96119400288286E-02 
2247	 3.50665913666699E-02 
2248	 3.94744480101624E-02 
2249	 3.67795523837167E-02 
2250	 2.99941638629996E-02 
2251	 3.07466152705998E-02 
2252	 3.21455643323927E-02 
2253	 2.78599304239956E-02 
2254	 0.027807069838394 
2255	 2.65961782795226E-02 
2256	 1.86527203683787E-02 
2257	 1.39566011679567E-02 
2258	 9.54013497443033E-03 
2259	 3.85240266033722E-03 
2260	 4.55409360402152E-03 
2261	 1.19026010464982E-02 
2262	 1.47650502021751E-02 
2263	 2.16523584366505E-02 
2264	 2.58896037078156E-02 
2265	 2.46059079648819E-02 
2266	 2.79102309230052E-02 
2267	 3.51765973646767E-02 
2268	 0.037445868778038 
2269	 4.07950196717364E-02 
2270	 3.83006725894614E-02 
2271	 2.74677637324459E-02 
2272	 2.41308663213525E-02 
2273	 1.89719006030985E-02 
2274	 2.04711223399208E-02 
2275	 3.30484718264962E-02 
2276	 3.56930947669713E-02 
2277	 3.64863700149472E-02 
2278	 0.033612870262256 
2279	 2.25575402007491E-02 
2280	 2.01009216922654E-02 
2281	 2.15254476949871E-02 
2282	 0.016658239827554 
2283	 2.29315467736295E-02 
2284	 2.31361772838342E-02 
2285	 1.80953051979265E-02 
2286	 2.45188181282421E-02 
2287	 2.21323076396283E-02 
2288	 2.07249989833704E-02 
2289	 2.86873273959773E-02 
2290	 2.82696071650111E-02 
2291	 3.11494013787618E-02 
2292	 3.72853173672754E-02 
2293	 3.12862572787451E-02 
2294	 2.52065960399472E-02 
2295	 2.56588324405063E-02 
2296	 1.94532721849207E-02 
2297	 1.42661436549194E-02 
2298	 1.62310593553555E-02 
2299	 7.01502129002665E-03 
2300	-5.84222822125211E-04 
2301	 3.06619050252817E-03 
2302	 7.69054480315723E-03 
2303	 0.024083539427013 
2304	 3.76875483005943E-02 
2305	 0.038586192242776 
2306	 3.44723646547628E-02 
2307	 0.026547988646422 
2308	 2.88082191629804E-02 
2309	 3.48680607523476E-02 
2310	 3.59391980659281E-02 
2311	 3.06821974081693E-02 
2312	 2.41791598895563E-02 
2313	 1.55516110552984E-02 
2314	 5.81407920974562E-03 
2315	 5.22179415419086E-03 
2316	 5.93133885810293E-03 
2317	 1.06886854873274E-02 
2318	 2.18401973288711E-02 
2319	 3.35808141908092E-02 
2320	 3.42843663788053E-02 
2321	 2.69504449019208E-02 
2322	 1.95740610421017E-02 
2323	 7.76324247290249E-03 
2324	 1.53106027024688E-02 
2325	 3.09981723898909E-02 
2326	 2.92218382770525E-02 
2327	 2.27165202658497E-02 
2328	 1.42948604595211E-02 
2329	-2.30653494191055E-04 
2330	 4.66955043782515E-03 
2331	 2.85325703836318E-02 
2332	 1.99761008337414E-02 
2333	-6.4209783975285E-03 
2334	-1.49706010649658E-02 
2335	-2.57794193564415E-02 
2336	-1.48825351635033E-02 
2337	 1.70635681001662E-02 
2338	 2.49134762050462E-02 
2339	 3.01580643555581E-02 
2340	 5.06376500836759E-02 
2341	 7.51748329931679E-02 
2342	 7.22133598504579E-02 
2343	 6.17441719897303E-02 
2344	 7.25427109547365E-02 
2345	 2.28724643290481E-02 
2346	-1.96053859588896E-02 
2347	-4.20025437462028E-03 
2348	-3.65865835811916E-02 
2349	-3.59128786591912E-02 
2350	-6.11544922187361E-03 
2351	 2.03104581917957E-03 
2352	 0.03082125987161 
2353	 1.48139486955665E-02 
2354	 0.015723154840998 
2355	 3.52239925553042E-02 
2356	 6.51305718559641E-03 
2357	 3.68305140541368E-04 
2358	 5.09471405168306E-04 
2359	-2.39484218510553E-02 
2360	-5.32101047120373E-02 
2361	-5.25522971928419E-02 
2362	-4.73159900141367E-02 
2363	-6.30286911781535E-02 
2364	-5.28758131241803E-02 
2365	-5.12250365106265E-02 
2366	-4.79817978041865E-02 
2367	-3.09852527684345E-02 
2368	-2.87776594096792E-02 
2369	-1.68168631757109E-02 
2370	-2.44955917101149E-02 
2371	 9.58203088383203E-03 
2372	 6.28469881319199E-02 
2373	 8.34398568447282E-02 
2374	 9.96292224800943E-02 
2375	 3.40777427265375E-02 
2376	-5.54337197731488E-02 
2377	-0.109656187967717 
2378	-0.159648442880855 
2379	-0.188695352012287 
2380	-0.223211567968225 
2381	-0.155623243231495 
2382	-0.155904766979106 
2383	-0.260064656075245 
2384	-0.215028676088534 
2385	-0.275407054327901 
2386	-0.356870734717157 
2387	-0.183632243890451 
2388	-0.119475299361377 
2389	-5.29547512762775E-02 
2390	-3.92685270102852E-02 
2391	-0.06475280108032 
2392	-8.19657200723189E-02 
2393	-8.86674742858822E-02 
2394	-2.41738541667926E-02 
2395	-2.75579408384988E-02 
2396	 8.50808033094902E-02 
2397	 0.151767577154931 
2398	 3.77061993596467E-02 
2399	 1.15284876754683E-02 
2400	-6.20230865000403E-02 
2401	-0.274551643405787 
2402	-0.345146007270033 
2403	-0.382455781287543 
2404	-0.348794624324204 
2405	-0.12977581412497 
2406	 4.75871745417704E-02 
2407	 0.206069015331739 
2408	 0.183755654683864 
2409	-7.89818730235186E-02 
2410	-0.328297580111808 
2411	-0.577313275462049 
2412	-0.380504226941733 
2413	 0.181930915928185 
2414	 9.36884075579276E-02 
2415	 0.14851466660859 
2416	 3.20518455680397E-04 
2417	-0.275952871181159 
2418	-0.120391856742136 
2419	 0.165479519752123 
2420	 0.185489146654077 
2421	 0.634097727643521 
2422	 0.656879716975705 
2423	-1.32134323258941E-02 
2424	-1.37845618365791 
2425	-2.07568556602332 
2426	-5.85952693817955 
2427	-2.29239153037135 
2428	-1.94545616299503 
2429	-1.26408255906556 
2430	-0.571218431364051 
2431	-0.180992722679076 
2432	 0.224236541682852 
2433	 0.436341622654483 
2434	 0.422339290954114 
2435	 0.775481785758579 
2436	 1.43381568065768 
2437	 147.000789844796 
2438	 0.226073784132687 
2439	 4.7474578214993 
2440	-83.5783217726269 
2441	-63.8710226714231 
2442	-2.83968836104866 
2443	-2.85823656243273 
2444	 24.0412269444745 
2445	 5.54791175939975 
2446	 1.15318155966141 
2447	-1.60448152190796E-02 
2448	-0.202673698018294 
2449	-0.148484348447128 
2450	-5.41616942043513E-02 
2451	 0.448053323736409 
2452	 0.542475821027452 
2453	 0.433793100730576 
2454	 0.250097212430217 
2455	 0.345152586128031 
2456	 0.382910733008272 
2457	 0.539727160882615 
2458	 0.574835370322663 
2459	 0.270109761259893 
2460	 0.446913786681816 
2461	 0.93770101223821 
2462	 1.19863753997368 
2463	 1.3182448123097 
2464	 1.2379054238676 
2465	 0.67898315776281 
2466	-0.202485785829693 
2467	-1.65696759866608 
2468	-2.82968803604886 
2469	-3.44569509493418 
2470	-2.12855038715277 
2471	-9.54092626754113 
2472	-6.16511371686731 
2473	-1.36106997799073 
2474	-6.47133344076315E-02 
2475	-0.131921878397658 
2476	-0.548322026152563 
2477	-2.1847160379557 
2478	-7.50843918426612 
2479	 1.38021776225352 
2480	 0.523772680226642 
2481	 0.544800240376579 
2482	 0.298612412754425 
2483	-0.027990815497571 
2484	-3.42112266375547E-02 
2485	-0.136264841188926 
2486	-0.489433805453909 
2487	-1.55620792241145 
2488	-1.52519732577058 
2489	-0.753042076036513 
2490	-0.550630808429867 
2491	-0.297740083594029 
2492	-0.349142690794221 
2493	-0.284507789493036 
2494	-8.43230079153829E-02 
2495	 1.93459535439732 
2496	-13.4471133441967 
2497	-1.89461624293182 
2498	-7.12711762766635 
2499	-5.31939477186884 
2500	-1.62184787106061 
