Wavelength	rt0713west_close_sunny_100000.asd
350	 4.22887681068947E-02 
351	 4.15614032088896E-02 
352	 4.16024153560858E-02 
353	 4.18901945552244E-02 
354	 4.18452107655547E-02 
355	 4.15772694696213E-02 
356	 4.12185413165311E-02 
357	 4.11172245266108E-02 
358	 4.14116955399415E-02 
359	 4.11493268124824E-02 
360	 0.041238273237239 
361	 4.15359290182317E-02 
362	 4.12424802950429E-02 
363	 0.040846623137184 
364	 4.08016217266097E-02 
365	 4.11644319568294E-02 
366	 4.14412003354047E-02 
367	 4.15263577404001E-02 
368	 4.13159200839082E-02 
369	 4.08883760104206E-02 
370	 4.08073041183146E-02 
371	 4.10321906490579E-02 
372	 4.12517305346952E-02 
373	 4.10948993504874E-02 
374	 4.11244767812256E-02 
375	 4.13058562748349E-02 
376	 4.14525567553381E-02 
377	 4.12788992787299E-02 
378	 4.11118429608274E-02 
379	 4.12091236974987E-02 
380	 4.16339829678922E-02 
381	 4.20156047896158E-02 
382	 4.19722209885088E-02 
383	 4.17702570859493E-02 
384	 4.19147669467856E-02 
385	 4.20525040774111E-02 
386	 4.22052176566003E-02 
387	 4.23992125677862E-02 
388	 4.26256039625522E-02 
389	 0.042490240338603 
390	 4.25317622639314E-02 
391	 4.30061782001269E-02 
392	 4.30896532917455E-02 
393	 4.30929543946246E-02 
394	 0.043187303514537 
395	 4.33989078628464E-02 
396	 0.04325682646616 
397	 4.33548327338461E-02 
398	 4.36409590189132E-02 
399	 4.35157656389926E-02 
400	 4.35460762273685E-02 
401	 4.37053083602155E-02 
402	 4.38879580784271E-02 
403	 4.40540801528816E-02 
404	 4.40620855038642E-02 
405	 4.40288965929198E-02 
406	 0.044126537099635 
407	 0.044217913644014 
408	 0.044335156100387 
409	 4.44345412030162E-02 
410	 4.44072102689797E-02 
411	 4.45777694968954E-02 
412	 4.48543392123055E-02 
413	 4.50598294073722E-02 
414	 0.044968810114235 
415	 4.50946636461553E-02 
416	 4.53833064282884E-02 
417	 4.55819908413643E-02 
418	 0.045824875035665 
419	 4.59980779511382E-02 
420	 4.61148447236363E-02 
421	 4.63332172818126E-02 
422	 4.65520971318989E-02 
423	 4.67942808670448E-02 
424	 4.70729638288616E-02 
425	 4.73100035618819E-02 
426	 4.75259061665469E-02 
427	 4.77835305334142E-02 
428	 4.81446993040005E-02 
429	 4.85336395600653E-02 
430	 0.048795632967884 
431	 4.89815761926834E-02 
432	 0.049378936673459 
433	 4.96505733132084E-02 
434	 4.99022347406667E-02 
435	 5.02534937830351E-02 
436	 5.05666591227711E-02 
437	 5.08942518021894E-02 
438	 5.12239294106761E-02 
439	 5.15134276983915E-02 
440	 5.17841931098762E-02 
441	 5.21240970787498E-02 
442	 5.25256805838466E-02 
443	 5.28372371647597E-02 
444	 5.30924142567079E-02 
445	 5.33525823839287E-02 
446	 5.36598416708629E-02 
447	 5.39550739485478E-02 
448	 5.41621990614873E-02 
449	 5.43439605200828E-02 
450	 0.05465056799747 
451	 5.49646487691273E-02 
452	 5.51947914046089E-02 
453	 5.53331399182836E-02 
454	 5.55226762962677E-02 
455	 0.055737338433731 
456	 5.59241899781978E-02 
457	 5.60473271461339E-02 
458	 0.056233845422676 
459	 5.64427938003443E-02 
460	 5.66202405623067E-02 
461	 5.67136892107395E-02 
462	 5.68163021744361E-02 
463	 5.69648385406502E-02 
464	 5.71606200742252E-02 
465	 5.73602779569579E-02 
466	 5.74597330752487E-02 
467	 5.75244389756741E-02 
468	 5.76892416296025E-02 
469	 5.78822886963738E-02 
470	 5.80488108306945E-02 
471	 0.058188151263806 
472	 5.83681965851743E-02 
473	 5.85331876814415E-02 
474	 5.87108166899029E-02 
475	 5.89319001964384E-02 
476	 5.91636395583965E-02 
477	 5.93920915690051E-02 
478	 5.96003744864962E-02 
479	 5.97798349976345E-02 
480	 6.00017108817728E-02 
481	 6.03130566504556E-02 
482	 6.06833200479052E-02 
483	 6.09384926364393E-02 
484	 6.11242633416486E-02 
485	 6.13629732462083E-02 
486	 6.17552455743314E-02 
487	 6.21092002133388E-02 
488	 6.24296033538819E-02 
489	 6.27289948780095E-02 
490	 0.063019164212147 
491	 6.33452257221262E-02 
492	 6.36801217362642E-02 
493	 6.40175084719856E-02 
494	 6.44637654132202E-02 
495	 0.064883430059946 
496	 6.52561504705728E-02 
497	 6.56244189413341E-02 
498	 0.066000061419532 
499	 6.63928629355762E-02 
500	 0.06681195516846 
501	 6.72686875094412E-02 
502	 6.76993088386134E-02 
503	 6.81161065360363E-02 
504	 6.85581329406365E-02 
505	 6.90684704649224E-02 
506	 6.95534847290735E-02 
507	 7.00104555636099E-02 
508	 7.05043848191915E-02 
509	 7.09318400194357E-02 
510	 7.13867163095247E-02 
511	 7.19272504498067E-02 
512	 7.24637161116338E-02 
513	 7.30208101026686E-02 
514	 7.35936176807628E-02 
515	 7.41749038793912E-02 
516	 7.48468360588277E-02 
517	 7.54959143669602E-02 
518	 7.60772960718364E-02 
519	 7.66548969935014E-02 
520	 7.72545750613664E-02 
521	 7.78250219688757E-02 
522	 0.078349993431924 
523	 7.89837335434848E-02 
524	 7.96397406821714E-02 
525	 8.02848624515388E-02 
526	 8.09263374334152E-02 
527	 8.15259653660751E-02 
528	 0.082130432652192 
529	 8.27585171921514E-02 
530	 8.33425702200914E-02 
531	 8.40404538468932E-02 
532	 8.47588755528555E-02 
533	 8.53524843949048E-02 
534	 8.60024194216685E-02 
535	 8.66282750888317E-02 
536	 8.72178167980513E-02 
537	 0.087848373226825 
538	 8.84746709398562E-02 
539	 8.91117810837227E-02 
540	 8.97779510464417E-02 
541	 9.04633100634822E-02 
542	 9.11293521225571E-02 
543	 9.17628034259375E-02 
544	 0.09237652261697 
545	 9.30387426716818E-02 
546	 9.36859005599409E-02 
547	 9.42879188705923E-02 
548	 9.49122532994511E-02 
549	 9.55462714338134E-02 
550	 9.61790554334629E-02 
551	 9.68031985035715E-02 
552	 9.74286457241868E-02 
553	 9.80584059492794E-02 
554	 9.86847852583658E-02 
555	 9.92856070847661E-02 
556	 9.98637802773078E-02 
557	 0.100444378724094 
558	 0.101034579155427 
559	 0.101587055099537 
560	 0.102132643006159 
561	 0.102640251873766 
562	 0.103057449192834 
563	 0.103497730744413 
564	 0.103951847309673 
565	 0.104372226381463 
566	 0.10466671452394 
567	 0.104975735810416 
568	 0.105306490080102 
569	 0.105626270796644 
570	 0.105996151160647 
571	 0.106302371069274 
572	 0.106503731584672 
573	 0.106648721394276 
574	 0.106843168597422 
575	 0.10706908320427 
576	 0.107275908122781 
577	 0.107429154775917 
578	 0.1075369077389 
579	 0.107628184518345 
580	 0.107728142582731 
581	 0.107689077202888 
582	 0.107596011241312 
583	 0.107510047824779 
584	 0.107399511377061 
585	 0.107210557836073 
586	 0.106946632146314 
587	 0.106632084047278 
588	 0.106276022132457 
589	 0.105954750800081 
590	 0.105729561480624 
591	 0.105601376592592 
592	 0.105277629869327 
593	 0.104875395822503 
594	 0.104507876681481 
595	 0.103975593832726 
596	 0.103347721073702 
597	 0.102648121294718 
598	 0.101896970333421 
599	 0.101248031811999 
600	 0.100687848522774 
601	 0.100211233505344 
602	 0.099867385512318 
603	 9.95937358034345E-02 
604	 9.94006550430193E-02 
605	 9.93152790888866E-02 
606	 0.099324405510528 
607	 9.92919864127469E-02 
608	 9.92280088223068E-02 
609	 9.92909652665141E-02 
610	 9.93211221194416E-02 
611	 9.92841908836209E-02 
612	 9.92061492062474E-02 
613	 9.92071345584741E-02 
614	 9.91707328357529E-02 
615	 9.91139700225718E-02 
616	 0.099118126743693 
617	 9.91152853417682E-02 
618	 9.90573083932377E-02 
619	 9.89604080809088E-02 
620	 9.89402092339868E-02 
621	 9.88982042573192E-02 
622	 9.88539304536686E-02 
623	 9.88381865961099E-02 
624	 9.87503923584125E-02 
625	 9.86546822895327E-02 
626	 9.85763703925706E-02 
627	 9.84988682715042E-02 
628	 9.84443774105735E-02 
629	 9.84228174863359E-02 
630	 9.84143303301266E-02 
631	 0.098322911822956 
632	 9.83036566042339E-02 
633	 9.83104305519382E-02 
634	 9.82225475483399E-02 
635	 9.81765740088817E-02 
636	 9.80680107780459E-02 
637	 9.78717648628896E-02 
638	 9.77009188273882E-02 
639	 9.75940349950992E-02 
640	 9.74858867501933E-02 
641	 9.72976321211127E-02 
642	 9.70386188958046E-02 
643	 9.67956964165134E-02 
644	 9.65467089684679E-02 
645	 9.61934510377254E-02 
646	 9.59290344567886E-02 
647	 9.57338631102865E-02 
648	 9.55580479051955E-02 
649	 9.53781114767697E-02 
650	 9.51830961957851E-02 
651	 9.49484140004649E-02 
652	 9.46539605207082E-02 
653	 9.42657099164217E-02 
654	 9.38414629132148E-02 
655	 9.33983587609486E-02 
656	 0.092946733891232 
657	 9.25104777228041E-02 
658	 9.20945743185939E-02 
659	 9.17090608374386E-02 
660	 9.14555997058007E-02 
661	 9.11616092418381E-02 
662	 9.08338566835936E-02 
663	 9.06004418128877E-02 
664	 9.05154582493478E-02 
665	 9.04224780821477E-02 
666	 9.02450714255376E-02 
667	 9.00999536302158E-02 
668	 8.99299617842219E-02 
669	 8.97940763028277E-02 
670	 8.97550705927525E-02 
671	 8.97068179527279E-02 
672	 8.96578967422935E-02 
673	 0.089622189126545 
674	 8.96130254049981E-02 
675	 8.96125837067896E-02 
676	 8.96490433108884E-02 
677	 8.97149766594858E-02 
678	 8.96826293827557E-02 
679	 8.97083748546809E-02 
680	 8.98238790562212E-02 
681	 8.99834770750475E-02 
682	 9.00547116539906E-02 
683	 9.01628646946872E-02 
684	 9.03053701275348E-02 
685	 9.02829972230398E-02 
686	 9.03590709027413E-02 
687	 9.04998312506587E-02 
688	 9.05924548543012E-02 
689	 0.09069232663156 
690	 9.06477472119979E-02 
691	 9.04670667319984E-02 
692	 9.02588430916844E-02 
693	 9.01059992002879E-02 
694	 8.99516327756741E-02 
695	 8.97455623295105E-02 
696	 0.089475168692173 
697	 0.089023221785444 
698	 8.84619825236965E-02 
699	 8.79309949549569E-02 
700	 8.73393170693407E-02 
701	 0.086753681475105 
702	 8.61619224850203E-02 
703	 8.54643789765908E-02 
704	 8.46088393023013E-02 
705	 8.37366819330905E-02 
706	 8.29117330487927E-02 
707	 8.19022458145267E-02 
708	 0.080739795421823 
709	 7.95041881464927E-02 
710	 7.82554533249627E-02 
711	 7.67884884092948E-02 
712	 7.51975433054941E-02 
713	 7.35400725289349E-02 
714	 7.17671138480583E-02 
715	 6.99446890242272E-02 
716	 6.79761859792564E-02 
717	 6.59524953165776E-02 
718	 6.39127031830984E-02 
719	 6.20843461332646E-02 
720	 6.05672332824133E-02 
721	 5.90166838541076E-02 
722	 5.73669100271975E-02 
723	 5.54206903820609E-02 
724	 5.34312224664568E-02 
725	 5.16095330896408E-02 
726	 4.96872498260683E-02 
727	 4.75936190766158E-02 
728	 4.53918347011555E-02 
729	 4.32898772849164E-02 
730	 4.11632530806533E-02 
731	 0.039261271488388 
732	 3.77390212223643E-02 
733	 3.62121729304133E-02 
734	 3.48592503025947E-02 
735	 3.38331580767721E-02 
736	 3.31698417356757E-02 
737	 0.032642584939979 
738	 3.21841518598978E-02 
739	 3.18022989553637E-02 
740	 3.15445694745541E-02 
741	 3.14478074517378E-02 
742	 3.14091204201856E-02 
743	 3.12774827346629E-02 
744	 3.11658957502633E-02 
745	 0.031063930414606 
746	 3.09769014814305E-02 
747	 0.030944075388916 
748	 3.09769967668872E-02 
749	 3.09624929602874E-02 
750	 3.08327742517057E-02 
751	 3.07620738156054E-02 
752	 3.07332413037556E-02 
753	 0.030745739517251 
754	 3.07932168567591E-02 
755	 3.07939139552697E-02 
756	 3.06852405493266E-02 
757	 3.04971316084826E-02 
758	 3.03679552122386E-02 
759	 0.03025467925022 
760	 3.00942851300702E-02 
761	 2.99633900605297E-02 
762	 3.01231628239469E-02 
763	 3.02416446736363E-02 
764	 3.03884953022966E-02 
765	 3.06770983075364E-02 
766	 3.07664996356242E-02 
767	 3.08799743837285E-02 
768	 3.10946785900603E-02 
769	 3.13369818781072E-02 
770	 3.13988293178503E-02 
771	 3.14681165083786E-02 
772	 3.16763582719957E-02 
773	 3.17647041892475E-02 
774	 0.031912915481127 
775	 3.21095315886556E-02 
776	 0.032271794913336 
777	 3.24039490162649E-02 
778	 3.26291998406396E-02 
779	 3.29221911386913E-02 
780	 3.31115146522005E-02 
781	 3.33009636341802E-02 
782	 0.033510496000775 
783	 3.37457806238916E-02 
784	 3.40203821731464E-02 
785	 0.034255609245284 
786	 3.44652803225435E-02 
787	 0.034696414325361 
788	 3.49553336939037E-02 
789	 3.53022046373946E-02 
790	 3.57096764901976E-02 
791	 3.60864264082077E-02 
792	 3.64282015070894E-02 
793	 3.67556345544931E-02 
794	 3.71017097484215E-02 
795	 3.74996075562175E-02 
796	 3.78013980222986E-02 
797	 3.80263114941208E-02 
798	 3.82570053526878E-02 
799	 3.85690317415189E-02 
800	 3.88322342000088E-02 
801	 3.90093867941818E-02 
802	 3.91476044821874E-02 
803	 3.94062065129417E-02 
804	 3.96003715465786E-02 
805	 3.96880973231951E-02 
806	 3.98082119888984E-02 
807	 3.98325491415145E-02 
808	 3.97313583123875E-02 
809	 3.95162399313616E-02 
810	 0.039233997755642 
811	 3.90795788901637E-02 
812	 3.89073151600587E-02 
813	 3.84632809435377E-02 
814	 3.79388561998276E-02 
815	 3.75717694880551E-02 
816	 3.72680485940888E-02 
817	 3.67156627224994E-02 
818	 3.63259186094366E-02 
819	 3.59656241597849E-02 
820	 3.54137915694451E-02 
821	 0.034415767668032 
822	 3.34809993682443E-02 
823	 3.25447536623298E-02 
824	 0.031539306359224 
825	 0.030720461546371 
826	 2.95415293497015E-02 
827	 2.80895276689714E-02 
828	 2.68021438368333E-02 
829	 2.57951476642279E-02 
830	 2.49448569085299E-02 
831	 2.41953580849441E-02 
832	 2.35611190855998E-02 
833	 0.022784468997547 
834	 2.23423201476324E-02 
835	 2.22646727309198E-02 
836	 2.19394877891035E-02 
837	 2.16203448291185E-02 
838	 2.13110492248702E-02 
839	 2.10638135642604E-02 
840	 2.12302401889453E-02 
841	 2.09756455343338E-02 
842	 2.05942960197782E-02 
843	 2.05965992327803E-02 
844	 2.03301025095812E-02 
845	 2.01765046540977E-02 
846	 2.01191161956569E-02 
847	 1.98959827098879E-02 
848	 1.98820396598965E-02 
849	 1.97387749691542E-02 
850	 1.94377360694466E-02 
851	 1.94165654051285E-02 
852	 1.93991198779955E-02 
853	 1.93285102323878E-02 
854	 1.92005241247355E-02 
855	 1.90254673404045E-02 
856	 1.88600311646019E-02 
857	 1.87537225482366E-02 
858	 1.87107695359983E-02 
859	 1.86220460396636E-02 
860	 1.83813699306494E-02 
861	 1.81952944847677E-02 
862	 0.018303715598246 
863	 1.81279169641819E-02 
864	 1.80190337986458E-02 
865	 0.01797708119983 
866	 1.76845326374136E-02 
867	 1.75822082830762E-02 
868	 1.74735430085647E-02 
869	 1.72963663344341E-02 
870	 1.72668441349635E-02 
871	 0.017137398258401 
872	 1.69583415415134E-02 
873	 1.68208823198683E-02 
874	 1.67590982023439E-02 
875	 1.66573004387058E-02 
876	 1.65857872525588E-02 
877	 1.65843353906194E-02 
878	 1.63744378448571E-02 
879	 1.60996421357679E-02 
880	 1.58532998497459E-02 
881	 1.56965848716412E-02 
882	 0.015669749543275 
883	 1.56246340163378E-02 
884	 1.54980770142917E-02 
885	 1.53379097551729E-02 
886	 1.54640529018218E-02 
887	 0.015356066462586 
888	 1.49308603774432E-02 
889	 0.014692012153919 
890	 1.46826126616655E-02 
891	 1.45086499920315E-02 
892	 1.41432988955069E-02 
893	 1.44239925955919E-02 
894	 1.40492424481357E-02 
895	 1.36132400098177E-02 
896	 1.38809377921407E-02 
897	 1.41319079518942E-02 
898	 1.41936478344207E-02 
899	 0.013893798162791 
900	 1.33271864793172E-02 
901	 1.31038673456067E-02 
902	 1.34047072321542E-02 
903	 1.35352517631481E-02 
904	 1.28625847238878E-02 
905	 1.26608852866327E-02 
906	 1.26959762753001E-02 
907	 1.28947492352752E-02 
908	 1.31747133324484E-02 
909	 1.25299746017712E-02 
910	 0.01201265377932 
911	 1.20392593273349E-02 
912	 0.012206026433619 
913	 1.23710488857831E-02 
914	 1.22244414853801E-02 
915	 1.19217510340013E-02 
916	 1.20153101714861E-02 
917	 1.13171359170273E-02 
918	 0.010849146424039 
919	 0.011048413677477 
920	 1.12298082955861E-02 
921	 1.17417604673276E-02 
922	 1.17567342736506E-02 
923	 1.10527982228085E-02 
924	 1.11207829464302E-02 
925	 1.12329928353591E-02 
926	 1.10759425603494E-02 
927	 1.05315527509931E-02 
928	 9.84375571687895E-03 
929	 9.93262705104655E-03 
930	 1.08126006717879E-02 
931	 1.18537829214214E-02 
932	 1.34648100543506E-02 
933	 1.35928421509381E-02 
934	 1.13711867490189E-02 
935	 8.26339331312558E-03 
936	 7.14085567438491E-03 
937	 7.95389830381656E-03 
938	 8.1114475369569E-03 
939	 6.16352173109743E-03 
940	 6.49032048136555E-03 
941	 9.0660856980866E-03 
942	 0.012054905816675 
943	 1.26893320691933E-02 
944	 9.94863833442656E-03 
945	 6.15737269735598E-03 
946	 5.47739889397111E-03 
947	 1.00323503799396E-02 
948	 9.66626807619096E-03 
949	 8.79865861086529E-03 
950	 7.97507402052984E-03 
951	 5.80107432704301E-03 
952	 7.86721309118605E-03 
953	 1.00528000731106E-02 
954	 9.50426989901752E-03 
955	 6.20802072022566E-03 
956	 7.12685362407227E-03 
957	 8.92090014671567E-03 
958	 9.51028974312101E-03 
959	 8.73543316728302E-03 
960	 7.55293399494551E-03 
961	 7.45560916857455E-03 
962	 8.96817726024234E-03 
963	 1.12554122673889E-02 
964	 0.010105723335788 
965	 9.12731024366922E-03 
966	 8.76023109123648E-03 
967	 7.22522451834046E-03 
968	 7.05107165003858E-03 
969	 7.81570663975944E-03 
970	 8.84105203155683E-03 
971	 9.42932550450734E-03 
972	 8.08543974383569E-03 
973	 8.53038658497302E-03 
974	 1.03924901122056E-02 
975	 9.50758513059947E-03 
976	 9.76343479478382E-03 
977	 9.34594829737616E-03 
978	 8.44575109545244E-03 
979	 8.95404587147717E-03 
980	 8.03933025303695E-03 
981	 7.29434247465448E-03 
982	 7.9658280220972E-03 
983	 1.00715018044459E-02 
984	 1.02501103616754E-02 
985	 9.50369309842108E-03 
986	 9.33753095839347E-03 
987	 1.05557038470928E-02 
988	 9.18430983040232E-03 
989	 8.90249427121233E-03 
990	 9.78686938525168E-03 
991	 9.28605393952956E-03 
992	 1.04427012274114E-02 
993	 9.97291996518934E-03 
994	 9.14994951168478E-03 
995	 1.12400262104426E-02 
996	 9.38924662998471E-03 
997	 8.80377199768484E-03 
998	 0.010121894034632 
999	 1.06772812071433E-02 
1000	 1.03055031407247E-02 
1001	 8.20966062140111E-03 
1002	 8.3597507849449E-03 
1003	 8.50443852456829E-03 
1004	 8.46149776579632E-03 
1005	 8.55531190230188E-03 
1006	 8.81829872353929E-03 
1007	 9.17356434149995E-03 
1008	 9.26353843511641E-03 
1009	 9.4670150738053E-03 
1010	 9.65544038676494E-03 
1011	 9.31317437001006E-03 
1012	 8.95355068186177E-03 
1013	 8.88702485922041E-03 
1014	 8.78497828439339E-03 
1015	 8.68926398039604E-03 
1016	 8.71897414740483E-03 
1017	 8.9632626556403E-03 
1018	 8.91757801420115E-03 
1019	 8.66027559613427E-03 
1020	 8.61611078389589E-03 
1021	 8.63534574546814E-03 
1022	 8.48371396539608E-03 
1023	 8.70858133391023E-03 
1024	 8.8063988328933E-03 
1025	 8.44837244254705E-03 
1026	 8.45238773606942E-03 
1027	 8.57352795343537E-03 
1028	 8.78265548567709E-03 
1029	 8.94549357006382E-03 
1030	 9.39659334546759E-03 
1031	 9.49825558176446E-03 
1032	 9.36761689589267E-03 
1033	 9.25166564646571E-03 
1034	 9.06630008403835E-03 
1035	 8.89144998733239E-03 
1036	 8.33923193143304E-03 
1037	 8.34434732438813E-03 
1038	 8.68350303128345E-03 
1039	 9.03094166674024E-03 
1040	 9.5768605631725E-03 
1041	 9.88123018112467E-03 
1042	 9.87563937858063E-03 
1043	 9.35733835528224E-03 
1044	 9.24515213606906E-03 
1045	 9.03589753124399E-03 
1046	 9.06547392304548E-03 
1047	 9.45675131308903E-03 
1048	 9.46600408920604E-03 
1049	 9.34244516078423E-03 
1050	 9.3316285578216E-03 
1051	 9.0990041222023E-03 
1052	 9.08766729082649E-03 
1053	 9.42017915535982E-03 
1054	 9.51788267210537E-03 
1055	 9.54420020687798E-03 
1056	 9.55859339849139E-03 
1057	 9.52597501196596E-03 
1058	 9.37359985854087E-03 
1059	 9.30982671107197E-03 
1060	 9.24412409743106E-03 
1061	 9.24343665241162E-03 
1062	 9.28579995929071E-03 
1063	 9.29892715546977E-03 
1064	 9.32884303881944E-03 
1065	 9.39749749489428E-03 
1066	 9.45778847171109E-03 
1067	 9.53696181941717E-03 
1068	 9.74353401509872E-03 
1069	 9.83006279886551E-03 
1070	 9.9557263979393E-03 
1071	 9.89105369077715E-03 
1072	 9.62188391065145E-03 
1073	 9.33420693901808E-03 
1074	 9.22705674885448E-03 
1075	 9.05346786598478E-03 
1076	 9.06791550030066E-03 
1077	 9.3408904835959E-03 
1078	 9.47670644902151E-03 
1079	 9.65621220443664E-03 
1080	 9.66834001097027E-03 
1081	 9.70702230083374E-03 
1082	 9.56521219742625E-03 
1083	 8.98854360028962E-03 
1084	 8.84795170912121E-03 
1085	 8.86290242401501E-03 
1086	 8.85848661314245E-03 
1087	 9.25192027840889E-03 
1088	 9.34732767340829E-03 
1089	 9.28626201115707E-03 
1090	 8.98777708939528E-03 
1091	 8.89400349124978E-03 
1092	 8.80749385716585E-03 
1093	 8.60204801419406E-03 
1094	 8.33484243480441E-03 
1095	 8.32115774280098E-03 
1096	 8.17536611438808E-03 
1097	 8.27991385703046E-03 
1098	 9.22672902057483E-03 
1099	 9.16408817156357E-03 
1100	 8.2949989214133E-03 
1101	 8.0649369867901E-03 
1102	 7.44734179818816E-03 
1103	 7.23199713857752E-03 
1104	 7.9363801462074E-03 
1105	 8.2064294964815E-03 
1106	 8.14142705460459E-03 
1107	 7.69879311323176E-03 
1108	 7.43207844444128E-03 
1109	 8.00673924178228E-03 
1110	 8.08583161346269E-03 
1111	 8.39484887958853E-03 
1112	 8.66827600618604E-03 
1113	 8.77387999203849E-03 
1114	 8.50474454480829E-03 
1115	 7.98358317709725E-03 
1116	 8.01623507117266E-03 
1117	 7.58372347934592E-03 
1118	 7.08417315325279E-03 
1119	 7.62196581207858E-03 
1120	 8.39418104639138E-03 
1121	 8.44224890290805E-03 
1122	 9.80003185175015E-03 
1123	 1.17544548434261E-02 
1124	 1.07961354119882E-02 
1125	 7.96139891304284E-03 
1126	 2.92599344595227E-03 
1127	 6.15667628121947E-04 
1128	 4.57826753547559E-03 
1129	 5.63200369183123E-03 
1130	 8.02959049504585E-03 
1131	 7.67282525089142E-03 
1132	 4.88892036917811E-03 
1133	 4.79558699935147E-03 
1134	 5.49843763898207E-03 
1135	 5.56185536024991E-03 
1136	 5.53304074116894E-03 
1137	 6.23706662645416E-03 
1138	 6.43279445017885E-03 
1139	 8.80633064335981E-03 
1140	 8.94953494483342E-03 
1141	 6.92740108922199E-03 
1142	 6.19946691146605E-03 
1143	 4.00287083484672E-03 
1144	 2.21555541257591E-03 
1145	 6.07909338768206E-03 
1146	 8.35734738125548E-03 
1147	 5.93322132668647E-03 
1148	 6.49306700276276E-03 
1149	 7.43417184601793E-03 
1150	 6.91663495596053E-03 
1151	 5.58559159803087E-03 
1152	 5.88773379741852E-03 
1153	 5.89295165294393E-03 
1154	 5.94633025209937E-03 
1155	 0.006354434416469 
1156	 7.28638538291765E-03 
1157	 7.94735290388361E-03 
1158	 7.77183024646874E-03 
1159	 7.0404166268398E-03 
1160	 7.0557464456231E-03 
1161	 7.07383301854082E-03 
1162	 6.89219858700455E-03 
1163	 7.59959350117812E-03 
1164	 7.97540407957696E-03 
1165	 7.57396684596019E-03 
1166	 7.50425105494139E-03 
1167	 7.42851732244032E-03 
1168	 7.09066463779867E-03 
1169	 7.17406482102064E-03 
1170	 7.39500880538812E-03 
1171	 7.29269793266559E-03 
1172	 6.91139024049224E-03 
1173	 6.96151513628742E-03 
1174	 7.03905521859534E-03 
1175	 7.06802968979174E-03 
1176	 7.53256811575562E-03 
1177	 7.67785175116012E-03 
1178	 7.2526068495286E-03 
1179	 7.08879081534648E-03 
1180	 7.0536867729764E-03 
1181	 7.04473157424203E-03 
1182	 7.50502364898373E-03 
1183	 7.74416907760736E-03 
1184	 7.49673432014474E-03 
1185	 7.60712881111107E-03 
1186	 7.7336851798094E-03 
1187	 7.53250170439655E-03 
1188	 7.67565665696456E-03 
1189	 7.87145350274101E-03 
1190	 7.63071397969244E-03 
1191	 7.56640615796231E-03 
1192	 7.58699259271386E-03 
1193	 7.58990581472259E-03 
1194	 7.41295173209659E-03 
1195	 7.53817846552567E-03 
1196	 7.7923096836521E-03 
1197	 7.79817105254628E-03 
1198	 7.51679357060602E-03 
1199	 7.42284500763812E-03 
1200	 7.46480514341949E-03 
1201	 7.30625019616747E-03 
1202	 7.34921498138623E-03 
1203	 7.53160554853304E-03 
1204	 7.54167266090903E-03 
1205	 7.52373587156094E-03 
1206	 7.66041189030695E-03 
1207	 7.81989418024293E-03 
1208	 7.7051117576845E-03 
1209	 7.53205298222715E-03 
1210	 7.63143800190694E-03 
1211	 7.76651466020829E-03 
1212	 7.69681612989968E-03 
1213	 7.65171029449593E-03 
1214	 7.67222246702658E-03 
1215	 7.63951300410443E-03 
1216	 7.49545680976716E-03 
1217	 7.59229602027694E-03 
1218	 7.7338569377832E-03 
1219	 7.67133497387869E-03 
1220	 7.62396474512215E-03 
1221	 7.68185371345209E-03 
1222	 7.78974727374474E-03 
1223	 7.80886190978765E-03 
1224	 7.80761219425141E-03 
1225	 7.83532709894447E-03 
1226	 7.7506053280977E-03 
1227	 7.57322629548694E-03 
1228	 7.46256518318423E-03 
1229	 7.45439750747091E-03 
1230	 7.57826073112539E-03 
1231	 7.90997088878374E-03 
1232	 8.07930883686694E-03 
1233	 7.80944999747618E-03 
1234	 7.64992775062524E-03 
1235	 7.64421710387595E-03 
1236	 7.67869309443896E-03 
1237	 7.64615387547415E-03 
1238	 7.78863659965678E-03 
1239	 7.86794739072218E-03 
1240	 7.68740925173976E-03 
1241	 7.56637107670043E-03 
1242	 7.60793868640269E-03 
1243	 7.55189388258282E-03 
1244	 7.47650726501006E-03 
1245	 7.73568243014601E-03 
1246	 8.0772890008071E-03 
1247	 8.12458276260912E-03 
1248	 7.95455935341416E-03 
1249	 7.84742068737533E-03 
1250	 7.68684528908841E-03 
1251	 7.45778716163129E-03 
1252	 7.52096362146762E-03 
1253	 7.60500802539956E-03 
1254	 7.47622341468408E-03 
1255	 7.59998420973611E-03 
1256	 7.67768293992215E-03 
1257	 7.69099050670921E-03 
1258	 7.64053574312958E-03 
1259	 7.6332032804869E-03 
1260	 7.64090784083622E-03 
1261	 7.63771931602324E-03 
1262	 7.59767996064662E-03 
1263	 7.56140268764184E-03 
1264	 7.5218152320922E-03 
1265	 7.5114842338373E-03 
1266	 7.46862362596845E-03 
1267	 7.59305589659476E-03 
1268	 7.70846222064197E-03 
1269	 7.71895810479078E-03 
1270	 7.75134074696379E-03 
1271	 7.52273306084678E-03 
1272	 7.24857337433958E-03 
1273	 7.37028517317889E-03 
1274	 7.50354761564234E-03 
1275	 7.40432408768855E-03 
1276	 7.48368471295072E-03 
1277	 7.69615517279225E-03 
1278	 7.57638173652343E-03 
1279	 7.45119639648156E-03 
1280	 7.62008416146441E-03 
1281	 7.70971416366583E-03 
1282	 7.48604713076289E-03 
1283	 0.007448976280831 
1284	 7.71980514418676E-03 
1285	 7.75953237602466E-03 
1286	 7.54870556731859E-03 
1287	 7.49069385390967E-03 
1288	 7.51538203975127E-03 
1289	 7.57933175235626E-03 
1290	 7.72440881323453E-03 
1291	 7.75214327564356E-03 
1292	 7.56860960209409E-03 
1293	 7.6046159487001E-03 
1294	 7.77097710582525E-03 
1295	 7.58187124272107E-03 
1296	 7.45385239998802E-03 
1297	 7.55959375528295E-03 
1298	 7.59190526671478E-03 
1299	 7.4652604115415E-03 
1300	 7.31625328905031E-03 
1301	 7.51435428681841E-03 
1302	 7.54063629132431E-03 
1303	 7.03871033484347E-03 
1304	 6.84423172831754E-03 
1305	 6.93340846528401E-03 
1306	 6.90641589562999E-03 
1307	 6.75181765509309E-03 
1308	 6.67075571502612E-03 
1309	 6.73430361439594E-03 
1310	 6.73964961605631E-03 
1311	 6.56640726993973E-03 
1312	 6.47053252291408E-03 
1313	 6.55999869928063E-03 
1314	 6.67726795463177E-03 
1315	 6.74458556257567E-03 
1316	 6.70104969847688E-03 
1317	 6.85326962327569E-03 
1318	 6.7944591276977E-03 
1319	 6.1095813382599E-03 
1320	 6.05802336094834E-03 
1321	 6.69562770971944E-03 
1322	 6.76104275761007E-03 
1323	 6.43669089105441E-03 
1324	 0.006548777910837 
1325	 0.006597636662927 
1326	 6.52507168706466E-03 
1327	 6.65049558050998E-03 
1328	 6.54865469652148E-03 
1329	 6.4006126227792E-03 
1330	 6.46256476550987E-03 
1331	 6.20035309601619E-03 
1332	 6.05841097183187E-03 
1333	 6.47849708249246E-03 
1334	 6.46714757356227E-03 
1335	 6.62823658220929E-03 
1336	 7.77626962485159E-03 
1337	 7.87179471776654E-03 
1338	 6.6533926849888E-03 
1339	 6.43604800132603E-03 
1340	 6.4825133952826E-03 
1341	 6.49265074278566E-03 
1342	 6.99960572052645E-03 
1343	 7.49879345437041E-03 
1344	 8.29835051428371E-03 
1345	 8.24494805128246E-03 
1346	 7.46369265907228E-03 
1347	 7.14103446493517E-03 
1348	 5.26751992746126E-03 
1349	 3.66538704242965E-03 
1350	 3.81689435414642E-03 
1351	 5.11754035240862E-03 
1352	 8.83286729343997E-03 
1353	 1.11538093013771E-02 
1354	 1.87134114245876E-02 
1355	 2.64020361105606E-02 
1356	 3.88513899326625E-03 
1357	-2.90198717479089E-02 
1358	-2.19930478715777E-02 
1359	 1.35708858248067E-02 
1360	 7.41627111366742E-02 
1361	 0.132432970356826 
1362	 0.141691292915505 
1363	 0.223802253318162 
1364	 0.304072134706281 
1365	 0.259891030460216 
1366	 0.255281290111795 
1367	 0.233879530138303 
1368	 0.22895697793475 
1369	 0.363014521914935 
1370	 0.41611751795982 
1371	 0.392152159114207 
1372	 0.275449504687254 
1373	-0.337886255545267 
1374	-0.548520484136303 
1375	-4.60622710394225E-02 
1376	 7.02197999009071E-02 
1377	 1.32802540311029 
1378	 1.01385747454453 
1379	-3.01356291180198E-02 
1380	-0.105724022021209 
1381	-7.59254479750268E-02 
1382	-0.207232098193017 
1383	-0.561170588339948 
1384	-0.640892767643382 
1385	-0.342127249487931 
1386	-0.301455717911696 
1387	-0.101386710529633 
1388	 0.131352810203482 
1389	 7.5546115440695E-03 
1390	 1.18694438427193E-02 
1391	 0.281304269096035 
1392	 0.97946355101453 
1393	 0.702414637853832 
1394	 0.103901807559881 
1395	 0.402407812149171 
1396	 0.307602899083437 
1397	-0.162459325989792 
1398	-2.36125700605812E-02 
1399	-0.155013784246545 
1400	-0.341996548665073 
1401	-0.108986191783086 
1402	 1.69354038154816E-02 
1403	 9.76413625870219E-02 
1404	 1.65082446988872E-02 
1405	-1.57671194095075E-02 
1406	-8.51544992186542E-02 
1407	-6.67874926420007E-03 
1408	 8.68627023136063E-02 
1409	 0.103670589177669 
1410	 0.116477164396201 
1411	 0.17205492550081 
1412	 0.260592925754881 
1413	 0.21105969906204 
1414	 7.34284928604819E-02 
1415	 8.35305094908347E-02 
1416	 9.68430670868544E-02 
1417	 5.60839214249388E-02 
1418	 6.27470255608416E-02 
1419	 7.26562261955879E-02 
1420	 6.09601663442035E-02 
1421	 3.35091539878821E-02 
1422	 3.48394584982419E-02 
1423	 2.42400238029376E-02 
1424	-3.78469384748329E-02 
1425	-4.14744735616787E-02 
1426	-2.37658511377936E-03 
1427	 8.53486725882918E-03 
1428	 2.24923643726996E-02 
1429	 2.40939538529735E-02 
1430	 1.42733980680001E-02 
1431	 8.17322018818551E-03 
1432	-1.23965218174258E-02 
1433	-1.16303244606397E-02 
1434	 4.4825997871184E-03 
1435	 1.07209734668469E-02 
1436	 0.021106059809114 
1437	 4.47003139861336E-02 
1438	 2.36815199321039E-02 
1439	 1.77196228962675E-03 
1440	-7.56350739299473E-04 
1441	 2.81524177497729E-03 
1442	 1.41732703577412E-02 
1443	 1.95763661013183E-02 
1444	 0.015653720418182 
1445	 5.50368747009398E-03 
1446	-1.43670662544665E-03 
1447	 3.09286285379385E-04 
1448	 4.45000945398345E-03 
1449	 5.05633099634916E-03 
1450	 4.84989767915473E-03 
1451	 5.76826712208738E-03 
1452	 4.61471111724856E-03 
1453	 4.57839993274198E-03 
1454	 5.10961052734127E-03 
1455	 7.29934054773562E-03 
1456	 7.15064952771808E-03 
1457	 5.68672076494828E-03 
1458	 6.14130460124396E-03 
1459	 6.54141780553728E-03 
1460	 7.28982007326559E-03 
1461	 1.02085152173848E-02 
1462	 1.03147452134117E-02 
1463	 9.18270729879631E-03 
1464	 7.85524442800385E-03 
1465	 3.03654770530721E-03 
1466	 3.15171529740019E-03 
1467	 7.36726649773569E-03 
1468	 7.3159252967016E-03 
1469	 7.87573242960246E-03 
1470	 8.07455835409169E-03 
1471	 4.12031821842527E-03 
1472	 3.6549284894554E-03 
1473	 6.54516815341821E-03 
1474	 7.78366596618168E-03 
1475	 9.01011287759096E-03 
1476	 8.56274304730105E-03 
1477	 7.42656279316845E-03 
1478	 6.95655890344793E-03 
1479	 5.01003055101665E-03 
1480	 4.70970998415538E-03 
1481	 6.40469413487257E-03 
1482	 6.4324342245638E-03 
1483	 5.41628286748639E-03 
1484	 5.7244043890534E-03 
1485	 6.50185407653341E-03 
1486	 6.3320274399674E-03 
1487	 6.2549317942022E-03 
1488	 6.5106023646903E-03 
1489	 6.39655236273824E-03 
1490	 6.13411448549846E-03 
1491	 6.1041431169697E-03 
1492	 6.28969077404404E-03 
1493	 6.33669126482144E-03 
1494	 6.26091165738747E-03 
1495	 6.34139295371767E-03 
1496	 6.43964308654252E-03 
1497	 6.34988302996182E-03 
1498	 6.33494063132267E-03 
1499	 6.61706379693812E-03 
1500	 6.66424800779329E-03 
1501	 6.34031598995638E-03 
1502	 6.31706586190716E-03 
1503	 6.52675666127097E-03 
1504	 6.57296209643051E-03 
1505	 6.59972424003104E-03 
1506	 6.64836965370725E-03 
1507	 6.77860799574323E-03 
1508	 6.91726757581371E-03 
1509	 6.98796890843336E-03 
1510	 7.04627566045088E-03 
1511	 7.15147882953374E-03 
1512	 7.13490660937616E-03 
1513	 6.82880028918885E-03 
1514	 6.6954736600616E-03 
1515	 6.76007674387142E-03 
1516	 6.79693382893911E-03 
1517	 7.01752646529903E-03 
1518	 7.18761791055946E-03 
1519	 7.00984765362681E-03 
1520	 6.74504896748039E-03 
1521	 6.74037509441555E-03 
1522	 6.92587388455933E-03 
1523	 7.07591644773231E-03 
1524	 7.08103764949499E-03 
1525	 6.88168353923725E-03 
1526	 6.74223537037766E-03 
1527	 6.91665275447372E-03 
1528	 7.05065781526371E-03 
1529	 6.89148997725762E-03 
1530	 6.96589624876783E-03 
1531	 7.32388059718147E-03 
1532	 7.20368928812379E-03 
1533	 7.01549464242715E-03 
1534	 7.2506905452255E-03 
1535	 7.16537402151766E-03 
1536	 6.89568329093584E-03 
1537	 6.96946432270277E-03 
1538	 7.1039756361947E-03 
1539	 7.07330275855988E-03 
1540	 7.05675989854523E-03 
1541	 7.20662090862101E-03 
1542	 7.25328314517648E-03 
1543	 7.2304195107057E-03 
1544	 7.39878551467761E-03 
1545	 7.50065234525119E-03 
1546	 7.32220206112401E-03 
1547	 7.02097571284941E-03 
1548	 6.88679840032633E-03 
1549	 7.09688810249556E-03 
1550	 7.30102735423245E-03 
1551	 7.21049418235847E-03 
1552	 7.12807362053713E-03 
1553	 7.11337476113464E-03 
1554	 7.1472389692411E-03 
1555	 7.28906246575877E-03 
1556	 7.36471388726049E-03 
1557	 7.42932438376315E-03 
1558	 7.43921032427948E-03 
1559	 7.36168670313076E-03 
1560	 7.45134522985999E-03 
1561	 7.58661357380885E-03 
1562	 7.41179659807159E-03 
1563	 7.18688305888211E-03 
1564	 7.23617512181696E-03 
1565	 7.07024724339172E-03 
1566	 6.8654942722687E-03 
1567	 7.18769225537503E-03 
1568	 7.3298572435246E-03 
1569	 7.11785128090456E-03 
1570	 7.11813305009173E-03 
1571	 7.04406310128212E-03 
1572	 6.89162506991922E-03 
1573	 7.1103821280984E-03 
1574	 7.36671072922556E-03 
1575	 7.28620794847576E-03 
1576	 7.16769947775456E-03 
1577	 7.06518131727636E-03 
1578	 7.00800363061919E-03 
1579	 7.15048388266086E-03 
1580	 7.19722351268818E-03 
1581	 7.15297621750888E-03 
1582	 7.08438140981977E-03 
1583	 6.96120759355782E-03 
1584	 6.99454547118748E-03 
1585	 7.10465856274432E-03 
1586	 7.20016248504468E-03 
1587	 7.18188486200332E-03 
1588	 7.19952970955289E-03 
1589	 7.40090043362525E-03 
1590	 7.36467307266863E-03 
1591	 7.15111635145801E-03 
1592	 7.03109626889895E-03 
1593	 7.01977517769419E-03 
1594	 7.10475692099092E-03 
1595	 7.04583641678472E-03 
1596	 6.9652452077158E-03 
1597	 0.006916813554218 
1598	 6.75380129012607E-03 
1599	 6.93060190773555E-03 
1600	 7.41311959831821E-03 
1601	 7.49941627923525E-03 
1602	 7.24205277958183E-03 
1603	 7.16329966733107E-03 
1604	 7.15588193600739E-03 
1605	 7.02983877439063E-03 
1606	 7.08142782147504E-03 
1607	 7.1807415187452E-03 
1608	 7.07341905413143E-03 
1609	 7.14885668576375E-03 
1610	 7.27732884221579E-03 
1611	 7.13471546448853E-03 
1612	 7.03039645737395E-03 
1613	 7.08987245097202E-03 
1614	 7.13351601198232E-03 
1615	 7.1271782585721E-03 
1616	 7.27324844066879E-03 
1617	 7.35068574680735E-03 
1618	 7.12167910052547E-03 
1619	 7.01425514732044E-03 
1620	 6.98507320133218E-03 
1621	 6.75573913844788E-03 
1622	 6.91202238307881E-03 
1623	 7.27447056947262E-03 
1624	 7.04234860027817E-03 
1625	 6.84644429997754E-03 
1626	 7.04777313038855E-03 
1627	 7.03207302195744E-03 
1628	 6.98223169657575E-03 
1629	 7.17201251942333E-03 
1630	 7.23581646492638E-03 
1631	 6.99855990619376E-03 
1632	 6.98056393434217E-03 
1633	 7.15573920714986E-03 
1634	 6.86012470529545E-03 
1635	 6.6057551276367E-03 
1636	 6.7562159100882E-03 
1637	 6.99147756232198E-03 
1638	 7.17755926152714E-03 
1639	 7.12620670738736E-03 
1640	 7.05691733068141E-03 
1641	 6.97404240756815E-03 
1642	 6.73599314216093E-03 
1643	 6.67229320009239E-03 
1644	 6.83484257694907E-03 
1645	 6.94313594975176E-03 
1646	 6.77689090884617E-03 
1647	 6.67137255391701E-03 
1648	 6.86123773749648E-03 
1649	 6.79630085884251E-03 
1650	 6.69175917078153E-03 
1651	 6.94324299772151E-03 
1652	 6.99135922168633E-03 
1653	 6.57059350100475E-03 
1654	 6.53212103909386E-03 
1655	 6.66250616787797E-03 
1656	 6.67723915553465E-03 
1657	 6.85513354951419E-03 
1658	 6.97640418530362E-03 
1659	 6.90227574077538E-03 
1660	 6.84030933435764E-03 
1661	 6.85566742343274E-03 
1662	 6.86250112262175E-03 
1663	 6.84379193441045E-03 
1664	 6.80965718336034E-03 
1665	 6.76192204034523E-03 
1666	 6.7955898424926E-03 
1667	 6.77970392461937E-03 
1668	 6.63592014489691E-03 
1669	 6.83110488318614E-03 
1670	 7.09779316071471E-03 
1671	 7.15122111786879E-03 
1672	 7.08908423939291E-03 
1673	 6.99265149156691E-03 
1674	 6.9715290116371E-03 
1675	 6.95492507456543E-03 
1676	 7.05417653000445E-03 
1677	 7.18126879679511E-03 
1678	 6.71094231718664E-03 
1679	 6.50976533643605E-03 
1680	 7.18298620600521E-03 
1681	 7.28307500320004E-03 
1682	 6.85468213502995E-03 
1683	 6.94437897543647E-03 
1684	 6.86522439442708E-03 
1685	 6.58236625834788E-03 
1686	 6.8955581595322E-03 
1687	 7.03186646524713E-03 
1688	 6.58412898740519E-03 
1689	 6.54110935641738E-03 
1690	 6.94273323896193E-03 
1691	 6.95679903424344E-03 
1692	 6.61697350982825E-03 
1693	 6.58602210865176E-03 
1694	 6.82432724080543E-03 
1695	 6.82566586944072E-03 
1696	 6.94849958511032E-03 
1697	 7.1928367610302E-03 
1698	 6.70102074754439E-03 
1699	 6.29653742130102E-03 
1700	 6.75307198170367E-03 
1701	 6.99684576576425E-03 
1702	 6.87078743186076E-03 
1703	 6.75090076389923E-03 
1704	 6.5181366726429E-03 
1705	 6.35697553204877E-03 
1706	 6.41900885700787E-03 
1707	 6.80137823590179E-03 
1708	 6.93174509843766E-03 
1709	 6.46333847964614E-03 
1710	 6.55476683841511E-03 
1711	 7.22032338045866E-03 
1712	 7.15315370774015E-03 
1713	 6.70839654991828E-03 
1714	 6.73733979836012E-03 
1715	 6.29613176190955E-03 
1716	 6.17914034459388E-03 
1717	 6.53507907083509E-03 
1718	 6.43919692624601E-03 
1719	 6.44103818847516E-03 
1720	 6.88549923562349E-03 
1721	 6.97885564496491E-03 
1722	 6.58785100069475E-03 
1723	 6.38670315360203E-03 
1724	 6.63024771427286E-03 
1725	 6.61389963213478E-03 
1726	 6.56319470853802E-03 
1727	 6.90066789565809E-03 
1728	 6.87581403387602E-03 
1729	 6.8206163891271E-03 
1730	 6.69541945349842E-03 
1731	 6.23837855077634E-03 
1732	 6.16208909738855E-03 
1733	 6.23419737847621E-03 
1734	 6.29288454296811E-03 
1735	 6.5105435604638E-03 
1736	 6.32130188811573E-03 
1737	 6.04697610492701E-03 
1738	 6.54217813147986E-03 
1739	 6.92720837863411E-03 
1740	 6.50575584642878E-03 
1741	 6.25631975452373E-03 
1742	 5.79225883718482E-03 
1743	 5.07389247556598E-03 
1744	 5.99228137349917E-03 
1745	 7.03145859123533E-03 
1746	 7.19147140484296E-03 
1747	 7.52132237165342E-03 
1748	 7.19692830557774E-03 
1749	 6.92576167189093E-03 
1750	 6.7923711200641E-03 
1751	 6.79229628537705E-03 
1752	 7.06310574686731E-03 
1753	 6.94947898205109E-03 
1754	 6.63489954224077E-03 
1755	 6.46463574810909E-03 
1756	 5.90750956023592E-03 
1757	 5.53820256986076E-03 
1758	 5.67108226826595E-03 
1759	 5.76634565526894E-03 
1760	 5.39319451246385E-03 
1761	 5.6906444075845E-03 
1762	 6.3463947145481E-03 
1763	 6.12482246920327E-03 
1764	 6.03293673930773E-03 
1765	 5.8306270996155E-03 
1766	 4.8020468909515E-03 
1767	 4.04198273663407E-03 
1768	 4.22143683857918E-03 
1769	 4.92504123714835E-03 
1770	 5.65633286625969E-03 
1771	 6.31180387388927E-03 
1772	 6.07291936066368E-03 
1773	 5.03203619524286E-03 
1774	 5.05780117644128E-03 
1775	 5.86361324369456E-03 
1776	 5.74826259201429E-03 
1777	 4.77866768137818E-03 
1778	 4.57927686166963E-03 
1779	 4.13632548561199E-03 
1780	 4.42401838580909E-03 
1781	 6.60948060595152E-03 
1782	 6.64181329199564E-03 
1783	 5.57583291467058E-03 
1784	 5.55694255679351E-03 
1785	 4.62673015010137E-03 
1786	 4.47277513067022E-03 
1787	 4.85450536982714E-03 
1788	 5.12396914722499E-03 
1789	 6.24290405453999E-03 
1790	 7.7797155131245E-03 
1791	 8.40774838455184E-03 
1792	 8.84963295137792E-03 
1793	 6.13696370868086E-03 
1794	 5.82905861269149E-03 
1795	 9.32719390355764E-03 
1796	 7.71525966027456E-03 
1797	 5.52931558662894E-03 
1798	 4.34194960209921E-03 
1799	-1.32745387747274E-03 
1800	 2.67725202633579E-05 
1801	 5.44813847444966E-04 
1802	-2.61937791500981E-03 
1803	-8.02769483047895E-03 
1804	-1.99133775404371E-02 
1805	-0.017171693671413 
1806	 1.9746547406915E-03 
1807	 9.30952559234037E-03 
1808	 5.66392176140169E-02 
1809	 7.15368881962859E-02 
1810	-2.47740252758656E-02 
1811	-3.76980120562768E-02 
1812	 2.21322013602586E-02 
1813	 0.0275096001626 
1814	 8.90977728177019E-02 
1815	 0.106129082733035 
1816	-0.077327272779672 
1817	-0.111727935442089 
1818	 1.18960893525243E-02 
1819	 4.25491279364887E-02 
1820	 0.158959306348384 
1821	 0.151325265029586 
1822	 0.150151900804043 
1823	 0.140895011912403 
1824	 2.28030219595622E-02 
1825	-0.389784916576374 
1826	-0.723309039828507 
1827	-0.644693084415724 
1828	-0.472137160568537 
1829	 8.26253842408781E-03 
1830	 0.194005187866128 
1831	 0.156969874826573 
1832	-18.2957972572486 
1833	-2.52170209431849 
1834	-1.9191801730703 
1835	-1.73552778401844 
1836	-3.61442696694727 
1837	-0.115198671582985 
1838	-0.293641444770593 
1839	-0.163274295199717 
1840	 0.248181600293792 
1841	 0.90736116081359 
1842	 2.96220315258868 
1843	 2.67270864300837 
1844	 0.395888003884109 
1845	 0.258113767726402 
1846	 9.14711282234952E-02 
1847	 6.42514689785082E-02 
1848	 0.431788025458624 
1849	 0.838026172777669 
1850	 1.47276515974054 
1851	 1.40101522757223 
1852	 0.71646487661675 
1853	 0.832607670996512 
1854	 0.779458254817657 
1855	 0.440095406788577 
1856	 0.302318801501561 
1857	-0.411296355564488 
1858	 0.415366088869088 
1859	-0.306084392738423 
1860	-0.169739339023926 
1861	 0.115415465195277 
1862	 0.234066960133748 
1863	-0.352523704963001 
1864	-0.587517416686463 
1865	-2.02486024109388 
1866	 4.60093690580161 
1867	 3.26905354064258 
1868	 16.2691166040704 
1869	 34.297358050575 
1870	-0.291927857559934 
1871	-2.33217606739235 
1872	-0.329189656137703 
1873	-8.67054054235626 
1874	 1.42706983107609 
1875	 2.51134505241854 
1876	 2.0322688587395 
1877	-0.088304644214932 
1878	-0.258600716173813 
1879	 0.546097050743171 
1880	-0.287290938606719 
1881	-1.37560759175484 
1882	-1.2297572723428 
1883	-1.43978736447118 
1884	-1.76765754492352 
1885	-0.764668623742942 
1886	-1.83841989717579 
1887	 5.11624232993933 
1888	 1.37847064735423 
1889	 0.931986107027637 
1890	-0.223488870211981 
1891	-0.865693018067423 
1892	-4.26010580549125 
1893	-1.67971786108947 
1894	-0.77385156170558 
1895	-0.390041746581066 
1896	 0.174029997419814 
1897	 14.9820614384356 
1898	-3.57103455897171 
1899	 63.2335067278363 
1900	 9.57665312843021 
1901	 1.8826301301706 
1902	 1.16570945541511 
1903	 0.774340999034667 
1904	 1.02520093179071 
1905	 0.595610932379216 
1906	 0.258541843371228 
1907	 0.422561202453492 
1908	-0.13817233421078 
1909	-1.0276439152957 
1910	-2.63902363759899 
1911	 0.332604329089238 
1912	-1.0562697709619 
1913	-2.10461016625778 
1914	 1.70152779580844 
1915	 0.969167637401359 
1916	 0.729159248384793 
1917	 0.831192562786693 
1918	 0.727097760251645 
1919	 0.772022331882913 
1920	 0.907969906502861 
1921	 0.740154376717289 
1922	 0.580728950156242 
1923	 0.412713819260158 
1924	 0.549131591205723 
1925	 1.17630934989078 
1926	 2.27630123577844 
1927	 9.5987673724848 
1928	-2.89643761849683 
1929	-0.900582904823541 
1930	-0.437986022086981 
1931	-0.742997440494709 
1932	-1.24114412671837 
1933	-0.51327936194274 
1934	-0.189062702307522 
1935	 1.48755985155833E-02 
1936	 0.196541471036092 
1937	 0.20589966870384 
1938	 0.208888074974146 
1939	 0.161197595028666 
1940	 0.100061290595934 
1941	 0.120332481151112 
1942	 0.128528046937069 
1943	 0.106819802078132 
1944	 0.129815855333588 
1945	 0.101145703761557 
1946	 3.99596975956297E-02 
1947	 2.47352102828976E-02 
1948	 3.58288922659925E-02 
1949	 5.84229708499572E-02 
1950	 0.059784564037822 
1951	-1.69748234956053E-02 
1952	-5.25389619238215E-02 
1953	-0.101933119513 
1954	-0.11293490813845 
1955	-8.92729570265886E-02 
1956	-2.59249713136239E-02 
1957	-8.86584645249105E-03 
1958	-1.07540379670178E-02 
1959	-7.86498819166224E-04 
1960	-3.97796404095422E-03 
1961	 3.2551556729031E-03 
1962	 9.6046661025659E-03 
1963	 3.10325149149326E-03 
1964	 2.68615913934888E-04 
1965	 1.65239566773773E-03 
1966	 3.1132861070458E-03 
1967	 5.48604224911316E-03 
1968	 7.38375267637618E-03 
1969	 7.78558741610086E-03 
1970	 7.74622325934052E-03 
1971	 6.28167539514826E-03 
1972	 6.30662016773355E-03 
1973	 7.01749629446488E-03 
1974	 4.67330309633483E-03 
1975	 3.21494323856914E-03 
1976	 3.08905806420218E-03 
1977	 1.73652782275671E-03 
1978	 1.28736053294057E-03 
1979	 1.50949411578902E-03 
1980	 2.24428953604666E-03 
1981	 2.18565983204665E-03 
1982	 3.02992205056192E-03 
1983	 5.11428371524732E-03 
1984	 6.22190639576433E-03 
1985	 5.87895399697374E-03 
1986	 6.41672660194466E-03 
1987	 6.52892188330264E-03 
1988	 5.48149397950161E-03 
1989	 5.45352795117776E-03 
1990	 5.22770979674712E-03 
1991	 4.30653431157194E-03 
1992	 4.72932448035206E-03 
1993	 5.29852848184552E-03 
1994	 5.10831082936618E-03 
1995	 4.26623277025409E-03 
1996	 3.31157118625515E-03 
1997	 2.83454552553499E-03 
1998	 3.22985688930962E-03 
1999	 3.45513607879766E-03 
2000	 5.08300893213835E-03 
2001	 7.62705517479575E-03 
2002	 7.33043014240395E-03 
2003	 5.73260515129226E-03 
2004	 5.05609104106464E-03 
2005	 3.17274537584814E-03 
2006	 1.53704315732923E-03 
2007	 1.38970261462088E-03 
2008	 2.52593431843059E-04 
2009	 8.17841532345191E-04 
2010	 2.39706099912072E-03 
2011	 2.92465163582886E-03 
2012	 4.24644684193381E-03 
2013	 5.21316255020006E-03 
2014	 4.94466066832894E-03 
2015	 3.4045674381237E-03 
2016	 2.38817049075852E-03 
2017	 4.10522158609109E-03 
2018	 5.20363862955094E-03 
2019	 4.28870538054289E-03 
2020	 4.0698045408892E-03 
2021	 4.57880295805459E-03 
2022	 6.01445760472147E-03 
2023	 7.20233083537277E-03 
2024	 7.25819629738064E-03 
2025	 6.98696391054399E-03 
2026	 6.74118150710061E-03 
2027	 5.76145974696693E-03 
2028	 5.03766368278693E-03 
2029	 4.84002861547727E-03 
2030	 4.59037655548161E-03 
2031	 3.81581742482606E-03 
2032	 3.73624515732718E-03 
2033	 4.51865052456898E-03 
2034	 4.86483077120027E-03 
2035	 5.52849462054989E-03 
2036	 6.03112300373715E-03 
2037	 5.89134913539069E-03 
2038	 6.17528874418782E-03 
2039	 6.08766763257055E-03 
2040	 5.61737865857198E-03 
2041	 5.23499908628721E-03 
2042	 4.44771295252905E-03 
2043	 4.33871933101755E-03 
2044	 4.5909434137719E-03 
2045	 4.79687380505515E-03 
2046	 5.63451665152203E-03 
2047	 6.07966560480785E-03 
2048	 5.36535631704044E-03 
2049	 5.15998386404277E-03 
2050	 4.49450790787305E-03 
2051	 2.81665110014352E-03 
2052	 2.70007313966705E-03 
2053	 3.55990427870173E-03 
2054	 4.47221338601599E-03 
2055	 5.55166370141934E-03 
2056	 5.72263407886776E-03 
2057	 4.5551834128379E-03 
2058	 4.57912197005244E-03 
2059	 4.83467283908773E-03 
2060	 4.81423933255123E-03 
2061	 5.47882543872305E-03 
2062	 5.09144359880693E-03 
2063	 4.67592529188335E-03 
2064	 4.62180265926197E-03 
2065	 5.00959130384706E-03 
2066	 5.17245517284191E-03 
2067	 4.41392116414518E-03 
2068	 3.58075765904462E-03 
2069	 3.31495380949001E-03 
2070	 3.60285437765942E-03 
2071	 4.02735427650006E-03 
2072	 4.91207627456549E-03 
2073	 5.25451845364382E-03 
2074	 5.02182464403647E-03 
2075	 5.0535960223156E-03 
2076	 0.005193629786062 
2077	 5.32076672836404E-03 
2078	 5.42738696143915E-03 
2079	 5.59367240776529E-03 
2080	 6.07077946485787E-03 
2081	 5.93031776781672E-03 
2082	 5.04625361701932E-03 
2083	 5.3428498385739E-03 
2084	 5.77538130806648E-03 
2085	 5.24983437675483E-03 
2086	 4.95425314665195E-03 
2087	 4.80159122639139E-03 
2088	 4.89787167534081E-03 
2089	 5.07019224190606E-03 
2090	 5.27230051541453E-03 
2091	 5.62796319331621E-03 
2092	 5.59728484661165E-03 
2093	 4.77984355423941E-03 
2094	 4.65501856424408E-03 
2095	 4.62110357656207E-03 
2096	 4.88174195993656E-03 
2097	 5.66709308737545E-03 
2098	 5.82227728694693E-03 
2099	 5.94436802614821E-03 
2100	 6.07938021071391E-03 
2101	 5.79289450641898E-03 
2102	 6.04285479343196E-03 
2103	 5.65445301590808E-03 
2104	 4.99821114962107E-03 
2105	 5.27450670505481E-03 
2106	 5.07370734415329E-03 
2107	 5.11121973887007E-03 
2108	 5.35303362829155E-03 
2109	 4.39810790471674E-03 
2110	 4.04955984241626E-03 
2111	 4.33721840343591E-03 
2112	 4.91683048985418E-03 
2113	 5.64231934863961E-03 
2114	 7.19498018359195E-03 
2115	 7.47164427671102E-03 
2116	 7.21766556543783E-03 
2117	 7.18308883424066E-03 
2118	 6.49274167528164E-03 
2119	 6.19682772013192E-03 
2120	 6.00929277119484E-03 
2121	 6.28103244007177E-03 
2122	 6.43837724616627E-03 
2123	 6.39767104179452E-03 
2124	 6.29799401297588E-03 
2125	 5.71511885324967E-03 
2126	 5.36395402532238E-03 
2127	 5.48846901377753E-03 
2128	 5.76301927573536E-03 
2129	 6.3638323588202E-03 
2130	 7.04340138614617E-03 
2131	 7.00991354130708E-03 
2132	 6.04928906752992E-03 
2133	 5.59304464783149E-03 
2134	 5.47845951279388E-03 
2135	 0.005302338825238 
2136	 4.80461499054756E-03 
2137	 4.50254454330661E-03 
2138	 4.55889926184904E-03 
2139	 4.23826418167195E-03 
2140	 4.53519847419565E-03 
2141	 6.33175272828844E-03 
2142	 6.78313806969579E-03 
2143	 6.63428719667364E-03 
2144	 6.1860506603122E-03 
2145	 5.48679606043132E-03 
2146	 4.61537016898914E-03 
2147	 4.10806991089009E-03 
2148	 4.54307782086349E-03 
2149	 6.03092371563845E-03 
2150	 6.75985903738652E-03 
2151	 6.48735098462282E-03 
2152	 5.93270954430655E-03 
2153	 4.52980138044262E-03 
2154	 4.0312681758629E-03 
2155	 4.88373203768624E-03 
2156	 5.27603037851597E-03 
2157	 5.51232958903722E-03 
2158	 5.45788651267427E-03 
2159	 5.71562994403175E-03 
2160	 6.17699738998284E-03 
2161	 6.20803583246032E-03 
2162	 6.01432689885257E-03 
2163	 6.21245930814633E-03 
2164	 6.45430400429458E-03 
2165	 6.27138105750953E-03 
2166	 6.14274819199608E-03 
2167	 6.10627479508397E-03 
2168	 5.76493661792808E-03 
2169	 5.41171802424627E-03 
2170	 5.11789584770094E-03 
2171	 5.15303173938258E-03 
2172	 5.2408353883782E-03 
2173	 5.10999378535356E-03 
2174	 5.88641334587049E-03 
2175	 6.16621942045822E-03 
2176	 5.39648483458015E-03 
2177	 4.78053816395274E-03 
2178	 5.65227114157855E-03 
2179	 5.91034478882451E-03 
2180	 5.55191797851866E-03 
2181	 6.14695716455641E-03 
2182	 5.4785369762179E-03 
2183	 4.87554723806265E-03 
2184	 5.27811821899939E-03 
2185	 5.80442192348671E-03 
2186	 5.79780853900559E-03 
2187	 5.39756640397597E-03 
2188	 4.9365035447292E-03 
2189	 3.83745896034567E-03 
2190	 3.55139494969489E-03 
2191	 3.57176793374741E-03 
2192	 3.62647365728952E-03 
2193	 4.60874586583789E-03 
2194	 4.78583073276265E-03 
2195	 3.84765704552099E-03 
2196	 3.96833155027137E-03 
2197	 4.5771629988571E-03 
2198	 4.87418583274808E-03 
2199	 5.31359021089013E-03 
2200	 6.80589642276318E-03 
2201	 6.72579844438223E-03 
2202	 6.08561362843847E-03 
2203	 5.24629531614373E-03 
2204	 4.06364928957617E-03 
2205	 4.22399824483234E-03 
2206	 4.26369417798405E-03 
2207	 5.05370507811528E-03 
2208	 6.0078917553721E-03 
2209	 5.48172493796538E-03 
2210	 5.70309731583466E-03 
2211	 5.53768061073916E-03 
2212	 5.09258375671787E-03 
2213	 5.5838973784635E-03 
2214	 5.39987563664569E-03 
2215	 6.23840829650949E-03 
2216	 7.44746674293603E-03 
2217	 7.37813035543411E-03 
2218	 7.44080824236701E-03 
2219	 6.79804741924772E-03 
2220	 2.96283825804686E-03 
2221	 3.26419534342151E-03 
2222	 6.82247285400144E-03 
2223	 7.27222064739098E-03 
2224	 8.34885115648456E-03 
2225	 8.45057958008093E-03 
2226	 5.29161654690464E-03 
2227	 4.14176496257685E-03 
2228	 4.78416115407352E-03 
2229	 5.3874549244108E-03 
2230	 6.33651991066367E-03 
2231	 6.52463374621383E-03 
2232	 6.30116680379116E-03 
2233	 6.33675928054495E-03 
2234	 5.99012096461165E-03 
2235	 5.85901921608243E-03 
2236	 6.5236312990714E-03 
2237	 7.20684381045486E-03 
2238	 7.08315190505554E-03 
2239	 7.6334993666163E-03 
2240	 7.75180681034475E-03 
2241	 0.00751952317611 
2242	 7.63275965721818E-03 
2243	 6.90296660146293E-03 
2244	 5.30120498190432E-03 
2245	 5.02842966229013E-03 
2246	 7.32013431040948E-03 
2247	 8.68396867345311E-03 
2248	 9.12382173362509E-03 
2249	 9.51879975762214E-03 
2250	 8.34046120212168E-03 
2251	 6.60755692637565E-03 
2252	 6.17527888953509E-03 
2253	 7.31715872630949E-03 
2254	 0.008006393379549 
2255	 7.34674553011475E-03 
2256	 5.33981464261584E-03 
2257	 4.00489647598924E-03 
2258	 4.66898875313132E-03 
2259	 5.58854304647939E-03 
2260	 5.8684367861451E-03 
2261	 8.86319111371502E-03 
2262	 8.86264361992395E-03 
2263	 4.76468897089205E-03 
2264	 4.17391154385993E-03 
2265	 5.35251777647515E-03 
2266	 5.37681802530442E-03 
2267	 5.45208874852721E-03 
2268	 5.47048926745113E-03 
2269	 6.51791150575737E-03 
2270	 5.6389913737246E-03 
2271	 2.50329499368381E-03 
2272	 2.40329046969796E-03 
2273	 2.04143988045868E-03 
2274	 1.68185403865397E-03 
2275	 4.99511555425159E-03 
2276	 5.80386925694659E-03 
2277	 3.8730963231924E-03 
2278	 3.04591674793243E-03 
2279	 1.74547225684871E-03 
2280	 1.45305614366852E-03 
2281	 1.91978128316799E-03 
2282	 2.33579809269777E-03 
2283	 2.65627859894694E-03 
2284	 3.73925569477262E-03 
2285	 5.12267913385339E-03 
2286	 5.55327762834357E-03 
2287	 5.5981567362508E-03 
2288	 5.56835431198471E-03 
2289	 5.61732445686736E-03 
2290	 7.64305553578827E-03 
2291	 9.16820192950814E-03 
2292	 9.20543661500251E-03 
2293	 8.95502057838413E-03 
2294	 7.85315559901275E-03 
2295	 8.35099611420507E-03 
2296	 9.43966296080588E-03 
2297	 8.64836231230298E-03 
2298	 7.49287966298794E-03 
2299	 6.58044923859774E-03 
2300	 5.51330667247019E-03 
2301	 4.83195617660171E-03 
2302	 2.36454721406815E-03 
2303	 8.9352666017796E-04 
2304	 3.67496654819527E-03 
2305	 4.0993450966385E-03 
2306	 4.17843403909276E-03 
2307	 3.94032588088744E-03 
2308	 9.2880707139747E-04 
2309	 1.4333562224603E-03 
2310	 2.04973703713084E-03 
2311	 6.05240377342684E-04 
2312	 1.99290810434644E-03 
2313	 3.43595572976847E-03 
2314	 3.03329460322808E-03 
2315	 5.85377364277735E-03 
2316	 5.33438739652391E-03 
2317	 4.72945644246739E-04 
2318	 1.68603682967208E-03 
2319	 3.80133960580541E-03 
2320	 4.83586317440254E-03 
2321	 5.80849438461782E-03 
2322	 3.87655016717178E-03 
2323	 0.001508831654462 
2324	-1.25729884672405E-03 
2325	-2.74155756975406E-03 
2326	-2.58048745967229E-03 
2327	-0.002455465277858 
2328	-4.64719980809563E-04 
2329	 3.40305143789461E-03 
2330	 6.96156224981248E-03 
2331	 6.3053958705518E-03 
2332	 5.31675269627951E-03 
2333	 5.84848933962968E-03 
2334	 2.63309257511841E-03 
2335	 3.44665893145886E-03 
2336	 6.51675301893429E-03 
2337	 4.21595276872536E-03 
2338	 4.255864953614E-04 
2339	-1.19449001158676E-04 
2340	 3.10137482347027E-03 
2341	 1.77733670109099E-03 
2342	 7.8781045054149E-04 
2343	-2.0113098728799E-03 
2344	-9.18717975529792E-03 
2345	-5.98758976570102E-03 
2346	 8.81889618845032E-04 
2347	-2.3202446386663E-04 
2348	-1.60922410459167E-03 
2349	 9.89242963102985E-04 
2350	 2.15351763680845E-03 
2351	 6.72010749543793E-03 
2352	 8.43093930094097E-03 
2353	 6.90377310036428E-03 
2354	 9.3661828380571E-03 
2355	 8.42965819939975E-03 
2356	 8.06278217352731E-03 
2357	 0.009404157190351 
2358	 2.23945035895148E-03 
2359	-4.54129886867304E-03 
2360	-4.19294349553473E-03 
2361	-1.04580171332178E-02 
2362	-1.06758726143252E-02 
2363	-1.44165510556844E-02 
2364	-2.16107657257916E-02 
2365	-4.51752864391716E-03 
2366	-1.83950399098913E-03 
2367	-2.98589401547061E-03 
2368	 1.69045527871944E-02 
2369	 1.63953572440157E-02 
2370	 8.36043189217147E-03 
2371	 5.65387582751754E-03 
2372	-1.07407688097252E-02 
2373	-2.93593038375786E-02 
2374	-0.021433653189694 
2375	-8.59881768821302E-03 
2376	-2.16263783701542E-02 
2377	-2.11703914785815E-02 
2378	-2.42042494517452E-02 
2379	-4.16073480432057E-02 
2380	-0.041748713602028 
2381	-3.65582079702247E-02 
2382	-1.11658994123951E-02 
2383	 2.79826912076955E-03 
2384	 4.30588938302798E-03 
2385	 1.76145566046932E-03 
2386	-3.97328736579619E-02 
2387	-0.053103144341438 
2388	-3.86855125688453E-02 
2389	-2.89221239595925E-02 
2390	-1.03692228364311E-02 
2391	 3.23509913417162E-03 
2392	-5.19471126187915E-03 
2393	-7.14619664000091E-03 
2394	 1.37992757178409E-02 
2395	 1.02703627818224E-02 
2396	 1.96806838311704E-02 
2397	 3.18083444493336E-02 
2398	 1.11797303948069E-02 
2399	-4.74005292245256E-03 
2400	-8.3112617591401E-03 
2401	 6.81173221862204E-04 
2402	-0.01571082773714 
2403	-0.062741364202294 
2404	-8.89715902623763E-02 
2405	-7.64396971927837E-02 
2406	-7.61940474159118E-02 
2407	-7.49151581775273E-02 
2408	-2.94262505540772E-02 
2409	-0.060685080002283 
2410	-7.67022038810581E-02 
2411	 1.79132643029602E-02 
2412	 8.30206823043679E-02 
2413	 0.105204739825069 
2414	 0.135723803390275 
2415	 0.100506437122527 
2416	 3.60055709087201E-02 
2417	 1.19954770675568E-02 
2418	-3.52746801508451E-02 
2419	-0.074020352290092 
2420	-9.74910973281681E-02 
2421	-0.112489654879394 
2422	-6.92204755073096E-02 
2423	-1.99211637524935E-02 
2424	 1.76860860500563E-02 
2425	 2.83343097160481E-02 
2426	 0.06886861299915 
2427	 7.11712557881394E-02 
2428	 5.15196227237173E-02 
2429	 8.12429526304195E-02 
2430	 7.13341570893084E-02 
2431	 6.34429748057933E-02 
2432	 7.43928918559712E-02 
2433	 0.101983221918786 
2434	 8.07721327668616E-02 
2435	-8.78449880655163E-03 
2436	-1.02119633375698E-02 
2437	-4.46011423217041E-02 
2438	-4.33545215263272E-02 
2439	-3.18767257889595E-02 
2440	-0.144254969939077 
2441	-0.154314684100686 
2442	-0.157164362896093 
2443	-0.308256868583581 
2444	-0.144385360511534 
2445	 1.39843679035225E-03 
2446	-0.188888802414193 
2447	 8.44852401452049E-02 
2448	 5.40830019967349E-02 
2449	-0.725787621561234 
2450	-1.135218760793 
2451	-1.59479541385986 
2452	-1.14349413519762 
2453	-0.881558276270588 
2454	-0.587060574075861 
2455	-0.353212818589285 
2456	-0.245205636771367 
2457	-0.115849104762209 
2458	-0.177972104296523 
2459	-0.292547338669142 
2460	-0.380654713228964 
2461	-0.295326312704183 
2462	-0.189502722187601 
2463	-0.17374858198308 
2464	-3.39651808926959E-02 
2465	-0.35825246358343 
2466	-1.48029536571947 
2467	-6.42929581750089 
2468	-1.14395373000506 
2469	-0.557461006007952 
2470	-1.11942882084055 
2471	 74.1460739399211 
2472	 1.97484374623444 
2473	 1.28910682062841 
2474	 0.850813786817808 
2475	 2.22658130757229 
2476	 1.55825166754547 
2477	 1.06743186073529 
2478	 2.53073154019602 
2479	 10.6752671861794 
2480	 4.9592977725743 
2481	-42.2936015408353 
2482	 1.59265215357556 
2483	 0.348128885360783 
2484	 0.439026364739412 
2485	-3.40665349045619 
2486	 3.71729917652392 
2487	-0.342818366696943 
2488	-1.09283034003721 
2489	 2.04081254282318 
2490	 0.930558587402823 
2491	 0.418376934607797 
2492	 0.30423539893517 
2493	 0.597185619739754 
2494	 1.57960901166113 
2495	 1.85432530898727 
2496	 0.702268331958177 
2497	 0.490214183750919 
2498	 0.471450996074661 
2499	 0.432610361207117 
2500	 1.46547597331316 
