Wavelength	rt0713west_far_cloud00008.asd
350	 4.75710266235366E-02 
351	 4.80794195203177E-02 
352	 4.84638819040737E-02 
353	 4.84693064286683E-02 
354	 4.81702238273074E-02 
355	 4.79475480124347E-02 
356	 0.048183149383971 
357	 0.048757024012834 
358	 4.91969582525805E-02 
359	 4.83368621224395E-02 
360	 4.82083414804275E-02 
361	 4.86641644868535E-02 
362	 4.81968071698427E-02 
363	 4.84143156549377E-02 
364	 0.048387422086586 
365	 4.78901215945948E-02 
366	 4.82054212640971E-02 
367	 4.84943530478366E-02 
368	 0.048577374387031 
369	 4.85384060168991E-02 
370	 4.87757426248022E-02 
371	 4.88023430054577E-02 
372	 4.85766298301721E-02 
373	 4.83857054145684E-02 
374	 4.87177045183821E-02 
375	 4.92218368662154E-02 
376	 4.94907902403016E-02 
377	 4.92088847271002E-02 
378	 4.91632095204309E-02 
379	 4.93291817023921E-02 
380	 4.95554787123328E-02 
381	 5.00492148941025E-02 
382	 5.00329430088997E-02 
383	 4.98366162253361E-02 
384	 5.01799688006856E-02 
385	 5.03291504911946E-02 
386	 5.03096927454137E-02 
387	 5.02798029104761E-02 
388	 5.04605680176291E-02 
389	 5.08428379477115E-02 
390	 5.11330910379791E-02 
391	 5.11625173183668E-02 
392	 5.11474088349203E-02 
393	 0.051283888012887 
394	 5.15251992482927E-02 
395	 0.051734761243461 
396	 5.18994279014585E-02 
397	 0.052079453332916 
398	 5.22839998306541E-02 
399	 5.24645635860745E-02 
400	 5.22727689125253E-02 
401	 5.21388640735228E-02 
402	 5.23221928809887E-02 
403	 5.24457611904445E-02 
404	 5.27703063987966E-02 
405	 5.30565074086395E-02 
406	 0.05300605118076 
407	 5.30625277530617E-02 
408	 5.32342863103935E-02 
409	 5.34080961928549E-02 
410	 5.34007496601314E-02 
411	 5.34609814920211E-02 
412	 5.36402173222829E-02 
413	 5.38526726110618E-02 
414	 5.37406573778227E-02 
415	 5.39585232237544E-02 
416	 5.43338243239039E-02 
417	 5.44359288649267E-02 
418	 0.054531297230431 
419	 5.47501540760559E-02 
420	 0.05503295177202 
421	 5.51395997597752E-02 
422	 5.52736210359694E-02 
423	 5.55442713595848E-02 
424	 5.59224963983502E-02 
425	 5.60531216555037E-02 
426	 5.62499469218764E-02 
427	 5.65629581708129E-02 
428	 5.68930278872761E-02 
429	 5.70967803502377E-02 
430	 5.73326605409092E-02 
431	 5.76549982146079E-02 
432	 5.79623467991256E-02 
433	 5.82241474033178E-02 
434	 5.84000782040348E-02 
435	 5.85503412153705E-02 
436	 0.059042819353948 
437	 5.94543220087377E-02 
438	 5.97181853777391E-02 
439	 5.99744234985486E-02 
440	 6.02758674374051E-02 
441	 6.05548112284054E-02 
442	 6.07915247341053E-02 
443	 6.10585685969918E-02 
444	 6.13194111650461E-02 
445	 0.061615575969354 
446	 0.061955986501611 
447	 6.21486093039035E-02 
448	 6.23546268073046E-02 
449	 6.26010573999755E-02 
450	 6.28205370480043E-02 
451	 6.31698543418432E-02 
452	 6.33534475119715E-02 
453	 6.33122838347128E-02 
454	 6.35946122378615E-02 
455	 6.38978939049663E-02 
456	 6.40814520147911E-02 
457	 6.41187337313074E-02 
458	 6.42883837652741E-02 
459	 6.44813921540681E-02 
460	 6.46164240014971E-02 
461	 6.46701350725704E-02 
462	 6.48516722189708E-02 
463	 6.50066925826392E-02 
464	 6.50295876216863E-02 
465	 6.51472760747108E-02 
466	 6.53453032190629E-02 
467	 6.55197123477994E-02 
468	 6.55609700512289E-02 
469	 6.57112513590428E-02 
470	 6.59189478510922E-02 
471	 6.60987252109368E-02 
472	 6.61598650201234E-02 
473	 6.63133375622938E-02 
474	 6.65080104149994E-02 
475	 6.66526642737042E-02 
476	 6.67790824118755E-02 
477	 0.066905760086316 
478	 6.71186328279963E-02 
479	 0.067500845480497 
480	 6.75705918301077E-02 
481	 6.77041661250723E-02 
482	 6.80812649812602E-02 
483	 6.82404601704463E-02 
484	 6.84446830135395E-02 
485	 6.87485942238498E-02 
486	 6.91095967225126E-02 
487	 6.93856259140169E-02 
488	 0.06965978237 
489	 6.99616602467997E-02 
490	 7.02573815295104E-02 
491	 0.070538395900113 
492	 7.08767240003862E-02 
493	 7.12949670763706E-02 
494	 7.16442360271018E-02 
495	 7.20360966253776E-02 
496	 7.24452402664881E-02 
497	 7.27949418976471E-02 
498	 7.31800229676481E-02 
499	 7.36548784145797E-02 
500	 0.074156610492182 
501	 0.07444817979358 
502	 7.48937140728824E-02 
503	 7.54924587585264E-02 
504	 7.61128190833064E-02 
505	 7.65782575537132E-02 
506	 7.70308340585368E-02 
507	 7.75758188891501E-02 
508	 7.82619066518913E-02 
509	 7.88863936574167E-02 
510	 7.94017100383475E-02 
511	 7.98705971454943E-02 
512	 8.05473724224857E-02 
513	 8.12366489697982E-02 
514	 8.18941834215379E-02 
515	 0.082549398839929 
516	 8.32954057776347E-02 
517	 8.41943972713111E-02 
518	 8.50966312508559E-02 
519	 8.56187440718054E-02 
520	 8.62884624002345E-02 
521	 8.70533301068297E-02 
522	 8.77799176053251E-02 
523	 0.088551402902774 
524	 8.92914495546658E-02 
525	 9.00094045235633E-02 
526	 9.07723260816952E-02 
527	 9.15191471494387E-02 
528	 9.21702888423835E-02 
529	 9.27457431743266E-02 
530	 9.34618800316868E-02 
531	 0.094215598782493 
532	 0.094924576445193 
533	 9.55339497104407E-02 
534	 9.61498425625641E-02 
535	 9.67750419195842E-02 
536	 9.73814431462365E-02 
537	 9.79134934430248E-02 
538	 9.85751774893385E-02 
539	 9.92655094659693E-02 
540	 9.98558811343902E-02 
541	 0.100377131144067 
542	 0.10098222439001 
543	 0.101625009361565 
544	 0.102156122330774 
545	 0.102744910015574 
546	 0.10336641902314 
547	 0.10396492855149 
548	 0.10447018335108 
549	 0.105007960684794 
550	 0.105591783689828 
551	 0.106181197620128 
552	 0.106679086593653 
553	 0.107215679277347 
554	 0.107788196073529 
555	 0.108229537174114 
556	 0.108611505649586 
557	 0.1090030525659 
558	 0.109448031907678 
559	 0.109933981599682 
560	 0.110319685933807 
561	 0.110589364976458 
562	 0.110820741247504 
563	 0.111125892560188 
564	 0.11134637406146 
565	 0.111434257712537 
566	 0.111634400582817 
567	 0.111715196899303 
568	 0.111777992971229 
569	 0.111988139968606 
570	 0.11214824694552 
571	 0.112217496444373 
572	 0.112247636819921 
573	 0.112371848929767 
574	 0.112395321215123 
575	 0.112382837450774 
576	 0.112432797976518 
577	 0.112561825993011 
578	 0.112616598482861 
579	 0.112546728710297 
580	 0.112395944137129 
581	 0.112397129634296 
582	 0.112297513206166 
583	 0.112019510078446 
584	 0.11192471219889 
585	 0.111754745736872 
586	 0.11148209528871 
587	 0.111167963700062 
588	 0.11091340725954 
589	 0.11070089446384 
590	 0.110483996030315 
591	 0.11018990950917 
592	 0.109978141449754 
593	 0.109731613650448 
594	 0.10933704928617 
595	 0.108832318279799 
596	 0.108400284329253 
597	 0.108013710115469 
598	 0.107527923709644 
599	 0.106915519555397 
600	 0.106458787349771 
601	 0.106239205418685 
602	 0.105932886516291 
603	 0.105702252455401 
604	 0.10557714268036 
605	 0.105522271438466 
606	 0.105372555783571 
607	 0.105249203158669 
608	 0.105207871335347 
609	 0.105216028028813 
610	 0.105136757273273 
611	 0.105005565263517 
612	 0.104890870795569 
613	 0.104835540480091 
614	 0.104777116952298 
615	 0.104685483798522 
616	 0.104562681516719 
617	 0.104500122871015 
618	 0.104422596242554 
619	 0.104292261710137 
620	 0.104158871471754 
621	 0.104086818851171 
622	 0.104026850205252 
623	 0.103912360213086 
624	 0.103792993533632 
625	 0.103762416183727 
626	 0.103759629900775 
627	 0.10358782188032 
628	 0.103405864075657 
629	 0.103268578605102 
630	 0.103194383427248 
631	 0.103201395115739 
632	 0.103005673141113 
633	 0.102712167480597 
634	 0.102573632008161 
635	 0.102359562938324 
636	 0.102076098470489 
637	 0.101742257465329 
638	 0.101354018607701 
639	 0.101087236154683 
640	 0.100822160945456 
641	 0.100435294832039 
642	 0.100185754337182 
643	 9.97724955104072E-02 
644	 9.92511269809754E-02 
645	 0.098964728500811 
646	 9.86615253979246E-02 
647	 9.82890809327858E-02 
648	 9.78986488835499E-02 
649	 0.097668627999844 
650	 9.75083953821488E-02 
651	 9.73595531655931E-02 
652	 9.71685395342754E-02 
653	 9.67949169397539E-02 
654	 9.64771819280252E-02 
655	 9.63076568464187E-02 
656	 9.61472299636033E-02 
657	 9.57879486281712E-02 
658	 9.53774485987081E-02 
659	 9.50546883805129E-02 
660	 9.47459112447139E-02 
661	 9.45211130853439E-02 
662	 9.43040925259222E-02 
663	 0.093957124783687 
664	 9.36648683770196E-02 
665	 9.34809535669965E-02 
666	 0.093355445533361 
667	 9.30827618186252E-02 
668	 9.29960898488413E-02 
669	 0.092973058028736 
670	 9.28460263192201E-02 
671	 9.30592473751275E-02 
672	 9.30587482985233E-02 
673	 9.28574230292566E-02 
674	 0.093005056908695 
675	 9.30338191373977E-02 
676	 9.31571126062823E-02 
677	 9.35071823011513E-02 
678	 9.36861914767577E-02 
679	 9.39804197646225E-02 
680	 9.43505660970056E-02 
681	 9.46473302036289E-02 
682	 9.50372479883212E-02 
683	 9.55248668445266E-02 
684	 9.61064577541274E-02 
685	 9.68491316792486E-02 
686	 9.75511923553745E-02 
687	 9.83117201488254E-02 
688	 9.91530868886618E-02 
689	 9.96298173110345E-02 
690	 0.100330567996562 
691	 0.101273404867893 
692	 0.102130042346175 
693	 0.102807824329865 
694	 0.103518714097402 
695	 0.104309734819707 
696	 0.104978638596029 
697	 0.105508251179698 
698	 0.106119883013955 
699	 0.106919023102443 
700	 0.107286310869278 
701	 0.107616073851133 
702	 0.10797459613518 
703	 0.108157148590439 
704	 0.108414181797712 
705	 0.108604932666779 
706	 0.108582881532009 
707	 0.108332543671472 
708	 0.107937418409036 
709	 0.107424140596976 
710	 0.106791639395797 
711	 0.106017100236199 
712	 0.105082047868585 
713	 0.103975032246729 
714	 0.10266076313281 
715	 0.101359820323093 
716	 0.100030815585804 
717	 9.86387160111184E-02 
718	 9.68695738005785E-02 
719	 9.46780827497412E-02 
720	 9.28210839239608E-02 
721	 9.14551740718691E-02 
722	 0.089626204476816 
723	 8.76652270823851E-02 
724	 8.59186069197627E-02 
725	 8.38553665705482E-02 
726	 8.16021694271683E-02 
727	 7.91714117628106E-02 
728	 7.65830295550076E-02 
729	 7.38302256650858E-02 
730	 7.10627457545513E-02 
731	 6.85602379217033E-02 
732	 6.63768187913426E-02 
733	 6.43727601591748E-02 
734	 6.27172421339283E-02 
735	 6.14203286011349E-02 
736	 6.02117570879086E-02 
737	 5.93830232766379E-02 
738	 5.87353944640894E-02 
739	 5.81319379100743E-02 
740	 5.79363085204406E-02 
741	 5.77744922715089E-02 
742	 5.75301956022334E-02 
743	 5.72634575863017E-02 
744	 5.72315556352575E-02 
745	 5.72222459935075E-02 
746	 5.71358941031868E-02 
747	 0.057088481217878 
748	 5.70253791276363E-02 
749	 5.69961224429333E-02 
750	 5.70080003980695E-02 
751	 5.68351463906466E-02 
752	 5.67825155102236E-02 
753	 5.68350339061785E-02 
754	 5.68083335930558E-02 
755	 5.67486900460224E-02 
756	 5.67014193407891E-02 
757	 5.66908080270872E-02 
758	 5.67229603121108E-02 
759	 5.70750300195423E-02 
760	 5.75028470202028E-02 
761	 5.73113318667706E-02 
762	 5.69344416202085E-02 
763	 5.67653058780127E-02 
764	 5.68271428717902E-02 
765	 0.056958349097194 
766	 5.70758250407902E-02 
767	 5.71868217709402E-02 
768	 5.73027429891651E-02 
769	 5.74275588672698E-02 
770	 5.75389167814644E-02 
771	 5.76239474197396E-02 
772	 5.77242652360171E-02 
773	 5.80368546160646E-02 
774	 5.82566339025339E-02 
775	 5.84203003931031E-02 
776	 5.86961067069839E-02 
777	 5.90304709427679E-02 
778	 5.92779194290065E-02 
779	 5.94985182551798E-02 
780	 5.99442382565395E-02 
781	 6.03031351051812E-02 
782	 0.060641611269619 
783	 6.10071936427271E-02 
784	 6.12223570079282E-02 
785	 6.16673777602198E-02 
786	 6.21566762121905E-02 
787	 6.24157782932429E-02 
788	 6.29146697264831E-02 
789	 6.34213465799161E-02 
790	 6.38692048082624E-02 
791	 6.43491925655674E-02 
792	 0.06470296876624 
793	 6.51561726455196E-02 
794	 6.57693010371668E-02 
795	 6.62384983884277E-02 
796	 6.65237420086535E-02 
797	 6.68551259879117E-02 
798	 6.74018102984597E-02 
799	 6.78049441107005E-02 
800	 6.80476493470671E-02 
801	 6.84163334202164E-02 
802	 6.91723265932807E-02 
803	 6.90967498991287E-02 
804	 6.90064766957466E-02 
805	 0.069277510166738 
806	 6.95917552197317E-02 
807	 6.95468131683939E-02 
808	 6.93782145314917E-02 
809	 6.92803910090115E-02 
810	 6.89415316833999E-02 
811	 6.86859587530587E-02 
812	 6.84254733037485E-02 
813	 6.79579062759154E-02 
814	 6.76062174272999E-02 
815	 6.71430643218997E-02 
816	 6.65547710499829E-02 
817	 6.60054546416377E-02 
818	 6.53551184307472E-02 
819	 6.46581439072005E-02 
820	 6.39211113936537E-02 
821	 6.31240698345507E-02 
822	 6.16985813822955E-02 
823	 5.99580025863102E-02 
824	 5.84723685541475E-02 
825	 5.76617770759633E-02 
826	 5.60588118941598E-02 
827	 5.38564281163804E-02 
828	 5.20007170581652E-02 
829	 5.04265012531142E-02 
830	 4.91217596468284E-02 
831	 4.79275402280065E-02 
832	 4.66966493737946E-02 
833	 4.58941807069936E-02 
834	 4.52173051084922E-02 
835	 4.45576988081106E-02 
836	 4.41820728051718E-02 
837	 4.37889462150171E-02 
838	 4.33537599881705E-02 
839	 4.29613416854906E-02 
840	 4.28212797257738E-02 
841	 4.26349166444243E-02 
842	 4.23718325569393E-02 
843	 4.20936564018857E-02 
844	 4.17371398953663E-02 
845	 0.041595951198148 
846	 4.15390514969073E-02 
847	 0.041189277584651 
848	 0.040843613702299 
849	 4.05378873885765E-02 
850	 4.03173491844072E-02 
851	 4.02509393108745E-02 
852	 4.00001812316505E-02 
853	 3.98296846386323E-02 
854	 3.98097072484291E-02 
855	 3.93124519420294E-02 
856	 3.92659661502272E-02 
857	 3.93384917843624E-02 
858	 3.90404672157248E-02 
859	 3.86019458462346E-02 
860	 3.85545136182512E-02 
861	 3.85283495408471E-02 
862	 0.037949580818265 
863	 0.038121928575396 
864	 3.80252696912734E-02 
865	 3.75733761162812E-02 
866	 3.75830685566152E-02 
867	 3.74118371916442E-02 
868	 0.03705974718097 
869	 3.67314997288602E-02 
870	 3.67538796195058E-02 
871	 3.66050833716728E-02 
872	 3.64948259829285E-02 
873	 3.64768189117346E-02 
874	 3.58751435923274E-02 
875	 3.56671754216541E-02 
876	 3.56828076923495E-02 
877	 3.54581684728059E-02 
878	 3.48561775249982E-02 
879	 3.48482114466059E-02 
880	 3.48461714845711E-02 
881	 3.39239807983586E-02 
882	 3.37728820282387E-02 
883	 3.39961835503736E-02 
884	 3.40194501838634E-02 
885	 3.34157944648733E-02 
886	 3.33821290019794E-02 
887	 3.32002958929318E-02 
888	 3.27409940679636E-02 
889	 3.27365681357267E-02 
890	 0.032753851194687 
891	 3.26239038734171E-02 
892	 3.23364190479928E-02 
893	 3.21092122798233E-02 
894	 3.24289349497995E-02 
895	 3.24509638704409E-02 
896	 3.15002438663264E-02 
897	 3.08789385484055E-02 
898	 3.14511352815796E-02 
899	 3.16747454654197E-02 
900	 3.02899127818336E-02 
901	 2.98595916212561E-02 
902	 3.03759649485506E-02 
903	 3.09634971256206E-02 
904	 3.07534952304243E-02 
905	 3.05881724893173E-02 
906	 3.02780917400308E-02 
907	 0.029894415654619 
908	 0.029711540075709 
909	 2.98014324613399E-02 
910	 2.94898857332323E-02 
911	 2.87970677613039E-02 
912	 2.83549941792756E-02 
913	 2.74672181130801E-02 
914	 2.76689671463999E-02 
915	 2.87481654221523E-02 
916	 2.85032035657947E-02 
917	 2.83641255571948E-02 
918	 2.81632979790944E-02 
919	 2.77371423078544E-02 
920	 2.72115775081745E-02 
921	 2.68296844677392E-02 
922	 2.67694642674979E-02 
923	 2.71545568646951E-02 
924	 2.80814845717018E-02 
925	 2.68051521988324E-02 
926	 2.62729427985722E-02 
927	 2.88450147408228E-02 
928	 2.62498174866772E-02 
929	 2.46772029238702E-02 
930	 0.025187337971905 
931	 2.51293805831382E-02 
932	 1.99097184697928E-02 
933	 1.60646445626813E-02 
934	 1.88801010379024E-02 
935	 2.69622753106493E-02 
936	 3.17701014013733E-02 
937	 2.55729227002494E-02 
938	 1.81345398344648E-02 
939	 1.96380544164093E-02 
940	 2.35416254245992E-02 
941	 2.30100510734453E-02 
942	 1.87319975522527E-02 
943	 1.66940151991898E-02 
944	 2.74990830513374E-02 
945	 0.029523616447769 
946	 2.47436592025787E-02 
947	 2.71081951436946E-02 
948	 2.12580305212077E-02 
949	 1.94551594428659E-02 
950	 2.06040056336524E-02 
951	 1.69635717511522E-02 
952	 2.03612456839812E-02 
953	 2.19959115454145E-02 
954	 1.99253680085148E-02 
955	 0.018290369650334 
956	 2.22769620811666E-02 
957	 1.91735133741129E-02 
958	 1.50075064270024E-02 
959	 2.41435256994355E-02 
960	 2.34923811261223E-02 
961	 2.39589697588235E-02 
962	 2.53676367134763E-02 
963	 0.020571168407377 
964	 2.14111702963715E-02 
965	 2.40471199513926E-02 
966	 2.47760452891408E-02 
967	 2.22349262832559E-02 
968	 2.32039593799883E-02 
969	 2.40423391851145E-02 
970	 2.36196584323128E-02 
971	 2.35098224860032E-02 
972	 2.22455454969637E-02 
973	 2.19434930499847E-02 
974	 2.31489492731063E-02 
975	 2.42005589212796E-02 
976	 2.23064960444486E-02 
977	 2.13494752819656E-02 
978	 0.022738572649887 
979	 0.024550550397172 
980	 2.31782745093786E-02 
981	 2.26121163223317E-02 
982	 2.32025309304162E-02 
983	 2.23617918418889E-02 
984	 2.32199468809804E-02 
985	 2.36170546870227E-02 
986	 2.29795161740709E-02 
987	 2.25385535280115E-02 
988	 2.42013439038009E-02 
989	 2.37061312900491E-02 
990	 2.18296640027995E-02 
991	 2.26417191768646E-02 
992	 2.24723052537637E-02 
993	 2.29016353249691E-02 
994	 0.023745012204667 
995	 2.36206366380353E-02 
996	 2.35983078054461E-02 
997	 2.25474268767224E-02 
998	 2.23140798184449E-02 
999	 2.49443622833301E-02 
1000	 2.35844980180366E-02 
1001	 2.10273775255287E-02 
1002	 2.25977291604468E-02 
1003	 2.29437022157508E-02 
1004	 2.27524663542353E-02 
1005	 2.28103883164927E-02 
1006	 2.23025851875998E-02 
1007	 2.21122875558478E-02 
1008	 2.28309838753158E-02 
1009	 2.29071404302251E-02 
1010	 2.32999735930522E-02 
1011	 2.35452302641672E-02 
1012	 2.30300199294031E-02 
1013	 2.28482262653951E-02 
1014	 2.25563325286848E-02 
1015	 2.16900910601646E-02 
1016	 0.021722661093964 
1017	 2.23832240857749E-02 
1018	 2.26478833397784E-02 
1019	 2.34800875296543E-02 
1020	 2.35952435370974E-02 
1021	 2.32145917596047E-02 
1022	 2.26602245871374E-02 
1023	 2.25827784346622E-02 
1024	 2.23488789310074E-02 
1025	 2.18410715418932E-02 
1026	 2.22290941616809E-02 
1027	 2.22781233248139E-02 
1028	 2.20556616325407E-02 
1029	 2.20330790205912E-02 
1030	 2.23554331850473E-02 
1031	 0.022350879284705 
1032	 2.20621583405195E-02 
1033	 2.20418495973421E-02 
1034	 2.20648495344857E-02 
1035	 2.21818640950154E-02 
1036	 2.24055415502805E-02 
1037	 2.26646369942106E-02 
1038	 2.31678708903347E-02 
1039	 2.33925560518109E-02 
1040	 2.33215792930227E-02 
1041	 2.37547244663646E-02 
1042	 2.37183817661913E-02 
1043	 2.32120892367481E-02 
1044	 2.33301773406306E-02 
1045	 2.38805095957176E-02 
1046	 2.37046053679626E-02 
1047	 2.33389127693003E-02 
1048	 2.32665486310858E-02 
1049	 0.022585986519659 
1050	 0.022534938504651 
1051	 2.32984894674957E-02 
1052	 2.37089931469443E-02 
1053	 2.42697296515588E-02 
1054	 0.024522238713698 
1055	 2.46174656891323E-02 
1056	 2.46570552854767E-02 
1057	 2.45572581984481E-02 
1058	 2.41557510321112E-02 
1059	 2.39065577480169E-02 
1060	 2.35964457554392E-02 
1061	 2.34446091960646E-02 
1062	 2.32483025194418E-02 
1063	 2.32501772613914E-02 
1064	 2.36476245040723E-02 
1065	 2.36341375852743E-02 
1066	 2.34116140890875E-02 
1067	 2.33735982638362E-02 
1068	 2.29532170441367E-02 
1069	 2.30650412206024E-02 
1070	 2.42151996483696E-02 
1071	 2.44002188061987E-02 
1072	 2.44929731475844E-02 
1073	 2.39938312440443E-02 
1074	 2.37461462616151E-02 
1075	 2.26771801037916E-02 
1076	 2.26787305123891E-02 
1077	 2.36510332760676E-02 
1078	 2.36933361718651E-02 
1079	 2.33160734723599E-02 
1080	 2.34550029146371E-02 
1081	 2.35666504746249E-02 
1082	 0.023668036793073 
1083	 0.024457750965752 
1084	 2.47275017919884E-02 
1085	 2.42234565786253E-02 
1086	 2.40540339337672E-02 
1087	 2.41652820639897E-02 
1088	 2.39984550060734E-02 
1089	 2.31658252725271E-02 
1090	 2.35061416574813E-02 
1091	 2.35926965418669E-02 
1092	 2.35724375400966E-02 
1093	 2.36845956902309E-02 
1094	 2.44962120250326E-02 
1095	 2.43056822868046E-02 
1096	 2.34062034266087E-02 
1097	 2.28372496070636E-02 
1098	 2.14500530055751E-02 
1099	 2.13087364912529E-02 
1100	 2.24558826322008E-02 
1101	 2.27132197766633E-02 
1102	 2.32760155150054E-02 
1103	 0.023381397367561 
1104	 2.24205338769005E-02 
1105	 2.19421901363587E-02 
1106	 2.14662947275402E-02 
1107	 2.24982542930383E-02 
1108	 2.28910814316179E-02 
1109	 2.18140511749514E-02 
1110	 2.22201837907028E-02 
1111	 2.33877117310703E-02 
1112	 2.34492975658327E-02 
1113	 2.44949528595858E-02 
1114	 0.024599972713325 
1115	 2.09444038177899E-02 
1116	 2.01948866426875E-02 
1117	 2.19915122726988E-02 
1118	 2.29494459796126E-02 
1119	 2.93532314497362E-02 
1120	 3.15438617167076E-02 
1121	 0.029688762337632 
1122	 0.019878782624766 
1123	 1.96093893764227E-02 
1124	 2.31445279161889E-02 
1125	 2.80775999538966E-02 
1126	 0.040600374400308 
1127	 0.041527045288685 
1128	 2.67867264657959E-02 
1129	 2.10842669889286E-02 
1130	 1.54022549383029E-02 
1131	 1.58545397119014E-02 
1132	 1.87494732451478E-02 
1133	 0.020223869593017 
1134	 2.56121556433783E-02 
1135	 2.56478685861056E-02 
1136	 2.20565563400054E-02 
1137	 2.27506724275838E-02 
1138	 2.53801751410844E-02 
1139	 2.25095189838451E-02 
1140	 2.39514566340016E-02 
1141	 2.69449523856482E-02 
1142	 2.33891816162142E-02 
1143	 2.14297081780442E-02 
1144	 2.27049592076378E-02 
1145	 1.99323620719103E-02 
1146	 1.92167578820041E-02 
1147	 0.021775791449241 
1148	 2.12954087506417E-02 
1149	 2.13819042304531E-02 
1150	 2.16979278366514E-02 
1151	 2.19461355971208E-02 
1152	 2.24734312109187E-02 
1153	 2.46157473586856E-02 
1154	 2.41272499146526E-02 
1155	 0.022812400747629 
1156	 2.16470046612081E-02 
1157	 2.16504479450365E-02 
1158	 0.020884800945182 
1159	 2.04683829659266E-02 
1160	 2.14370014142756E-02 
1161	 2.18598364783009E-02 
1162	 2.09303314701817E-02 
1163	 2.07752208417691E-02 
1164	 2.16081866192335E-02 
1165	 2.11820688187972E-02 
1166	 2.03375161406358E-02 
1167	 2.04931850931992E-02 
1168	 2.10419838100896E-02 
1169	 2.14286549758124E-02 
1170	 2.17109673268509E-02 
1171	 2.17255660216725E-02 
1172	 2.08508140328697E-02 
1173	 2.08178059598287E-02 
1174	 2.08757817943872E-02 
1175	 2.16274985735391E-02 
1176	 2.22557875337873E-02 
1177	 2.21273109188667E-02 
1178	 2.14158459073822E-02 
1179	 2.10216663463654E-02 
1180	 0.021107933859896 
1181	 2.10839346836799E-02 
1182	 2.13832312891753E-02 
1183	 2.17203449971423E-02 
1184	 2.12361494130443E-02 
1185	 2.09595366568109E-02 
1186	 2.12108037180805E-02 
1187	 0.021125092874142 
1188	 2.11766979265536E-02 
1189	 0.02130278350314 
1190	 2.11572557705351E-02 
1191	 2.16938106713355E-02 
1192	 2.18112225714513E-02 
1193	 0.021981618449252 
1194	 2.16127420833951E-02 
1195	 2.14914012914431E-02 
1196	 2.13596781555977E-02 
1197	 2.15350954540513E-02 
1198	 2.21847788222565E-02 
1199	 2.24829590543161E-02 
1200	 2.19888302751757E-02 
1201	 2.13146892339124E-02 
1202	 2.14931634097371E-02 
1203	 2.18988745398196E-02 
1204	 2.16790828081368E-02 
1205	 2.17506143260014E-02 
1206	 2.22385964540541E-02 
1207	 2.20219365566102E-02 
1208	 2.16576460646747E-02 
1209	 2.19745630115859E-02 
1210	 2.21072851924785E-02 
1211	 2.14899310251181E-02 
1212	 0.021231378476979 
1213	 0.021452143509231 
1214	 2.14551886354334E-02 
1215	 2.09969432304219E-02 
1216	 2.10968572142445E-02 
1217	 2.13513719790341E-02 
1218	 2.12165969624438E-02 
1219	 2.10130036646828E-02 
1220	 2.08982704039493E-02 
1221	 2.12223607408799E-02 
1222	 0.021410352856833 
1223	 2.10203526215704E-02 
1224	 2.09657888295428E-02 
1225	 2.12953069449085E-02 
1226	 2.10023544737104E-02 
1227	 2.07477384388369E-02 
1228	 2.15281267044964E-02 
1229	 2.22366531373099E-02 
1230	 2.20828170970667E-02 
1231	 2.20150653635825E-02 
1232	 2.17391244517265E-02 
1233	 2.10445433562605E-02 
1234	 2.11803708760336E-02 
1235	 2.12377685324939E-02 
1236	 2.16099227713038E-02 
1237	 2.16014202771168E-02 
1238	 2.14815856526338E-02 
1239	 2.12605010303324E-02 
1240	 0.021073691995317 
1241	 2.14327190470741E-02 
1242	 0.021716320183934 
1243	 2.15926004502848E-02 
1244	 2.15227809469954E-02 
1245	 2.13351093499152E-02 
1246	 2.13942993072939E-02 
1247	 0.021923526328625 
1248	 2.18956590191482E-02 
1249	 2.15426800741161E-02 
1250	 2.16506799819804E-02 
1251	 0.021705596718335 
1252	 2.19531246343016E-02 
1253	 2.21983279389109E-02 
1254	 2.17325054154406E-02 
1255	 2.16818105275706E-02 
1256	 2.17048144126454E-02 
1257	 2.20902003700391E-02 
1258	 2.19952041614287E-02 
1259	 2.15071404090382E-02 
1260	 2.14775846895777E-02 
1261	 2.16518964388786E-02 
1262	 2.16094499600676E-02 
1263	 2.17381261556765E-02 
1264	 2.20174720180807E-02 
1265	 2.22013575956461E-02 
1266	 2.19397376150778E-02 
1267	 2.17914226813441E-02 
1268	 2.17801876699862E-02 
1269	 2.15934862469253E-02 
1270	 2.15588485828549E-02 
1271	 2.15683345051129E-02 
1272	 0.021553670129172 
1273	 2.14702368716307E-02 
1274	 2.12680179665485E-02 
1275	 2.13713633756088E-02 
1276	 2.17299895324642E-02 
1277	 2.18775181882178E-02 
1278	 2.15345228686187E-02 
1279	 2.14070088165294E-02 
1280	 2.18043217357147E-02 
1281	 2.19306964266429E-02 
1282	 2.17279192090416E-02 
1283	 2.17592619499847E-02 
1284	 2.21533854356584E-02 
1285	 2.21507555540461E-02 
1286	 2.17985351246186E-02 
1287	 2.17412335036881E-02 
1288	 2.16928506513918E-02 
1289	 0.021683558978784 
1290	 2.18075712859298E-02 
1291	 2.19109092239394E-02 
1292	 2.17960198575766E-02 
1293	 2.16630463113033E-02 
1294	 2.15896513191401E-02 
1295	 2.19037547147797E-02 
1296	 2.23132369702111E-02 
1297	 2.21160047018765E-02 
1298	 2.21705021068801E-02 
1299	 2.23733464041087E-02 
1300	 2.23839857995855E-02 
1301	 0.023263639831427 
1302	 0.023640683411664 
1303	 2.27699431912739E-02 
1304	 2.25919488628945E-02 
1305	 2.28883873792457E-02 
1306	 2.26913174178803E-02 
1307	 2.21028992682798E-02 
1308	 2.20800813386831E-02 
1309	 0.022179272536129 
1310	 2.20538428245889E-02 
1311	 2.24544254243905E-02 
1312	 0.022352572467781 
1313	 2.15740961054568E-02 
1314	 2.11390537721495E-02 
1315	 2.03678300280961E-02 
1316	 2.03503516736481E-02 
1317	 2.09409438486974E-02 
1318	 2.11328869460791E-02 
1319	 2.19387513676274E-02 
1320	 2.23740335500261E-02 
1321	 2.26062974663841E-02 
1322	 2.24345507241384E-02 
1323	 2.22118432051704E-02 
1324	 2.16202311910054E-02 
1325	 2.04524877986072E-02 
1326	 0.019708112494459 
1327	 2.01963844927831E-02 
1328	 2.07181868051565E-02 
1329	 2.07396919617608E-02 
1330	 2.16577469964569E-02 
1331	 2.25918696914731E-02 
1332	 2.12706206309264E-02 
1333	 1.96975536928132E-02 
1334	 2.06410310807631E-02 
1335	 0.021481811951849 
1336	 2.34013864134341E-02 
1337	 2.31744279111475E-02 
1338	 2.21486275310783E-02 
1339	 2.22014990386588E-02 
1340	 2.13668222508933E-02 
1341	 2.00678971588768E-02 
1342	 1.93142195579703E-02 
1343	 1.96770791940429E-02 
1344	 1.88402574850205E-02 
1345	 1.80280031779614E-02 
1346	 2.17251535526997E-02 
1347	 2.40081555107086E-02 
1348	 2.03360679490449E-02 
1349	 1.95855339090229E-02 
1350	 3.48096501944079E-02 
1351	 3.32653855806651E-02 
1352	-2.30354528801131E-02 
1353	-5.41529300235099E-02 
1354	-7.01588587203762E-02 
1355	-8.15598397382562E-02 
1356	-0.101935709750684 
1357	-7.36407672699396E-02 
1358	-3.38409483275113E-02 
1359	-0.222050450496632 
1360	-0.426165434285012 
1361	-0.225378817260584 
1362	-0.209898608954361 
1363	-0.286558841887477 
1364	-0.204817867324761 
1365	-4.97550275578628E-02 
1366	-4.92521077993609E-02 
1367	-4.46148914368371E-02 
1368	-0.121062735078012 
1369	-0.188347492704059 
1370	-9.02029808878534E-02 
1371	 2.09425230492393E-02 
1372	 0.24536297413703 
1373	 2.8402286564682 
1374	 3.44118263882684 
1375	 0.534570061281608 
1376	 0.365017946397884 
1377	 0.423637296774141 
1378	 0.273309089188727 
1379	 0.303630507144596 
1380	 0.258569206122331 
1381	-6.84127275787948 
1382	-2.41801569594946 
1383	 9.51098983069069E-02 
1384	 0.181003563333756 
1385	-0.130335382121425 
1386	 2.29464420680111E-02 
1387	 0.902380824586833 
1388	 1.35976480813228 
1389	 0.98835513036145 
1390	 0.924701807174665 
1391	 0.545011148792785 
1392	-0.550097771714202 
1393	-7.48234484248186E-02 
1394	 0.157999968944865 
1395	 0.594880960036697 
1396	 4.24619992337529 
1397	 2.12729040964965 
1398	 1.12871631142564 
1399	 0.302862081766604 
1400	-1.19235882300065 
1401	-2.40339134023411 
1402	-1.81377131499589 
1403	-0.19222371932256 
1404	 0.165187828942109 
1405	 0.209818963299686 
1406	 0.333055253820952 
1407	 0.355104308280067 
1408	 4.74698006443568E-02 
1409	 4.91770518881908E-02 
1410	 0.189857772401661 
1411	 0.282022293838781 
1412	 0.576341058207909 
1413	 0.478429239678866 
1414	 0.271623300480162 
1415	 0.190207981488266 
1416	 1.13010839860265E-02 
1417	-0.023119397757025 
1418	 4.57930186979419E-02 
1419	 7.58023580191132E-02 
1420	 9.52408755416367E-02 
1421	 0.082224679428252 
1422	 0.053187916143863 
1423	 5.29544899339163E-02 
1424	 8.23169878713466E-02 
1425	 0.068108991178635 
1426	 3.37008749987166E-02 
1427	 2.71541345549454E-02 
1428	 1.58422252669576E-02 
1429	 6.54904126815975E-03 
1430	-2.48608119990492E-03 
1431	 1.48037118395383E-02 
1432	 6.16736161407507E-02 
1433	 6.77508970863592E-02 
1434	 6.85528687308437E-02 
1435	 7.30997478438158E-02 
1436	 0.041997892060181 
1437	 0.033188681911246 
1438	 4.99111773802604E-02 
1439	 0.041987505205828 
1440	 3.91729030745275E-02 
1441	 3.81459328076795E-02 
1442	 1.39529713983175E-02 
1443	 1.91720805942967E-02 
1444	 4.06958525430982E-02 
1445	 2.11132653460195E-02 
1446	 4.80647712208303E-03 
1447	 2.03631249345786E-02 
1448	 2.73680349387698E-02 
1449	 2.27997037167578E-02 
1450	 0.016278596413072 
1451	 1.11696632677357E-02 
1452	 1.74110830178072E-02 
1453	 2.31320849390277E-02 
1454	 2.21646181290955E-02 
1455	 2.87522643056992E-02 
1456	 2.88171888271804E-02 
1457	 1.70339887994816E-02 
1458	 0.01604377882735 
1459	 2.25524896469272E-02 
1460	 2.46644786493815E-02 
1461	 2.56971699677537E-02 
1462	 2.52691392751934E-02 
1463	 2.46397903037977E-02 
1464	 2.50793547224151E-02 
1465	 2.34798937714053E-02 
1466	 2.24393139222286E-02 
1467	 2.42512260438079E-02 
1468	 2.50490868942312E-02 
1469	 2.30147664446853E-02 
1470	 2.27399676548907E-02 
1471	 2.76337418620445E-02 
1472	 2.48872447058936E-02 
1473	 1.24853378310465E-02 
1474	 1.29702507472444E-02 
1475	 2.06988705619677E-02 
1476	 1.95486740447312E-02 
1477	 1.72970360573335E-02 
1478	 2.12336955788147E-02 
1479	 2.49675166006945E-02 
1480	 2.32049724352498E-02 
1481	 0.023912388531528 
1482	 2.51496064934625E-02 
1483	 2.15540510657378E-02 
1484	 0.019303345246271 
1485	 1.95186338794382E-02 
1486	 0.020851763405852 
1487	 2.12600517433209E-02 
1488	 0.021231250930558 
1489	 2.37166026829278E-02 
1490	 2.42877902113166E-02 
1491	 2.21427791819904E-02 
1492	 2.16367117272206E-02 
1493	 0.021859723905411 
1494	 2.21168193069899E-02 
1495	 2.33949925671468E-02 
1496	 2.31602138119068E-02 
1497	 2.13478904780598E-02 
1498	 2.14256333921463E-02 
1499	 2.23577983874985E-02 
1500	 2.21302502815403E-02 
1501	 2.19702610034346E-02 
1502	 2.24669187669319E-02 
1503	 2.25997989873731E-02 
1504	 2.23701473235396E-02 
1505	 2.24540040113591E-02 
1506	 2.31788395948264E-02 
1507	 2.33009076886837E-02 
1508	 2.28520039160194E-02 
1509	 2.26193556013676E-02 
1510	 2.27067758249445E-02 
1511	 2.27609081860709E-02 
1512	 2.23786985365617E-02 
1513	 2.24821589986034E-02 
1514	 2.29508940905147E-02 
1515	 2.27901322077336E-02 
1516	 2.25566011439531E-02 
1517	 2.22923153057428E-02 
1518	 2.19418892478254E-02 
1519	 2.21781172035528E-02 
1520	 2.24643555603104E-02 
1521	 2.24849830140472E-02 
1522	 2.27157972624678E-02 
1523	 2.27319500371354E-02 
1524	 2.23253182936317E-02 
1525	 2.20364914099878E-02 
1526	 2.21048357483656E-02 
1527	 2.19975239343043E-02 
1528	 2.13984041553743E-02 
1529	 2.13394369143721E-02 
1530	 2.19148793495787E-02 
1531	 2.20167261473523E-02 
1532	 2.21106263284597E-02 
1533	 2.22714145372319E-02 
1534	 2.22076144037821E-02 
1535	 2.26058915528898E-02 
1536	 2.25531467437461E-02 
1537	 2.21684043106409E-02 
1538	 2.23840135717984E-02 
1539	 2.24641136072947E-02 
1540	 2.26353692459463E-02 
1541	 2.26666718237677E-02 
1542	 2.21958751774285E-02 
1543	 2.21054711967682E-02 
1544	 2.21298491998889E-02 
1545	 2.22434629618678E-02 
1546	 2.25798038898316E-02 
1547	 2.24090114207138E-02 
1548	 2.22690484891078E-02 
1549	 2.22763984306774E-02 
1550	 2.22676653111373E-02 
1551	 2.23533181774562E-02 
1552	 2.20468581840621E-02 
1553	 2.21676727948225E-02 
1554	 2.23493808062845E-02 
1555	 2.19218452864723E-02 
1556	 0.022200029485633 
1557	 2.27200622463259E-02 
1558	 2.24695625279824E-02 
1559	 0.022228667705716 
1560	 2.23137307980026E-02 
1561	 2.21744080810385E-02 
1562	 2.19354629966092E-02 
1563	 2.18413551655109E-02 
1564	 2.18473474351037E-02 
1565	 2.17916937463064E-02 
1566	 2.14737257397552E-02 
1567	 2.14574885628667E-02 
1568	 2.17133086601849E-02 
1569	 2.17794578001776E-02 
1570	 2.19875999045272E-02 
1571	 2.23497803895415E-02 
1572	 2.23887699334037E-02 
1573	 2.19302611075649E-02 
1574	 2.17231408267988E-02 
1575	 2.18548507795384E-02 
1576	 2.16064083727271E-02 
1577	 2.18184532408763E-02 
1578	 2.24856191815798E-02 
1579	 2.25089162320704E-02 
1580	 2.23477688215789E-02 
1581	 2.23522999055845E-02 
1582	 2.23414396283307E-02 
1583	 2.23384575296481E-02 
1584	 2.23358007200936E-02 
1585	 2.22290535661372E-02 
1586	 2.21525045650372E-02 
1587	 2.21708622622343E-02 
1588	 2.18354821138172E-02 
1589	 2.17344024833174E-02 
1590	 2.21521647173552E-02 
1591	 2.20000171644588E-02 
1592	 2.19554592585515E-02 
1593	 2.24576359106739E-02 
1594	 0.022231900178175 
1595	 2.17339875961659E-02 
1596	 2.20814799805883E-02 
1597	 2.24868485794809E-02 
1598	 0.022135001236088 
1599	 2.18702996256974E-02 
1600	 2.20670207282576E-02 
1601	 2.23896891388514E-02 
1602	 2.26293480605496E-02 
1603	 2.23139156083771E-02 
1604	 2.18269267194158E-02 
1605	 2.18505386314997E-02 
1606	 2.20914315198579E-02 
1607	 2.23330069236262E-02 
1608	 2.23414389428853E-02 
1609	 2.17067594874715E-02 
1610	 2.16542926538127E-02 
1611	 2.29323248579267E-02 
1612	 2.36785740978117E-02 
1613	 2.31941084422038E-02 
1614	 2.23569883063859E-02 
1615	 2.20074533769583E-02 
1616	 2.24965177410169E-02 
1617	 2.27827585166662E-02 
1618	 2.28494513451392E-02 
1619	 2.28762666012253E-02 
1620	 2.25439876529271E-02 
1621	 2.31218737270329E-02 
1622	 2.36840233315836E-02 
1623	 2.23838500389711E-02 
1624	 2.15615637887907E-02 
1625	 2.22965196408907E-02 
1626	 2.21858023262188E-02 
1627	 2.21064790903413E-02 
1628	 2.28631574329949E-02 
1629	 0.022383662805204 
1630	 2.20666395862266E-02 
1631	 2.24389858059881E-02 
1632	 2.21276380633169E-02 
1633	 2.22433535335909E-02 
1634	 2.24511718755468E-02 
1635	 2.25660767251684E-02 
1636	 2.26544039095572E-02 
1637	 2.19799299378268E-02 
1638	 2.16494131910177E-02 
1639	 2.18516372899628E-02 
1640	 2.20867956037987E-02 
1641	 2.22304336025837E-02 
1642	 2.20115361140562E-02 
1643	 2.19742320891369E-02 
1644	 2.20133518469971E-02 
1645	 2.19362921918866E-02 
1646	 2.22682826559522E-02 
1647	 2.23457784958672E-02 
1648	 0.022131164209311 
1649	 2.22071627297363E-02 
1650	 2.22002911125608E-02 
1651	 2.25418734634048E-02 
1652	 2.27648730635403E-02 
1653	 2.28126748253169E-02 
1654	 2.29646772035112E-02 
1655	 2.26720125562523E-02 
1656	 2.25591399071332E-02 
1657	 0.022858551511988 
1658	 2.27863346895474E-02 
1659	 2.22711568414005E-02 
1660	 2.23841651896866E-02 
1661	 2.28942284406998E-02 
1662	 2.29587079973186E-02 
1663	 2.31434832515072E-02 
1664	 2.31118705603054E-02 
1665	 2.23180178903991E-02 
1666	 2.21806027215706E-02 
1667	 2.27043640752472E-02 
1668	 2.24094293375708E-02 
1669	 2.26591019177063E-02 
1670	 2.32910457904449E-02 
1671	 0.023420584246018 
1672	 2.28925364893408E-02 
1673	 2.25584877506046E-02 
1674	 2.25927055845438E-02 
1675	 2.21517396648101E-02 
1676	 2.25463476712407E-02 
1677	 2.26163254010342E-02 
1678	 0.021337624134893 
1679	 0.021421528026826 
1680	 2.20702781610028E-02 
1681	 2.13928315252869E-02 
1682	 2.14507932805311E-02 
1683	 2.18592301112574E-02 
1684	 2.06221787925906E-02 
1685	 2.07433435735331E-02 
1686	 2.24297213035397E-02 
1687	 2.23691335567582E-02 
1688	 2.21948636094798E-02 
1689	 2.26028568375133E-02 
1690	 2.19234902278645E-02 
1691	 0.021576973878765 
1692	 0.022248163430621 
1693	 0.022318365250562 
1694	 2.19943028102006E-02 
1695	 2.21203722588555E-02 
1696	 2.19396876511827E-02 
1697	 0.022220601334914 
1698	 2.33589596702928E-02 
1699	 2.33561331297814E-02 
1700	 2.30620128390063E-02 
1701	 0.023577625688964 
1702	 2.30999919958117E-02 
1703	 2.24834557762698E-02 
1704	 2.25769965809502E-02 
1705	 2.18777687101686E-02 
1706	 2.13381299329855E-02 
1707	 2.18331565645905E-02 
1708	 0.022140418292226 
1709	 2.24030995387829E-02 
1710	 2.30505985356977E-02 
1711	 2.27863850994714E-02 
1712	 2.20204730829767E-02 
1713	 2.27874627773358E-02 
1714	 2.28028013485658E-02 
1715	 2.23519244430887E-02 
1716	 0.021572862353744 
1717	 2.16484333110273E-02 
1718	 2.16369594789417E-02 
1719	 2.31249545989973E-02 
1720	 2.39533491159676E-02 
1721	 2.22911350751403E-02 
1722	 2.16204185195494E-02 
1723	 2.15985760788802E-02 
1724	 2.16417431631329E-02 
1725	 2.23972145142948E-02 
1726	 2.19367822914334E-02 
1727	 2.09521546823654E-02 
1728	 2.12712661201852E-02 
1729	 2.16374215027583E-02 
1730	 2.18662177397068E-02 
1731	 2.24343799147467E-02 
1732	 2.12207499118962E-02 
1733	 2.05602551872267E-02 
1734	 2.22199704752409E-02 
1735	 2.32431220814434E-02 
1736	 0.023559207978953 
1737	 2.31460243416335E-02 
1738	 2.22551514106499E-02 
1739	 2.15300326830048E-02 
1740	 2.15307298465759E-02 
1741	 2.25618200773433E-02 
1742	 2.25825706014546E-02 
1743	 2.22108504405639E-02 
1744	 2.29614502313881E-02 
1745	 2.33743080749661E-02 
1746	 0.021106180523435 
1747	 2.12416378933053E-02 
1748	 2.29326794639282E-02 
1749	 2.31512574687793E-02 
1750	 2.45026205126962E-02 
1751	 2.43497582494393E-02 
1752	 2.08610933665095E-02 
1753	 2.10887083098031E-02 
1754	 2.39148975269356E-02 
1755	 2.38493475870343E-02 
1756	 2.42949355513383E-02 
1757	 2.37231392290078E-02 
1758	 0.022008302787084 
1759	 2.24723449001651E-02 
1760	 2.18033809803141E-02 
1761	 2.03674482146295E-02 
1762	 2.07743172582174E-02 
1763	 2.22511467950254E-02 
1764	 2.36500753187301E-02 
1765	 2.39601402789916E-02 
1766	 0.023670280615272 
1767	 2.33537510173897E-02 
1768	 2.30720439096521E-02 
1769	 2.40882790150476E-02 
1770	 2.51008809847276E-02 
1771	 2.46765864433683E-02 
1772	 0.024309090540241 
1773	 2.41036501147391E-02 
1774	 2.36959368862666E-02 
1775	 2.28334429570429E-02 
1776	 2.32857251497413E-02 
1777	 2.46911449586151E-02 
1778	 2.45423574944497E-02 
1779	 0.024138998840593 
1780	 2.51215428909347E-02 
1781	 0.025148344411185 
1782	 2.51830104420573E-02 
1783	 2.96490335961545E-02 
1784	 0.029414149077322 
1785	 0.022278276007002 
1786	 2.12702870275682E-02 
1787	 0.021352000248068 
1788	 2.15028705725973E-02 
1789	 2.79408785384284E-02 
1790	 2.82959319383704E-02 
1791	 2.66919052570683E-02 
1792	 2.48549126948227E-02 
1793	 1.64925743870832E-02 
1794	 2.10048368740701E-02 
1795	 2.22253415096017E-02 
1796	 1.64485918615445E-02 
1797	 2.02981708183275E-02 
1798	-2.60431143077513E-03 
1799	-2.14248294194691E-02 
1800	-4.57488400563051E-03 
1801	 5.59915290591699E-03 
1802	 6.25646418179091E-02 
1803	 0.071512472047346 
1804	-1.95764900775225E-03 
1805	-3.43021471284787E-02 
1806	-0.136552873633352 
1807	-0.190910778511814 
1808	-3.51707751738726E-02 
1809	 1.19069246896694E-02 
1810	-2.04256532574217E-03 
1811	-5.18118165816351E-02 
1812	-0.3790244169131 
1813	-0.399204742161591 
1814	-0.167672740066221 
1815	-1.6251683367651E-03 
1816	 0.616387330998803 
1817	 1.1690036784937 
1818	 2.6843623579522 
1819	-0.44922242744744 
1820	-0.873192495210463 
1821	-0.769754149873533 
1822	-0.805561362062105 
1823	-0.604701167889523 
1824	-1.51397495436159 
1825	-1.77464509634065 
1826	-1.61084492202179 
1827	-2.18618458239615 
1828	-2.7611027481056 
1829	-3.07981688578549 
1830	-2.01564859994882 
1831	-0.302785393902683 
1832	-0.341751791040495 
1833	 8.16714993964454E-02 
1834	 8.92904358795334E-02 
1835	-0.173090806717145 
1836	-0.136332184901293 
1837	 0.758840717851009 
1838	 1.02929124702837 
1839	 0.814802799280024 
1840	 0.484992983518371 
1841	 0.158335511639687 
1842	-0.356136901412755 
1843	-0.400841341003622 
1844	 0.201901629047232 
1845	 0.136449519162346 
1846	-1.15423197034115 
1847	-1.23826787488621 
1848	-52.4441134857913 
1849	 1.68991489727026 
1850	 1.05632104516828 
1851	-8.03095913402941 
1852	-0.959196737506681 
1853	-1.38772688330368 
1854	-1.42595801022358 
1855	-0.340687210051978 
1856	 0.130382697705737 
1857	 0.441886525152632 
1858	 0.760960801184494 
1859	 0.50471453756593 
1860	-0.159382830608997 
1861	-2.27569569917836 
1862	-42.3990894612134 
1863	-0.636463085256185 
1864	-0.288884098324232 
1865	-0.359916676965316 
1866	 0.154455107722078 
1867	 0.154468456442958 
1868	-1.63694603643642 
1869	-3.56331241573396 
1870	-11.5483395615601 
1871	 41.0905565668231 
1872	 5.05116883042468 
1873	-0.751623343501113 
1874	-0.174937674357363 
1875	-0.311411695117897 
1876	-0.408128526663508 
1877	-1.32100371750433 
1878	-2.29421948306378 
1879	 7.05038942606124 
1880	 2.53832176148744 
1881	 4.25926514245104 
1882	 5.29569080492293 
1883	 6.70657957890055E-02 
1884	-0.374951536286716 
1885	-4.65082184500279 
1886	 47.9442332549708 
1887	-13.4270760875319 
1888	-9.66858836097559 
1889	-3.87097531572467 
1890	-2.25390749180295 
1891	-1.07342737237726 
1892	-0.126907530284958 
1893	 9.88791811465242E-02 
1894	 0.370050792067251 
1895	 0.261164193239 
1896	 0.398905499816146 
1897	 0.622659931445289 
1898	 2.14466824339147 
1899	-2.23076956434536 
1900	-1.4922261425813 
1901	-0.529527130516685 
1902	-0.34671464762282 
1903	-1.02507575642389 
1904	-0.566905882435001 
1905	-0.740453724973717 
1906	-7.22002007810655 
1907	 6.60324381089683 
1908	 2.11172967203535 
1909	 1.53032236307402 
1910	 5.73673957432681 
1911	-0.442458831859162 
1912	-0.426678842174712 
1913	-0.469927444640904 
1914	-1.4939709689317 
1915	-1.48388250231598 
1916	-0.707570747747638 
1917	-0.43733958928541 
1918	-1.04626101662925 
1919	-1.29525552466129 
1920	-2.58185907431021 
1921	-1.22177463044212 
1922	-1.26983903763344 
1923	-1.93738615811395 
1924	-0.631251485297081 
1925	-0.818970115886499 
1926	-0.725822039625112 
1927	-0.863613559397174 
1928	 0.29285780295566 
1929	 0.118978763073612 
1930	 1.76720928390408 
1931	-7.5203777783216 
1932	-1.89055284483421 
1933	-1.99729681049938 
1934	-0.615170133626013 
1935	-0.212311329365427 
1936	-0.369521685275087 
1937	 0.480753467768581 
1938	 0.498600982504567 
1939	 0.204248162889306 
1940	-2.26325216233815E-02 
1941	-0.154958357442924 
1942	-0.350781037572971 
1943	-0.258670803013682 
1944	-0.130849691039431 
1945	-0.114241569907188 
1946	 0.02813647345209 
1947	 2.37379506298265E-02 
1948	-6.28884913830772E-02 
1949	 8.61166179731284E-02 
1950	 0.100197828022159 
1951	 4.52796750612624E-02 
1952	 3.39195022278815E-02 
1953	 0.044020817869101 
1954	 0.03255482128079 
1955	 0.030614567612772 
1956	 4.0258104413129E-03 
1957	 6.69076408737965E-03 
1958	 3.62196522652255E-02 
1959	 3.39182756303874E-02 
1960	 2.90364137100253E-02 
1961	 2.52602217729991E-02 
1962	 7.81952136080282E-03 
1963	 5.41458296257617E-03 
1964	 1.05547325646066E-02 
1965	 9.75941571215173E-03 
1966	 9.60669622708708E-03 
1967	 8.4228081163544E-03 
1968	 6.83355716448102E-03 
1969	 0.010282234706046 
1970	 1.55058135237892E-02 
1971	 2.23216272973815E-02 
1972	 3.03057955350434E-02 
1973	 2.97321120417367E-02 
1974	 2.36742726431437E-02 
1975	 2.37137349389529E-02 
1976	 2.40134605083568E-02 
1977	 2.18731267111518E-02 
1978	 2.33778385543659E-02 
1979	 2.43388288447895E-02 
1980	 2.52511285794558E-02 
1981	 2.10143181052995E-02 
1982	 1.80503210687643E-02 
1983	 1.97949181350143E-02 
1984	 2.04842222315614E-02 
1985	 1.92553218519502E-02 
1986	 2.00277781344407E-02 
1987	 1.96734982365941E-02 
1988	 1.68891555277318E-02 
1989	 1.58196220560502E-02 
1990	 1.71172541112426E-02 
1991	 1.85366499785743E-02 
1992	 1.88692505824639E-02 
1993	 2.02644223961763E-02 
1994	 2.10382974628921E-02 
1995	 0.021860769085434 
1996	 0.020686127297996 
1997	 0.019019412341428 
1998	 2.02462874808715E-02 
1999	 1.95999993066526E-02 
2000	 0.020777620196959 
2001	 2.77898832713411E-02 
2002	 2.31470334570215E-02 
2003	 2.05774955228056E-02 
2004	 1.72472673030489E-02 
2005	 2.00088495315285E-03 
2006	-2.96018078099903E-03 
2007	-2.4518099184293E-03 
2008	-1.46400237625211E-03 
2009	 9.6451872147688E-04 
2010	 1.27631988419748E-02 
2011	 1.48390256324131E-02 
2012	 1.10845632967057E-02 
2013	 1.03003835529954E-02 
2014	 8.28421951709201E-03 
2015	 8.01086353313087E-03 
2016	 1.18129878371666E-02 
2017	 0.015926790207233 
2018	 0.018665952296577 
2019	 1.95633578875345E-02 
2020	 2.00486311239417E-02 
2021	 1.79614040439336E-02 
2022	 1.65859523602443E-02 
2023	 1.78391165923425E-02 
2024	 1.82345508539969E-02 
2025	 1.92624265604135E-02 
2026	 1.90704212279731E-02 
2027	 1.86778656621268E-02 
2028	 1.73772877360187E-02 
2029	 0.01574278456073 
2030	 1.54748123766528E-02 
2031	 1.63243113321387E-02 
2032	 1.68533032332093E-02 
2033	 1.83386636329395E-02 
2034	 1.95388526393326E-02 
2035	 1.91002699667301E-02 
2036	 0.019630689830506 
2037	 2.03052487281979E-02 
2038	 2.01027925840686E-02 
2039	 2.01672195681027E-02 
2040	 2.07569348901454E-02 
2041	 2.07587664420712E-02 
2042	 2.07551725294801E-02 
2043	 0.019753613393095 
2044	 1.77259079704912E-02 
2045	 0.016300644658545 
2046	 1.54703424246088E-02 
2047	 1.30460665801752E-02 
2048	 1.17710175604452E-02 
2049	 1.18676557911178E-02 
2050	 1.11596956085402E-02 
2051	 1.27385304126775E-02 
2052	 1.59887878510291E-02 
2053	 0.017308980468075 
2054	 1.63693434553734E-02 
2055	 1.77165559323602E-02 
2056	 1.85356818430146E-02 
2057	 1.86948192156291E-02 
2058	 1.85386415710226E-02 
2059	 1.86203841459352E-02 
2060	 1.89205166183984E-02 
2061	 1.78244258996406E-02 
2062	 1.96428881459431E-02 
2063	 2.39145571526735E-02 
2064	 2.34879570740628E-02 
2065	 2.29637919068341E-02 
2066	 2.19671207084784E-02 
2067	 0.017671588983537 
2068	 1.65116422188392E-02 
2069	 1.64632101998316E-02 
2070	 1.67021632712608E-02 
2071	 1.86134857825776E-02 
2072	 2.20093406210245E-02 
2073	 2.20243956916915E-02 
2074	 1.87517977328391E-02 
2075	 0.017810495453849 
2076	 1.61031835345124E-02 
2077	 0.015797913549537 
2078	 1.81368331792817E-02 
2079	 1.87121045751845E-02 
2080	 1.91517758435619E-02 
2081	 0.018642337793972 
2082	 1.60606014626969E-02 
2083	 1.62415819775246E-02 
2084	 1.95949031183642E-02 
2085	 1.94943779251895E-02 
2086	 0.020170351248943 
2087	 2.17640674205018E-02 
2088	 2.00184268216034E-02 
2089	 0.01888123741583 
2090	 2.11941734911708E-02 
2091	 2.12090814425788E-02 
2092	 2.09614889321308E-02 
2093	 2.22539762754346E-02 
2094	 2.16200174407189E-02 
2095	 0.017296441691717 
2096	 1.67552391283536E-02 
2097	 1.80411921438894E-02 
2098	 1.73718148509653E-02 
2099	 1.68336717281553E-02 
2100	 1.71913375322168E-02 
2101	 1.56208083369924E-02 
2102	 1.46787020765071E-02 
2103	 1.75726537001815E-02 
2104	 1.92513168274823E-02 
2105	 1.92904002879223E-02 
2106	 1.99078443723953E-02 
2107	 1.83179841183611E-02 
2108	 0.017477479274499 
2109	 1.83443946156039E-02 
2110	 0.018567986754317 
2111	 1.95817019891913E-02 
2112	 0.021306066044591 
2113	 2.19069666437703E-02 
2114	 2.17832720322661E-02 
2115	 2.25719325565788E-02 
2116	 0.023665904281043 
2117	 2.35847518898839E-02 
2118	 2.38805134243104E-02 
2119	 0.0232350302609 
2120	 2.05913211593309E-02 
2121	 1.91008341446943E-02 
2122	 1.89825768636369E-02 
2123	 0.020318203633127 
2124	 2.25242249459174E-02 
2125	 2.19647747355102E-02 
2126	 0.021013541842956 
2127	 2.21850428889903E-02 
2128	 0.022768378775738 
2129	 2.41625429037118E-02 
2130	 0.025618578499944 
2131	 2.31049938382224E-02 
2132	 1.98354651667139E-02 
2133	 1.76134174791165E-02 
2134	 1.72718129206302E-02 
2135	 1.94493574758509E-02 
2136	 0.019303934395464 
2137	 1.86531716916326E-02 
2138	 1.92796288961369E-02 
2139	 1.88744571541576E-02 
2140	 0.018441912271758 
2141	 2.10608320588677E-02 
2142	 2.15910188280679E-02 
2143	 1.94037312783582E-02 
2144	 1.84348809244406E-02 
2145	 1.91843524165474E-02 
2146	 1.97503588436472E-02 
2147	 2.22505237235156E-02 
2148	 2.32346716036607E-02 
2149	 2.20244859595921E-02 
2150	 2.24831365412375E-02 
2151	 0.021392847297693 
2152	 0.019212693401449 
2153	 1.95236039394398E-02 
2154	 2.00249401916192E-02 
2155	 2.01203723968219E-02 
2156	 2.03812221801344E-02 
2157	 2.02413061173573E-02 
2158	 1.91661199536984E-02 
2159	 1.84651033339107E-02 
2160	 0.018061471821459 
2161	 1.69721064904028E-02 
2162	 1.60435560386112E-02 
2163	 1.55300642748939E-02 
2164	 1.31085664781472E-02 
2165	 0.013169535610821 
2166	 1.59137496351164E-02 
2167	 1.66222745381001E-02 
2168	 1.76774012062762E-02 
2169	 1.87145765253456E-02 
2170	 1.95364716508581E-02 
2171	 1.84219377453493E-02 
2172	 1.84998381386751E-02 
2173	 2.09915486461954E-02 
2174	 2.05050728015537E-02 
2175	 1.81304921729469E-02 
2176	 1.55773072416581E-02 
2177	 1.39533667153191E-02 
2178	 1.66324430610971E-02 
2179	 1.73744012458471E-02 
2180	 1.90112791784139E-02 
2181	 0.021157447585936 
2182	 1.86191094313493E-02 
2183	 1.69195460446031E-02 
2184	 1.71984486541313E-02 
2185	 1.62396181104792E-02 
2186	 1.52438312150556E-02 
2187	 1.56941909619584E-02 
2188	 1.65451710782504E-02 
2189	 1.62278758306444E-02 
2190	 1.59524563141972E-02 
2191	 1.62897238839437E-02 
2192	 1.70863567261879E-02 
2193	 1.79397273787299E-02 
2194	 1.79731903413344E-02 
2195	 1.84142065836705E-02 
2196	 1.94344393388931E-02 
2197	 0.020841380464963 
2198	 2.06631710510923E-02 
2199	 0.019861451592323 
2200	 2.05518429943392E-02 
2201	 2.09367197082475E-02 
2202	 1.79173440318021E-02 
2203	 1.62806304161971E-02 
2204	 1.75325909390335E-02 
2205	 1.74897200312723E-02 
2206	 2.08548270640587E-02 
2207	 2.80199257376174E-02 
2208	 2.97855388661222E-02 
2209	 0.027777150855857 
2210	 2.81961655690253E-02 
2211	 2.77063954955798E-02 
2212	 2.48085874139131E-02 
2213	 2.41764045237482E-02 
2214	 0.020053630837656 
2215	 1.36738062789381E-02 
2216	 1.41148223288673E-02 
2217	 1.47870445178985E-02 
2218	 0.019237098009754 
2219	 1.89390868340552E-02 
2220	 1.72397622930358E-02 
2221	 1.68714497537969E-02 
2222	 1.45370136874729E-02 
2223	 1.31110732599795E-02 
2224	 1.37073644370742E-02 
2225	 1.49632804776082E-02 
2226	 1.60612131695101E-02 
2227	 1.55838016171202E-02 
2228	 1.58820672713623E-02 
2229	 0.016272349524453 
2230	 1.44545259584612E-02 
2231	 1.47374175950076E-02 
2232	 1.89780743251875E-02 
2233	 1.98240777804191E-02 
2234	 1.89173700744344E-02 
2235	 1.65236083939406E-02 
2236	 1.44318640300992E-02 
2237	 1.22050269800858E-02 
2238	 0.015374026812816 
2239	 1.79568004288189E-02 
2240	 2.20356960358885E-02 
2241	 2.45111147459693E-02 
2242	 2.05114452040796E-02 
2243	 1.83428334009957E-02 
2244	 1.55687149048787E-02 
2245	 1.39291902479016E-02 
2246	 0.017082135649978 
2247	 1.93574383521301E-02 
2248	 1.91853949431819E-02 
2249	 1.88278034407449E-02 
2250	 1.83635014478293E-02 
2251	 1.72811374040764E-02 
2252	 1.76492955660714E-02 
2253	 2.02422886963857E-02 
2254	 1.92388017617742E-02 
2255	 1.61795728771462E-02 
2256	 1.33352902443855E-02 
2257	 9.32892483786486E-03 
2258	 1.26933753320063E-02 
2259	 2.10214724585976E-02 
2260	 2.19805695813221E-02 
2261	 2.13315622633946E-02 
2262	 2.14791607735349E-02 
2263	 1.38999237119186E-02 
2264	 1.34576697986435E-02 
2265	 0.023687333541935 
2266	 2.45203636758169E-02 
2267	 2.12927456998177E-02 
2268	 1.86097616871459E-02 
2269	 8.09096316483099E-03 
2270	 6.01628615162715E-03 
2271	 1.07826808714737E-02 
2272	 0.012342466792702 
2273	 1.86630091484405E-02 
2274	 1.93660345966703E-02 
2275	 0.011708899681478 
2276	 1.00544720867993E-02 
2277	 1.16286448934829E-02 
2278	 1.05520116876273E-02 
2279	 1.00409424964526E-02 
2280	 1.14532238428718E-02 
2281	 1.26945606786273E-02 
2282	 1.18137483152617E-02 
2283	 1.08488642325711E-02 
2284	 1.05324531456266E-02 
2285	 7.37714080593291E-03 
2286	-1.89317250650674E-03 
2287	-1.15837436585399E-03 
2288	 5.71976719663897E-03 
2289	 5.84584132763566E-03 
2290	 8.16180915542579E-03 
2291	 6.63675306814417E-03 
2292	 7.12146679723075E-04 
2293	 1.43678372365599E-03 
2294	 8.57918030793247E-03 
2295	 1.38283669816085E-02 
2296	 1.16324360791001E-02 
2297	 6.31970757441404E-03 
2298	-2.36599730327867E-03 
2299	-7.66505437837019E-03 
2300	-5.31020813634549E-03 
2301	 2.30593303623446E-03 
2302	 9.95043150475854E-03 
2303	 5.63383299757125E-03 
2304	-1.22733655966614E-03 
2305	 4.68125830203297E-04 
2306	 6.5667198272364E-04 
2307	 6.17805893086173E-03 
2308	 1.30691456479761E-02 
2309	 1.43984058217674E-02 
2310	 1.58912426719893E-02 
2311	 1.37049954272596E-02 
2312	 1.74912836762125E-02 
2313	 0.01089658798045 
2314	-5.20273003762955E-03 
2315	-4.02177748437981E-03 
2316	-2.36824812544905E-03 
2317	-1.92376439128231E-03 
2318	 6.5154761878427E-03 
2319	 6.99184015361679E-03 
2320	 3.58637376220813E-03 
2321	 1.45975690954978E-02 
2322	 1.38833113751611E-02 
2323	-0.002608474416285 
2324	-0.010276207402939 
2325	-2.23993223105671E-02 
2326	-2.45224990559731E-02 
2327	-8.44933693741378E-03 
2328	 6.47532946629485E-05 
2329	 2.30349352947795E-03 
2330	 5.38678452732574E-03 
2331	 4.72836207800453E-03 
2332	-1.4499463870888E-03 
2333	-8.59192899493664E-03 
2334	-1.82701786437866E-02 
2335	-3.83932715401953E-02 
2336	-5.91935671533677E-02 
2337	-6.43601747499182E-02 
2338	-0.057784308312657 
2339	-4.69072758432498E-02 
2340	-3.61873094939178E-02 
2341	-1.90774587681267E-02 
2342	-8.45631657138304E-03 
2343	-1.30376324229295E-02 
2344	-3.84627321139967E-03 
2345	-4.99474224217659E-03 
2346	-0.024215714614878 
2347	-2.89396311745269E-02 
2348	-2.45860900617108E-02 
2349	-1.23663876197196E-02 
2350	-5.11745477461225E-04 
2351	 6.12785850765881E-03 
2352	 2.04645364486215E-02 
2353	 0.016311256392604 
2354	-3.94680765336304E-04 
2355	-1.04841321823227E-02 
2356	-2.43512072634459E-02 
2357	-1.30468186725758E-02 
2358	-2.23749321545928E-03 
2359	-9.76829185581302E-03 
2360	-6.93487369953116E-03 
2361	-0.002803237037107 
2362	 1.64469140835807E-02 
2363	 4.69935559948661E-02 
2364	 5.77028816558871E-02 
2365	 4.05618922217797E-02 
2366	 3.80700138355471E-03 
2367	-1.72259529852353E-02 
2368	-1.31082113257472E-02 
2369	-1.29460916194046E-02 
2370	-2.37189417869552E-02 
2371	-1.08423597899512E-02 
2372	 1.38622115520843E-02 
2373	 2.34832111794706E-02 
2374	 0.082224329595142 
2375	 0.115520756892933 
2376	 8.82355912316556E-02 
2377	 9.86112831658291E-02 
2378	 8.56521984609951E-02 
2379	 3.45906789468984E-02 
2380	 6.3878568840829E-03 
2381	-4.24783774242604E-04 
2382	 2.56145657007241E-02 
2383	 2.28003576348034E-02 
2384	 1.82308546332418E-03 
2385	-0.025366265593991 
2386	-0.172169939743408 
2387	-0.26336450582104 
2388	-0.204508811668037 
2389	-0.15372310136016 
2390	-0.110935228180858 
2391	-3.95098211729055E-02 
2392	-1.49026478483084E-02 
2393	-2.34373662600685E-02 
2394	 3.56628266421485E-02 
2395	 6.41284959545176E-02 
2396	 7.9314084880186E-03 
2397	 8.23160407134679E-04 
2398	 0.027876593885728 
2399	 0.022577044567769 
2400	 2.95977448566157E-02 
2401	 4.96375757752932E-02 
2402	-3.94991499179706E-03 
2403	-8.28444571968652E-02 
2404	-4.32504721337743E-02 
2405	-4.37128863290425E-02 
2406	-0.228450730527893 
2407	-0.190671947845097 
2408	-0.154073046618274 
2409	-0.345572017097623 
2410	-0.156933686352978 
2411	-2.57062319301298E-02 
2412	-0.207447301102024 
2413	-0.368597017735783 
2414	-0.41775629152715 
2415	-0.467504281100351 
2416	-0.513824406036705 
2417	-0.156634534930219 
2418	-0.211050212810957 
2419	-0.394480785491518 
2420	-0.366922423292678 
2421	-0.38753839003707 
2422	-0.103954241578855 
2423	-8.11258454667499E-02 
2424	-0.257659243945824 
2425	-0.497048204194976 
2426	-0.671859269744348 
2427	-0.58428371889379 
2428	-0.502765419945897 
2429	-0.237823774081643 
2430	-1.82050876820003E-02 
2431	 4.51946177242411E-02 
2432	-6.24331253470574E-02 
2433	-0.315208615420704 
2434	-0.484459845337424 
2435	-0.385458121461337 
2436	-0.283043710853692 
2437	-0.296706230383369 
2438	-0.287398574818514 
2439	-0.121094965190343 
2440	-0.103987933573241 
2441	-4.11314698677688E-02 
2442	 0.123922618593464 
2443	-3.11537233060874E-02 
2444	-0.276356130936743 
2445	-0.478022871523797 
2446	-1.59349917153717 
2447	-1.23425660685553 
2448	-0.150603526749863 
2449	 0.835408495141941 
2450	 0.935635040147121 
2451	 4.90862657093674E-02 
2452	-0.052473318717211 
2453	-9.24803814957019E-03 
2454	 0.22880551436641 
2455	 0.594333757728254 
2456	-32.6167712082805 
2457	-1.48797682500861 
2458	 3.00244720104599 
2459	 15.2241935305445 
2460	-1.231519267026 
2461	-1.19993240301853 
2462	-1.24518155637758 
2463	-1.24291701911292 
2464	-1.31725128333719 
2465	-1.49876854512226 
2466	-5.39535581103786 
2467	 0.694004337460913 
2468	 4.42178150114927 
2469	 30.7085855283427 
2470	 17.2485947656808 
2471	 23.8621931470218 
2472	-2.40735435055031 
2473	-2.23618124514914 
2474	-1.27784047935404 
2475	-2.30797612565817 
2476	 1.47687763066534 
2477	 0.400670698803963 
2478	 0.581315316136699 
2479	 0.544658489264429 
2480	 2.94499945468261 
2481	-41.6046334369596 
2482	 0.319645121997923 
2483	-0.143036452347188 
2484	 0.708559278362448 
2485	 1.96786179596406 
2486	-2.0986414837704 
2487	-1.30168235479545 
2488	-2.87114534164133 
2489	 1.75840329308444 
2490	-5.30962363912503 
2491	-1.93871649805054 
2492	-45.7955564598021 
2493	-4.91308613148837 
2494	-16.9803667003453 
2495	-2.69145722827021 
2496	-3.62684873563135 
2497	 1.38680415957139 
2498	 0.823955408392433 
2499	 0.975258748592284 
2500	 3.41760985812434 
