Wavelength	rt0713west_far00002.asd
350	 0.15376567755457 
351	 0.153064958638779 
352	 0.152403410456775 
353	 0.152335625703406 
354	 0.152607804996465 
355	 0.151137847731793 
356	 0.150592278682109 
357	 0.15066545602852 
358	 0.150307778103107 
359	 0.149593698345883 
360	 0.149204948962727 
361	 0.148841458310299 
362	 0.147754337347217 
363	 0.147952581499283 
364	 0.147980808308675 
365	 0.147300007559518 
366	 0.147374356227544 
367	 0.147036206355865 
368	 0.146484197380676 
369	 0.146108040691768 
370	 0.145662957088761 
371	 0.145310708988452 
372	 0.144889691851046 
373	 0.144175555851267 
374	 0.144112444676271 
375	 0.143891472350073 
376	 0.143235338785597 
377	 0.142824481964516 
378	 0.14278650889588 
379	 0.142695680176588 
380	 0.142208206412332 
381	 0.141638862759883 
382	 0.141395862700384 
383	 0.141218765759531 
384	 0.140669058418667 
385	 0.140589351655201 
386	 0.140467249132062 
387	 0.14013540546514 
388	 0.13992174179914 
389	 0.13972315327772 
390	 0.139612721031261 
391	 0.139568449803269 
392	 0.139278907344531 
393	 0.138968624214966 
394	 0.138723535731428 
395	 0.138548763508903 
396	 0.138357908269356 
397	 0.138201138171863 
398	 0.138095952675752 
399	 0.138026579569115 
400	 0.138068964955488 
401	 0.13801873994084 
402	 0.137797342944454 
403	 0.137691593259924 
404	 0.137457068888458 
405	 0.137215602105585 
406	 0.137155733083073 
407	 0.137055059842641 
408	 0.136802682895671 
409	 0.136537103626495 
410	 0.136594144872712 
411	 0.136482099760073 
412	 0.136339632160815 
413	 0.136299102081765 
414	 0.136191996470345 
415	 0.136129940670798 
416	 0.136047512042276 
417	 0.135860583834649 
418	 0.135813341048492 
419	 0.135798120737113 
420	 0.13578490368009 
421	 0.135849642469642 
422	 0.135878925026184 
423	 0.135832468576622 
424	 0.135750717823501 
425	 0.135850940841892 
426	 0.135911406935258 
427	 0.135957526836691 
428	 0.136100730786783 
429	 0.136147821264446 
430	 0.136200672056022 
431	 0.13632326580217 
432	 0.136501540020051 
433	 0.136663887791591 
434	 0.13676549384576 
435	 0.136818745432886 
436	 0.136974045983909 
437	 0.137106152961979 
438	 0.137198185648642 
439	 0.137286999129954 
440	 0.137300567286406 
441	 0.137410275493939 
442	 0.137625583545099 
443	 0.137683488042981 
444	 0.137849841198012 
445	 0.138026747626332 
446	 0.138106709859129 
447	 0.138351036436544 
448	 0.138542314069688 
449	 0.138663342864639 
450	 0.138839931032575 
451	 0.13893487180848 
452	 0.139011740234081 
453	 0.139114873522331 
454	 0.139197145700411 
455	 0.139179430830622 
456	 0.139178935991321 
457	 0.139322781719089 
458	 0.139383401604048 
459	 0.139383677315285 
460	 0.139359241975518 
461	 0.139347286387725 
462	 0.139427650037418 
463	 0.139476639577139 
464	 0.139419648163019 
465	 0.139431359780449 
466	 0.139421820098214 
467	 0.139377568474843 
468	 0.139331935295952 
469	 0.139386503943662 
470	 0.139351039784185 
471	 0.139237462930689 
472	 0.139356773909699 
473	 0.139396753260313 
474	 0.139395549672487 
475	 0.13946122824623 
476	 0.139613483693687 
477	 0.139745645523537 
478	 0.139885477579537 
479	 0.140132406028445 
480	 0.140263268825639 
481	 0.140418897228767 
482	 0.140655568490002 
483	 0.140748245299682 
484	 0.140959203370167 
485	 0.141167562809667 
486	 0.14121028940298 
487	 0.1414875386398 
488	 0.141801604511532 
489	 0.142017039519546 
490	 0.142108214985857 
491	 0.142382842855005 
492	 0.1426655537694 
493	 0.14282662157364 
494	 0.143146792103979 
495	 0.143396175751438 
496	 0.143567291273705 
497	 0.143758157081861 
498	 0.143945297196931 
499	 0.143989791297433 
500	 0.143898601247719 
501	 0.143912313634173 
502	 0.143967621818727 
503	 0.144087493151623 
504	 0.144317393474254 
505	 0.144726541294549 
506	 0.145161211945009 
507	 0.1456303836778 
508	 0.146256808477395 
509	 0.146772742658807 
510	 0.147297497964221 
511	 0.147890069740056 
512	 0.148315536652063 
513	 0.148737994096547 
514	 0.149215675742706 
515	 0.149727478900159 
516	 0.15003472611564 
517	 0.150466502171998 
518	 0.151061623853731 
519	 0.151451289291544 
520	 0.151836195491807 
521	 0.152263486731815 
522	 0.15272050891187 
523	 0.153103704967576 
524	 0.153464885241776 
525	 0.153869072316696 
526	 0.154375675517744 
527	 0.154858063889795 
528	 0.155345337695355 
529	 0.155838807329569 
530	 0.15622960868055 
531	 0.156671919789112 
532	 0.157176106235447 
533	 0.157684973773204 
534	 0.158121086557703 
535	 0.158492801655682 
536	 0.15884798535601 
537	 0.15926453172363 
538	 0.15952798240793 
539	 0.159726200119695 
540	 0.159995157015838 
541	 0.160356791307954 
542	 0.160807387275182 
543	 0.161299231821276 
544	 0.161767564581514 
545	 0.162240884554972 
546	 0.162755009760303 
547	 0.163321733162291 
548	 0.163915863299248 
549	 0.164449526661277 
550	 0.164934754663263 
551	 0.16542300008072 
552	 0.165941075075788 
553	 0.166407394919898 
554	 0.166788962782208 
555	 0.167113138373386 
556	 0.167456493614717 
557	 0.167818714196091 
558	 0.168164848613785 
559	 0.168436649537819 
560	 0.168695977148981 
561	 0.168936012375721 
562	 0.169119158489521 
563	 0.169380226729106 
564	 0.169494314670477 
565	 0.169368963871214 
566	 0.169251943089976 
567	 0.169020654069625 
568	 0.168844228958097 
569	 0.168932758794654 
570	 0.169123471347028 
571	 0.169238066362877 
572	 0.1692594533003 
573	 0.169342006043821 
574	 0.169406785275678 
575	 0.169518732584986 
576	 0.169726513724438 
577	 0.169943063875793 
578	 0.170123685036295 
579	 0.170237692552417 
580	 0.170266669065254 
581	 0.170190752574436 
582	 0.169989116785492 
583	 0.169584792957644 
584	 0.168810454459668 
585	 0.167531439583698 
586	 0.165665949394403 
587	 0.163289609123417 
588	 0.161130715204096 
589	 0.159987367789328 
590	 0.159919026356177 
591	 0.160126439533908 
592	 0.159950593518633 
593	 0.159568763521622 
594	 0.159308096923324 
595	 0.159263658828926 
596	 0.159256302295807 
597	 0.159209004685986 
598	 0.159117545493301 
599	 0.15905682843782 
600	 0.158943545555734 
601	 0.158769690017739 
602	 0.158690630276846 
603	 0.158577529148526 
604	 0.158411147597653 
605	 0.158232298645532 
606	 0.158197904506861 
607	 0.158118484049766 
608	 0.157971637064624 
609	 0.157919601370502 
610	 0.157852577363425 
611	 0.157741778173296 
612	 0.157604721601234 
613	 0.157548153537207 
614	 0.15746635239756 
615	 0.157336828774567 
616	 0.157190307096793 
617	 0.15705029795116 
618	 0.156941782981519 
619	 0.156836232234793 
620	 0.156620887363782 
621	 0.156441217097021 
622	 0.156271776908284 
623	 0.156020888742558 
624	 0.155606218744321 
625	 0.154890414113036 
626	 0.154060172940917 
627	 0.153600789234229 
628	 0.153618705472218 
629	 0.153791591770959 
630	 0.153842356848566 
631	 0.153863346063338 
632	 0.153910434938032 
633	 0.15396169297065 
634	 0.153961020694293 
635	 0.153923822363574 
636	 0.153927207058358 
637	 0.153927533664041 
638	 0.153698255889866 
639	 0.153542002038459 
640	 0.153440996100134 
641	 0.153263574764163 
642	 0.152888690276384 
643	 0.152111814376329 
644	 0.150788191410967 
645	 0.148886670983175 
646	 0.147141031549355 
647	 0.146532561138815 
648	 0.147245031301382 
649	 0.147752362284366 
650	 0.147639059617254 
651	 0.147345642915306 
652	 0.147510107964312 
653	 0.147182266479696 
654	 0.146628622053101 
655	 0.146174975925154 
656	 0.146150776155948 
657	 0.146269196827717 
658	 0.146381284901087 
659	 0.146443165355868 
660	 0.146585485280395 
661	 0.146554591521767 
662	 0.146370894647234 
663	 0.146226069901036 
664	 0.146109336586999 
665	 0.145966734812741 
666	 0.145798266483385 
667	 0.14572027422744 
668	 0.145622128135733 
669	 0.145534103335006 
670	 0.145490559304486 
671	 0.145301667193737 
672	 0.145151815115499 
673	 0.145114661873648 
674	 0.145133604309796 
675	 0.144994302754826 
676	 0.144873319002464 
677	 0.144880859066636 
678	 0.144758093116408 
679	 0.144669449584032 
680	 0.144628733537832 
681	 0.144575687459778 
682	 0.144450185957365 
683	 0.144348062935989 
684	 0.143931322855973 
685	 0.142152916654632 
686	 0.140415238318272 
687	 0.139739843291194 
688	 0.140240184073879 
689	 0.140242424253271 
690	 0.13945690724601 
691	 0.137774616386203 
692	 0.135399160544469 
693	 0.134446309204925 
694	 0.135233991115908 
695	 0.136872771150195 
696	 0.137664615502607 
697	 0.136540983965164 
698	 0.134346192089584 
699	 0.132637325628314 
700	 0.13182053994538 
701	 0.132048402921532 
702	 0.132636615505067 
703	 0.132408299845747 
704	 0.131624844654856 
705	 0.130933375991443 
706	 0.13064987620104 
707	 0.130227369402719 
708	 0.129530048455486 
709	 0.12869201671765 
710	 0.127881703413705 
711	 0.126774831784293 
712	 0.125166282891872 
713	 0.12276773970772 
714	 0.11908936364099 
715	 0.113488672370996 
716	 0.106834832917798 
717	 0.101409534400921 
718	 9.85174830329814E-02 
719	 9.95767693063822E-02 
720	 0.102069486414953 
721	 0.103141094750005 
722	 0.100329403596611 
723	 9.64672654025322E-02 
724	 9.39568568861102E-02 
725	 9.26767411659506E-02 
726	 9.19588604383018E-02 
727	 9.11308671849609E-02 
728	 8.98744030938801E-02 
729	 0.088399400551496 
730	 8.88826586329022E-02 
731	 9.10176394787762E-02 
732	 9.31570068275226E-02 
733	 9.36795472495327E-02 
734	 0.093087039302967 
735	 9.23042891024169E-02 
736	 9.27156217606882E-02 
737	 9.34491349669583E-02 
738	 9.43742702310761E-02 
739	 9.54321828383067E-02 
740	 9.63445179444893E-02 
741	 9.71171481962146E-02 
742	 9.77408314130156E-02 
743	 9.82145632414579E-02 
744	 9.85151889817596E-02 
745	 0.098663399215387 
746	 9.87334986693417E-02 
747	 9.88637018198232E-02 
748	 9.88686483376726E-02 
749	 9.88258038722418E-02 
750	 9.88350010004639E-02 
751	 9.88469145349687E-02 
752	 9.87808578606135E-02 
753	 9.86932741033528E-02 
754	 9.86917804475679E-02 
755	 9.86802800629608E-02 
756	 9.83693150399356E-02 
757	 9.73079211297483E-02 
758	 9.41127271455969E-02 
759	 8.81653328988098E-02 
760	 8.24880240317734E-02 
761	 8.29919755501656E-02 
762	 0.083171301920144 
763	 8.50552938001729E-02 
764	 8.83398046542382E-02 
765	 9.18877472043624E-02 
766	 0.094416201321925 
767	 9.61877588357176E-02 
768	 9.73489631668345E-02 
769	 9.78207875767325E-02 
770	 9.82987020967434E-02 
771	 9.86620239669812E-02 
772	 9.87606141989446E-02 
773	 9.88406810215361E-02 
774	 9.89433799479808E-02 
775	 9.90434978576779E-02 
776	 9.90965013981291E-02 
777	 9.91783089656724E-02 
778	 9.93208511895348E-02 
779	 9.94119199627473E-02 
780	 0.09923361474265 
781	 9.92638117248155E-02 
782	 9.93163420539806E-02 
783	 9.91136417954823E-02 
784	 9.84539075711163E-02 
785	 9.75968739566934E-02 
786	 9.66434361435379E-02 
787	 9.56883728714716E-02 
788	 9.49534873208632E-02 
789	 9.49080367919448E-02 
790	 9.55553174801517E-02 
791	 9.64653807993506E-02 
792	 9.73226680396461E-02 
793	 9.75858898089233E-02 
794	 9.70871484278987E-02 
795	 0.096221264702993 
796	 9.60044843306477E-02 
797	 9.62315907416454E-02 
798	 9.63298299022232E-02 
799	 9.59267926033233E-02 
800	 9.54308400618017E-02 
801	 9.52240771879525E-02 
802	 9.55908969015938E-02 
803	 0.096419203066577 
804	 0.097403731091557 
805	 0.09810274169366 
806	 9.79911715328689E-02 
807	 9.70536142172687E-02 
808	 0.095618090968611 
809	 9.39662144815527E-02 
810	 9.19961431204554E-02 
811	 8.96811027207425E-02 
812	 8.70143569352867E-02 
813	 8.41819065077011E-02 
814	 8.19079868919983E-02 
815	 8.09987475973878E-02 
816	 8.13041875772934E-02 
817	 8.19108180063556E-02 
818	 8.35921576763086E-02 
819	 8.50122766325444E-02 
820	 8.52355768894632E-02 
821	 8.37224178868081E-02 
822	 8.32266488807962E-02 
823	 8.37747585316674E-02 
824	 8.43861665519104E-02 
825	 8.41926848897595E-02 
826	 8.31246410647663E-02 
827	 8.18592399552736E-02 
828	 8.13666480221937E-02 
829	 8.13178257562392E-02 
830	 8.15444528308223E-02 
831	 8.19132339151714E-02 
832	 0.08236811125126 
833	 8.32131061094428E-02 
834	 8.41190127137863E-02 
835	 8.48640496981477E-02 
836	 8.54626422898905E-02 
837	 8.59937906507539E-02 
838	 8.66423454896648E-02 
839	 8.74330050145847E-02 
840	 8.79489610644713E-02 
841	 8.84400935218675E-02 
842	 8.89549971555489E-02 
843	 8.94558699783511E-02 
844	 8.98743745020901E-02 
845	 9.02089085053923E-02 
846	 0.090456508522286 
847	 9.05794877415692E-02 
848	 9.02516348469528E-02 
849	 8.99086187854628E-02 
850	 8.98072082995659E-02 
851	 8.98448768560073E-02 
852	 9.00132339249554E-02 
853	 9.00598675768353E-02 
854	 8.99574648326146E-02 
855	 9.02217001702847E-02 
856	 9.06540603472144E-02 
857	 9.09118631407917E-02 
858	 9.08313321899327E-02 
859	 9.09779123045131E-02 
860	 9.12011564798259E-02 
861	 0.091249454307923 
862	 9.09640976575524E-02 
863	 9.10135754094854E-02 
864	 9.11738460693005E-02 
865	 9.11648190929411E-02 
866	 0.090805860809851 
867	 9.07374465058061E-02 
868	 9.08837477258653E-02 
869	 9.09639678989541E-02 
870	 9.06162389292209E-02 
871	 9.06171612735326E-02 
872	 9.06482043752525E-02 
873	 9.04309347116908E-02 
874	 9.03363494853049E-02 
875	 9.00480900396997E-02 
876	 8.97547472347207E-02 
877	 8.96675106149151E-02 
878	 0.089513111378796 
879	 8.92443128374593E-02 
880	 8.89904938423018E-02 
881	 8.88938324502674E-02 
882	 8.86693368480331E-02 
883	 8.83297224815717E-02 
884	 8.79730108478956E-02 
885	 8.77373567638663E-02 
886	 8.76617487418496E-02 
887	 8.72764172509349E-02 
888	 8.65424997962662E-02 
889	 8.59043140693351E-02 
890	 8.45268473015178E-02 
891	 0.08271397125425 
892	 8.07146849288887E-02 
893	 7.82882089730934E-02 
894	 0.075470313578378 
895	 7.30549424328441E-02 
896	 7.14886483601063E-02 
897	 6.92687494649488E-02 
898	 6.82452798681329E-02 
899	 6.82750958421505E-02 
900	 6.85938668276803E-02 
901	 6.94585562979756E-02 
902	 7.01716293450359E-02 
903	 7.04417420644912E-02 
904	 7.02336925400609E-02 
905	 6.98518125162967E-02 
906	 6.87752381129661E-02 
907	 6.72100843083873E-02 
908	 6.59341054644394E-02 
909	 6.48674195102603E-02 
910	 6.42107671978708E-02 
911	 6.38848231702697E-02 
912	 6.35545913664064E-02 
913	 6.29553290708425E-02 
914	 6.24049973430337E-02 
915	 6.26225242931788E-02 
916	 6.43442646175578E-02 
917	 6.56941249000115E-02 
918	 6.65115064878957E-02 
919	 6.70727849230838E-02 
920	 6.77592028306683E-02 
921	 6.74864834907138E-02 
922	 6.65207745201964E-02 
923	 6.54159491214465E-02 
924	 6.47837191213817E-02 
925	 6.22333396590652E-02 
926	 5.89839381643463E-02 
927	 5.68847369076902E-02 
928	 5.51770025634088E-02 
929	 5.28510767270681E-02 
930	 4.85772712612895E-02 
931	 4.23414148617172E-02 
932	 4.32870444628061E-02 
933	 4.32994188491041E-02 
934	 4.17677342356083E-02 
935	 4.17790261075462E-02 
936	 3.72573948287192E-02 
937	 3.69822998393105E-02 
938	 3.77934340503914E-02 
939	 3.55826763191217E-02 
940	 3.71830247944012E-02 
941	 3.89269965926549E-02 
942	 0.038404480842641 
943	 3.51501596266044E-02 
944	 3.59048154589579E-02 
945	 3.89954982925374E-02 
946	 0.03980782262732 
947	 3.55269486523534E-02 
948	 3.89729105068158E-02 
949	 3.85473325455021E-02 
950	 3.58427366967638E-02 
951	 3.94292524102796E-02 
952	 4.29052305332392E-02 
953	 4.12210631226068E-02 
954	 3.93616208420903E-02 
955	 4.54946756154623E-02 
956	 4.46799904472984E-02 
957	 4.34681260424439E-02 
958	 4.50829143676166E-02 
959	 4.83005051651529E-02 
960	 4.80986921126069E-02 
961	 4.94217012061554E-02 
962	 5.22519629827866E-02 
963	 5.33246690823928E-02 
964	 5.62264953674332E-02 
965	 5.81541158752945E-02 
966	 5.92524244892804E-02 
967	 6.14213642929886E-02 
968	 0.060722095739833 
969	 6.20616248565619E-02 
970	 6.45703075333039E-02 
971	 6.29935189145555E-02 
972	 6.34801613124115E-02 
973	 6.31076619390036E-02 
974	 6.17355201946503E-02 
975	 6.25379343907067E-02 
976	 6.45953926122278E-02 
977	 6.59253696260946E-02 
978	 6.64082672532714E-02 
979	 6.74957069215625E-02 
980	 6.83316271150938E-02 
981	 0.069698906959334 
982	 7.11873052030613E-02 
983	 7.17029605878997E-02 
984	 7.29782828718572E-02 
985	 7.48736873673314E-02 
986	 7.60251733190457E-02 
987	 7.51764461697066E-02 
988	 7.73848099607233E-02 
989	 7.87947528653766E-02 
990	 7.81832763763836E-02 
991	 7.74298609740016E-02 
992	 8.01553827571699E-02 
993	 8.08925577763271E-02 
994	 7.98676239902305E-02 
995	 8.10325214154625E-02 
996	 8.15693662156538E-02 
997	 0.080713813725927 
998	 7.97406144596638E-02 
999	 0.080542266991944 
1000	 8.14949560036515E-02 
1001	 7.83295492980581E-02 
1002	 7.84716442729837E-02 
1003	 7.86185595302411E-02 
1004	 7.87271420143743E-02 
1005	 7.88416378263479E-02 
1006	 7.90280483492369E-02 
1007	 7.90509577465133E-02 
1008	 7.89715942361605E-02 
1009	 7.88286964252979E-02 
1010	 7.87430224905971E-02 
1011	 7.87444582127907E-02 
1012	 0.078881791052744 
1013	 7.91101273164483E-02 
1014	 7.92696301644827E-02 
1015	 0.079390225198829 
1016	 7.96517441271965E-02 
1017	 8.00943529550279E-02 
1018	 0.080200852025878 
1019	 8.02670794580226E-02 
1020	 8.02239211567482E-02 
1021	 7.97962148480892E-02 
1022	 7.96541137582056E-02 
1023	 7.94988329890398E-02 
1024	 7.96550116380869E-02 
1025	 7.99581063593393E-02 
1026	 7.98720109047144E-02 
1027	 7.98653140997966E-02 
1028	 7.97968310679933E-02 
1029	 7.98504034214915E-02 
1030	 7.98497437524303E-02 
1031	 0.080014231577981 
1032	 8.04318077110452E-02 
1033	 8.05736283054049E-02 
1034	 8.06769794953249E-02 
1035	 0.080736747172365 
1036	 8.06068850057271E-02 
1037	 8.06387770947331E-02 
1038	 0.080772802900517 
1039	 8.07466616285449E-02 
1040	 8.10621646682843E-02 
1041	 8.12758895999527E-02 
1042	 8.12886564588412E-02 
1043	 8.12821061582514E-02 
1044	 8.11527003698851E-02 
1045	 8.06900146958433E-02 
1046	 8.04818216425116E-02 
1047	 8.02995511186943E-02 
1048	 8.02488203713097E-02 
1049	 8.03183168915905E-02 
1050	 8.03598935865329E-02 
1051	 8.05498399579377E-02 
1052	 8.06138111313603E-02 
1053	 8.06947324463215E-02 
1054	 0.080644302689783 
1055	 8.04484984616716E-02 
1056	 8.02797797503724E-02 
1057	 8.00706337468696E-02 
1058	 7.96498548264168E-02 
1059	 7.96093758804753E-02 
1060	 7.98684689486995E-02 
1061	 7.97520215452951E-02 
1062	 7.96741881043846E-02 
1063	 7.94952146804953E-02 
1064	 7.89092640498566E-02 
1065	 7.86777627768463E-02 
1066	 0.078700303241546 
1067	 7.85960502553105E-02 
1068	 7.86327174622224E-02 
1069	 7.84680110569812E-02 
1070	 0.078004153246746 
1071	 7.77902197782299E-02 
1072	 7.77055151973311E-02 
1073	 7.74956966096577E-02 
1074	 7.72537571052892E-02 
1075	 7.71694145014142E-02 
1076	 7.68873063511074E-02 
1077	 7.63123533490066E-02 
1078	 7.59739579639133E-02 
1079	 0.075677956811144 
1080	 0.075445206166842 
1081	 7.55168001348441E-02 
1082	 7.51312297767043E-02 
1083	 7.44231863714602E-02 
1084	 7.39999991337656E-02 
1085	 7.33219821451284E-02 
1086	 7.28404925645578E-02 
1087	 7.28532709939128E-02 
1088	 7.25882415219722E-02 
1089	 7.22166779210541E-02 
1090	 7.18174538321204E-02 
1091	 7.11595940095472E-02 
1092	 7.03076227675396E-02 
1093	 6.93905418083747E-02 
1094	 6.80994897546746E-02 
1095	 6.71432896123608E-02 
1096	 6.62827883905667E-02 
1097	 6.53319318116068E-02 
1098	 6.45774348724222E-02 
1099	 6.34927453993679E-02 
1100	 6.20503971934658E-02 
1101	 6.07337482717936E-02 
1102	 5.91847228191639E-02 
1103	 5.78085730798998E-02 
1104	 5.63773275732133E-02 
1105	 5.53366187445122E-02 
1106	 5.44916390945404E-02 
1107	 5.31719067681604E-02 
1108	 0.052362113365553 
1109	 5.15309967097857E-02 
1110	 5.02867059721958E-02 
1111	 4.86893916583354E-02 
1112	 4.74411439243748E-02 
1113	 4.57543103810098E-02 
1114	 4.41427640844373E-02 
1115	 4.28014890755237E-02 
1116	 4.14693108401453E-02 
1117	 4.02449912655407E-02 
1118	 3.82701483155022E-02 
1119	 3.74568604511065E-02 
1120	 3.46691914245985E-02 
1121	 2.77970612804166E-02 
1122	 2.19554820614476E-02 
1123	 0.023123116547783 
1124	 2.08391085455958E-02 
1125	 1.72801962545022E-02 
1126	 2.14908610693292E-02 
1127	 2.15037503584321E-02 
1128	 1.82991182741382E-02 
1129	 1.89190909511667E-02 
1130	 2.36370382996249E-02 
1131	 2.47449654401757E-02 
1132	 2.47491651807098E-02 
1133	 2.43595634303953E-02 
1134	 2.26838512785814E-02 
1135	 2.36278171981839E-02 
1136	 2.55002056311672E-02 
1137	 2.65788753840944E-02 
1138	 2.97906625836894E-02 
1139	 2.98223027512405E-02 
1140	 0.027915221550232 
1141	 2.65827851590128E-02 
1142	 2.41440471579052E-02 
1143	 2.44390544965385E-02 
1144	 2.76958709330076E-02 
1145	 2.80231813648659E-02 
1146	 2.79659214448595E-02 
1147	 2.78937567742978E-02 
1148	 2.54716507075747E-02 
1149	 2.48134164323329E-02 
1150	 2.58681441352116E-02 
1151	 0.029022092710946 
1152	 3.09013109273693E-02 
1153	 3.24530407880137E-02 
1154	 3.42752346445305E-02 
1155	 3.59492862205787E-02 
1156	 3.72578969735169E-02 
1157	 3.90051676861936E-02 
1158	 0.041656928389949 
1159	 4.36359147780601E-02 
1160	 4.50702640375331E-02 
1161	 4.70071748122738E-02 
1162	 4.80422183463701E-02 
1163	 4.86758987254883E-02 
1164	 5.01247742424184E-02 
1165	 5.12155153880535E-02 
1166	 5.20791237548668E-02 
1167	 5.35649106997953E-02 
1168	 5.49884593335188E-02 
1169	 5.58562882710906E-02 
1170	 5.66657522569815E-02 
1171	 5.75205005206395E-02 
1172	 5.84013236563757E-02 
1173	 5.89167927746808E-02 
1174	 5.93803091765517E-02 
1175	 5.97309863193413E-02 
1176	 5.97407715574186E-02 
1177	 5.98502501237703E-02 
1178	 6.02144044047732E-02 
1179	 6.05600790787301E-02 
1180	 6.07034426999745E-02 
1181	 6.05164495420309E-02 
1182	 6.00872104177125E-02 
1183	 5.99993241732238E-02 
1184	 6.02268515117336E-02 
1185	 6.01976290843809E-02 
1186	 0.06032719802816 
1187	 6.08061085917575E-02 
1188	 6.10584689507391E-02 
1189	 6.12242209489377E-02 
1190	 6.17432619258815E-02 
1191	 6.21255479988493E-02 
1192	 6.24347480072349E-02 
1193	 6.26635278731099E-02 
1194	 6.33024376423626E-02 
1195	 6.36544841764801E-02 
1196	 6.36708746761867E-02 
1197	 6.38045246292712E-02 
1198	 6.39649083791949E-02 
1199	 6.41341786049524E-02 
1200	 6.43172034364588E-02 
1201	 6.45326320123457E-02 
1202	 6.46568446819173E-02 
1203	 6.46894298890013E-02 
1204	 6.48436066261814E-02 
1205	 6.50396538240155E-02 
1206	 6.53778942020929E-02 
1207	 0.065712840978108 
1208	 0.065888082922891 
1209	 6.62133566278023E-02 
1210	 6.64380823887562E-02 
1211	 6.64546100150816E-02 
1212	 6.67001592561149E-02 
1213	 6.70971304594537E-02 
1214	 6.74503890191824E-02 
1215	 6.78110521736079E-02 
1216	 6.83093055513113E-02 
1217	 0.068719390525721 
1218	 6.89681775438523E-02 
1219	 0.069354340727142 
1220	 6.99081165943776E-02 
1221	 7.03298578559252E-02 
1222	 7.05546736207553E-02 
1223	 7.09897396922608E-02 
1224	 7.14993970517321E-02 
1225	 7.17767665577585E-02 
1226	 7.21554234041479E-02 
1227	 7.26646733537926E-02 
1228	 7.30786370765854E-02 
1229	 7.33706867864914E-02 
1230	 7.38984387502186E-02 
1231	 7.44468628448196E-02 
1232	 7.44557478957548E-02 
1233	 7.47085796239459E-02 
1234	 7.53812152543175E-02 
1235	 7.57927585984066E-02 
1236	 7.60438631122205E-02 
1237	 7.63630819857361E-02 
1238	 0.076753453127112 
1239	 7.68875439105791E-02 
1240	 7.69395573535113E-02 
1241	 7.71746111540311E-02 
1242	 7.74282467767574E-02 
1243	 7.74191491250245E-02 
1244	 7.73511345147089E-02 
1245	 7.73526998158075E-02 
1246	 7.72868221807293E-02 
1247	 7.72452095063976E-02 
1248	 7.71735871104605E-02 
1249	 0.077032345727632 
1250	 7.68449429290267E-02 
1251	 7.65375611751139E-02 
1252	 7.63642488239703E-02 
1253	 7.63812985408536E-02 
1254	 0.076268645051573 
1255	 7.59390649846482E-02 
1256	 7.56691604664939E-02 
1257	 7.54068673322428E-02 
1258	 7.49769572021012E-02 
1259	 7.43690043852206E-02 
1260	 7.40161351705107E-02 
1261	 7.36747461991152E-02 
1262	 0.073248408484662 
1263	 7.28721641713341E-02 
1264	 7.26398934453406E-02 
1265	 7.22782921581853E-02 
1266	 7.17681371948146E-02 
1267	 7.16405084203579E-02 
1268	 7.18701675219542E-02 
1269	 7.19814159644524E-02 
1270	 7.21009652255565E-02 
1271	 7.23223636913967E-02 
1272	 0.072545668347466 
1273	 7.26358534768434E-02 
1274	 7.27370416856808E-02 
1275	 7.29878336513376E-02 
1276	 7.32761720469714E-02 
1277	 7.36653898419547E-02 
1278	 7.41025089939589E-02 
1279	 7.42428755386265E-02 
1280	 7.40265340801861E-02 
1281	 7.40081130447398E-02 
1282	 7.39968142731104E-02 
1283	 7.38451700295186E-02 
1284	 7.36466613750638E-02 
1285	 7.35083821641877E-02 
1286	 7.33169455184495E-02 
1287	 7.29865111393091E-02 
1288	 7.27301564820224E-02 
1289	 7.23539680386476E-02 
1290	 7.17929484546244E-02 
1291	 7.09344333835205E-02 
1292	 7.04045969539613E-02 
1293	 7.02304275366794E-02 
1294	 6.97932655171164E-02 
1295	 6.90697394257692E-02 
1296	 6.83009307640013E-02 
1297	 6.75053188963823E-02 
1298	 6.67994220369021E-02 
1299	 6.64007292577549E-02 
1300	 6.60994308173063E-02 
1301	 6.55537951392602E-02 
1302	 6.48485987838884E-02 
1303	 6.40826366397441E-02 
1304	 0.063127410001351 
1305	 0.06231547355963 
1306	 6.14315283801671E-02 
1307	 6.04140581606878E-02 
1308	 5.95660122226494E-02 
1309	 5.90051875846367E-02 
1310	 5.79578261600705E-02 
1311	 5.66308009459059E-02 
1312	 5.57506922691516E-02 
1313	 5.46393568118911E-02 
1314	 5.38249626407127E-02 
1315	 5.37734963898762E-02 
1316	 5.32694117981641E-02 
1317	 5.25491350774687E-02 
1318	 5.18595502805552E-02 
1319	 5.12355673815959E-02 
1320	 5.04359556873015E-02 
1321	 4.93994884319372E-02 
1322	 4.84337603105569E-02 
1323	 4.78433653503023E-02 
1324	 4.71155366177894E-02 
1325	 4.63581740627033E-02 
1326	 4.53864979239246E-02 
1327	 4.38942115751852E-02 
1328	 4.25346885780924E-02 
1329	 4.13709380028694E-02 
1330	 3.97385120278286E-02 
1331	 3.79930875463987E-02 
1332	 3.65045323444241E-02 
1333	 3.57132328931995E-02 
1334	 3.54203347483214E-02 
1335	 3.43299473256082E-02 
1336	 3.28568974265743E-02 
1337	 3.23070147477469E-02 
1338	 3.17679381579597E-02 
1339	 3.07933338883856E-02 
1340	 3.03671360945219E-02 
1341	 3.04016697826828E-02 
1342	 2.99720281322645E-02 
1343	 2.92380901501369E-02 
1344	 2.99881379389956E-02 
1345	 3.01156011958306E-02 
1346	 0.02766725392033 
1347	 2.55347476335058E-02 
1348	 2.40813960358079E-02 
1349	 2.34648196222256E-02 
1350	 2.36263341415511E-02 
1351	 2.17641361147164E-02 
1352	 2.29213462641793E-02 
1353	 2.59515629907404E-02 
1354	 3.02899962122898E-02 
1355	 1.32199953746056E-02 
1356	-2.31298683047802E-02 
1357	-2.99415960276679E-02 
1358	-2.40105140096779E-02 
1359	-4.26375968737747E-02 
1360	-7.05105845249675E-02 
1361	-0.128029456565959 
1362	-0.207624916599816 
1363	-0.2053657275042 
1364	-0.215743407405051 
1365	-0.367046205112336 
1366	-0.318898488284805 
1367	-0.122807994212679 
1368	-0.142198228301487 
1369	 0.151917926230606 
1370	 0.186971433102255 
1371	-0.37304888642324 
1372	-0.421095882680051 
1373	-3.22258949333443E-02 
1374	-9.50119574029646E-02 
1375	-0.483203592956255 
1376	-0.481387549465358 
1377	-0.325077536774642 
1378	-0.42199466182036 
1379	-0.623881111667271 
1380	-0.502132563109567 
1381	-0.249685953582891 
1382	-0.271928533511717 
1383	-8.94146240666003E-02 
1384	 8.56197278251644E-02 
1385	 2.16230547575576E-03 
1386	-0.221661302158797 
1387	-0.355392764481795 
1388	-0.286778230482353 
1389	-0.350877552442384 
1390	-0.536894350894455 
1391	-0.45733965691455 
1392	-0.299046099441647 
1393	-0.257059916899334 
1394	-0.352616504595954 
1395	-0.208650555532612 
1396	 7.57582813809495E-02 
1397	-1.50741531426446E-02 
1398	 8.73673772022616E-03 
1399	 0.207120814278775 
1400	 0.173439839246995 
1401	-6.88519536411461E-03 
1402	-0.121945546661158 
1403	-0.151140790063185 
1404	-0.127999231019971 
1405	-0.134084844196218 
1406	 6.16482505268216E-03 
1407	-9.74752098390919E-02 
1408	-0.439278716230496 
1409	-0.439067948088511 
1410	-0.442060240356847 
1411	-0.363542267709655 
1412	-0.139659216728566 
1413	-0.076683669833059 
1414	-6.34938500199298E-02 
1415	-6.59136358955347E-02 
1416	-6.88513989583618E-02 
1417	-6.95932195483394E-02 
1418	-0.122170730530569 
1419	-8.76636167907574E-02 
1420	-0.012803719281447 
1421	-6.40211349595404E-03 
1422	-4.24236078005789E-03 
1423	 5.76829085776381E-03 
1424	 8.91341365862719E-04 
1425	-3.97001393230468E-03 
1426	-9.79298685494173E-04 
1427	 1.15816131329269E-03 
1428	-4.56863726400462E-03 
1429	-6.45380939061282E-03 
1430	-3.66043015236646E-04 
1431	 0.002055709706801 
1432	-6.20524217894478E-03 
1433	-3.85548085503205E-03 
1434	 1.38079909575257E-02 
1435	 1.69572482275846E-02 
1436	 0.012466828989421 
1437	 0.016199340348647 
1438	 2.11015695784883E-02 
1439	 2.14991742012405E-02 
1440	 1.84605129000904E-02 
1441	 1.68278427268726E-02 
1442	 1.60198625352749E-02 
1443	 0.006158570485328 
1444	 1.30296734067615E-03 
1445	 0.01049990638893 
1446	 1.36032662414871E-02 
1447	 6.3614229859202E-03 
1448	 5.93623641290644E-03 
1449	 1.03140587061393E-02 
1450	 1.30244859011228E-02 
1451	 1.70652626660699E-02 
1452	 1.85086745019216E-02 
1453	 1.66390499555966E-02 
1454	 1.73253591542178E-02 
1455	 1.77282644417479E-02 
1456	 1.75077431575119E-02 
1457	 1.77368574023669E-02 
1458	 1.81327735810189E-02 
1459	 1.72949715404052E-02 
1460	 1.79269488459002E-02 
1461	 2.10232071932312E-02 
1462	 2.11383812096167E-02 
1463	 1.95097826219808E-02 
1464	 1.91899678263893E-02 
1465	 1.83194972776151E-02 
1466	 1.71326612793722E-02 
1467	 1.52468569277764E-02 
1468	 1.67414630663972E-02 
1469	 2.09175291774554E-02 
1470	 2.10327965901366E-02 
1471	 2.19981695183664E-02 
1472	 2.23706931424512E-02 
1473	 1.84040907397317E-02 
1474	 1.74569897229962E-02 
1475	 1.92919620783592E-02 
1476	 1.98658518383151E-02 
1477	 1.92267552883656E-02 
1478	 1.96957634345339E-02 
1479	 2.15406221845046E-02 
1480	 2.23770785160363E-02 
1481	 2.22916198841475E-02 
1482	 2.27749666168093E-02 
1483	 2.27565210414419E-02 
1484	 2.43564210614924E-02 
1485	 2.70334599902879E-02 
1486	 2.84020374021086E-02 
1487	 2.96117674715072E-02 
1488	 0.031009538475717 
1489	 3.18159814513329E-02 
1490	 3.27121342994573E-02 
1491	 3.35939889132639E-02 
1492	 3.50871833818682E-02 
1493	 0.036982843210743 
1494	 3.80377033121076E-02 
1495	 3.89684690504467E-02 
1496	 4.01313634322188E-02 
1497	 4.10662913603986E-02 
1498	 4.18458197626174E-02 
1499	 0.042919054038707 
1500	 4.39176046257346E-02 
1501	 4.44792463769301E-02 
1502	 4.52109623863705E-02 
1503	 4.63892202194209E-02 
1504	 4.73210441218135E-02 
1505	 4.80378529549564E-02 
1506	 4.87495476940221E-02 
1507	 4.93398223853575E-02 
1508	 5.00286318405073E-02 
1509	 0.050977107309339 
1510	 5.16115627301362E-02 
1511	 5.21665757232974E-02 
1512	 5.27333235250222E-02 
1513	 5.32241386256975E-02 
1514	 5.38240598993166E-02 
1515	 5.44032126827135E-02 
1516	 0.054907181048392 
1517	 5.54343752847415E-02 
1518	 5.59798391481086E-02 
1519	 5.65643473273012E-02 
1520	 5.72237270721558E-02 
1521	 5.77517142856068E-02 
1522	 0.058073971196341 
1523	 5.85280763685174E-02 
1524	 5.90697475273803E-02 
1525	 5.94935966444162E-02 
1526	 5.99507477111535E-02 
1527	 6.04966586322079E-02 
1528	 6.09536462047962E-02 
1529	 6.11728228242953E-02 
1530	 6.15029947174737E-02 
1531	 6.20147686910064E-02 
1532	 6.24215680791739E-02 
1533	 6.28725660842664E-02 
1534	 6.33838646524015E-02 
1535	 6.38367582954377E-02 
1536	 6.41885801288795E-02 
1537	 6.44830959542325E-02 
1538	 0.064799562099199 
1539	 6.50352992713926E-02 
1540	 0.06524079569621 
1541	 6.55670312158776E-02 
1542	 6.59117972111101E-02 
1543	 6.61258240635543E-02 
1544	 6.62939571558294E-02 
1545	 6.65464458347223E-02 
1546	 6.68615354917031E-02 
1547	 6.70741578372845E-02 
1548	 6.71066975150263E-02 
1549	 6.72451532356759E-02 
1550	 6.75230149324829E-02 
1551	 6.78180976368226E-02 
1552	 6.83249380257397E-02 
1553	 6.87652334220125E-02 
1554	 6.88586580743876E-02 
1555	 6.88565182607541E-02 
1556	 6.89087611595596E-02 
1557	 6.90698622229883E-02 
1558	 6.92875009989271E-02 
1559	 0.069298713409244 
1560	 6.92460707227633E-02 
1561	 6.93263260229834E-02 
1562	 6.92568333641454E-02 
1563	 6.92643490810834E-02 
1564	 0.069395854880715 
1565	 6.91931233463278E-02 
1566	 6.88933682855639E-02 
1567	 6.88094492524847E-02 
1568	 6.88171668925382E-02 
1569	 6.86987122677363E-02 
1570	 0.068575579259173 
1571	 6.86287903806183E-02 
1572	 6.86656905091219E-02 
1573	 6.87303564006674E-02 
1574	 6.88063141530153E-02 
1575	 6.87939316856828E-02 
1576	 6.88058582851717E-02 
1577	 6.88893910612039E-02 
1578	 6.90488804453526E-02 
1579	 6.91594349247103E-02 
1580	 6.92859214047981E-02 
1581	 0.069502438558442 
1582	 0.069714226630233 
1583	 6.99170778338677E-02 
1584	 6.99912468402772E-02 
1585	 7.00152217940402E-02 
1586	 7.02048279816087E-02 
1587	 7.05103843050547E-02 
1588	 0.070745081009564 
1589	 7.07736801164305E-02 
1590	 0.070645427763141 
1591	 7.04649451695658E-02 
1592	 7.04611593272632E-02 
1593	 7.06462175673979E-02 
1594	 7.07692775240599E-02 
1595	 7.07712184682794E-02 
1596	 7.06507928969243E-02 
1597	 7.04722075148492E-02 
1598	 7.03114433834366E-02 
1599	 7.02424052628852E-02 
1600	 7.01904792483465E-02 
1601	 7.00612766573379E-02 
1602	 7.01019766356184E-02 
1603	 7.03225783131916E-02 
1604	 0.070406678230646 
1605	 7.04355176180753E-02 
1606	 7.05161892639494E-02 
1607	 7.02594932644534E-02 
1608	 7.01065240703388E-02 
1609	 7.06208233360257E-02 
1610	 7.08421201160792E-02 
1611	 7.06928599733668E-02 
1612	 7.09772361998387E-02 
1613	 7.11960138217663E-02 
1614	 7.11476235646822E-02 
1615	 0.071417449178943 
1616	 0.071666750533157 
1617	 7.14954288968267E-02 
1618	 7.17075634377804E-02 
1619	 7.22802735867266E-02 
1620	 7.22988261376962E-02 
1621	 7.21964629806611E-02 
1622	 7.23289606872299E-02 
1623	 0.072377254402754 
1624	 7.24797271650771E-02 
1625	 0.07260877261836 
1626	 7.25978118060194E-02 
1627	 7.24149931461554E-02 
1628	 7.22910133935346E-02 
1629	 0.072425152458908 
1630	 7.24329614910343E-02 
1631	 7.21471066133192E-02 
1632	 7.20379039472684E-02 
1633	 7.21870924328606E-02 
1634	 7.20675358132247E-02 
1635	 7.19249944119402E-02 
1636	 7.20650863159419E-02 
1637	 7.20094216389683E-02 
1638	 7.17446310776631E-02 
1639	 7.16714290801718E-02 
1640	 7.17508245944226E-02 
1641	 7.16187183067776E-02 
1642	 7.15219576213737E-02 
1643	 7.15367695154417E-02 
1644	 0.071539273070852 
1645	 7.17273335753534E-02 
1646	 7.17658258478461E-02 
1647	 7.15981887550937E-02 
1648	 7.14863833785336E-02 
1649	 7.13177911836162E-02 
1650	 7.09870739603872E-02 
1651	 7.08789129938073E-02 
1652	 7.10918012500207E-02 
1653	 7.09700966386913E-02 
1654	 7.09843741210641E-02 
1655	 7.11843103863096E-02 
1656	 7.11206328172107E-02 
1657	 7.09154854783158E-02 
1658	 7.10355765287902E-02 
1659	 7.12792158149779E-02 
1660	 7.11484637494401E-02 
1661	 7.08469516716149E-02 
1662	 7.08844322335452E-02 
1663	 7.10491879326657E-02 
1664	 0.071024433347775 
1665	 7.10412414841482E-02 
1666	 7.11734830958481E-02 
1667	 7.11720332920598E-02 
1668	 7.09725401553978E-02 
1669	 0.070999703673509 
1670	 7.09175924053543E-02 
1671	 7.08510959228548E-02 
1672	 7.10812284385987E-02 
1673	 0.071132433735165 
1674	 7.11250152075806E-02 
1675	 7.11790447640019E-02 
1676	 7.11298857896678E-02 
1677	 7.13739404717756E-02 
1678	 7.17560399050482E-02 
1679	 7.16134618895403E-02 
1680	 7.13449791526246E-02 
1681	 7.14215745658128E-02 
1682	 7.13640026375541E-02 
1683	 7.12747982357502E-02 
1684	 0.071340020039558 
1685	 7.11716208832237E-02 
1686	 7.08089516973477E-02 
1687	 7.06500077089778E-02 
1688	 7.06429794345896E-02 
1689	 7.05037959326636E-02 
1690	 7.03106765357031E-02 
1691	 6.99601828445465E-02 
1692	 6.96883113037969E-02 
1693	 6.97386488009483E-02 
1694	 6.97399569834191E-02 
1695	 6.94457457906197E-02 
1696	 6.91132221338475E-02 
1697	 6.91476303621025E-02 
1698	 6.91916189414683E-02 
1699	 6.92762685277083E-02 
1700	 0.069476070821945 
1701	 6.89913206175146E-02 
1702	 6.83150430946477E-02 
1703	 0.068343316669583 
1704	 6.84526344741525E-02 
1705	 6.81743706961288E-02 
1706	 6.80815119572266E-02 
1707	 6.78404667573017E-02 
1708	 6.71185527590776E-02 
1709	 6.69190965985483E-02 
1710	 6.72622348039127E-02 
1711	 6.74514108985181E-02 
1712	 6.74688046392074E-02 
1713	 6.72853677981339E-02 
1714	 6.71244606471296E-02 
1715	 6.69517057847465E-02 
1716	 6.68175166405322E-02 
1717	 6.67116932456467E-02 
1718	 6.63890167216132E-02 
1719	 6.59912154079137E-02 
1720	 6.58450721224537E-02 
1721	 6.54934179003272E-02 
1722	 6.50020959355907E-02 
1723	 6.52818005823216E-02 
1724	 6.54271088891525E-02 
1725	 6.45454371651762E-02 
1726	 6.40038630251287E-02 
1727	 6.37798776530126E-02 
1728	 6.35571354643518E-02 
1729	 6.38978099419269E-02 
1730	 6.35664237288578E-02 
1731	 6.24708627857421E-02 
1732	 6.22109420181116E-02 
1733	 6.21126276912649E-02 
1734	 6.18539929052912E-02 
1735	 6.18689819720165E-02 
1736	 0.061314606531627 
1737	 6.06287031754062E-02 
1738	 6.03492084225588E-02 
1739	 0.06017028124819 
1740	 5.92641061180838E-02 
1741	 5.81614188650206E-02 
1742	 5.83296590883696E-02 
1743	 5.81850692881949E-02 
1744	 5.78669988007852E-02 
1745	 5.85829054507721E-02 
1746	 5.81633046073483E-02 
1747	 5.78328345493188E-02 
1748	 5.75007499558558E-02 
1749	 5.72905560857974E-02 
1750	 5.72664843490025E-02 
1751	 5.71340414886879E-02 
1752	 5.74269762868025E-02 
1753	 5.69138577963056E-02 
1754	 5.53157289368484E-02 
1755	 5.47090239713126E-02 
1756	 5.43365468516611E-02 
1757	 5.46414600827076E-02 
1758	 5.45529958768106E-02 
1759	 5.36307880104535E-02 
1760	 5.31445471559579E-02 
1761	 5.25959590372821E-02 
1762	 5.19161673895376E-02 
1763	 5.17342195738565E-02 
1764	 5.03840168080513E-02 
1765	 4.83040280010826E-02 
1766	 4.78173222305084E-02 
1767	 4.78279727655299E-02 
1768	 4.71650405556696E-02 
1769	 4.64192501203857E-02 
1770	 4.53994016988838E-02 
1771	 4.41305705304331E-02 
1772	 4.34764432880155E-02 
1773	 4.36687823092512E-02 
1774	 4.31947863879359E-02 
1775	 4.17971096253862E-02 
1776	 4.04920261845378E-02 
1777	 3.81146792877565E-02 
1778	 3.69508215547645E-02 
1779	 3.70671126858374E-02 
1780	 3.61822256304867E-02 
1781	 3.60632857764735E-02 
1782	 3.52137893007419E-02 
1783	 3.19902142995614E-02 
1784	 3.11974415447058E-02 
1785	 3.19653074761613E-02 
1786	 3.21489066347084E-02 
1787	 3.41643488104139E-02 
1788	 3.36850299504102E-02 
1789	 3.11961784928482E-02 
1790	 3.17000143068273E-02 
1791	 3.07054306809188E-02 
1792	 0.031843306807558 
1793	 2.99726766847555E-02 
1794	 2.28565465365012E-02 
1795	 1.97579619963027E-02 
1796	 1.96097776912211E-02 
1797	 0.020554289508676 
1798	 2.60344417892232E-02 
1799	 2.47726325977645E-02 
1800	 1.75731450281565E-02 
1801	 1.14763709407423E-02 
1802	 3.85403660231091E-03 
1803	-0.003789755746245 
1804	-1.67728528733334E-02 
1805	-0.02552620513317 
1806	-2.56319987558891E-02 
1807	-2.61871183148576E-02 
1808	-2.22089276687546E-03 
1809	 1.91656477415702E-02 
1810	 5.97956104043263E-02 
1811	 2.06824629343299E-02 
1812	-0.154049772357381 
1813	-0.288013521090894 
1814	-0.747394073210018 
1815	-0.883700952641051 
1816	-0.269895645502833 
1817	-0.194977298912062 
1818	-2.31558856274349E-03 
1819	-3.47423308393797E-02 
1820	 6.62238934877989E-02 
1821	 0.141242691673363 
1822	 4.68133717798362E-02 
1823	-0.771515374728895 
1824	-1.09326633079777 
1825	-0.949933789003882 
1826	-0.821233872280965 
1827	-0.264016091943338 
1828	-9.78312458443125E-02 
1829	-0.22680208159607 
1830	-0.20150604161823 
1831	-1.00930986569525 
1832	-1.0276283872344 
1833	 3.32187857036351 
1834	 19.9437327281337 
1835	-0.569883674963718 
1836	-1.42768831099113 
1837	-2.57507292047627 
1838	-4.95032630874047 
1839	 8.21963085700682 
1840	 0.808683245192248 
1841	 0.301364685735531 
1842	-0.582713326782276 
1843	-0.647502096017212 
1844	-2.14141045344672 
1845	-0.471375765854595 
1846	 5.84231871498439 
1847	 8.28015402020981 
1848	-8.45465444029685 
1849	-0.424217800211506 
1850	 1.22651844909574 
1851	 2.7354574032149 
1852	 0.695260609660993 
1853	-1.61627661530504 
1854	 0.815769584189695 
1855	 2.96916403551664 
1856	 9.50843654503135 
1857	-2.84266959337146 
1858	-1.83376353058362 
1859	-1.04109466229358 
1860	-0.457945812313913 
1861	 1.14573708857121 
1862	 0.662437197678172 
1863	 0.319843093199061 
1864	 0.395641203857565 
1865	 0.403953225110273 
1866	-9.03235177961501E-02 
1867	-9.54175447588952E-02 
1868	 2.34224895102926 
1869	 4.53966655765313 
1870	 5.67960679382104 
1871	-2.56317834922774 
1872	-2.83205468808694 
1873	 0.409838114592246 
1874	 1.30246427260551 
1875	 0.590600229265293 
1876	 0.581659519744086 
1877	 1.30174952533468 
1878	 1.57614064867475 
1879	 2.08212931348696 
1880	 1.71750943090968 
1881	 1.34736431564437 
1882	 0.731288551033971 
1883	 0.649564206764028 
1884	 0.546860060059492 
1885	-0.187593751313495 
1886	 5.2920802413609 
1887	-8.81533546968953 
1888	-7.62466210614295 
1889	-7.62078151193638 
1890	-2.11078491600311 
1891	-0.570122196685457 
1892	-0.667322611882217 
1893	 0.107104051573987 
1894	 0.607937108776562 
1895	 1.55868594734795 
1896	 806.588649663753 
1897	-0.991513416920416 
1898	-0.773779017405048 
1899	-1.55433087180509 
1900	-3.17228978148793 
1901	 5.93841307852319 
1902	 2.1690214356401 
1903	 0.884436025202873 
1904	 0.7551709614704 
1905	 1.1119826785771 
1906	 0.52443866178967 
1907	 0.501147885828536 
1908	 0.410192904507071 
1909	 0.538371176381908 
1910	 1.08881564432339 
1911	 2.01282667012919 
1912	 5.62796812803957 
1913	 2.44494628692115 
1914	 2.02629542442367 
1915	 2.02389981174541 
1916	 1.4559874938998 
1917	-0.112526121804448 
1918	-263.421092962952 
1919	 11.1270533654541 
1920	-8.12470576104801 
1921	-3.16940578892985 
1922	 2.98316072430724 
1923	 0.155107286293799 
1924	-0.10796752668131 
1925	-0.261293087540604 
1926	-2.21103591321742 
1927	-0.106778297827157 
1928	-0.171381164914232 
1929	-0.253886572595643 
1930	 0.354741500031171 
1931	-0.705337482976203 
1932	 6.69523424035267 
1933	 0.634272302928644 
1934	 0.347072020267744 
1935	 4.59139555676393E-02 
1936	-9.57674615869641E-02 
1937	-0.2246039713334 
1938	-0.270891418686109 
1939	-0.20865276026829 
1940	-5.45944354093153E-02 
1941	-4.18539071114808E-02 
1942	-4.33303356711013E-02 
1943	-3.63909659465886E-02 
1944	-4.44566633714321E-02 
1945	-1.88635193455242E-02 
1946	-8.23690964417481E-03 
1947	-2.58648589323649E-02 
1948	-0.052906170147361 
1949	-4.86063214176266E-02 
1950	-1.27230211915869E-02 
1951	 5.12129985207084E-03 
1952	 2.99880425136954E-03 
1953	 4.45714895301046E-03 
1954	-1.98744910031792E-02 
1955	-5.19742130901677E-02 
1956	-4.82035855612262E-02 
1957	-2.17619914428605E-02 
1958	-6.90398077234036E-04 
1959	 9.64009958989037E-03 
1960	 1.34435596970277E-02 
1961	 1.00889362284419E-02 
1962	 7.0681862075444E-03 
1963	 9.78134623213521E-03 
1964	 1.26390975910781E-02 
1965	 1.96086170419156E-02 
1966	 2.24715923395291E-02 
1967	 2.56397181600724E-02 
1968	 2.21866886226874E-02 
1969	 2.24751725195706E-02 
1970	 2.45421729565044E-02 
1971	 2.36751583822574E-02 
1972	 2.42112272670728E-02 
1973	 2.39826072341137E-02 
1974	 2.07563251491232E-02 
1975	 1.96840046173847E-02 
1976	 2.13491178514609E-02 
1977	 2.27162496559722E-02 
1978	 2.49004480993694E-02 
1979	 2.59093525078322E-02 
1980	 2.66707906535345E-02 
1981	 2.60749397765907E-02 
1982	 2.63557088653854E-02 
1983	 0.025957552648462 
1984	 2.50567892485931E-02 
1985	 2.50776516762626E-02 
1986	 2.55378325098423E-02 
1987	 2.55744775387093E-02 
1988	 2.55478025537329E-02 
1989	 2.61771773045391E-02 
1990	 2.62172846732861E-02 
1991	 2.64321020840205E-02 
1992	 2.79953191157973E-02 
1993	 2.89165027046847E-02 
1994	 0.028814166056817 
1995	 2.77717458639104E-02 
1996	 2.63608521506943E-02 
1997	 2.48976657551784E-02 
1998	 2.38755302980542E-02 
1999	 0.023432498443641 
2000	 0.025607207259694 
2001	 3.04701847561884E-02 
2002	 0.032206077078318 
2003	 0.030871387515978 
2004	 3.09203305616329E-02 
2005	 2.74239293805233E-02 
2006	 2.24432130456379E-02 
2007	 2.40470101376806E-02 
2008	 2.75112895674647E-02 
2009	 2.72892359451558E-02 
2010	 2.23793490605964E-02 
2011	 2.25120420426866E-02 
2012	 0.025177820180814 
2013	 2.39467265180678E-02 
2014	 2.23800089020225E-02 
2015	 2.41234117291361E-02 
2016	 2.46605095955721E-02 
2017	 2.45432472412854E-02 
2018	 2.71544275388285E-02 
2019	 3.13179184763968E-02 
2020	 3.24646365530566E-02 
2021	 3.37140785819693E-02 
2022	 3.60383033655235E-02 
2023	 3.64242830669545E-02 
2024	 3.71407199613755E-02 
2025	 3.80417329196738E-02 
2026	 3.85892432595072E-02 
2027	 3.84537278005183E-02 
2028	 3.95468885366339E-02 
2029	 4.03272144832845E-02 
2030	 4.12722326850233E-02 
2031	 4.21414374070625E-02 
2032	 4.21187802932985E-02 
2033	 4.18217967944981E-02 
2034	 4.20399690483206E-02 
2035	 4.22079562859641E-02 
2036	 4.21038556878253E-02 
2037	 4.26844801893277E-02 
2038	 4.29728281639165E-02 
2039	 4.33230302146535E-02 
2040	 4.38959391168048E-02 
2041	 4.43963300916308E-02 
2042	 4.51017973426079E-02 
2043	 4.51350486997183E-02 
2044	 4.45843503735922E-02 
2045	 4.45053638416455E-02 
2046	 4.45806252680142E-02 
2047	 4.49281483655507E-02 
2048	 4.52176171843678E-02 
2049	 4.50154287231453E-02 
2050	 4.50695458962921E-02 
2051	 4.46802170842363E-02 
2052	 4.43828761744369E-02 
2053	 4.47908842503493E-02 
2054	 0.044544264399389 
2055	 4.35824858497987E-02 
2056	 4.31191207782697E-02 
2057	 4.31794916423774E-02 
2058	 4.32161211891683E-02 
2059	 4.31929101466962E-02 
2060	 0.043392860338247 
2061	 4.41138062572861E-02 
2062	 4.42096220715326E-02 
2063	 4.43963394127647E-02 
2064	 0.044287986684831 
2065	 4.39857250832011E-02 
2066	 4.44332709940511E-02 
2067	 4.46279757711179E-02 
2068	 4.46355982631852E-02 
2069	 4.43636194370796E-02 
2070	 4.44811612182586E-02 
2071	 4.53704612208638E-02 
2072	 4.62606056752605E-02 
2073	 4.67001425955951E-02 
2074	 4.72457894762907E-02 
2075	 4.77772286526854E-02 
2076	 4.78664803714129E-02 
2077	 4.79258921510987E-02 
2078	 4.86087289733601E-02 
2079	 4.84772863826535E-02 
2080	 4.72557787922606E-02 
2081	 4.67842521622689E-02 
2082	 4.74695942468151E-02 
2083	 4.86996056361655E-02 
2084	 5.05205296842477E-02 
2085	 5.20972225999442E-02 
2086	 5.20345105317722E-02 
2087	 5.12857593532501E-02 
2088	 5.16502734495825E-02 
2089	 0.051929794525973 
2090	 0.051857218150073 
2091	 0.05237211360595 
2092	 5.24955197405498E-02 
2093	 5.17483303633751E-02 
2094	 5.13047203157713E-02 
2095	 5.09801419049311E-02 
2096	 5.11007251765465E-02 
2097	 5.11356587522315E-02 
2098	 0.051213435257818 
2099	 5.15916101332219E-02 
2100	 5.27694260885926E-02 
2101	 5.31536191824239E-02 
2102	 5.36402304857291E-02 
2103	 5.46144960903944E-02 
2104	 5.44190272757726E-02 
2105	 5.35121693172105E-02 
2106	 5.28109234673496E-02 
2107	 0.053019290184456 
2108	 5.35078004866007E-02 
2109	 5.33051349577572E-02 
2110	 5.34739103333503E-02 
2111	 5.41716807735826E-02 
2112	 0.054201635757737 
2113	 5.41735920056958E-02 
2114	 5.47422264983001E-02 
2115	 5.51190914740912E-02 
2116	 5.46251247734812E-02 
2117	 5.45417305169325E-02 
2118	 0.055056096799285 
2119	 5.51171190561647E-02 
2120	 5.45525158229848E-02 
2121	 5.47364057283272E-02 
2122	 5.54237564444852E-02 
2123	 5.59204290667328E-02 
2124	 5.59443144180264E-02 
2125	 5.56722533699782E-02 
2126	 5.63179888558422E-02 
2127	 5.70041456997193E-02 
2128	 5.74112614818052E-02 
2129	 5.90414539917647E-02 
2130	 5.93581410914961E-02 
2131	 5.86830037000441E-02 
2132	 5.87630502785029E-02 
2133	 5.86292472954044E-02 
2134	 0.05886225375064 
2135	 5.96124962373925E-02 
2136	 5.97620894322216E-02 
2137	 5.98581587716742E-02 
2138	 5.97687233284597E-02 
2139	 5.87698005854791E-02 
2140	 5.85395951573504E-02 
2141	 5.92156544399696E-02 
2142	 5.91572011369685E-02 
2143	 5.89573885879943E-02 
2144	 5.86778503076416E-02 
2145	 5.75834165734488E-02 
2146	 5.70558041973133E-02 
2147	 5.79039513474304E-02 
2148	 5.84077013486702E-02 
2149	 0.058220508321199 
2150	 5.77822267879783E-02 
2151	 5.75995162233697E-02 
2152	 5.75524243431342E-02 
2153	 5.74567717950923E-02 
2154	 5.76460611136006E-02 
2155	 5.74164304872028E-02 
2156	 0.05674214527725 
2157	 5.65002157853019E-02 
2158	 5.72254285210484E-02 
2159	 5.75918091825038E-02 
2160	 5.76373512173161E-02 
2161	 5.74190610742459E-02 
2162	 5.72802212392525E-02 
2163	 5.72777466069778E-02 
2164	 5.71165205176879E-02 
2165	 0.056923609511357 
2166	 5.68780583770697E-02 
2167	 5.68619616844012E-02 
2168	 0.056210157167969 
2169	 5.59238748579167E-02 
2170	 5.57787723010302E-02 
2171	 5.68009974385483E-02 
2172	 5.74228693495004E-02 
2173	 5.75094525047813E-02 
2174	 5.78773745892274E-02 
2175	 5.72162746123049E-02 
2176	 0.056408144483098 
2177	 5.69696360471642E-02 
2178	 5.66597294739687E-02 
2179	 0.055781468844214 
2180	 5.54891903789923E-02 
2181	 5.48197261954215E-02 
2182	 5.35476401214657E-02 
2183	 5.35704194385635E-02 
2184	 0.054368268185465 
2185	 5.41150446185744E-02 
2186	 5.43337230735098E-02 
2187	 5.59082429329863E-02 
2188	 5.62215091630367E-02 
2189	 5.54877548032213E-02 
2190	 5.50300212348917E-02 
2191	 5.42109903318327E-02 
2192	 0.05390414903596 
2193	 5.38699467844573E-02 
2194	 5.36659775106848E-02 
2195	 5.35090531069716E-02 
2196	 5.32990293731612E-02 
2197	 5.28495183743147E-02 
2198	 5.26204349426871E-02 
2199	 0.052343210307796 
2200	 5.30773270474909E-02 
2201	 5.36251624659032E-02 
2202	 5.34361246485057E-02 
2203	 5.39212078371115E-02 
2204	 0.054280812078208 
2205	 5.40539834080859E-02 
2206	 5.46260285241051E-02 
2207	 5.59716594865584E-02 
2208	 5.62024355839529E-02 
2209	 5.72111433794363E-02 
2210	 5.83347506120546E-02 
2211	 0.056784874977306 
2212	 5.61908117424063E-02 
2213	 0.055978023142804 
2214	 5.51118812974664E-02 
2215	 5.65579126988664E-02 
2216	 0.058012468179751 
2217	 5.76839268182714E-02 
2218	 5.55603651869171E-02 
2219	 5.56977687347708E-02 
2220	 5.57314549403707E-02 
2221	 5.54598377971471E-02 
2222	 5.66380386613705E-02 
2223	 5.75443882832438E-02 
2224	 5.74046801551506E-02 
2225	 5.77297045694883E-02 
2226	 5.95774752904065E-02 
2227	 5.95701202910355E-02 
2228	 5.78912483764785E-02 
2229	 5.71637938445538E-02 
2230	 5.60099568326412E-02 
2231	 5.53845710814331E-02 
2232	 5.59535923139231E-02 
2233	 5.52446037255919E-02 
2234	 5.33276964859936E-02 
2235	 5.27596351511909E-02 
2236	 0.053651487570394 
2237	 5.42669975965303E-02 
2238	 5.61927627194492E-02 
2239	 5.93993968679623E-02 
2240	 5.99718007228296E-02 
2241	 5.89829684479787E-02 
2242	 5.92302974170579E-02 
2243	 5.73581334520134E-02 
2244	 5.60776044921984E-02 
2245	 5.66425541601202E-02 
2246	 5.58597042020979E-02 
2247	 5.61530744372476E-02 
2248	 5.56064312731066E-02 
2249	 5.45180238839962E-02 
2250	 5.55683363069612E-02 
2251	 5.56129785902591E-02 
2252	 5.48391324238328E-02 
2253	 5.48461602185366E-02 
2254	 5.38131512823491E-02 
2255	 0.053566510805656 
2256	 5.58048692013609E-02 
2257	 0.057442323534755 
2258	 5.81386305631049E-02 
2259	 5.81132656990435E-02 
2260	 0.057721575955348 
2261	 5.59932651941192E-02 
2262	 5.57440503020458E-02 
2263	 5.61673679512842E-02 
2264	 5.55882603940544E-02 
2265	 5.53495499227475E-02 
2266	 0.05476054545456 
2267	 5.24798316600754E-02 
2268	 5.20302898164108E-02 
2269	 5.33398633712073E-02 
2270	 0.052584062371669 
2271	 5.15576263427098E-02 
2272	 5.09117334712849E-02 
2273	 4.87755530986663E-02 
2274	 4.83227973344716E-02 
2275	 4.92568599063891E-02 
2276	 4.96977343753588E-02 
2277	 5.00591788249455E-02 
2278	 5.04540020078717E-02 
2279	 5.20680403864222E-02 
2280	 0.051972382726431 
2281	 5.05666824589809E-02 
2282	 5.04758068429135E-02 
2283	 4.97601358385615E-02 
2284	 0.046760784359559 
2285	 4.31482950826616E-02 
2286	 4.33376122996584E-02 
2287	 4.62132923303895E-02 
2288	 4.84577938106222E-02 
2289	 5.36787308350799E-02 
2290	 5.52722600097277E-02 
2291	 5.08191586007406E-02 
2292	 4.77707438331761E-02 
2293	 4.53591215961301E-02 
2294	 4.43722753171812E-02 
2295	 4.56752211665741E-02 
2296	 4.74101762951807E-02 
2297	 4.79297346422874E-02 
2298	 4.94798354945336E-02 
2299	 5.02202283721036E-02 
2300	 4.71784846198713E-02 
2301	 4.46625297352321E-02 
2302	 4.11446112728983E-02 
2303	 3.82303265474383E-02 
2304	 3.98960420603763E-02 
2305	 4.30480791483475E-02 
2306	 4.32617865975626E-02 
2307	 4.32071298202458E-02 
2308	 4.64064264963578E-02 
2309	 4.78727586090623E-02 
2310	 4.83625220413509E-02 
2311	 4.79566694364783E-02 
2312	 4.39758216069143E-02 
2313	 4.29514741688017E-02 
2314	 0.046093812936353 
2315	 4.78950221400097E-02 
2316	 4.79192604451425E-02 
2317	 0.045310576008262 
2318	 0.040862732097896 
2319	 4.04272032987203E-02 
2320	 0.04251664949484 
2321	 4.51260090514138E-02 
2322	 4.71523682415557E-02 
2323	 4.45412460746837E-02 
2324	 4.19839007188018E-02 
2325	 4.36516471995347E-02 
2326	 4.61288629751367E-02 
2327	 4.86002654283678E-02 
2328	 4.97918239926087E-02 
2329	 4.88055953154595E-02 
2330	 4.59108467805255E-02 
2331	 4.28845359567268E-02 
2332	 4.62521636043965E-02 
2333	 5.02723339187326E-02 
2334	 5.03018835206784E-02 
2335	 4.90768123804367E-02 
2336	 4.44172648463255E-02 
2337	 4.24894938957275E-02 
2338	 4.44267641900029E-02 
2339	 4.18592256286246E-02 
2340	 3.82400271190195E-02 
2341	 3.54084209012015E-02 
2342	 2.92082065635614E-02 
2343	 2.96156248180417E-02 
2344	 3.42754121609287E-02 
2345	 2.84104112903752E-02 
2346	 0.023766237152197 
2347	 0.026115668019725 
2348	 2.49199729527554E-02 
2349	 2.34010825903686E-02 
2350	 2.21500799319293E-02 
2351	 2.51892383015232E-02 
2352	 3.13028271482288E-02 
2353	 3.47876383527887E-02 
2354	 4.09381981131758E-02 
2355	 4.23596374298658E-02 
2356	 4.08072859631069E-02 
2357	 4.50944605233701E-02 
2358	 4.23416850393935E-02 
2359	 3.79109381453668E-02 
2360	 4.30212668080099E-02 
2361	 4.42779471074765E-02 
2362	 4.28065957094288E-02 
2363	 4.75468870598603E-02 
2364	 4.67437423045676E-02 
2365	 4.29383612038308E-02 
2366	 4.84809238841354E-02 
2367	 4.32787588896798E-02 
2368	 0.032886744676012 
2369	 0.031223242876424 
2370	 1.85859728152395E-02 
2371	 1.41440516163466E-02 
2372	 1.90697309744924E-02 
2373	 2.50988187675466E-03 
2374	 6.39364903437438E-04 
2375	 1.20288130419213E-02 
2376	 9.35310018679238E-03 
2377	 2.09845239906138E-02 
2378	 3.01932565115382E-02 
2379	 3.33293185669521E-02 
2380	 0.021395207451921 
2381	-1.01520502851304E-02 
2382	-9.81387291949253E-03 
2383	-7.03228023797662E-03 
2384	-8.86065809252297E-04 
2385	 3.12477989181864E-02 
2386	 0.045241861737795 
2387	 2.86298405519596E-02 
2388	 1.42712818620856E-02 
2389	 1.27252751572249E-02 
2390	-0.003393763299535 
2391	-2.50084482318578E-03 
2392	 7.81115181589937E-03 
2393	-2.47020468877841E-02 
2394	-5.07835078132592E-02 
2395	-2.84373181614733E-02 
2396	-8.1308139181503E-03 
2397	 1.96469334014059E-02 
2398	 6.28396583857912E-02 
2399	 4.17573844495227E-02 
2400	 1.23299711463851E-02 
2401	 1.54247558854708E-02 
2402	 8.74293588878197E-03 
2403	 5.52105771224313E-03 
2404	-9.30961685021531E-03 
2405	-3.88604323831492E-02 
2406	-6.33961795700463E-02 
2407	-5.25520978355803E-02 
2408	-3.50179383626613E-02 
2409	-2.82265671532459E-02 
2410	-1.49514237202242E-02 
2411	-2.97917839850537E-02 
2412	-3.49286664958472E-02 
2413	-1.26477021490872E-02 
2414	 1.15832935552889E-02 
2415	 5.74592258436067E-02 
2416	 6.67151560799558E-02 
2417	 7.9326659249213E-03 
2418	 1.67554015712197E-02 
2419	 7.30530265989659E-02 
2420	 0.125456954216775 
2421	 0.17983969649814 
2422	 0.150942277855616 
2423	 0.107125147991624 
2424	 4.91517041618237E-02 
2425	 0.106338915712608 
2426	 0.201057996304785 
2427	 0.150096554605819 
2428	 7.98833258191028E-02 
2429	 0.064646404509818 
2430	 2.52328047199815E-02 
2431	-1.73041020200304E-02 
2432	 6.02848122699482E-03 
2433	 2.12502493809331E-02 
2434	-2.72266226994529E-02 
2435	-2.05749234096704E-02 
2436	 0.037015487899324 
2437	 3.68259620425805E-02 
2438	-3.06945994289247E-02 
2439	-5.25785587657733E-02 
2440	 8.57514050183039E-02 
2441	 0.156020521769395 
2442	 0.108034176682423 
2443	 9.79690343794653E-02 
2444	-9.83852812323893E-02 
2445	-0.394761650225408 
2446	-0.302964744729133 
2447	-0.131294859004258 
2448	-0.046809356567889 
2449	 9.89169408235218E-03 
2450	 1.90881442664154E-03 
2451	-6.28613769875997E-02 
2452	 0.016552351960196 
2453	 0.212621023269152 
2454	 0.286422616619805 
2455	 0.403083314758775 
2456	 0.221411131037546 
2457	-3.97777418386694E-02 
2458	-0.129763900859896 
2459	-2.57980077665394E-02 
2460	 0.162954310532032 
2461	 0.098634397502951 
2462	 0.177102421150858 
2463	 0.4638192691317 
2464	 0.33178915945808 
2465	 0.72698454692123 
2466	 1.13151161140362 
2467	 0.47872067464625 
2468	-9.46435384991877E-02 
2469	 0.775357495931173 
2470	 1.36011806927001 
2471	 0.804690926810969 
2472	 0.315603825245664 
2473	-0.62631029827133 
2474	 9.12997888550862 
2475	-5.1094375041127 
2476	 26.8980010968239 
2477	 2.96496664460879 
2478	 5.34730266007185 
2479	 2.205562272909 
2480	 4.82831966798959 
2481	 9.53502482618007 
2482	 4.59752565445489 
2483	-1.12981003115438 
2484	 6.52901201504367E-02 
2485	 0.342107479141359 
2486	 0.749307700080974 
2487	 1.74632559636145 
2488	 1.18630123766857 
2489	 0.302631241507252 
2490	 0.196389278179499 
2491	 0.183885524701254 
2492	 0.267483084802281 
2493	 0.990754899795896 
2494	 1.11237674840777 
2495	-2.73153469683969 
2496	-2.84807189149717 
2497	-2.77800481082521 
2498	-0.800168053435375 
2499	 2.47978102080703 
2500	-0.288999428353245 
