Wavelength	rt0713east_far00007.asd
350	 7.65689457486569E-02 
351	 7.70392291781061E-02 
352	 7.68602539674927E-02 
353	 7.65641723654586E-02 
354	 7.64690093155689E-02 
355	 7.59162945031819E-02 
356	 7.54533856426847E-02 
357	 7.55854447024609E-02 
358	 7.63749302718387E-02 
359	 7.62698348049442E-02 
360	 7.61946208519317E-02 
361	 7.59525671214301E-02 
362	 7.48133353727607E-02 
363	 7.53732297857844E-02 
364	 7.56916819245165E-02 
365	 7.50849409013194E-02 
366	 7.55963593061019E-02 
367	 0.075782847342485 
368	 7.57944105816011E-02 
369	 7.59624798945703E-02 
370	 7.57023683656678E-02 
371	 7.58936712768346E-02 
372	 7.63358974671229E-02 
373	 7.62374592212564E-02 
374	 7.57360568828889E-02 
375	 7.57472405837035E-02 
376	 7.63790825699896E-02 
377	 7.65589755637145E-02 
378	 7.66632370083994E-02 
379	 7.63864186209818E-02 
380	 7.57503755553291E-02 
381	 7.61395655814892E-02 
382	 7.69087634376822E-02 
383	 7.72454839024202E-02 
384	 7.66005601154768E-02 
385	 7.65582447029123E-02 
386	 7.74494828108646E-02 
387	 7.82058787305275E-02 
388	 7.66126832335867E-02 
389	 7.74765115813217E-02 
390	 7.84247910005669E-02 
391	 7.76306319535058E-02 
392	 7.81460262387406E-02 
393	 7.80988776404439E-02 
394	 0.077917246524568 
395	 7.84939545827994E-02 
396	 7.84985075362324E-02 
397	 7.84860306277026E-02 
398	 0.078679261021725 
399	 7.89097996825488E-02 
400	 7.89614012504123E-02 
401	 7.88828968108231E-02 
402	 7.88092536666954E-02 
403	 7.89555818532705E-02 
404	 7.91940773848216E-02 
405	 7.94602796905722E-02 
406	 7.96899375013288E-02 
407	 7.96979857292029E-02 
408	 7.97249078346249E-02 
409	 7.98278593358967E-02 
410	 7.98683450262831E-02 
411	 8.00828109347572E-02 
412	 8.02532501512353E-02 
413	 8.02508756978249E-02 
414	 0.080325452309494 
415	 8.05828519494045E-02 
416	 8.08880454081125E-02 
417	 0.081048197651344 
418	 8.12078125442767E-02 
419	 8.15194274225185E-02 
420	 8.18756614836521E-02 
421	 8.19162352093149E-02 
422	 0.082182203292019 
423	 8.24852540898137E-02 
424	 8.26527009280505E-02 
425	 8.30014404720354E-02 
426	 0.083301741762028 
427	 8.36123452031582E-02 
428	 8.40746839107928E-02 
429	 0.084377153502458 
430	 8.46972264703004E-02 
431	 8.50630267442202E-02 
432	 8.52804155736461E-02 
433	 8.56408490364332E-02 
434	 8.60551832091329E-02 
435	 8.64143305019909E-02 
436	 8.68276020637934E-02 
437	 8.71459744507506E-02 
438	 8.74231839146483E-02 
439	 8.77998414077236E-02 
440	 0.088115693324832 
441	 8.84554251635639E-02 
442	 8.88607648834005E-02 
443	 8.92807492512946E-02 
444	 8.95099183998659E-02 
445	 8.97429040852537E-02 
446	 9.01708271111243E-02 
447	 9.05114441877856E-02 
448	 9.08841424637363E-02 
449	 9.12159900668125E-02 
450	 9.13370095861566E-02 
451	 0.091772329147078 
452	 9.21373516447187E-02 
453	 9.22166079496227E-02 
454	 9.23927536116763E-02 
455	 9.26941302500909E-02 
456	 9.30066425009034E-02 
457	 9.32007713682993E-02 
458	 9.34586393920338E-02 
459	 9.36504929672394E-02 
460	 9.38076626308332E-02 
461	 9.41239031344315E-02 
462	 9.44186133625812E-02 
463	 9.45904797728493E-02 
464	 9.46556686939512E-02 
465	 9.48990374850556E-02 
466	 9.51097342485405E-02 
467	 0.09528394861094 
468	 9.55103775667459E-02 
469	 9.57643587186998E-02 
470	 9.59960271337856E-02 
471	 9.61651430282461E-02 
472	 9.62457769646623E-02 
473	 9.65192115451264E-02 
474	 9.68496329418817E-02 
475	 9.70796587140859E-02 
476	 9.74186235168697E-02 
477	 9.76633741158371E-02 
478	 9.78655523996437E-02 
479	 9.82214395187383E-02 
480	 9.84189646303062E-02 
481	 0.098630480811927 
482	 9.89802241723616E-02 
483	 9.93762285050905E-02 
484	 9.96457862368338E-02 
485	 9.98895352153492E-02 
486	 0.100280067071203 
487	 0.100722627426148 
488	 0.101188540856297 
489	 0.101601829153126 
490	 0.10185455720376 
491	 0.102128775080954 
492	 0.102539853938496 
493	 0.103076192086092 
494	 0.103452756182955 
495	 0.103728269139002 
496	 0.104106373620479 
497	 0.104778203462442 
498	 0.105115555667509 
499	 0.105463348899453 
500	 0.105987178208774 
501	 0.106420188316968 
502	 0.106849311937275 
503	 0.107317571317057 
504	 0.107820145128323 
505	 0.108159129761959 
506	 0.10876135694377 
507	 0.1095250457472 
508	 0.109949110352215 
509	 0.110288155757123 
510	 0.110727506910421 
511	 0.111325130886876 
512	 0.111884486326054 
513	 0.112463518923369 
514	 0.113019025200089 
515	 0.113510471234012 
516	 0.114231324610715 
517	 0.114898783404416 
518	 0.115401227270137 
519	 0.115904659428445 
520	 0.116480151118933 
521	 0.117090392367056 
522	 0.117672317404372 
523	 0.118151597005018 
524	 0.118779051969718 
525	 0.119504658258002 
526	 0.120082586417684 
527	 0.120644373503719 
528	 0.121302601748151 
529	 0.122048804563933 
530	 0.122645804067319 
531	 0.123295880487101 
532	 0.123948317314499 
533	 0.124509945926943 
534	 0.125222656686707 
535	 0.125904100004231 
536	 0.126500935398537 
537	 0.127130472235339 
538	 0.127709620726443 
539	 0.128375458735493 
540	 0.129185302497381 
541	 0.129780898853636 
542	 0.130357787189179 
543	 0.13102171652478 
544	 0.131791385382505 
545	 0.132390694745958 
546	 0.133023239216657 
547	 0.133779846144071 
548	 0.134412814342365 
549	 0.13508263008465 
550	 0.135749105461276 
551	 0.136343244955569 
552	 0.13703396615463 
553	 0.137688765277629 
554	 0.13827107519221 
555	 0.13886826395111 
556	 0.139541014292531 
557	 0.140250747413633 
558	 0.140921269224179 
559	 0.141483481887885 
560	 0.141968818313179 
561	 0.142449528090769 
562	 0.143013604515808 
563	 0.143612564516052 
564	 0.144155712743079 
565	 0.144558284247788 
566	 0.144726252185474 
567	 0.145129218538573 
568	 0.145663487330464 
569	 0.146058379417613 
570	 0.146503960717631 
571	 0.146922929093439 
572	 0.147311689935124 
573	 0.147752606067649 
574	 0.147967521372176 
575	 0.148163413343181 
576	 0.148538381211171 
577	 0.148890610553852 
578	 0.149228865776933 
579	 0.149542732228892 
580	 0.149821530290827 
581	 0.150137779387093 
582	 0.15045361102598 
583	 0.150646610400887 
584	 0.150430078114356 
585	 0.150411211619371 
586	 0.150419431961757 
587	 0.150101468292062 
588	 0.149906732431875 
589	 0.149785338358456 
590	 0.149791241434075 
591	 0.15008341124346 
592	 0.150102120865486 
593	 0.149891850234038 
594	 0.149674395988115 
595	 0.149811989292528 
596	 0.149706889383143 
597	 0.149442855608165 
598	 0.149439208483264 
599	 0.14928671030088 
600	 0.149095142852469 
601	 0.148988325010022 
602	 0.149015403788105 
603	 0.148987046640391 
604	 0.148937859753172 
605	 0.148949627761342 
606	 0.148913638824284 
607	 0.148990204809157 
608	 0.149144594523973 
609	 0.14913726768617 
610	 0.149098965125004 
611	 0.149141824932003 
612	 0.149294702481844 
613	 0.149357660994001 
614	 0.149431969727827 
615	 0.149491257042361 
616	 0.149464310363773 
617	 0.149537829543865 
618	 0.149615369498129 
619	 0.14964756988071 
620	 0.149710407325837 
621	 0.149769483616088 
622	 0.149778762004252 
623	 0.149739044320824 
624	 0.149903227051887 
625	 0.149978240641724 
626	 0.149878202555162 
627	 0.149748890395584 
628	 0.14988036509019 
629	 0.150087263193336 
630	 0.15018082189187 
631	 0.150232698555955 
632	 0.150227619119996 
633	 0.150206187033738 
634	 0.150235304910788 
635	 0.150362168371798 
636	 0.150487049621837 
637	 0.150586042033207 
638	 0.150769212808338 
639	 0.150826398992956 
640	 0.150766875859058 
641	 0.150680977059137 
642	 0.150685205104434 
643	 0.150620260351645 
644	 0.15041389962828 
645	 0.150082145979272 
646	 0.149796499196456 
647	 0.149583473489295 
648	 0.149477999380044 
649	 0.149649198811296 
650	 0.149486566328006 
651	 0.149211071732586 
652	 0.149264974063719 
653	 0.149168648914034 
654	 0.148806630584486 
655	 0.14824171716986 
656	 0.147833942421393 
657	 0.147639644344524 
658	 0.14745547025637 
659	 0.147160783326344 
660	 0.147079412057878 
661	 0.146786856015709 
662	 0.146397085692097 
663	 0.146306839923212 
664	 0.145979980036312 
665	 0.145758666756006 
666	 0.145760696645113 
667	 0.145509133645706 
668	 0.145331463107714 
669	 0.14528839198265 
670	 0.145325058212306 
671	 0.145237378523747 
672	 0.145382112101012 
673	 0.145642183585305 
674	 0.145482635916879 
675	 0.14555689633858 
676	 0.145673979490979 
677	 0.145677868783961 
678	 0.145915074316534 
679	 0.146216861457147 
680	 0.146482008046236 
681	 0.146660734124791 
682	 0.146875398503247 
683	 0.147031853083621 
684	 0.147068214719632 
685	 0.146983919258895 
686	 0.146989479838163 
687	 0.147049712782049 
688	 0.147097766068732 
689	 0.147330004375626 
690	 0.147521307092999 
691	 0.147450548953226 
692	 0.146960751967571 
693	 0.146795919505256 
694	 0.146972916496087 
695	 0.147234898217775 
696	 0.147196387684815 
697	 0.146977150477558 
698	 0.146562265520649 
699	 0.14600912817263 
700	 0.145700790691847 
701	 0.145539968242244 
702	 0.145349058030503 
703	 0.144949209742355 
704	 0.144760669015723 
705	 0.144368688507786 
706	 0.143608444899297 
707	 0.143097771506472 
708	 0.14243960155741 
709	 0.141655298317564 
710	 0.140886555552731 
711	 0.140089486570496 
712	 0.139134968058987 
713	 0.137922837530948 
714	 0.136348101339458 
715	 0.134519102613794 
716	 0.132372628037109 
717	 0.130180994640844 
718	 0.128491321454542 
719	 0.127588398883221 
720	 0.127055548913797 
721	 0.12619909868315 
722	 0.124663521437314 
723	 0.122504264996356 
724	 0.120409217677708 
725	 0.11917433784518 
726	 0.11764895093917 
727	 0.115834124696142 
728	 0.113920080211187 
729	 0.11169638493998 
730	 0.109811157628261 
731	 0.108386314349554 
732	 0.107079518571023 
733	 0.10549252543163 
734	 0.104118110926495 
735	 0.103079339413793 
736	 0.101940305913884 
737	 0.101447738755527 
738	 0.101222599990145 
739	 0.100848037535627 
740	 0.100567195410533 
741	 0.100567183698761 
742	 0.100629441972799 
743	 0.100406439564597 
744	 0.100369310443094 
745	 0.100380858359951 
746	 0.10037857876508 
747	 0.100480829152194 
748	 0.10039969734585 
749	 0.10029463460715 
750	 0.100326065688422 
751	 0.100259485035242 
752	 0.100156191092476 
753	 0.100063093601864 
754	 0.100031372142344 
755	 0.100224035257312 
756	 0.10024532220074 
757	 9.99621686442963E-02 
758	 9.96039888859113E-02 
759	 9.91002847478431E-02 
760	 9.84390217661781E-02 
761	 0.098088776090804 
762	 0.098247669880239 
763	 9.88959287475956E-02 
764	 9.95120579323405E-02 
765	 9.97547851026921E-02 
766	 0.100424927434231 
767	 0.100733988936682 
768	 0.100734620342358 
769	 0.101247733635757 
770	 0.101509005440787 
771	 0.101620294046598 
772	 0.101780904877158 
773	 0.101956048812756 
774	 0.102235182436926 
775	 0.102510608347479 
776	 0.102652347098447 
777	 0.102935119814892 
778	 0.103255620144706 
779	 0.103582059556289 
780	 0.103973170596124 
781	 0.104240072487199 
782	 0.104508142543417 
783	 0.104867032832095 
784	 0.105207508087634 
785	 0.105381945423384 
786	 0.105478165028269 
787	 0.105676201981655 
788	 0.106065462499821 
789	 0.106496487256578 
790	 0.106970705726858 
791	 0.107607862534468 
792	 0.10824233868929 
793	 0.108706892447699 
794	 0.108973958499867 
795	 0.109202191427769 
796	 0.109540645711357 
797	 0.109915749624986 
798	 0.110233275444668 
799	 0.11054177806428 
800	 0.110762253925546 
801	 0.110943884403512 
802	 0.111211923464989 
803	 0.111618867037628 
804	 0.111933449907736 
805	 0.11215082133228 
806	 0.112507140568275 
807	 0.112293609256454 
808	 0.111818889176996 
809	 0.111443021807809 
810	 0.111085570226127 
811	 0.110642422508537 
812	 0.109969362563885 
813	 0.109030107966759 
814	 0.10848025980174 
815	 0.107839178885232 
816	 0.107158415126699 
817	 0.106880569915001 
818	 0.106438192315993 
819	 0.106338076436057 
820	 0.106332339785719 
821	 0.105133552107377 
822	 0.103606803105325 
823	 0.102228636869605 
824	 0.101105547331769 
825	 0.099712482211008 
826	 9.79130696093461E-02 
827	 9.61412954357163E-02 
828	 9.49366073197525E-02 
829	 9.30383862488673E-02 
830	 9.11704800163737E-02 
831	 8.97812900351266E-02 
832	 0.088992233037166 
833	 8.82713398330319E-02 
834	 8.76462123645425E-02 
835	 8.70507705698973E-02 
836	 8.62330076134972E-02 
837	 8.55945454846552E-02 
838	 8.55109590262486E-02 
839	 8.58387597333983E-02 
840	 8.51668563594776E-02 
841	 8.48101995629761E-02 
842	 8.46340758294308E-02 
843	 8.41523662965119E-02 
844	 8.38855876863584E-02 
845	 0.083418092407789 
846	 8.30110573884423E-02 
847	 8.32417859971771E-02 
848	 8.30208682660161E-02 
849	 8.24221939459261E-02 
850	 8.18103357885968E-02 
851	 8.16737154519103E-02 
852	 8.13164254214788E-02 
853	 8.10597702815185E-02 
854	 8.11122722885832E-02 
855	 8.10046614910109E-02 
856	 8.05982965863257E-02 
857	 8.01196936557826E-02 
858	 7.98754028179023E-02 
859	 8.01229341155344E-02 
860	 7.97563777659821E-02 
861	 7.91344409150638E-02 
862	 7.91754735396399E-02 
863	 7.91307824556882E-02 
864	 0.078960046624457 
865	 7.85822734096976E-02 
866	 7.79609604337779E-02 
867	 7.81371389937206E-02 
868	 7.79439019493628E-02 
869	 7.71342353144357E-02 
870	 7.69916927069138E-02 
871	 7.67844842098578E-02 
872	 7.64215965514114E-02 
873	 7.59910351078485E-02 
874	 7.56649297712169E-02 
875	 7.56870970755203E-02 
876	 0.075337584032309 
877	 7.42433597984695E-02 
878	 7.43692937419739E-02 
879	 7.41180698465046E-02 
880	 7.35397828992116E-02 
881	 7.33720777498541E-02 
882	 7.33255846453799E-02 
883	 7.24122589128815E-02 
884	 0.071444014290393 
885	 7.21419626271385E-02 
886	 7.16423414103461E-02 
887	 7.08752526157082E-02 
888	 7.04630103629704E-02 
889	 7.01200592155744E-02 
890	 0.068699393330761 
891	 6.82986531331849E-02 
892	 6.94986478432563E-02 
893	 6.87634863263244E-02 
894	 6.75968089632821E-02 
895	 6.66280435537347E-02 
896	 6.61523897040583E-02 
897	 6.59111565726226E-02 
898	 6.54750660219297E-02 
899	 6.51819146804965E-02 
900	 6.52292162763283E-02 
901	 6.42962645151834E-02 
902	 0.06427570114606 
903	 6.48041504270875E-02 
904	 6.47789173809953E-02 
905	 0.063941350317231 
906	 6.40194859671562E-02 
907	 6.42960583522313E-02 
908	 6.26115760583164E-02 
909	 0.061537523049699 
910	 6.10978047423539E-02 
911	 6.11294281726603E-02 
912	 0.061529536857264 
913	 6.26853245814454E-02 
914	 6.13639865353119E-02 
915	 5.81178465574258E-02 
916	 5.77139134063945E-02 
917	 5.80268287487029E-02 
918	 5.75310059361358E-02 
919	 5.64669118270229E-02 
920	 5.70124307841865E-02 
921	 5.72061170133851E-02 
922	 5.61723471936667E-02 
923	 5.43191400813432E-02 
924	 5.43267099681016E-02 
925	 0.05504770817708 
926	 5.50435477063773E-02 
927	 0.053334774488488 
928	 5.16381313577244E-02 
929	 5.09613136457722E-02 
930	 5.10394638140004E-02 
931	 5.08206621784254E-02 
932	 5.27065033486677E-02 
933	 4.77532612884192E-02 
934	 4.34454859879233E-02 
935	 5.05785866750876E-02 
936	 5.35943691460264E-02 
937	 5.50833059903603E-02 
938	 5.19307863493031E-02 
939	 4.28715655977937E-02 
940	 3.94999230936535E-02 
941	 3.95968115685149E-02 
942	 4.04262055279457E-02 
943	 4.00357775233212E-02 
944	 4.34309003013976E-02 
945	 4.36201869279804E-02 
946	 4.06448512780797E-02 
947	 3.97377362127302E-02 
948	 0.045749177199482 
949	 0.045727502065337 
950	 4.10302583848475E-02 
951	 4.07355523299336E-02 
952	 3.73289440557731E-02 
953	 3.72945577151418E-02 
954	 3.83624809896416E-02 
955	 3.47746977817226E-02 
956	 4.25952656818841E-02 
957	 4.28533595815068E-02 
958	 3.72442469343336E-02 
959	 4.01922295449655E-02 
960	 0.039648841224161 
961	 4.11020752895212E-02 
962	 4.33709412886856E-02 
963	 4.11588157893798E-02 
964	 0.037082941686691 
965	 3.84115956299435E-02 
966	 4.24717895062402E-02 
967	 4.14821640950653E-02 
968	 4.28794032192664E-02 
969	 4.22268333677394E-02 
970	 4.02137407808934E-02 
971	 4.17447923913715E-02 
972	 4.25574149587257E-02 
973	 4.08978544901151E-02 
974	 3.91067621852887E-02 
975	 4.18622521446228E-02 
976	 4.15534430412084E-02 
977	 4.02965465683664E-02 
978	 3.99206182038753E-02 
979	 4.06326936801318E-02 
980	 4.14312779216034E-02 
981	 4.09617210509919E-02 
982	 4.11470229600256E-02 
983	 4.50027583988738E-02 
984	 4.49031724237196E-02 
985	 4.30158592473213E-02 
986	 4.16601590506629E-02 
987	 4.20527877603801E-02 
988	 4.30828436992798E-02 
989	 4.36734274659555E-02 
990	 4.45532825165022E-02 
991	 4.66156632712776E-02 
992	 4.24178143524924E-02 
993	 4.20371101164918E-02 
994	 4.41083917505288E-02 
995	 4.07214975548695E-02 
996	 0.04185904273535 
997	 4.52447972523891E-02 
998	 0.046111127725684 
999	 4.16163047138336E-02 
1000	 4.30795048293757E-02 
1001	 0.038043663043185 
1002	 3.83815993485628E-02 
1003	 3.84279872393038E-02 
1004	 3.80727125517641E-02 
1005	 0.038370595835596 
1006	 3.89861334900072E-02 
1007	 3.96184537166733E-02 
1008	 4.02425589854988E-02 
1009	 4.07584288108418E-02 
1010	 4.04892066897971E-02 
1011	 4.04752048130175E-02 
1012	 4.04855823336871E-02 
1013	 4.03595814050695E-02 
1014	 4.01466359460264E-02 
1015	 3.95673122917557E-02 
1016	 3.92716107368395E-02 
1017	 3.86613593760038E-02 
1018	 0.039020077476567 
1019	 4.02015121489183E-02 
1020	 4.08998158316317E-02 
1021	 4.23309663886064E-02 
1022	 4.30300810327544E-02 
1023	 4.25923619082298E-02 
1024	 4.24149899830628E-02 
1025	 4.14446254311702E-02 
1026	 4.02809133614386E-02 
1027	 4.00582377568153E-02 
1028	 0.040127823004452 
1029	 4.02419948992451E-02 
1030	 4.11563969331066E-02 
1031	 4.15956641820899E-02 
1032	 4.16255198599563E-02 
1033	 4.19173434640866E-02 
1034	 4.26770497500456E-02 
1035	 4.28656187026116E-02 
1036	 4.25287010219076E-02 
1037	 4.26679688658172E-02 
1038	 4.30470853219964E-02 
1039	 4.28987113853843E-02 
1040	 4.28045020571031E-02 
1041	 4.30285481667656E-02 
1042	 4.33315590041855E-02 
1043	 4.34578159042689E-02 
1044	 4.37449582674934E-02 
1045	 0.044590032860884 
1046	 4.48991302076069E-02 
1047	 4.47832235063379E-02 
1048	 4.48282360248482E-02 
1049	 4.46952906472866E-02 
1050	 4.48779954184035E-02 
1051	 4.52874424837564E-02 
1052	 4.55774092727665E-02 
1053	 4.64734074631769E-02 
1054	 4.65488123103594E-02 
1055	 4.56470631592609E-02 
1056	 4.53174768524677E-02 
1057	 4.50296157221272E-02 
1058	 4.42581560459344E-02 
1059	 4.44384811590393E-02 
1060	 4.56222605892925E-02 
1061	 4.59058167867458E-02 
1062	 4.64220313212858E-02 
1063	 4.62293904529235E-02 
1064	 4.47606438573732E-02 
1065	 4.46581559032972E-02 
1066	 4.49224277415644E-02 
1067	 4.51630584157066E-02 
1068	 4.67347157165118E-02 
1069	 4.71147540442824E-02 
1070	 4.64360147818876E-02 
1071	 4.61515993988248E-02 
1072	 4.53812455486144E-02 
1073	 4.49198387340049E-02 
1074	 0.044944986574779 
1075	 4.57295157692362E-02 
1076	 0.045686447434864 
1077	 4.55530620028769E-02 
1078	 4.54948045113454E-02 
1079	 4.49821326520168E-02 
1080	 4.48229915713583E-02 
1081	 4.51393632274363E-02 
1082	 4.51242037210872E-02 
1083	 4.48707426962399E-02 
1084	 4.47080572228303E-02 
1085	 4.49869643049521E-02 
1086	 4.46059482479967E-02 
1087	 0.042905141182918 
1088	 4.25931193225835E-02 
1089	 4.32328904803008E-02 
1090	 4.29579307703893E-02 
1091	 4.29199551632282E-02 
1092	 4.42214499246992E-02 
1093	 4.39980903525746E-02 
1094	 4.18966912840877E-02 
1095	 4.15353115293709E-02 
1096	 4.18566306358938E-02 
1097	 0.041795164891815 
1098	 4.24182122877966E-02 
1099	 4.26374575837108E-02 
1100	 0.04226765625593 
1101	 4.19581212931068E-02 
1102	 4.19867166709032E-02 
1103	 4.14298196525898E-02 
1104	 0.039298929613353 
1105	 3.93210404181422E-02 
1106	 3.94215504476374E-02 
1107	 3.86272697387624E-02 
1108	 4.07059526300762E-02 
1109	 4.21667050038346E-02 
1110	 4.17747880049228E-02 
1111	 3.95018766304576E-02 
1112	 3.91275114522599E-02 
1113	 3.76533054060491E-02 
1114	 3.66660753943923E-02 
1115	 3.78735905123514E-02 
1116	 3.82390980131916E-02 
1117	 0.036722634474883 
1118	 3.48063575934423E-02 
1119	 3.35009980698998E-02 
1120	 3.49816743034993E-02 
1121	 3.88861195526195E-02 
1122	 3.90269949200815E-02 
1123	 0.04676229203611 
1124	 5.12612429116729E-02 
1125	 5.08507448095417E-02 
1126	 4.73559475753364E-02 
1127	 4.14626891168889E-02 
1128	 3.82881463431899E-02 
1129	 3.69499378304121E-02 
1130	 0.037163360256594 
1131	 0.03498317534551 
1132	 3.45988147279204E-02 
1133	 0.033095317219829 
1134	 0.027659723791323 
1135	 2.65507644257338E-02 
1136	 2.66692928696986E-02 
1137	 2.79612532975601E-02 
1138	 3.15365984714001E-02 
1139	 0.034778063830952 
1140	 3.19370366442139E-02 
1141	 3.11584408357585E-02 
1142	 3.11548071571639E-02 
1143	 2.84822802271684E-02 
1144	 3.08032927281147E-02 
1145	 3.24399383203993E-02 
1146	 2.94651999892132E-02 
1147	 3.04067983686129E-02 
1148	 2.64015486683481E-02 
1149	 2.47095843958685E-02 
1150	 2.87162092738238E-02 
1151	 3.71099454410249E-02 
1152	 3.68024890148738E-02 
1153	 3.85713667668708E-02 
1154	 3.82437761415783E-02 
1155	 3.31568037546916E-02 
1156	 3.02305215196229E-02 
1157	 3.32012535136632E-02 
1158	 3.43551581689168E-02 
1159	 3.45145219515056E-02 
1160	 3.52450491718621E-02 
1161	 3.43478255066831E-02 
1162	 3.35820120683547E-02 
1163	 3.39644745564478E-02 
1164	 3.49897124546416E-02 
1165	 3.62194913680743E-02 
1166	 3.65057326496636E-02 
1167	 3.63462965113153E-02 
1168	 0.036192289936823 
1169	 3.58097113856122E-02 
1170	 3.56687309272677E-02 
1171	 3.55800175645992E-02 
1172	 3.51742489857954E-02 
1173	 3.54066443415731E-02 
1174	 3.60986746542339E-02 
1175	 3.66889113877079E-02 
1176	 3.68679065138859E-02 
1177	 0.036575991862263 
1178	 3.58156655489241E-02 
1179	 3.52024078318212E-02 
1180	 3.55219084301354E-02 
1181	 3.63101923604869E-02 
1182	 3.61393664138005E-02 
1183	 3.57257090689382E-02 
1184	 0.035607008423275 
1185	 0.035261120722217 
1186	 3.53391685158918E-02 
1187	 3.62132644952006E-02 
1188	 3.68219945395414E-02 
1189	 3.69279424731499E-02 
1190	 3.71502813822802E-02 
1191	 3.69991329410941E-02 
1192	 3.68346992833551E-02 
1193	 3.62581514198943E-02 
1194	 0.036334019716401 
1195	 3.64637287736385E-02 
1196	 3.63452263986519E-02 
1197	 3.67406545644168E-02 
1198	 3.70016975612517E-02 
1199	 3.67514048430605E-02 
1200	 3.67674474796975E-02 
1201	 3.72912554303326E-02 
1202	 3.74175023365493E-02 
1203	 3.68616048177664E-02 
1204	 3.71039285127048E-02 
1205	 3.75195488126657E-02 
1206	 0.037005931441026 
1207	 3.68596008901232E-02 
1208	 3.71573030980416E-02 
1209	 3.67659435442197E-02 
1210	 3.61782194907602E-02 
1211	 3.66234073264642E-02 
1212	 3.72620013672266E-02 
1213	 3.68255626400727E-02 
1214	 3.66479712149007E-02 
1215	 3.65124064119655E-02 
1216	 3.68969094429944E-02 
1217	 3.68665236910229E-02 
1218	 3.69729284763437E-02 
1219	 3.72539598192028E-02 
1220	 3.70150452757131E-02 
1221	 3.68091641193862E-02 
1222	 3.68130515069878E-02 
1223	 3.72974056973105E-02 
1224	 3.77158248563395E-02 
1225	 3.71403361555328E-02 
1226	 0.036888035519898 
1227	 3.73524617535907E-02 
1228	 3.71894600340589E-02 
1229	 3.70794355502641E-02 
1230	 3.76959920698222E-02 
1231	 3.75424499752748E-02 
1232	 3.69472540356386E-02 
1233	 3.73536434439804E-02 
1234	 3.78650141973526E-02 
1235	 3.77688464468735E-02 
1236	 0.037254138668786 
1237	 3.73826955916044E-02 
1238	 3.76226463719171E-02 
1239	 3.71285331311378E-02 
1240	 0.037089969818171 
1241	 3.75767446899375E-02 
1242	 3.74435830114913E-02 
1243	 3.73041412068177E-02 
1244	 3.76528137213822E-02 
1245	 3.76933923442714E-02 
1246	 3.75927022296509E-02 
1247	 3.78495735943897E-02 
1248	 3.77929844569116E-02 
1249	 3.74095266709769E-02 
1250	 3.71932405036808E-02 
1251	 0.037033543127534 
1252	 3.70215423210207E-02 
1253	 3.72870100200311E-02 
1254	 0.037491648611868 
1255	 3.75497890853604E-02 
1256	 3.75448485589765E-02 
1257	 3.72776132725635E-02 
1258	 3.74042805249274E-02 
1259	 3.79811112087711E-02 
1260	 3.79842023278122E-02 
1261	 3.78158448006252E-02 
1262	 3.77730387191224E-02 
1263	 0.037647182284615 
1264	 3.68877707781982E-02 
1265	 3.63973738445694E-02 
1266	 3.68629054583857E-02 
1267	 0.03743166006115 
1268	 3.76596834730772E-02 
1269	 3.73904382173495E-02 
1270	 0.03654552159221 
1271	 3.59212881477142E-02 
1272	 3.57962734030789E-02 
1273	 3.64537487155187E-02 
1274	 3.75858400413505E-02 
1275	 3.74825997188919E-02 
1276	 3.67404683715949E-02 
1277	 3.68624081285455E-02 
1278	 3.69893026119057E-02 
1279	 3.69372911172697E-02 
1280	 3.73538889065968E-02 
1281	 3.75526221985057E-02 
1282	 3.71804007207821E-02 
1283	 3.71700878377891E-02 
1284	 3.75760848371295E-02 
1285	 3.76817663391174E-02 
1286	 3.76732543168188E-02 
1287	 3.75623709050613E-02 
1288	 3.71712931317455E-02 
1289	 3.71954072005393E-02 
1290	 3.73880731355988E-02 
1291	 3.74980945295772E-02 
1292	 3.70788871482002E-02 
1293	 3.71000707050377E-02 
1294	 3.74958954242086E-02 
1295	 0.037033330011284 
1296	 3.71789675251942E-02 
1297	 3.79308203328478E-02 
1298	 3.73935702426997E-02 
1299	 3.68420077353254E-02 
1300	 3.66262801184508E-02 
1301	 3.61946024467422E-02 
1302	 3.59583677278746E-02 
1303	 0.035493976239027 
1304	 3.51740483632659E-02 
1305	 3.53520193913365E-02 
1306	 3.54271288357107E-02 
1307	 3.55843557287508E-02 
1308	 3.57052929563251E-02 
1309	 3.58714958753936E-02 
1310	 3.60729152193074E-02 
1311	 3.64640706655476E-02 
1312	 3.65600505871264E-02 
1313	 3.67514261007281E-02 
1314	 3.66254578744874E-02 
1315	 3.56129294266767E-02 
1316	 3.50556581461388E-02 
1317	 3.46162478124552E-02 
1318	 3.44000226042877E-02 
1319	 3.48599523586066E-02 
1320	 3.47200692097756E-02 
1321	 3.41538378489725E-02 
1322	 3.39941674068761E-02 
1323	 3.40120870920542E-02 
1324	 3.42098439536008E-02 
1325	 3.53508214665794E-02 
1326	 3.57732628633866E-02 
1327	 3.57499739841678E-02 
1328	 3.60280888545922E-02 
1329	 3.59685014162547E-02 
1330	 3.50817200423197E-02 
1331	 0.03391026763349 
1332	 3.53762206690798E-02 
1333	 3.72838220407654E-02 
1334	 3.41679693371107E-02 
1335	 3.36786669052659E-02 
1336	 3.32350736189086E-02 
1337	 3.28788280602918E-02 
1338	 3.34287206508348E-02 
1339	 3.45542695700712E-02 
1340	 3.61509231399784E-02 
1341	 3.53140047474651E-02 
1342	 3.29840019129701E-02 
1343	 3.27087391253475E-02 
1344	 3.17805999619485E-02 
1345	 2.94955139578708E-02 
1346	 2.65565923788478E-02 
1347	 2.72500847331643E-02 
1348	 3.24962316584973E-02 
1349	 3.17550302276027E-02 
1350	 2.53118934584098E-02 
1351	 3.40929195790393E-02 
1352	 6.62447811100204E-02 
1353	 7.35283985078725E-02 
1354	 6.94507212951024E-02 
1355	 0.106556398723193 
1356	 7.27842882837289E-02 
1357	 6.50546534751729E-04 
1358	-6.90070807456376E-03 
1359	 3.98068825491208E-02 
1360	 0.26942057071212 
1361	 0.237789924806763 
1362	 4.56646585300737E-02 
1363	 0.357106321113948 
1364	 0.381478067889349 
1365	-5.22007769150564E-03 
1366	 1.13313487809249E-02 
1367	 0.213266266657663 
1368	 0.443760243291566 
1369	 1.12865001402744 
1370	 0.950963723615826 
1371	 0.388344850703668 
1372	 0.34848210325652 
1373	-2.40570010519627E-02 
1374	-0.267375230633047 
1375	-7.99271673694784E-02 
1376	 3.91900046407712E-02 
1377	 5.71855244349643E-02 
1378	 0.108772531710781 
1379	 0.362325182858349 
1380	 0.549115793821242 
1381	 0.795193254509218 
1382	 0.690407019412861 
1383	 0.583620280576351 
1384	 1.1313790397982 
1385	 1.29919347514467 
1386	 0.758119490676564 
1387	 0.48359071880801 
1388	 0.608874957578031 
1389	 0.846335296237647 
1390	 0.293070052319901 
1391	-0.71329527628046 
1392	-1.9175434121556 
1393	-1.13626593742077 
1394	-3.04183046355951 
1395	-0.261342152501727 
1396	 1.31422676700863 
1397	 1.0986397933514 
1398	 0.255865810011756 
1399	 0.948057059222986 
1400	 1.28159309217939 
1401	 0.351133935894389 
1402	 9.63535821733689E-02 
1403	 0.342663653815158 
1404	 6.77829888137882E-02 
1405	 0.268780906856503 
1406	 1.66103879002893 
1407	 0.981318514761079 
1408	-0.122739885074706 
1409	-0.24398188467163 
1410	-0.229923825928015 
1411	-0.188140258554725 
1412	 0.751386416330786 
1413	 0.740283420173646 
1414	-0.221904571547653 
1415	-8.57863527631823E-02 
1416	 6.82794421831047E-02 
1417	 7.80909575141874E-02 
1418	 0.312881901217178 
1419	 0.386767466991738 
1420	 0.281773448727671 
1421	 0.227831221858182 
1422	 0.207626525448688 
1423	 0.206099075438626 
1424	 0.197101061182908 
1425	 0.15169860164159 
1426	 0.107861920868485 
1427	 9.83322469489231E-02 
1428	 0.068090857939817 
1429	 4.93130092359887E-02 
1430	 9.22617941643912E-02 
1431	 7.53118797737964E-02 
1432	-2.14299554983253E-02 
1433	-3.45302534662187E-02 
1434	-2.08514409436454E-02 
1435	-1.71274209111942E-02 
1436	 3.46582017747983E-02 
1437	 6.73527300857932E-02 
1438	 3.25883005707118E-02 
1439	 2.60254821980952E-02 
1440	 0.040134293892696 
1441	 4.80430542330334E-02 
1442	 5.01482207999128E-02 
1443	 7.01799743128661E-02 
1444	 8.94908037539193E-02 
1445	 7.08346442497524E-02 
1446	 3.33802063136489E-02 
1447	 1.85576179351347E-02 
1448	 2.07337864777165E-02 
1449	 0.024465420875542 
1450	 2.79352419179849E-02 
1451	 0.027606091939156 
1452	 2.92454114953085E-02 
1453	 2.91115671173646E-02 
1454	 2.76348103533164E-02 
1455	 3.37258392195377E-02 
1456	 3.50204229514044E-02 
1457	 2.96873105683798E-02 
1458	 2.63105717732566E-02 
1459	 2.44189238309383E-02 
1460	 2.61042630952751E-02 
1461	 2.65401630031042E-02 
1462	 2.82328976294863E-02 
1463	 3.73934998308022E-02 
1464	 4.16160786304984E-02 
1465	 4.20279401942713E-02 
1466	 3.85288623532201E-02 
1467	 3.21793789484022E-02 
1468	 3.06041150607628E-02 
1469	 2.19254955743353E-02 
1470	 2.54496984775482E-02 
1471	 4.67336033890568E-02 
1472	 4.79533999157185E-02 
1473	 0.039388586284827 
1474	 4.04294243983826E-02 
1475	 0.039271798967341 
1476	 3.81313672858191E-02 
1477	 4.28216345977081E-02 
1478	 4.53722001873414E-02 
1479	 4.46563222273276E-02 
1480	 4.17667825207985E-02 
1481	 3.99578222190027E-02 
1482	 3.83197441400945E-02 
1483	 3.10433220776867E-02 
1484	 3.06540807270865E-02 
1485	 3.84947739708468E-02 
1486	 3.75820762083322E-02 
1487	 3.23560026895934E-02 
1488	 3.24846266696627E-02 
1489	 3.23786233273512E-02 
1490	 3.13389436843513E-02 
1491	 3.13998501979977E-02 
1492	 3.26948228974339E-02 
1493	 3.49134194810904E-02 
1494	 0.034362941030779 
1495	 3.27517890736427E-02 
1496	 3.33951381934368E-02 
1497	 3.36948555261523E-02 
1498	 3.30951623444544E-02 
1499	 3.41965215106756E-02 
1500	 3.47003297054669E-02 
1501	 3.26911980824204E-02 
1502	 3.21980405220812E-02 
1503	 3.35704727161809E-02 
1504	 3.40960761087174E-02 
1505	 0.034504006135215 
1506	 3.44459364439431E-02 
1507	 3.48957813646749E-02 
1508	 3.44299746729108E-02 
1509	 3.42280334654055E-02 
1510	 3.47610210460702E-02 
1511	 3.44368109626407E-02 
1512	 3.45991715853524E-02 
1513	 3.50595447069476E-02 
1514	 3.49798764285489E-02 
1515	 3.53574711663638E-02 
1516	 3.57938700164531E-02 
1517	 3.54124476131037E-02 
1518	 3.49699725340702E-02 
1519	 3.50509876190152E-02 
1520	 3.50804297001174E-02 
1521	 3.47028964073801E-02 
1522	 0.034559241663131 
1523	 3.51496550140854E-02 
1524	 3.51566143007251E-02 
1525	 3.52755047965349E-02 
1526	 3.60883696917776E-02 
1527	 3.57380955251841E-02 
1528	 3.53864665736962E-02 
1529	 3.56762202054221E-02 
1530	 3.59225261268202E-02 
1531	 3.65616385130811E-02 
1532	 3.70767899166516E-02 
1533	 3.68214591216833E-02 
1534	 3.62208370191224E-02 
1535	 3.63029897295977E-02 
1536	 3.65252003715491E-02 
1537	 3.62974514341093E-02 
1538	 3.64834737583809E-02 
1539	 3.66002598363769E-02 
1540	 3.60956450458709E-02 
1541	 3.61764705820259E-02 
1542	 3.68112474704081E-02 
1543	 3.71108547292759E-02 
1544	 3.70618550676685E-02 
1545	 3.68550221876252E-02 
1546	 3.71348071109927E-02 
1547	 3.76437223801242E-02 
1548	 3.73912371899669E-02 
1549	 3.71626928338193E-02 
1550	 3.75434219240037E-02 
1551	 3.73097156609448E-02 
1552	 3.69899846745783E-02 
1553	 3.73114165490297E-02 
1554	 3.70973170938354E-02 
1555	 3.62972371122789E-02 
1556	 3.57283602084544E-02 
1557	 3.59763889719459E-02 
1558	 3.64907311724383E-02 
1559	 3.62365476084781E-02 
1560	 3.62012725320254E-02 
1561	 3.66781576382785E-02 
1562	 3.63154016803182E-02 
1563	 0.035659558814462 
1564	 3.56899212584011E-02 
1565	 3.58305800602326E-02 
1566	 3.58470580266811E-02 
1567	 3.62453776125288E-02 
1568	 3.68692306655519E-02 
1569	 3.69158680192094E-02 
1570	 0.036727900790478 
1571	 3.69882007064729E-02 
1572	 3.69744925628484E-02 
1573	 3.68158438856129E-02 
1574	 3.72938793748544E-02 
1575	 3.80269687735517E-02 
1576	 0.03827052755704 
1577	 3.75601585799951E-02 
1578	 3.68341046220488E-02 
1579	 3.69718806864932E-02 
1580	 3.72416690171566E-02 
1581	 3.72379702765058E-02 
1582	 3.72726336076738E-02 
1583	 3.73088566117084E-02 
1584	 3.71054852833684E-02 
1585	 3.71572809760047E-02 
1586	 3.74276710854658E-02 
1587	 3.71903322035411E-02 
1588	 3.71335641916774E-02 
1589	 3.75441549675543E-02 
1590	 3.78176251570119E-02 
1591	 3.80943894229052E-02 
1592	 3.82713073409899E-02 
1593	 3.80118912221271E-02 
1594	 3.75619821034499E-02 
1595	 3.72505148459351E-02 
1596	 3.71676521053936E-02 
1597	 3.72842242703405E-02 
1598	 3.75031178640612E-02 
1599	 0.037074122746443 
1600	 3.60915243152748E-02 
1601	 3.59162635662478E-02 
1602	 3.62871697000197E-02 
1603	 3.65936111649046E-02 
1604	 0.036953883962149 
1605	 3.70867811754691E-02 
1606	 3.70174676698772E-02 
1607	 3.69741928928516E-02 
1608	 3.68223082836744E-02 
1609	 3.66868849630417E-02 
1610	 3.67519580251976E-02 
1611	 3.68684158599184E-02 
1612	 3.67621690001108E-02 
1613	 3.64576695363875E-02 
1614	 3.69011978476965E-02 
1615	 3.75934385991592E-02 
1616	 3.75848365522943E-02 
1617	 3.76359693264843E-02 
1618	 0.037309246419696 
1619	 3.70427814815757E-02 
1620	 3.73985358903984E-02 
1621	 3.75363420220012E-02 
1622	 3.78089756851927E-02 
1623	 3.74382027636997E-02 
1624	 3.69753570412602E-02 
1625	 3.75925363345417E-02 
1626	 3.77854897053107E-02 
1627	 3.77438987912532E-02 
1628	 3.80869322457576E-02 
1629	 3.76117460837812E-02 
1630	 3.70794702420341E-02 
1631	 3.75256613711711E-02 
1632	 3.76878206070643E-02 
1633	 3.76287708539372E-02 
1634	 3.77557541727962E-02 
1635	 3.73966698660607E-02 
1636	 0.037332536295916 
1637	 3.79157741257604E-02 
1638	 3.79092991547838E-02 
1639	 3.74718269426281E-02 
1640	 3.74229755208593E-02 
1641	 0.036989198497194 
1642	 0.036704449164696 
1643	 0.037315423595443 
1644	 3.73920420295161E-02 
1645	 3.71222608101118E-02 
1646	 3.75975177291422E-02 
1647	 0.038054818962757 
1648	 3.78418133189694E-02 
1649	 3.75439723932683E-02 
1650	 0.037523155090525 
1651	 3.78172384030118E-02 
1652	 3.77645398128787E-02 
1653	 0.037085568019237 
1654	 0.037140534309742 
1655	 3.67070357756328E-02 
1656	 3.64642255150929E-02 
1657	 0.037178945644264 
1658	 3.75525839951303E-02 
1659	 3.77341700430651E-02 
1660	 3.77417857933659E-02 
1661	 3.76734002047678E-02 
1662	 3.78189180414412E-02 
1663	 3.76874704943101E-02 
1664	 3.73072703830392E-02 
1665	 0.036969800474499 
1666	 3.69077859794654E-02 
1667	 3.66585026685558E-02 
1668	 3.77213262402098E-02 
1669	 3.85206696728358E-02 
1670	 3.87579648324887E-02 
1671	 3.84960795971814E-02 
1672	 3.77876894271057E-02 
1673	 3.75725366130684E-02 
1674	 3.84537763685633E-02 
1675	 3.88082189184922E-02 
1676	 3.81013318626957E-02 
1677	 3.76530626235439E-02 
1678	 3.77858324165289E-02 
1679	 3.82980960227785E-02 
1680	 0.038845278001831 
1681	 0.038638908668512 
1682	 3.76264850736161E-02 
1683	 3.70748060639112E-02 
1684	 3.73653618266471E-02 
1685	 3.75919039641863E-02 
1686	 0.038080770329312 
1687	 3.86181041016389E-02 
1688	 3.82089105013933E-02 
1689	 0.037348730286142 
1690	 3.69576392463655E-02 
1691	 3.69009468591161E-02 
1692	 0.036870099835511 
1693	 3.76672538238946E-02 
1694	 0.038591877761429 
1695	 3.80026975599384E-02 
1696	 3.68201200510203E-02 
1697	 3.69360253806629E-02 
1698	 3.80925277215268E-02 
1699	 3.84179574301785E-02 
1700	 3.81588930492471E-02 
1701	 3.81389244532856E-02 
1702	 3.72530769532289E-02 
1703	 3.61349687963224E-02 
1704	 3.67604159722973E-02 
1705	 3.77927501394929E-02 
1706	 3.72859277105638E-02 
1707	 3.72850284424209E-02 
1708	 3.81982550032667E-02 
1709	 3.79241565833764E-02 
1710	 3.75771219397896E-02 
1711	 3.78366669425579E-02 
1712	 3.73674285667231E-02 
1713	 3.79020527898971E-02 
1714	 3.79579887124248E-02 
1715	 3.76765060820402E-02 
1716	 3.67289905619477E-02 
1717	 3.56912320333931E-02 
1718	 3.69823012275541E-02 
1719	 3.92067283826962E-02 
1720	 3.83725247446687E-02 
1721	 3.73819496416454E-02 
1722	 3.73282035761773E-02 
1723	 3.58477802594748E-02 
1724	 3.58039274225039E-02 
1725	 3.75012240002521E-02 
1726	 3.67862196654567E-02 
1727	 3.51989099990923E-02 
1728	 3.59538762017451E-02 
1729	 3.61205902057263E-02 
1730	 3.56370135570055E-02 
1731	 3.76848943078149E-02 
1732	 3.91141280713344E-02 
1733	 3.79636514762737E-02 
1734	 0.036687300529332 
1735	 3.60048442877812E-02 
1736	 3.63696752495838E-02 
1737	 3.80985383404273E-02 
1738	 3.81045458894908E-02 
1739	 3.59646020941554E-02 
1740	 3.44428477647672E-02 
1741	 3.33192181981251E-02 
1742	 3.48043621439043E-02 
1743	 3.78612560593853E-02 
1744	 3.70181793502784E-02 
1745	 3.55854146337712E-02 
1746	 3.57664527651958E-02 
1747	 3.52866320768621E-02 
1748	 3.56858039625719E-02 
1749	 3.61728238924829E-02 
1750	 3.60009403894464E-02 
1751	 3.57656521564898E-02 
1752	 3.56200567259754E-02 
1753	 3.62712228858087E-02 
1754	 3.71900548965374E-02 
1755	 3.75508389441324E-02 
1756	 3.90239919836496E-02 
1757	 3.77764355019423E-02 
1758	 3.64665283622743E-02 
1759	 3.71447660282641E-02 
1760	 0.03719957772941 
1761	 3.72325151889601E-02 
1762	 0.036872200893478 
1763	 3.49014920714945E-02 
1764	 3.46059868475004E-02 
1765	 3.55615792044081E-02 
1766	 3.47653777515943E-02 
1767	 0.033893355434993 
1768	 3.49501873175719E-02 
1769	 0.035662488810916 
1770	 3.58487174200532E-02 
1771	 3.63391353714206E-02 
1772	 3.57764044250728E-02 
1773	 3.34388580778711E-02 
1774	 3.33756204703386E-02 
1775	 3.55371846400667E-02 
1776	 3.62584163414022E-02 
1777	 3.95591596529583E-02 
1778	 0.039851458881256 
1779	 3.56202014674932E-02 
1780	 3.55262104304444E-02 
1781	 3.50341359687248E-02 
1782	 3.25052964121482E-02 
1783	 3.26758151518922E-02 
1784	 3.30904560582362E-02 
1785	 2.90931406764369E-02 
1786	 3.24428318658884E-02 
1787	 4.60860378849692E-02 
1788	 4.73431931941432E-02 
1789	 4.52991096299893E-02 
1790	 3.68797979342796E-02 
1791	 2.46437421022409E-02 
1792	 2.76838132261908E-02 
1793	 2.74432102971455E-02 
1794	 2.33290281233168E-02 
1795	 3.40745711873732E-02 
1796	 3.80249993829746E-02 
1797	 3.79195637001003E-02 
1798	 5.02437540826214E-02 
1799	 0.041055881712467 
1800	 2.56386913431122E-02 
1801	 1.60800216563947E-02 
1802	 9.80675519411211E-03 
1803	 9.00261922202624E-03 
1804	 9.30729943233312E-03 
1805	 2.58262432477039E-02 
1806	 0.171742939803957 
1807	 0.233999385199343 
1808	 3.60345663153729E-02 
1809	-0.039677174698433 
1810	-0.177585205871899 
1811	-0.25563686798681 
1812	-1.29008505732627E-02 
1813	-0.055427999000938 
1814	 3.47105530469773 
1815	 1.59406476227282 
1816	-67.8324004868345 
1817	 1.66488833473398 
1818	 1.14168980103058 
1819	 2.09300327934065 
1820	 1.51592538578915 
1821	 1.1427197829069 
1822	 1.53082044612208 
1823	-1.93339928471116 
1824	 5.55019477046805E-04 
1825	 1.42698608976949 
1826	 1.53828470363664 
1827	-38.2313106338485 
1828	-5.25187174245694 
1829	 4.02230702210927 
1830	 2.29362993516197 
1831	-0.248514070149673 
1832	-0.647637337570457 
1833	-1.03247591498358 
1834	-1.79953390250731 
1835	-19.4555552628188 
1836	 188.865228571383 
1837	 5.63188396439992 
1838	 23.2616362447042 
1839	-1.30018020477672 
1840	-0.494565842125884 
1841	-0.437346691223236 
1842	-0.546195091625018 
1843	-0.354442099462272 
1844	 1.70755797662172 
1845	 8.12879992146089 
1846	 2.82786881226432 
1847	 2.0658559365839 
1848	 0.207980586779761 
1849	-0.7537729320814 
1850	-0.505096646178443 
1851	-0.402038117941031 
1852	-0.220932783121267 
1853	 5.33153243953413 
1854	-5.66924540473686 
1855	-9.44236650602141E-02 
1856	 0.171674507505858 
1857	 2.20370253273712 
1858	 3.29470441974515 
1859	 3.15624510209975 
1860	 7.22003705077555E-02 
1861	-0.293748859664079 
1862	-0.489445789277005 
1863	-1.60100622905773 
1864	 12.3332047255138 
1865	 3.31915494169324 
1866	 0.701831944904746 
1867	 0.588672159132581 
1868	 1.69407341319564 
1869	-1.44320924948349 
1870	 0.422360642562879 
1871	 0.417526281613094 
1872	-0.219407970517159 
1873	-0.258379645179084 
1874	-0.120153047457241 
1875	-0.347601478488401 
1876	-0.361194244558884 
1877	 2.15768061371413E-02 
1878	 5.20619303941225E-02 
1879	-0.653725304371565 
1880	-0.782992848951632 
1881	-0.247410963543644 
1882	 2.03111089264294E-02 
1883	-0.113382894666698 
1884	-0.178845170630253 
1885	-0.708987209417752 
1886	 1.66453140208666 
1887	-1.71131525268101 
1888	-0.749748232580101 
1889	-0.954705184610406 
1890	-1.76861106761489 
1891	-1.88778876140451 
1892	-7.09070370050803 
1893	-2.93264681202297 
1894	-1.70414658138839 
1895	-1.61047179342242 
1896	-1.46663592161787 
1897	-1.92349236371057 
1898	-6.17146810956947 
1899	-5.13760379182999 
1900	-0.653639450406326 
1901	 0.234224156640495 
1902	 3.62899974025398E-02 
1903	-0.567376874246292 
1904	-0.314663377058971 
1905	-0.39814660125502 
1906	-0.465335921007473 
1907	-0.370258619986038 
1908	-0.680785883972827 
1909	-3.09720120871199 
1910	 9.40033513648195 
1911	-3.45480633906745 
1912	-3.45257195997913 
1913	-2.70166819481417 
1914	-2.19238704228277 
1915	-1.40444985228087 
1916	-0.924432127355448 
1917	 0.634987273801781 
1918	 0.510223220857752 
1919	 0.97208757271452 
1920	 0.801142242949997 
1921	 0.448585590894419 
1922	 0.56853713771448 
1923	 0.423654958782334 
1924	 0.211800960853203 
1925	-0.155253523372155 
1926	-0.528846359967354 
1927	-1.47773573765012 
1928	 2.00967243898219 
1929	-0.408695861503882 
1930	 9.12103042874315E-02 
1931	-9.56536047197279E-02 
1932	-0.354301264326384 
1933	-0.481904711248626 
1934	-1.08904246976338 
1935	-2.48248610508061 
1936	-0.669137909545045 
1937	-0.292230265812357 
1938	-0.414921909709448 
1939	-0.738184859671727 
1940	 51.5518948541523 
1941	-1.24798463303507 
1942	-1.3790135760016 
1943	 4.9690233106683 
1944	 1.72690835208245 
1945	 0.871938259607457 
1946	 0.557708675396472 
1947	 0.33540386961838 
1948	 0.227425235518525 
1949	 0.136314604724174 
1950	 0.106675204747996 
1951	 0.144298013994721 
1952	 0.193145977738316 
1953	 0.225627709715724 
1954	 0.27891409145154 
1955	 0.450589660202606 
1956	 0.468320298713204 
1957	 0.380233351176265 
1958	 0.294534258559133 
1959	 0.135637305825073 
1960	 5.88643958635554E-02 
1961	 3.63619799467877E-02 
1962	 1.26281541344714E-03 
1963	 4.54351625013231E-03 
1964	 1.93619325961087E-02 
1965	 1.15106914007627E-02 
1966	 0.009745366651547 
1967	 7.97774021557245E-03 
1968	 1.52262976105449E-02 
1969	 1.56065008012907E-02 
1970	 2.61857703089277E-02 
1971	 4.60848397093841E-02 
1972	 4.68128385731098E-02 
1973	 4.44714299602006E-02 
1974	 3.74482625865421E-02 
1975	 2.64261652048753E-02 
1976	 2.63323950052284E-02 
1977	 2.52029164312812E-02 
1978	 2.71111947711233E-02 
1979	 2.86979967140802E-02 
1980	 3.29356899491695E-02 
1981	 2.80402919494179E-02 
1982	 2.25054883147337E-02 
1983	 0.019507786867598 
1984	 1.80999681099584E-02 
1985	 0.018211754931257 
1986	 1.95170577120115E-02 
1987	 2.49824259886602E-02 
1988	 2.63108131756806E-02 
1989	 2.56309028419282E-02 
1990	 3.20887348323263E-02 
1991	 3.30618239511743E-02 
1992	 2.87668186970061E-02 
1993	 2.57249467556835E-02 
1994	 2.59174065448152E-02 
1995	 0.024526789786258 
1996	 0.030252353016671 
1997	 3.70852668083627E-02 
1998	 0.044669286534367 
1999	 4.69618035865056E-02 
2000	 3.56751892231449E-02 
2001	 2.95820869481962E-02 
2002	 0.026263232513408 
2003	 2.14468601699058E-02 
2004	 1.59310592755093E-02 
2005	 2.07247544599949E-02 
2006	 2.90613157583822E-02 
2007	 2.14285902924184E-02 
2008	 1.98279059708813E-02 
2009	 2.10543697860571E-02 
2010	 1.56481435904667E-02 
2011	 1.46410610979952E-02 
2012	 2.06233823395239E-02 
2013	 0.028317374937155 
2014	 3.08543527288469E-02 
2015	 2.87937798439579E-02 
2016	 3.24310751999208E-02 
2017	 0.03605423840028 
2018	 3.09913529198753E-02 
2019	 0.031319194823592 
2020	 0.037643922896424 
2021	 3.42990399889721E-02 
2022	 3.23342424399919E-02 
2023	 3.92042750733913E-02 
2024	 4.14515166268424E-02 
2025	 4.14229676139304E-02 
2026	 4.17255159927717E-02 
2027	 4.41764590872545E-02 
2028	 0.041903715506287 
2029	 3.70939782073434E-02 
2030	 0.033024932762396 
2031	 2.97952350322098E-02 
2032	 2.43682190039209E-02 
2033	 2.26598404003434E-02 
2034	 2.36083185870265E-02 
2035	 2.33589806100341E-02 
2036	 2.67234577489472E-02 
2037	 2.95747787965701E-02 
2038	 2.95390175666673E-02 
2039	 3.02632451972667E-02 
2040	 3.22751371067353E-02 
2041	 3.17980166825666E-02 
2042	 2.92064845788137E-02 
2043	 2.85086240103353E-02 
2044	 2.77427102381189E-02 
2045	 2.62219413120477E-02 
2046	 2.64374583149524E-02 
2047	 2.73570638104874E-02 
2048	 3.11501742709814E-02 
2049	 0.036220165395531 
2050	 3.68273703693565E-02 
2051	 3.49301646372102E-02 
2052	 3.40717759412766E-02 
2053	 0.03205593227158 
2054	 3.20441192614067E-02 
2055	 3.41330627428336E-02 
2056	 3.49373493536575E-02 
2057	 3.32323888892573E-02 
2058	 3.33073938982637E-02 
2059	 3.40708152775908E-02 
2060	 3.59300584500651E-02 
2061	 4.04482786193406E-02 
2062	 0.039569139024079 
2063	 3.76790822781145E-02 
2064	 3.78112494605803E-02 
2065	 3.36368099905977E-02 
2066	 3.07105804830254E-02 
2067	 3.16657056375459E-02 
2068	 3.11080719008347E-02 
2069	 3.02715533441736E-02 
2070	 3.21905034820147E-02 
2071	 3.31124546663852E-02 
2072	 3.53005185996472E-02 
2073	 3.67402975638949E-02 
2074	 0.038581923681491 
2075	 3.85558969216886E-02 
2076	 3.67574646422352E-02 
2077	 3.67748628230598E-02 
2078	 3.87278440019582E-02 
2079	 3.74942250622799E-02 
2080	 3.53391760965847E-02 
2081	 3.25343583146263E-02 
2082	 3.00629935320221E-02 
2083	 0.030047966545655 
2084	 3.04354538990354E-02 
2085	 3.27140312452052E-02 
2086	 3.22303579653156E-02 
2087	 2.89445665156077E-02 
2088	 3.05417061573367E-02 
2089	 3.13198930853144E-02 
2090	 3.19981460862106E-02 
2091	 3.35113739832418E-02 
2092	 3.43804184558398E-02 
2093	 3.41988230900948E-02 
2094	 3.43575692097349E-02 
2095	 3.55186547456823E-02 
2096	 3.50477587183678E-02 
2097	 3.25201260709614E-02 
2098	 3.22082937588851E-02 
2099	 0.032284928888818 
2100	 3.26091561015945E-02 
2101	 3.35684432549352E-02 
2102	 3.10181606855817E-02 
2103	 2.97559211263784E-02 
2104	 2.97461845401965E-02 
2105	 2.95653126389943E-02 
2106	 0.031013771834675 
2107	 3.08267861540005E-02 
2108	 3.04193740620643E-02 
2109	 3.02453194906246E-02 
2110	 3.00192479207196E-02 
2111	 0.030886040569798 
2112	 3.10740906691748E-02 
2113	 0.031947230210779 
2114	 3.50278180008138E-02 
2115	 3.49846202555235E-02 
2116	 3.14941374560451E-02 
2117	 3.19280756991312E-02 
2118	 3.42601216380485E-02 
2119	 3.44861465599416E-02 
2120	 3.63131917572946E-02 
2121	 3.73492187877454E-02 
2122	 3.31584192818807E-02 
2123	 2.61369205162488E-02 
2124	 2.75691747350503E-02 
2125	 2.99985847443784E-02 
2126	 2.92311357477403E-02 
2127	 3.13055621735878E-02 
2128	 2.95673691378408E-02 
2129	 2.51818387462476E-02 
2130	 2.55895166436237E-02 
2131	 2.86787956401229E-02 
2132	 2.95667187111792E-02 
2133	 3.05507293959503E-02 
2134	 3.25286323223848E-02 
2135	 3.57493598512195E-02 
2136	 3.66658431038555E-02 
2137	 3.81280695444598E-02 
2138	 3.79380580243185E-02 
2139	 3.47893950905567E-02 
2140	 3.30097880231775E-02 
2141	 3.00354223725668E-02 
2142	 2.94546408548347E-02 
2143	 3.00621842969517E-02 
2144	 3.23639843991284E-02 
2145	 3.27620287896743E-02 
2146	 3.06657224118779E-02 
2147	 2.99274450302815E-02 
2148	 2.96344441871716E-02 
2149	 3.25017915104103E-02 
2150	 3.77602805476394E-02 
2151	 3.94035302122597E-02 
2152	 3.90709955338084E-02 
2153	 3.65504532033962E-02 
2154	 3.61236308033706E-02 
2155	 3.88170502436249E-02 
2156	 3.83531483915038E-02 
2157	 3.88423959088531E-02 
2158	 4.05943926584174E-02 
2159	 4.12089171661166E-02 
2160	 0.041733591206296 
2161	 4.13205247107321E-02 
2162	 3.91627341857777E-02 
2163	 3.84054944614976E-02 
2164	 3.61118872994339E-02 
2165	 3.56080447018801E-02 
2166	 4.02916335147033E-02 
2167	 3.94225178807851E-02 
2168	 3.51856390636329E-02 
2169	 3.31600112282236E-02 
2170	 2.87860208135599E-02 
2171	 2.44222614276176E-02 
2172	 2.70566340224107E-02 
2173	 3.04790362482183E-02 
2174	 3.37160836317917E-02 
2175	 3.68616658592273E-02 
2176	 3.61289022168669E-02 
2177	 3.45559475460138E-02 
2178	 0.033457862968064 
2179	 3.38366685509115E-02 
2180	 3.71354041559436E-02 
2181	 3.68522949122732E-02 
2182	 3.52346365146422E-02 
2183	 3.53490559264379E-02 
2184	 3.30755631826273E-02 
2185	 0.030531597266028 
2186	 3.16687029410091E-02 
2187	 3.60982743672885E-02 
2188	 3.84225081879233E-02 
2189	 0.043758914804465 
2190	 4.62422710186131E-02 
2191	 4.53996903091266E-02 
2192	 4.64911068003866E-02 
2193	 4.70154967821174E-02 
2194	 4.75953447412236E-02 
2195	 5.18150320694406E-02 
2196	 5.08876690191534E-02 
2197	 0.046738407392379 
2198	 4.37398913130159E-02 
2199	 3.81324040072745E-02 
2200	 3.14367923989645E-02 
2201	 2.90478728568596E-02 
2202	 2.39014193102321E-02 
2203	 2.47027857602846E-02 
2204	 2.31869796128522E-02 
2205	 1.95315539637485E-02 
2206	 2.35408659321372E-02 
2207	 2.65224304017045E-02 
2208	 2.89553055480831E-02 
2209	 3.68748034698193E-02 
2210	 4.09934452153842E-02 
2211	 0.038104468935183 
2212	 3.66304299141708E-02 
2213	 3.60329394282717E-02 
2214	 3.39277573333737E-02 
2215	 0.034948940065447 
2216	 0.040336128804532 
2217	 4.19658135457206E-02 
2218	 4.08727394484934E-02 
2219	 4.03028464000742E-02 
2220	 3.90756617194248E-02 
2221	 3.83857199119926E-02 
2222	 0.037333678052896 
2223	 3.72887471188856E-02 
2224	 3.86134406601078E-02 
2225	 3.83475146044314E-02 
2226	 0.037756837202026 
2227	 3.61588465831278E-02 
2228	 0.032255060431704 
2229	 3.14668729145523E-02 
2230	 3.09010355289424E-02 
2231	 3.11322417450582E-02 
2232	 3.51402336192872E-02 
2233	 0.037242778146375 
2234	 3.85059402792242E-02 
2235	 4.02613888841333E-02 
2236	 3.78740020925856E-02 
2237	 3.50613098649872E-02 
2238	 2.94495415106223E-02 
2239	 2.38862772062649E-02 
2240	 2.24454572248594E-02 
2241	 1.98598572641117E-02 
2242	 2.79294325316724E-02 
2243	 0.031781490854593 
2244	 2.99819223638639E-02 
2245	 3.78569662058619E-02 
2246	 3.59218190880941E-02 
2247	 3.15254517447017E-02 
2248	 3.62619388247201E-02 
2249	 3.45296372053001E-02 
2250	 3.19023296599478E-02 
2251	 3.40385498079444E-02 
2252	 3.40712176855422E-02 
2253	 3.49873169431649E-02 
2254	 3.08647889665162E-02 
2255	 2.70066827363129E-02 
2256	 2.76597669380232E-02 
2257	 2.71818228198718E-02 
2258	 3.28841030800286E-02 
2259	 3.77857209665096E-02 
2260	 3.88693619003695E-02 
2261	 0.03599293547797 
2262	 3.65784989655183E-02 
2263	 3.48486444424821E-02 
2264	 3.59498552513639E-02 
2265	 4.20403502809806E-02 
2266	 4.32096406623761E-02 
2267	 0.045101161909916 
2268	 4.36561295255079E-02 
2269	 3.54577071274429E-02 
2270	 3.29710449418217E-02 
2271	 2.93096134389909E-02 
2272	 2.75506122219812E-02 
2273	 3.38826636652968E-02 
2274	 3.43101917931424E-02 
2275	 2.98977351310231E-02 
2276	 3.01837064597033E-02 
2277	 2.75348120644207E-02 
2278	 0.028074528961138 
2279	 3.72649026926238E-02 
2280	 3.95441145849639E-02 
2281	 3.69915532321023E-02 
2282	 4.02021198734016E-02 
2283	 4.50975402330328E-02 
2284	 4.84168734718843E-02 
2285	 5.29867854763019E-02 
2286	 5.36050113860352E-02 
2287	 4.93423861296037E-02 
2288	 4.54958208238174E-02 
2289	 4.36526452244095E-02 
2290	 0.047269248435991 
2291	 3.93336982718296E-02 
2292	 0.024212066521169 
2293	 2.07503140383597E-02 
2294	 2.17592396110492E-02 
2295	 2.77119199026326E-02 
2296	 3.56456162552652E-02 
2297	 4.18844426838006E-02 
2298	 4.18179324372424E-02 
2299	 4.06962159260273E-02 
2300	 4.18322377699932E-02 
2301	 2.71334238670318E-02 
2302	 1.60847629220057E-02 
2303	 1.53196922746144E-02 
2304	 1.18280437689088E-02 
2305	 0.027047459815261 
2306	 4.02799332947229E-02 
2307	 3.21908160838616E-02 
2308	 3.88492996893407E-02 
2309	 4.30387972961954E-02 
2310	 2.16828704234062E-02 
2311	 1.42446779457387E-02 
2312	 1.50549400189258E-02 
2313	-3.80004663306966E-03 
2314	-6.80408048771887E-03 
2315	 7.39992970311373E-03 
2316	 6.81865460829002E-03 
2317	 1.86286067221335E-02 
2318	 3.75401889322521E-02 
2319	 3.10419742073606E-02 
2320	 1.94199556986543E-02 
2321	 1.33184975204656E-02 
2322	 1.18807499968496E-02 
2323	 2.38554197638249E-02 
2324	 4.75208467116996E-02 
2325	 6.73127906802036E-02 
2326	 7.22364572790421E-02 
2327	 0.070524616701412 
2328	 6.75594225541187E-02 
2329	 4.61158998855292E-02 
2330	 3.91314382359687E-02 
2331	 3.97789264341064E-02 
2332	 2.94463657265651E-02 
2333	 4.39613757960506E-02 
2334	 3.49268046058596E-02 
2335	 1.45561937670254E-02 
2336	 2.29857542314806E-02 
2337	 2.00735917986395E-02 
2338	 1.64541675657491E-02 
2339	 0.03693780613185 
2340	 3.60577297888913E-02 
2341	 0.020882888132198 
2342	 3.93272065622277E-02 
2343	 4.94035208631429E-02 
2344	 5.93373395265932E-02 
2345	 6.62889931432507E-02 
2346	 5.48465439402836E-02 
2347	 6.60232160647895E-02 
2348	 7.77642727799501E-02 
2349	 7.52329004478997E-02 
2350	 8.05378748455245E-02 
2351	 6.45606549188154E-02 
2352	 3.25297488522606E-02 
2353	 2.65846867624468E-02 
2354	 0.011436491807558 
2355	 2.27529215798023E-03 
2356	 1.06522664751146E-02 
2357	 3.54774642575808E-02 
2358	 7.32106952765787E-02 
2359	 8.37342785251357E-02 
2360	 8.66103730064186E-02 
2361	 7.73630127027992E-02 
2362	 5.97324481235145E-02 
2363	 4.83340478719875E-02 
2364	 1.97100583231838E-02 
2365	 6.37554641208611E-03 
2366	-1.94852716428436E-02 
2367	-9.44382163309052E-02 
2368	-8.46643894375964E-02 
2369	-1.82974695807044E-02 
2370	-7.6294387071564E-04 
2371	 5.88036771949669E-02 
2372	 0.11878844980981 
2373	 5.63234481616742E-02 
2374	 2.64492515012438E-02 
2375	 5.94067070919384E-02 
2376	 3.78433449923762E-02 
2377	 4.39489164993114E-02 
2378	 5.33987066273556E-02 
2379	 5.22521777702389E-02 
2380	 9.67952583912565E-02 
2381	 0.178738292818916 
2382	 0.258236049094323 
2383	 0.326345090558757 
2384	 0.355757113029478 
2385	 0.329756726631605 
2386	 0.231089982138413 
2387	 0.154449963644485 
2388	 0.209756758787581 
2389	 0.226076726490274 
2390	 0.274090888670837 
2391	 0.366314261059213 
2392	 0.283366758493912 
2393	 0.17566724720385 
2394	 0.132628455761375 
2395	 0.203621242685705 
2396	 0.25204654540658 
2397	 0.189517863512914 
2398	 0.120410095060151 
2399	 4.47299392148808E-02 
2400	-0.038061621306868 
2401	 8.87781719029607E-03 
2402	 9.93245544571154E-02 
2403	-1.56466445834946E-02 
2404	-4.28362003225008E-02 
2405	-8.48013087659194E-02 
2406	-0.21749729797882 
2407	-0.286632989967444 
2408	-0.41008378628361 
2409	-0.342195199022402 
2410	-5.73556428472397E-02 
2411	 0.227519903174236 
2412	 0.454895674640707 
2413	 0.137045212111186 
2414	-0.127385883709773 
2415	 0.151167196199287 
2416	 0.401614522166969 
2417	 0.541524639185483 
2418	 0.53476619133727 
2419	 0.246218435823075 
2420	 0.209712115551723 
2421	 0.147575236272223 
2422	-0.355981447980799 
2423	-1.27043949015731 
2424	-2.42473532459463 
2425	-2.38041446604012 
2426	-2.46971967982478 
2427	-3.45414681452069E-02 
2428	 0.184226139813764 
2429	-4.35081018077815E-02 
2430	-0.255051518601575 
2431	-0.265711001272572 
2432	-0.375084593063506 
2433	-0.383358273247573 
2434	 0.111747463934535 
2435	 0.663777507803098 
2436	 2.62371948833372 
2437	 617.041565831543 
2438	-2.09054625922328 
2439	-6.83618054917478E-02 
2440	-92.9057863367358 
2441	-96.4083554924484 
2442	-2.39033618758156 
2443	-0.961494450648461 
2444	-2.8306445184975 
2445	-1.78444279185069 
2446	-0.425498544228198 
2447	-0.171903991621694 
2448	-2.47044103251666E-02 
2449	 0.156050047656285 
2450	 0.194948729337183 
2451	 0.480730719309405 
2452	 0.324852056559497 
2453	-8.27319156309829E-02 
2454	-0.372840322501666 
2455	-0.503137208468004 
2456	-0.556719924540292 
2457	-0.38967229850817 
2458	-0.10080384059538 
2459	 8.09440173528753E-02 
2460	 0.246834528800444 
2461	-0.816089305442709 
2462	-1.09037985613406 
2463	-0.967895125810633 
2464	-0.849407608384653 
2465	-0.452842087688549 
2466	-0.128258094097123 
2467	-0.470909207149125 
2468	-0.745622485833852 
2469	-1.26579371033869 
2470	 0.29275531942406 
2471	-4.01119205095314 
2472	-4.59103668486463 
2473	-1.97428901762445 
2474	-4.16378928771293 
2475	-1.73623214446435 
2476	-0.97688680630999 
2477	-2.06257223179282 
2478	-5.11508172978453 
2479	 0.775618037112835 
2480	 0.41261634716914 
2481	 0.57104718637026 
2482	 0.239824857313963 
2483	-0.077081301042191 
2484	-0.1024877799979 
2485	-5.70046397455711E-02 
2486	-0.159711439734964 
2487	-0.400671788079307 
2488	-0.24316413356121 
2489	-0.313564522379654 
2490	-0.251951515288734 
2491	-0.232294778034793 
2492	-0.466325283234555 
2493	-1.00854685730015 
2494	-0.897789811289191 
2495	-1.58040239396382 
2496	 8.67308319343099 
2497	 1.76474340610806 
2498	 1.77780567038681 
2499	-1.01725967918874 
2500	-3.78126220538545 
