Wavelength	rt0713east_far200004.asd
350	 8.85636003622124E-02 
351	 8.88538089454527E-02 
352	 8.85690048149992E-02 
353	 0.088481049568491 
354	 8.86567968063281E-02 
355	 8.70968494048383E-02 
356	 8.68282810603909E-02 
357	 8.75616667456568E-02 
358	 8.80102271406018E-02 
359	 8.75990411439693E-02 
360	 8.75748453853007E-02 
361	 8.77457605334297E-02 
362	 8.70840069004438E-02 
363	 8.70997058371819E-02 
364	 8.69872394458124E-02 
365	 8.65814432628709E-02 
366	 8.71283387517289E-02 
367	 8.65904880751086E-02 
368	 8.62291755678033E-02 
369	 8.72172094715381E-02 
370	 8.72898093908452E-02 
371	 8.70701242740494E-02 
372	 8.69859053828974E-02 
373	 8.72098460129736E-02 
374	 8.67683116280936E-02 
375	 8.64792269915394E-02 
376	 0.086722503465928 
377	 8.70206352345919E-02 
378	 8.74880290625988E-02 
379	 8.76487047203618E-02 
380	 8.72679402435172E-02 
381	 8.71710203516127E-02 
382	 0.087259702559038 
383	 8.74251625130587E-02 
384	 8.75677581010829E-02 
385	 8.78092252287798E-02 
386	 8.82167565773556E-02 
387	 8.84475967666655E-02 
388	 8.78039180545657E-02 
389	 8.79355460244411E-02 
390	 8.82801477481875E-02 
391	 8.82980920040404E-02 
392	 8.86919814217317E-02 
393	 8.85859594340403E-02 
394	 8.84099567342519E-02 
395	 8.87792037729987E-02 
396	 0.088550632905306 
397	 0.088399165476356 
398	 8.84987176535258E-02 
399	 0.088524158128762 
400	 8.89120798965477E-02 
401	 0.089043399431526 
402	 8.87063736347476E-02 
403	 8.89220311782176E-02 
404	 8.89853611802455E-02 
405	 8.90096870432363E-02 
406	 8.92982799506096E-02 
407	 0.089442264040899 
408	 8.95482515615519E-02 
409	 8.96440750831097E-02 
410	 8.96540486173035E-02 
411	 8.96344851916861E-02 
412	 0.089729063620889 
413	 8.99525840077623E-02 
414	 8.99815917266423E-02 
415	 9.00604165216267E-02 
416	 9.02696429216101E-02 
417	 9.05791374150933E-02 
418	 9.07264106836551E-02 
419	 9.09902676579974E-02 
420	 9.13272867262489E-02 
421	 9.13306999153918E-02 
422	 9.14374767058471E-02 
423	 9.16698050584401E-02 
424	 9.19625150130039E-02 
425	 9.22871702641316E-02 
426	 9.24734030557706E-02 
427	 9.26981412325303E-02 
428	 9.32002832878577E-02 
429	 9.33296696086536E-02 
430	 9.36763006811912E-02 
431	 9.42396528713212E-02 
432	 0.094219527759261 
433	 9.45136021504448E-02 
434	 9.49364986164354E-02 
435	 9.52169652156006E-02 
436	 9.55910246296964E-02 
437	 9.58461922898758E-02 
438	 9.60948772085554E-02 
439	 9.65662490608328E-02 
440	 9.68390818071914E-02 
441	 9.71414128885878E-02 
442	 9.75533691199433E-02 
443	 9.78358067644044E-02 
444	 0.09811427492906 
445	 9.84401523746267E-02 
446	 9.88025243768605E-02 
447	 9.90227369716287E-02 
448	 9.93245558457168E-02 
449	 9.96742537497068E-02 
450	 9.98653538849634E-02 
451	 0.100106361395432 
452	 0.100380466253872 
453	 0.100628456908188 
454	 0.100751793577399 
455	 0.101082164980612 
456	 0.101424896867379 
457	 0.101514163953117 
458	 0.101824687295635 
459	 0.102150528434835 
460	 0.10235665001203 
461	 0.102426068192928 
462	 0.102625111479633 
463	 0.102822168994666 
464	 0.102911610277842 
465	 0.10308865101676 
466	 0.103301610364376 
467	 0.103522034979632 
468	 0.103735082858605 
469	 0.103978297342876 
470	 0.104186834426844 
471	 0.104378682537801 
472	 0.104693087104225 
473	 0.104743528610225 
474	 0.104857595335276 
475	 0.105320004987088 
476	 0.105588212203699 
477	 0.105735188969656 
478	 0.105937724017663 
479	 0.106383806208158 
480	 0.106539541836995 
481	 0.106718229466526 
482	 0.107124450886656 
483	 0.107522330700903 
484	 0.107787353984766 
485	 0.108006092435402 
486	 0.10833587039401 
487	 0.108762263654094 
488	 0.109186983464496 
489	 0.109565980711521 
490	 0.10991390233482 
491	 0.110130421399764 
492	 0.110442918568707 
493	 0.110943564505598 
494	 0.11118741224419 
495	 0.111470990145701 
496	 0.111894090345282 
497	 0.112428807134178 
498	 0.112870620444533 
499	 0.113252026264387 
500	 0.11363456453017 
501	 0.114084675467607 
502	 0.114391281011442 
503	 0.114677670376736 
504	 0.115111889290553 
505	 0.115611196850246 
506	 0.116175818941939 
507	 0.11674241465549 
508	 0.117207667380663 
509	 0.117648486234449 
510	 0.118086450145258 
511	 0.11853938742409 
512	 0.11904420717247 
513	 0.11956421479672 
514	 0.120082395883778 
515	 0.120606850827593 
516	 0.121303678775792 
517	 0.121871259823365 
518	 0.122231619594344 
519	 0.122629881383111 
520	 0.123254508380665 
521	 0.12393338434987 
522	 0.124473175264483 
523	 0.124898851533988 
524	 0.125442366558005 
525	 0.126074339359091 
526	 0.126592265008827 
527	 0.127094541452826 
528	 0.127672881343266 
529	 0.128340377810019 
530	 0.128976738990741 
531	 0.129541100407759 
532	 0.13012532967028 
533	 0.130813898710045 
534	 0.131296225280417 
535	 0.131839757725168 
536	 0.132517004940321 
537	 0.13313716543755 
538	 0.133623980367645 
539	 0.134137159517622 
540	 0.134800283829223 
541	 0.135426418472706 
542	 0.135958162786303 
543	 0.13646897361139 
544	 0.137096547237259 
545	 0.137668743253864 
546	 0.138332238912587 
547	 0.139089503122272 
548	 0.139589888194313 
549	 0.140042916594145 
550	 0.14057673040007 
551	 0.141252007927476 
552	 0.141900076952567 
553	 0.142495060867035 
554	 0.143021704094672 
555	 0.14346687096117 
556	 0.144076557652196 
557	 0.144749315269987 
558	 0.145331829394096 
559	 0.145848199633968 
560	 0.14621814662798 
561	 0.14656792308204 
562	 0.147114875503743 
563	 0.147546852240581 
564	 0.148032665677831 
565	 0.148569259872054 
566	 0.148681608544233 
567	 0.148864226771436 
568	 0.149147993516246 
569	 0.149431526241998 
570	 0.149912940641632 
571	 0.150313857279479 
572	 0.150567268674769 
573	 0.150856915722113 
574	 0.150997632335675 
575	 0.151191295269138 
576	 0.151575793944425 
577	 0.151820211851958 
578	 0.151945803414459 
579	 0.15210471940099 
580	 0.152486499900311 
581	 0.152778482034719 
582	 0.152951632048306 
583	 0.153000160575587 
584	 0.152885007274807 
585	 0.152624647672303 
586	 0.1522336898482 
587	 0.151757687304555 
588	 0.151422640266692 
589	 0.151177382434013 
590	 0.151072033189814 
591	 0.151242236594844 
592	 0.151186824495164 
593	 0.150900873958313 
594	 0.150571579028025 
595	 0.150635840490688 
596	 0.150416850291855 
597	 0.150049202520314 
598	 0.150048418347468 
599	 0.149772037160636 
600	 0.149491167317898 
601	 0.149404512700248 
602	 0.149421937708117 
603	 0.149128563993845 
604	 0.148838802005245 
605	 0.148953664153143 
606	 0.148947576064694 
607	 0.149033791840832 
608	 0.149180678873816 
609	 0.149087502133677 
610	 0.14907262765631 
611	 0.149094663869852 
612	 0.149083735876657 
613	 0.14911631727239 
614	 0.149186348861711 
615	 0.149238758484239 
616	 0.14921619035887 
617	 0.149326196509099 
618	 0.149403090413509 
619	 0.149373124506506 
620	 0.149370785998212 
621	 0.14936281656106 
622	 0.14934501416312 
623	 0.14933972553169 
624	 0.149495696138046 
625	 0.149408106635642 
626	 0.149117815833313 
627	 0.149094831935052 
628	 0.149179657457639 
629	 0.149315266126758 
630	 0.14943107799605 
631	 0.149368435940355 
632	 0.149390111141391 
633	 0.149488946220896 
634	 0.149538134471619 
635	 0.14960821920223 
636	 0.149640871330199 
637	 0.149643034564811 
638	 0.149730221901343 
639	 0.149804543429162 
640	 0.149789425271593 
641	 0.14965401579606 
642	 0.149507950262765 
643	 0.149384247434263 
644	 0.14915797874396 
645	 0.148606900345556 
646	 0.148177312298268 
647	 0.147937906225635 
648	 0.147890236051824 
649	 0.148121447010418 
650	 0.147931237075392 
651	 0.147606406835993 
652	 0.147670020784878 
653	 0.147337685109406 
654	 0.146796516276152 
655	 0.146290265389241 
656	 0.146100500275197 
657	 0.145876964228288 
658	 0.145594587373188 
659	 0.145297891352405 
660	 0.145010394653816 
661	 0.144879089743945 
662	 0.14474939498229 
663	 0.144334189378841 
664	 0.144045961439385 
665	 0.143929209159525 
666	 0.143873030685486 
667	 0.143575817512378 
668	 0.143410888821743 
669	 0.14340120476516 
670	 0.143434657530942 
671	 0.143357145505377 
672	 0.143368559128766 
673	 0.143450003345822 
674	 0.14337978119663 
675	 0.143394654695633 
676	 0.143425323505926 
677	 0.143430166525462 
678	 0.143588779942683 
679	 0.143782964664779 
680	 0.143971149887809 
681	 0.144145905228738 
682	 0.144310879275442 
683	 0.1443424451062 
684	 0.144224579170617 
685	 0.144084130870463 
686	 0.143625447076967 
687	 0.143323615557364 
688	 0.143568334240959 
689	 0.143677883352692 
690	 0.143393558902466 
691	 0.14281027886999 
692	 0.142270795357707 
693	 0.142108003904379 
694	 0.142142374466672 
695	 0.142196733151168 
696	 0.142328178096533 
697	 0.141862830431001 
698	 0.140984307817733 
699	 0.140212231865103 
700	 0.139844816241469 
701	 0.139609888045429 
702	 0.139305743663029 
703	 0.138832578513735 
704	 0.138193440263758 
705	 0.137631602874478 
706	 0.137168005226086 
707	 0.136199257818306 
708	 0.135293215001918 
709	 0.134449579967062 
710	 0.133496870756304 
711	 0.132576688292935 
712	 0.131427607406322 
713	 0.129901666627879 
714	 0.127941281841379 
715	 0.12567392940755 
716	 0.123074015051925 
717	 0.12050817870989 
718	 0.118455988465486 
719	 0.117582727270371 
720	 0.117152621388889 
721	 0.116114193176189 
722	 0.114575865762068 
723	 0.112344388014918 
724	 0.110078416389057 
725	 0.108911572226111 
726	 0.107319374205785 
727	 0.105560776950916 
728	 0.103965791171581 
729	 0.101699592474183 
730	 9.99153783287838E-02 
731	 0.098786870914146 
732	 9.78092445068505E-02 
733	 9.65878011998976E-02 
734	 9.52171255226719E-02 
735	 0.093971701879935 
736	 9.33158498386618E-02 
737	 9.29141858967164E-02 
738	 0.092639899840363 
739	 9.24403453880058E-02 
740	 9.22973830447658E-02 
741	 0.092331243203555 
742	 9.24311819673961E-02 
743	 9.23829023466456E-02 
744	 0.092176058271925 
745	 9.20733021628984E-02 
746	 9.21199834034567E-02 
747	 9.20361932535312E-02 
748	 9.21399570181925E-02 
749	 9.21883144858619E-02 
750	 9.19755807852665E-02 
751	 9.18790467597219E-02 
752	 9.18198139313868E-02 
753	 9.18195360632884E-02 
754	 9.19088694002001E-02 
755	 9.17759990521459E-02 
756	 9.16491683986662E-02 
757	 9.15314635643866E-02 
758	 9.08830342983575E-02 
759	 8.98575257518407E-02 
760	 8.89110587102678E-02 
761	 8.89025016762345E-02 
762	 8.90134379333722E-02 
763	 8.95553113451671E-02 
764	 9.03128149302037E-02 
765	 9.09764739360389E-02 
766	 9.14476282248328E-02 
767	 9.17817417097007E-02 
768	 0.09205709080284 
769	 9.23566260526229E-02 
770	 9.24968226087346E-02 
771	 9.26393049610005E-02 
772	 9.28835657703775E-02 
773	 9.29518335758672E-02 
774	 9.31815433270023E-02 
775	 9.34198025170955E-02 
776	 9.34282097348754E-02 
777	 9.38339170737209E-02 
778	 9.41835390749084E-02 
779	 0.094297254029596 
780	 9.43699532774826E-02 
781	 9.47523141014489E-02 
782	 9.50484533796861E-02 
783	 9.50789215399701E-02 
784	 9.55026215002795E-02 
785	 9.56886181849389E-02 
786	 9.57248759883616E-02 
787	 9.59056249108987E-02 
788	 9.61138138187567E-02 
789	 9.62777304389385E-02 
790	 9.65501317235404E-02 
791	 9.72127074386021E-02 
792	 9.79955607218194E-02 
793	 9.83940175329986E-02 
794	 9.83743809613216E-02 
795	 9.86705891715256E-02 
796	 9.90804390029704E-02 
797	 9.93920845852052E-02 
798	 9.95072237806268E-02 
799	 9.97094459677196E-02 
800	 0.099719506154491 
801	 9.98176733012428E-02 
802	 0.100434293029043 
803	 0.100641600614275 
804	 0.100908084356969 
805	 0.10130726010386 
806	 0.101369931580775 
807	 0.101166402629752 
808	 0.100676048767585 
809	 0.100030307176201 
810	 9.98182854150016E-02 
811	 9.90563227317975E-02 
812	 9.78792165830949E-02 
813	 9.69845259476581E-02 
814	 9.68233899289512E-02 
815	 9.63516817157709E-02 
816	 9.55983136878482E-02 
817	 9.54958801193139E-02 
818	 9.57345048539038E-02 
819	 0.095591668106166 
820	 0.09494328750608 
821	 0.094348578586929 
822	 9.32529126236489E-02 
823	 9.19001806780563E-02 
824	 9.06603226052519E-02 
825	 8.95091660234362E-02 
826	 8.80355750701122E-02 
827	 8.65457288412622E-02 
828	 8.55097426418102E-02 
829	 0.083812933066774 
830	 8.22727779269521E-02 
831	 8.13889487955239E-02 
832	 8.12352348419556E-02 
833	 8.07693469395184E-02 
834	 8.02503653330179E-02 
835	 7.97741572294954E-02 
836	 7.90310691685934E-02 
837	 7.89042979730138E-02 
838	 7.89587455020888E-02 
839	 7.87203854156508E-02 
840	 7.83411793580846E-02 
841	 7.82312708616431E-02 
842	 7.82261673773041E-02 
843	 7.80218840317368E-02 
844	 7.78371563823126E-02 
845	 7.73921898065568E-02 
846	 7.70084833447419E-02 
847	 7.72581837880748E-02 
848	 7.70140890848308E-02 
849	 7.66688308359974E-02 
850	 7.64787720270706E-02 
851	 0.0762864833705 
852	 7.59026670051223E-02 
853	 7.58214226777923E-02 
854	 7.61099031118767E-02 
855	 7.56796283358073E-02 
856	 7.50222598243867E-02 
857	 7.48237289160344E-02 
858	 7.53512188946772E-02 
859	 7.53352834474089E-02 
860	 7.48485645468855E-02 
861	 7.42738144329213E-02 
862	 7.40923036392534E-02 
863	 7.42827635147668E-02 
864	 7.41845822678702E-02 
865	 7.37775839264409E-02 
866	 7.36503262733828E-02 
867	 7.37536389983159E-02 
868	 7.35366699505297E-02 
869	 0.072974413287258 
870	 7.27749350998138E-02 
871	 7.24785780501959E-02 
872	 7.21941068703964E-02 
873	 7.20562740939607E-02 
874	 7.20174825678937E-02 
875	 7.16365929622374E-02 
876	 7.11521480134908E-02 
877	 7.09102157104547E-02 
878	 7.07813661075677E-02 
879	 0.070600524094615 
880	 7.02392579043647E-02 
881	 6.96995422011756E-02 
882	 6.95110261627082E-02 
883	 6.88305064771855E-02 
884	 6.82539097228732E-02 
885	 6.90792157799784E-02 
886	 6.85344857383693E-02 
887	 6.78701620981244E-02 
888	 6.76785686306938E-02 
889	 6.72909136403706E-02 
890	 6.67735032171597E-02 
891	 6.65344393574899E-02 
892	 6.65747025881658E-02 
893	 6.59681338189357E-02 
894	 6.48761883811603E-02 
895	 0.063549574131864 
896	 6.25893999532541E-02 
897	 6.33569462897218E-02 
898	 6.28712737236105E-02 
899	 6.21428098320188E-02 
900	 6.26623264790461E-02 
901	 6.20306761815589E-02 
902	 6.19969331458137E-02 
903	 6.23500067334498E-02 
904	 6.21949478313841E-02 
905	 6.10338931941853E-02 
906	 6.15525972098551E-02 
907	 6.23360819041341E-02 
908	 5.97653080309641E-02 
909	 5.97245836483576E-02 
910	 5.98685513225633E-02 
911	 5.96046923538898E-02 
912	 6.03816011688245E-02 
913	 6.00171201406509E-02 
914	 5.87355663303072E-02 
915	 5.75983303685322E-02 
916	 0.057860866519269 
917	 5.75894222937534E-02 
918	 5.77110775469582E-02 
919	 5.80090884320265E-02 
920	 5.64680176771495E-02 
921	 5.63424771576447E-02 
922	 0.05629804293016 
923	 5.52871027279627E-02 
924	 5.47937971045715E-02 
925	 5.50348733021809E-02 
926	 5.41300283136376E-02 
927	 5.11792343984342E-02 
928	 5.25783961996251E-02 
929	 5.19945509876056E-02 
930	 4.86181966354317E-02 
931	 4.61800228246246E-02 
932	 5.05384938817475E-02 
933	 5.31788257871259E-02 
934	 5.14317021410728E-02 
935	 4.97403640378645E-02 
936	 5.37767216489739E-02 
937	 5.37058221297033E-02 
938	 5.18105496486497E-02 
939	 5.17065490042343E-02 
940	 4.67276032646421E-02 
941	 4.71497274514027E-02 
942	 4.94988631108177E-02 
943	 4.55396498070544E-02 
944	 4.54837080086108E-02 
945	 4.87509337029287E-02 
946	 4.71878163988009E-02 
947	 0.035685952762866 
948	 0.044353743168043 
949	 4.94226650508284E-02 
950	 0.047075952192083 
951	 4.70385992059086E-02 
952	 4.45786777335436E-02 
953	 4.34512456047711E-02 
954	 4.39589067010116E-02 
955	 4.39118321344817E-02 
956	 4.40088184223307E-02 
957	 4.58121744998964E-02 
958	 4.62364593276958E-02 
959	 4.15036789984644E-02 
960	 4.37464076659237E-02 
961	 4.72972953514286E-02 
962	 4.78603793741147E-02 
963	 4.50651388866225E-02 
964	 4.53203904286015E-02 
965	 4.82713774200786E-02 
966	 5.04220636286873E-02 
967	 4.81986211633443E-02 
968	 4.92267225796332E-02 
969	 4.82846221251294E-02 
970	 4.67545422966912E-02 
971	 5.07134417722103E-02 
972	 4.89686955885191E-02 
973	 4.60142743108427E-02 
974	 4.64190219038457E-02 
975	 5.11575946402781E-02 
976	 4.73687068952131E-02 
977	 4.66900132963769E-02 
978	 4.99153711473035E-02 
979	 4.76597675911687E-02 
980	 4.61450332437496E-02 
981	 4.69518928770318E-02 
982	 4.89353318322496E-02 
983	 4.96150251693734E-02 
984	 5.06746266816624E-02 
985	 4.86268937998551E-02 
986	 4.60018173517915E-02 
987	 4.85997619944008E-02 
988	 4.91357727777927E-02 
989	 5.01802252806514E-02 
990	 5.12754355678021E-02 
991	 4.99734553458267E-02 
992	 5.03361149700088E-02 
993	 5.04249894494701E-02 
994	 4.97504766718527E-02 
995	 4.92477798175046E-02 
996	 4.93793883133736E-02 
997	 5.17999669648782E-02 
998	 5.25383131880511E-02 
999	 4.74069667669108E-02 
1000	 4.95771331394572E-02 
1001	 4.46450806843577E-02 
1002	 4.41699091815115E-02 
1003	 4.38674076656963E-02 
1004	 4.37926997884527E-02 
1005	 4.34794900298793E-02 
1006	 4.30319064716654E-02 
1007	 4.23744312057359E-02 
1008	 4.17610623197119E-02 
1009	 4.19951657387077E-02 
1010	 4.25298797372468E-02 
1011	 0.042580014105608 
1012	 4.25047442098725E-02 
1013	 4.24013528272068E-02 
1014	 4.25048675930589E-02 
1015	 4.25996403052307E-02 
1016	 4.27759083154273E-02 
1017	 4.33297316221972E-02 
1018	 0.043520706799763 
1019	 4.32168673278858E-02 
1020	 4.34509746814083E-02 
1021	 4.41116219350804E-02 
1022	 4.43118001252967E-02 
1023	 4.47206466472833E-02 
1024	 4.52079188516748E-02 
1025	 4.51212456883236E-02 
1026	 4.51859258746132E-02 
1027	 4.51102360941621E-02 
1028	 4.49282330036606E-02 
1029	 4.49820343288871E-02 
1030	 4.46564322303878E-02 
1031	 4.50447326191502E-02 
1032	 4.66386888408436E-02 
1033	 4.65401002448314E-02 
1034	 4.57849632097922E-02 
1035	 4.55848622813923E-02 
1036	 4.40763797523815E-02 
1037	 4.38217418882561E-02 
1038	 4.50832195996019E-02 
1039	 0.045712566115846 
1040	 4.60662391482527E-02 
1041	 4.63070151799309E-02 
1042	 0.046374127202432 
1043	 4.60886564376245E-02 
1044	 4.58259802991302E-02 
1045	 0.045194584566498 
1046	 4.52925210924025E-02 
1047	 4.55278441629846E-02 
1048	 4.58052312877026E-02 
1049	 0.046948801222153 
1050	 4.73708728650185E-02 
1051	 4.73244756680476E-02 
1052	 4.73067554271158E-02 
1053	 4.67989267948035E-02 
1054	 4.67919084416732E-02 
1055	 4.71841847723386E-02 
1056	 4.72901887788558E-02 
1057	 0.047399996530771 
1058	 4.79076097733092E-02 
1059	 4.77492930438411E-02 
1060	 4.68890520432205E-02 
1061	 4.66970684367468E-02 
1062	 4.63384875131565E-02 
1063	 0.046575464437399 
1064	 4.77861928468052E-02 
1065	 4.80289042112743E-02 
1066	 4.81089800357409E-02 
1067	 4.81441310813586E-02 
1068	 4.75989870623297E-02 
1069	 4.72173863831896E-02 
1070	 4.71037955192589E-02 
1071	 4.68271316538965E-02 
1072	 4.62314329774708E-02 
1073	 4.55909507537257E-02 
1074	 4.56525707740424E-02 
1075	 4.60798762927477E-02 
1076	 4.63074547242758E-02 
1077	 4.71739824868669E-02 
1078	 4.73019368283834E-02 
1079	 4.67671757062198E-02 
1080	 4.67184796417898E-02 
1081	 4.68196256984475E-02 
1082	 4.66432864073695E-02 
1083	 4.63940830337737E-02 
1084	 4.63371518156991E-02 
1085	 4.61773259724913E-02 
1086	 4.59458287844932E-02 
1087	 4.60049747092705E-02 
1088	 4.58387896409642E-02 
1089	 4.51971113341498E-02 
1090	 4.47421222230712E-02 
1091	 4.46191704956128E-02 
1092	 4.47021180415656E-02 
1093	 4.48678724291518E-02 
1094	 0.045838321152158 
1095	 4.55537062241884E-02 
1096	 4.42651542068987E-02 
1097	 4.38358515801956E-02 
1098	 4.29763145123927E-02 
1099	 4.25366723207179E-02 
1100	 4.33655955758415E-02 
1101	 0.043394256610232 
1102	 4.24249273523736E-02 
1103	 4.21718620964542E-02 
1104	 4.21860544294079E-02 
1105	 4.24361862187153E-02 
1106	 4.22921886548074E-02 
1107	 4.23410956202886E-02 
1108	 4.32203166813204E-02 
1109	 4.28213631833794E-02 
1110	 0.042134650658794 
1111	 4.15043534849396E-02 
1112	 4.11305867011807E-02 
1113	 3.96473677056311E-02 
1114	 3.78346473493862E-02 
1115	 0.035253406283417 
1116	 3.43464358607535E-02 
1117	 3.26780207838103E-02 
1118	 3.22473650934739E-02 
1119	 4.26083841468776E-02 
1120	 4.58644356305163E-02 
1121	 4.24116688498417E-02 
1122	 3.32494437329192E-02 
1123	 2.93572475609862E-02 
1124	 2.23253298137414E-02 
1125	 1.78332479630367E-02 
1126	 3.45835935139771E-02 
1127	 4.31719120062037E-02 
1128	 3.27839191349263E-02 
1129	 3.06857888628755E-02 
1130	 0.026020261066486 
1131	 2.76089797901307E-02 
1132	 3.42604963754261E-02 
1133	 3.72851153972645E-02 
1134	 4.25230879290363E-02 
1135	 4.10364846172015E-02 
1136	 0.032048043325067 
1137	 0.031450265427745 
1138	 3.26062815878808E-02 
1139	 0.035717667338457 
1140	 3.52158171494698E-02 
1141	 3.03406874586954E-02 
1142	 2.67759818768559E-02 
1143	 2.79642701128915E-02 
1144	 3.13263521490632E-02 
1145	 3.52547449945896E-02 
1146	 3.92714669146727E-02 
1147	 3.76684334270693E-02 
1148	 3.30523013898872E-02 
1149	 0.029743904646049 
1150	 2.95615990881489E-02 
1151	 2.83420997846291E-02 
1152	 0.029741762424337 
1153	 3.58504322765384E-02 
1154	 3.73252313227342E-02 
1155	 3.78164707277271E-02 
1156	 3.59350656320594E-02 
1157	 3.53783042313088E-02 
1158	 3.72614527849728E-02 
1159	 3.81781348711226E-02 
1160	 3.81622990887942E-02 
1161	 3.90450821753276E-02 
1162	 3.84800801128222E-02 
1163	 3.74685510387887E-02 
1164	 3.82221367909346E-02 
1165	 3.88003980007337E-02 
1166	 3.97422036609808E-02 
1167	 4.08936242708242E-02 
1168	 3.98361416517943E-02 
1169	 3.88899040190856E-02 
1170	 3.92963487795539E-02 
1171	 3.93961589638058E-02 
1172	 4.03442086868352E-02 
1173	 4.08730113002161E-02 
1174	 0.041603768606681 
1175	 0.040673164366527 
1176	 4.04953166215822E-02 
1177	 4.08066222553844E-02 
1178	 4.08052767274086E-02 
1179	 0.041212893926719 
1180	 4.11543555628312E-02 
1181	 4.06098329956893E-02 
1182	 0.040552770757361 
1183	 4.07478885946073E-02 
1184	 4.07606952560646E-02 
1185	 4.05514561975277E-02 
1186	 4.03399415602844E-02 
1187	 4.02164723795317E-02 
1188	 4.05826784693969E-02 
1189	 4.15921699461123E-02 
1190	 4.16904451952038E-02 
1191	 4.12710825676585E-02 
1192	 4.14722155883116E-02 
1193	 4.14697538430563E-02 
1194	 4.15207790443439E-02 
1195	 4.22440949170986E-02 
1196	 4.25214557513578E-02 
1197	 4.20261666162032E-02 
1198	 4.17413531106736E-02 
1199	 0.041652365935573 
1200	 4.17561550501202E-02 
1201	 4.16204489645235E-02 
1202	 4.14924430163681E-02 
1203	 4.14425205958741E-02 
1204	 4.14420706774385E-02 
1205	 4.16300853145525E-02 
1206	 4.10580737961252E-02 
1207	 4.08934345999932E-02 
1208	 4.13578874026924E-02 
1209	 4.13314869865957E-02 
1210	 4.17643889585992E-02 
1211	 4.22188793219683E-02 
1212	 4.17832915514649E-02 
1213	 0.041530391769813 
1214	 4.16899386818639E-02 
1215	 4.22279536156732E-02 
1216	 4.21454402848483E-02 
1217	 4.18843426711864E-02 
1218	 4.21874148451286E-02 
1219	 4.23835215884023E-02 
1220	 4.22542507379318E-02 
1221	 4.25198952150797E-02 
1222	 4.27655341774695E-02 
1223	 4.26844390463331E-02 
1224	 4.26711661879409E-02 
1225	 4.21585952159054E-02 
1226	 4.18314823137754E-02 
1227	 4.21417567988241E-02 
1228	 4.21297315425883E-02 
1229	 4.22794667150396E-02 
1230	 4.26580116572168E-02 
1231	 4.26282076120493E-02 
1232	 4.24054996709432E-02 
1233	 4.24938462052395E-02 
1234	 4.27905573749152E-02 
1235	 4.28136898162507E-02 
1236	 4.22389987480322E-02 
1237	 4.22745128567531E-02 
1238	 4.26505837046709E-02 
1239	 4.27793423611073E-02 
1240	 4.28066101194613E-02 
1241	 4.31759115554935E-02 
1242	 4.30856149859562E-02 
1243	 4.29407404420596E-02 
1244	 4.31120326611732E-02 
1245	 4.29411495902326E-02 
1246	 4.29774866680758E-02 
1247	 4.30617288398369E-02 
1248	 4.27695651777415E-02 
1249	 4.24635482778643E-02 
1250	 4.23966882558846E-02 
1251	 4.26151074199102E-02 
1252	 4.28294867883451E-02 
1253	 0.043041676761549 
1254	 4.27972055110196E-02 
1255	 4.21783890678617E-02 
1256	 4.21206954021976E-02 
1257	 4.25610282922436E-02 
1258	 4.25597436989989E-02 
1259	 4.26431136166171E-02 
1260	 0.042788027451851 
1261	 4.26325503601104E-02 
1262	 4.25003703919428E-02 
1263	 4.25715251665962E-02 
1264	 4.26254603959264E-02 
1265	 4.24826628435855E-02 
1266	 4.21877139713175E-02 
1267	 4.23398617594869E-02 
1268	 4.27877561292113E-02 
1269	 4.26405488746559E-02 
1270	 4.25772072064588E-02 
1271	 4.25136570376439E-02 
1272	 4.24380871174087E-02 
1273	 4.27718092234685E-02 
1274	 4.29726660071372E-02 
1275	 4.29371074147732E-02 
1276	 4.25964730114177E-02 
1277	 4.19015562608825E-02 
1278	 4.15389050522222E-02 
1279	 4.17272142396673E-02 
1280	 4.22183565120278E-02 
1281	 4.23732641360844E-02 
1282	 4.23916684632294E-02 
1283	 4.24471787542383E-02 
1284	 4.25324697959303E-02 
1285	 4.24600387167686E-02 
1286	 4.23967948368122E-02 
1287	 4.24593554239684E-02 
1288	 4.23996982254583E-02 
1289	 4.21109320061064E-02 
1290	 4.16240927326715E-02 
1291	 4.15887533099071E-02 
1292	 4.16550539553249E-02 
1293	 4.11777892320091E-02 
1294	 4.08320100008231E-02 
1295	 4.11972862738221E-02 
1296	 4.12701182093688E-02 
1297	 4.09567397986929E-02 
1298	 4.11340309454239E-02 
1299	 4.13868177126276E-02 
1300	 4.13203955314181E-02 
1301	 4.11802605955688E-02 
1302	 4.11549328098481E-02 
1303	 4.08470267541557E-02 
1304	 4.03969573489527E-02 
1305	 4.10300780238303E-02 
1306	 4.10141467697594E-02 
1307	 4.07587924738238E-02 
1308	 4.06015476284006E-02 
1309	 4.05026559683278E-02 
1310	 3.99870923892754E-02 
1311	 3.90354681147683E-02 
1312	 0.038846660504234 
1313	 3.88396587459696E-02 
1314	 0.038451211903786 
1315	 3.85422661110367E-02 
1316	 3.86522085758608E-02 
1317	 3.79834627061295E-02 
1318	 0.037840544764252 
1319	 3.87553534798594E-02 
1320	 0.039088278547887 
1321	 3.94874513062958E-02 
1322	 3.89869060000474E-02 
1323	 3.82377260803263E-02 
1324	 3.89695382779847E-02 
1325	 3.97076105814663E-02 
1326	 3.79667064009609E-02 
1327	 3.67191002453423E-02 
1328	 3.74438885821043E-02 
1329	 3.77697533724891E-02 
1330	 3.76225084780334E-02 
1331	 3.69525485394974E-02 
1332	 3.55024966072836E-02 
1333	 0.035070776581851 
1334	 3.69336376094899E-02 
1335	 3.70768281678138E-02 
1336	 0.037988158241525 
1337	 3.78020623017311E-02 
1338	 3.60192680067011E-02 
1339	 3.44751360529971E-02 
1340	 3.21089159080045E-02 
1341	 3.20257321091489E-02 
1342	 3.27575621299776E-02 
1343	 3.13076911326472E-02 
1344	 3.14131948652688E-02 
1345	 3.28047065690595E-02 
1346	 3.02473389224345E-02 
1347	 3.00027657484927E-02 
1348	 4.27311758450678E-02 
1349	 4.63104385226898E-02 
1350	 3.45590292122354E-02 
1351	 2.52800226134826E-02 
1352	-2.16230925139239E-03 
1353	-3.05511823227746E-02 
1354	-6.05728763355993E-02 
1355	-9.33362781673681E-02 
1356	-9.05592731765287E-02 
1357	-9.17417044095719E-03 
1358	 5.22433021204525E-02 
1359	-2.62849892775758E-02 
1360	-2.19359762220346E-02 
1361	 0.12791820488572 
1362	 0.320241338290291 
1363	 0.236425413432259 
1364	 0.154233650103084 
1365	 0.172224404368006 
1366	-5.86653133809477E-02 
1367	 2.48612030320631E-03 
1368	-5.67755320488194E-02 
1369	-0.486325237893715 
1370	-0.438903152187804 
1371	-2.65562523820802E-02 
1372	-2.30191814190107E-02 
1373	-0.145695023232386 
1374	-8.81960031708975E-02 
1375	-0.150289803683588 
1376	-0.150343305907658 
1377	 2.73303720784106E-02 
1378	 5.21595943682907E-02 
1379	 1.60046715689765E-03 
1380	-2.49166611317185E-02 
1381	-0.122506580850819 
1382	-0.010688248881379 
1383	 0.225762413801201 
1384	 0.425813388965329 
1385	 0.796783127174601 
1386	 0.467730070224439 
1387	-0.180648616620802 
1388	-0.518352228135469 
1389	-0.804475356763964 
1390	-0.8244989507708 
1391	-2.45477398705664 
1392	-1.22148344873473 
1393	 0.735385786973449 
1394	-0.512634985533365 
1395	-0.013707519626741 
1396	 1.0282776070704 
1397	-1.12955649284937 
1398	-0.671092560467662 
1399	 0.385332122588971 
1400	 0.672450673789092 
1401	 0.184549185995468 
1402	 0.360797992958379 
1403	 0.237782500478134 
1404	-0.674642585816934 
1405	-1.68617670566635 
1406	-0.197606385038594 
1407	 0.115136128085382 
1408	-0.297773569106065 
1409	-0.248427387211228 
1410	 0.233850983129757 
1411	 0.285837383666413 
1412	-0.102957973574088 
1413	-0.246610751551737 
1414	-0.101208883396751 
1415	-0.045997104090467 
1416	-0.025040374276971 
1417	 4.79248190359039E-02 
1418	 0.220542066477372 
1419	 0.241080158474703 
1420	 0.258211909573377 
1421	 0.206658283528246 
1422	 3.65950414605666E-02 
1423	 6.83795100844135E-03 
1424	 1.24732219508548E-02 
1425	 3.09595858248828E-02 
1426	 0.10509602777296 
1427	 0.128359257943378 
1428	 0.138373443095725 
1429	 0.118405279543478 
1430	 6.87829223934333E-02 
1431	 5.51271001408298E-02 
1432	 2.98196393314255E-02 
1433	 2.53555039428687E-02 
1434	 7.65903502283896E-02 
1435	 8.66468045247058E-02 
1436	 7.33140007771935E-02 
1437	 4.64813948666714E-02 
1438	 0.079694645449507 
1439	 6.71760044921696E-02 
1440	 5.24942186134348E-02 
1441	 7.62201791849792E-02 
1442	 0.02988756934174 
1443	-0.016579303605614 
1444	 4.02563463653223E-04 
1445	 9.53377161737672E-03 
1446	 1.41430870679233E-02 
1447	 2.69598628371089E-02 
1448	 2.83460876444891E-02 
1449	 2.59227070188479E-02 
1450	 3.66443476510261E-02 
1451	 4.50644684767001E-02 
1452	 4.53515113737809E-02 
1453	 4.52325927363097E-02 
1454	 4.33601628689859E-02 
1455	 4.15595743767568E-02 
1456	 4.00524382314774E-02 
1457	 3.68494956550785E-02 
1458	 3.27062067770289E-02 
1459	 2.69552896511196E-02 
1460	 2.73269311564389E-02 
1461	 2.83769958370779E-02 
1462	 2.83512379307698E-02 
1463	 3.41074574745397E-02 
1464	 3.58399198191834E-02 
1465	 3.21338837194471E-02 
1466	 3.24223042296864E-02 
1467	 3.59787505813555E-02 
1468	 3.71715623601592E-02 
1469	 3.58819309623403E-02 
1470	 3.69104037059238E-02 
1471	 4.29762825252391E-02 
1472	 4.10963702713192E-02 
1473	 3.24374874701004E-02 
1474	 3.05066786141964E-02 
1475	 2.81037687712393E-02 
1476	 2.71454912213001E-02 
1477	 3.26991767027478E-02 
1478	 3.23803812215124E-02 
1479	 2.50148147292543E-02 
1480	 2.64476645631598E-02 
1481	 3.24772968144191E-02 
1482	 3.23627041383057E-02 
1483	 3.26517597944301E-02 
1484	 3.43179806041543E-02 
1485	 3.36003762273652E-02 
1486	 3.35880806662159E-02 
1487	 0.035439498282531 
1488	 3.64317295929519E-02 
1489	 3.55608945463191E-02 
1490	 3.55534635144034E-02 
1491	 3.70806575059721E-02 
1492	 3.76379460992859E-02 
1493	 3.79058990657491E-02 
1494	 0.037646086750274 
1495	 3.65289425866782E-02 
1496	 3.64036516889836E-02 
1497	 0.036458879495686 
1498	 3.63899532723198E-02 
1499	 3.67032499690964E-02 
1500	 3.71438256653924E-02 
1501	 3.74307588973532E-02 
1502	 3.75837656289383E-02 
1503	 0.03822439767297 
1504	 3.84115400015427E-02 
1505	 3.83494279881941E-02 
1506	 3.79504851741269E-02 
1507	 3.74103219414673E-02 
1508	 3.73304459681319E-02 
1509	 0.038020400750323 
1510	 3.78872660250026E-02 
1511	 3.81781015578274E-02 
1512	 3.99784341757318E-02 
1513	 4.01846623666477E-02 
1514	 3.93143170219374E-02 
1515	 3.97280966872514E-02 
1516	 3.94095377865778E-02 
1517	 3.84038011018121E-02 
1518	 3.90330742988683E-02 
1519	 3.97133265804516E-02 
1520	 3.87547108357096E-02 
1521	 3.81771065988963E-02 
1522	 3.94543054731016E-02 
1523	 4.00413011776019E-02 
1524	 3.93997140022984E-02 
1525	 3.97909908420558E-02 
1526	 4.04764389590524E-02 
1527	 4.03172175141296E-02 
1528	 0.03998300832128 
1529	 4.04180226430305E-02 
1530	 4.11402338204426E-02 
1531	 0.041163381943232 
1532	 4.11715481283244E-02 
1533	 4.15099603511581E-02 
1534	 0.04114159061247 
1535	 4.02328047866249E-02 
1536	 4.01710095795961E-02 
1537	 4.03735864662616E-02 
1538	 3.97765047656474E-02 
1539	 3.95284809447091E-02 
1540	 4.01413346302403E-02 
1541	 4.06126207331838E-02 
1542	 4.04010188949768E-02 
1543	 4.00802737965833E-02 
1544	 4.07105496571452E-02 
1545	 4.12658363302797E-02 
1546	 4.07041901380805E-02 
1547	 4.04921569386222E-02 
1548	 0.040614088611223 
1549	 0.04010495384715 
1550	 3.99673148608268E-02 
1551	 4.03764283557322E-02 
1552	 4.04313907985001E-02 
1553	 4.05477485646445E-02 
1554	 4.12629768112583E-02 
1555	 4.18872341157935E-02 
1556	 4.18210049432271E-02 
1557	 4.14360217970597E-02 
1558	 4.10877939616797E-02 
1559	 4.07750082385035E-02 
1560	 4.07019449535187E-02 
1561	 4.07124425044202E-02 
1562	 4.04564830832322E-02 
1563	 4.07158521464676E-02 
1564	 4.14349259503664E-02 
1565	 0.041471914773563 
1566	 4.15408368544314E-02 
1567	 4.18573562000786E-02 
1568	 4.14950400623288E-02 
1569	 0.0414687116012 
1570	 4.18071337691998E-02 
1571	 4.14348784113238E-02 
1572	 4.10288365622312E-02 
1573	 4.11509674385604E-02 
1574	 0.041288616088385 
1575	 4.08305977012794E-02 
1576	 4.05920581658855E-02 
1577	 4.11118687848703E-02 
1578	 4.09543206700467E-02 
1579	 4.04738814318313E-02 
1580	 4.08087746120209E-02 
1581	 4.05821911426166E-02 
1582	 4.02633877339411E-02 
1583	 4.07382846120241E-02 
1584	 4.06083826585067E-02 
1585	 4.03434548077135E-02 
1586	 4.07042173563532E-02 
1587	 0.041239832779581 
1588	 4.11716493905141E-02 
1589	 4.05380371092163E-02 
1590	 4.05890380567859E-02 
1591	 4.10749479098561E-02 
1592	 4.10911311372036E-02 
1593	 4.13009364328763E-02 
1594	 4.17233013604716E-02 
1595	 4.13976978793978E-02 
1596	 4.17199122878333E-02 
1597	 4.24223572670437E-02 
1598	 4.16975931648041E-02 
1599	 4.07785773583387E-02 
1600	 4.06713504541292E-02 
1601	 4.09149588020241E-02 
1602	 4.08096992710255E-02 
1603	 4.06518264705014E-02 
1604	 4.05681932021964E-02 
1605	 4.02371893588302E-02 
1606	 4.01723962545245E-02 
1607	 4.03727398198741E-02 
1608	 0.040714259629579 
1609	 4.09471026578681E-02 
1610	 4.07520931122852E-02 
1611	 4.04684592543316E-02 
1612	 4.04280708873791E-02 
1613	 4.04919174941057E-02 
1614	 4.09141970227751E-02 
1615	 4.16132994114519E-02 
1616	 4.15243846634975E-02 
1617	 4.11340477861051E-02 
1618	 0.040932595281013 
1619	 4.06841072361697E-02 
1620	 4.09908086551217E-02 
1621	 4.08372375575101E-02 
1622	 4.03917599068102E-02 
1623	 4.09256872402696E-02 
1624	 4.11906708095436E-02 
1625	 4.11957441553581E-02 
1626	 4.14484076011595E-02 
1627	 4.16830650583785E-02 
1628	 4.15758045941899E-02 
1629	 4.13608662521294E-02 
1630	 4.19702906231974E-02 
1631	 4.21967244521995E-02 
1632	 4.18183869770838E-02 
1633	 4.18076263157592E-02 
1634	 4.18658234229447E-02 
1635	 4.17516634942734E-02 
1636	 4.16134800584697E-02 
1637	 4.18010310434245E-02 
1638	 4.19027854123249E-02 
1639	 4.18118332877991E-02 
1640	 4.18919513018022E-02 
1641	 4.16771265404854E-02 
1642	 4.14815069480044E-02 
1643	 4.18799749466326E-02 
1644	 4.17855531737114E-02 
1645	 4.12929754520297E-02 
1646	 4.14624317862174E-02 
1647	 4.13800254974712E-02 
1648	 4.08984003466771E-02 
1649	 4.13831587043159E-02 
1650	 4.18198735627031E-02 
1651	 4.10100327460486E-02 
1652	 4.11639605546335E-02 
1653	 4.17322424346981E-02 
1654	 4.17309334130206E-02 
1655	 4.21667641870488E-02 
1656	 4.22437791138149E-02 
1657	 4.13922522217365E-02 
1658	 4.10734674100016E-02 
1659	 4.10648570591447E-02 
1660	 0.04096602799789 
1661	 4.12331827568827E-02 
1662	 4.16185682504459E-02 
1663	 4.18121201247372E-02 
1664	 4.15978108778785E-02 
1665	 4.12081312514895E-02 
1666	 4.12233276465523E-02 
1667	 4.14608461261253E-02 
1668	 4.21210627478891E-02 
1669	 4.14915167175235E-02 
1670	 4.06955846704166E-02 
1671	 4.09121915282108E-02 
1672	 4.08523934978319E-02 
1673	 4.06244192822177E-02 
1674	 4.08103832485833E-02 
1675	 4.11007304411222E-02 
1676	 4.08710998519841E-02 
1677	 4.13178173645457E-02 
1678	 4.25331626886521E-02 
1679	 0.042478655104391 
1680	 0.041757595219219 
1681	 4.13525106361286E-02 
1682	 4.04930112487486E-02 
1683	 4.02656053617178E-02 
1684	 4.13470910276344E-02 
1685	 4.14389944040702E-02 
1686	 4.10243016096272E-02 
1687	 4.14672160202147E-02 
1688	 4.08758161176446E-02 
1689	 4.01057279401297E-02 
1690	 4.07861453259849E-02 
1691	 4.09307435089276E-02 
1692	 4.08180603138404E-02 
1693	 4.19494449843949E-02 
1694	 0.042480449657224 
1695	 4.12968601843815E-02 
1696	 4.05870543240611E-02 
1697	 4.09886458739697E-02 
1698	 4.13175588982729E-02 
1699	 4.19815161108282E-02 
1700	 0.042665704886763 
1701	 4.23531629072927E-02 
1702	 4.17247800699451E-02 
1703	 4.19405356124845E-02 
1704	 4.21527620434597E-02 
1705	 4.17621772413763E-02 
1706	 4.14523831165748E-02 
1707	 4.10717734868032E-02 
1708	 4.06146851542256E-02 
1709	 4.07521363692629E-02 
1710	 4.12790517741071E-02 
1711	 4.12475635303249E-02 
1712	 0.041343648494217 
1713	 4.14464120248693E-02 
1714	 4.16906624376025E-02 
1715	 4.25569184427817E-02 
1716	 4.22417110515555E-02 
1717	 4.24527369039819E-02 
1718	 4.23268003524238E-02 
1719	 4.04038129978936E-02 
1720	 3.97565949917995E-02 
1721	 4.05683321772094E-02 
1722	 4.07740962862909E-02 
1723	 0.041608365476364 
1724	 4.18799829130391E-02 
1725	 3.99506482171466E-02 
1726	 3.88122026406633E-02 
1727	 3.87919683611906E-02 
1728	 3.91482000559566E-02 
1729	 4.08511825032707E-02 
1730	 4.18710590473369E-02 
1731	 4.13216787814714E-02 
1732	 4.05730921674782E-02 
1733	 4.05110091501183E-02 
1734	 4.12692815573711E-02 
1735	 4.20922944494604E-02 
1736	 4.25651031922344E-02 
1737	 4.33249609536259E-02 
1738	 4.33875948642283E-02 
1739	 4.18946425142764E-02 
1740	 4.10329655426527E-02 
1741	 4.04947532523844E-02 
1742	 0.039256828027093 
1743	 0.038799491891976 
1744	 3.88843082638667E-02 
1745	 3.87683445134299E-02 
1746	 4.00080958092711E-02 
1747	 3.98223828621478E-02 
1748	 3.86043344945368E-02 
1749	 3.85059799354656E-02 
1750	 3.81307690251791E-02 
1751	 3.77369931969196E-02 
1752	 0.039590692450695 
1753	 3.96178830882338E-02 
1754	 3.61294973120247E-02 
1755	 3.59664821179702E-02 
1756	 3.77170894463272E-02 
1757	 3.58833788247431E-02 
1758	 3.78757396311764E-02 
1759	 3.84678617346208E-02 
1760	 3.79842870548071E-02 
1761	 4.00318447398454E-02 
1762	 4.05557497999905E-02 
1763	 3.88874216153192E-02 
1764	 3.81412812981655E-02 
1765	 3.81107100332654E-02 
1766	 3.76637562885307E-02 
1767	 3.73572648323148E-02 
1768	 3.77778370589145E-02 
1769	 3.74748220362945E-02 
1770	 3.60609251481607E-02 
1771	 3.59356999267814E-02 
1772	 3.50086296885946E-02 
1773	 0.034383538656202 
1774	 3.68282543499461E-02 
1775	 3.89533288241531E-02 
1776	 4.04481826539229E-02 
1777	 4.41643031561159E-02 
1778	 4.35612519782894E-02 
1779	 3.59739578626332E-02 
1780	 3.56053009821834E-02 
1781	 3.78995344831951E-02 
1782	 3.64262821110871E-02 
1783	 3.86509352193795E-02 
1784	 0.039253214714235 
1785	 3.34155630411184E-02 
1786	 3.29301886453601E-02 
1787	 0.039218785661204 
1788	 3.82804907555684E-02 
1789	 3.26816237429262E-02 
1790	 3.24624637113674E-02 
1791	 3.32835494633366E-02 
1792	 0.037548253306227 
1793	 3.43848512000168E-02 
1794	 2.40877176147863E-02 
1795	 1.88185996440351E-02 
1796	 2.18412005990874E-02 
1797	 1.86475492794098E-02 
1798	 0.020918576236837 
1799	 1.70804856510008E-02 
1800	-2.47776428893901E-02 
1801	-3.36323530377808E-02 
1802	-5.12163274420556E-03 
1803	 6.12386184076359E-03 
1804	 6.24295128423778E-02 
1805	 0.114923611941592 
1806	 0.149913481052255 
1807	 0.230385860350191 
1808	 0.546724632490541 
1809	 0.5740551291768 
1810	 8.91801271821733E-02 
1811	 3.81990161047466E-02 
1812	 0.024247670416426 
1813	-6.05918521037475E-02 
1814	-0.104296109429257 
1815	 2.9166093654873E-03 
1816	-67.4600139348122 
1817	-0.112988736405811 
1818	 0.179427274410726 
1819	 0.966654740929618 
1820	 2.76853214672876 
1821	-0.213197627795566 
1822	-8.73593118714812E-02 
1823	-0.144979594085244 
1824	 9.87703686484644E-02 
1825	 0.266925751767566 
1826	 0.478824200596826 
1827	-42.2966040367901 
1828	-5.01791467228446 
1829	 1.75953839610316 
1830	-0.219301893774277 
1831	 3.35964101227309 
1832	 3.50944240498216 
1833	 2.90975047877283 
1834	 3.12840995137553 
1835	 12.9905965580929 
1836	-71.834599616236 
1837	 1.69845260338482 
1838	 11.5783896119245 
1839	-0.294055817665284 
1840	-4.72366776592769E-02 
1841	-5.27917543836855E-02 
1842	 0.241221605466022 
1843	 0.368158425502746 
1844	-0.195953125878536 
1845	-1.66124356756163 
1846	 0.734754890966911 
1847	 1.19810508418238 
1848	 1.49102108088623 
1849	 0.772232044319877 
1850	 0.738497710304711 
1851	 0.950701963862491 
1852	 0.176515879663357 
1853	 0.567581550737568 
1854	 0.322012476730921 
1855	 1.46921296600521 
1856	 0.860107600622755 
1857	-2.4755806535151 
1858	-4.04586387202529 
1859	-4.64783172608283 
1860	-4.86776848409218 
1861	-19.2832001074047 
1862	-0.325945578471887 
1863	-1.37294596078634 
1864	-6.45735188469034 
1865	-1.81028844506117 
1866	-0.853772315910753 
1867	-0.91296566579048 
1868	-0.308047507872455 
1869	-1.34059876277673 
1870	-0.22904423274519 
1871	-2.29212710811684E-02 
1872	 0.205659906189099 
1873	 1.68792695409124E-02 
1874	-2.84062026025858E-03 
1875	 0.16325788084815 
1876	 5.47616811379695E-03 
1877	-0.410036042899933 
1878	-0.354508343066912 
1879	-0.438137178003386 
1880	-0.230543608608091 
1881	 0.444118241724405 
1882	 1.27233217867667 
1883	 1.46825509286704 
1884	 0.795679691880537 
1885	 1.42019580385878 
1886	 0.85763401111145 
1887	-0.925339106259001 
1888	-0.31061197223171 
1889	-0.439338790967572 
1890	 0.542408690787082 
1891	 0.59218136720487 
1892	 0.282162376134106 
1893	-1.09428547715007 
1894	-0.426131024786141 
1895	 0.12924108596474 
1896	 0.620075985645057 
1897	 1.84224482944223 
1898	 8.86816013612488 
1899	 7.47203353179107 
1900	 2.82437754653419 
1901	 0.485871522935923 
1902	 0.496554895339722 
1903	 0.83139862604168 
1904	 0.956089817406694 
1905	 0.993694350126033 
1906	 0.866449493117298 
1907	 0.804747774537352 
1908	 0.634770677190744 
1909	-0.075256517373367 
1910	 0.879438854536134 
1911	-0.935754228055071 
1912	-1.41405340648763 
1913	-0.873025730327502 
1914	 1.0181845583654 
1915	 0.352487286732069 
1916	-1.30263437459479 
1917	-0.492040002890548 
1918	-0.861189897064117 
1919	-1.60871620617079 
1920	-0.256768636403854 
1921	 0.15222323332078 
1922	-0.262703411435056 
1923	-0.456528526793366 
1924	-0.389898452679599 
1925	-0.625551179693864 
1926	-0.989437206536423 
1927	-0.883829133095226 
1928	-0.158098639280386 
1929	-3.2092427085946 
1930	-0.778144552543334 
1931	-0.448133678505785 
1932	-0.460127227419649 
1933	-0.926234085923907 
1934	-1.02744558976254 
1935	-1.42100586540772 
1936	 0.487692775660068 
1937	 0.906974847415582 
1938	 2.62602470381527 
1939	 4.11084957566696 
1940	-181.199931332181 
1941	 1.93670035684405 
1942	 0.395851706242894 
1943	 5.95076834161504 
1944	 3.25560955133279 
1945	 0.880216334183519 
1946	 0.558054694028245 
1947	 0.359056252675591 
1948	 4.97693776162599E-02 
1949	 5.44915611685227E-02 
1950	-6.39519782454822E-02 
1951	-0.283736465408545 
1952	-0.323101312565632 
1953	-0.228580752324456 
1954	-9.48986010481868E-02 
1955	-0.021426036298751 
1956	-2.72972575111809E-02 
1957	-4.09182052499063E-02 
1958	 2.43222217121333E-02 
1959	 3.09030813111879E-02 
1960	 2.17909516017372E-02 
1961	 5.28421960217859E-02 
1962	 2.85445271132446E-02 
1963	-1.40603669481511E-02 
1964	-1.25015954907771E-02 
1965	 1.13579635286573E-02 
1966	 2.34995737115454E-02 
1967	 3.87196382938131E-02 
1968	 4.92794065313049E-02 
1969	 5.40160012470068E-02 
1970	 4.21513229611529E-02 
1971	 2.57830808864152E-02 
1972	 2.43521922454115E-02 
1973	 2.31052201543212E-02 
1974	 2.11525335034732E-02 
1975	 2.70845007167974E-02 
1976	 2.40632667818563E-02 
1977	 2.36116398045255E-02 
1978	 3.25812522359166E-02 
1979	 3.45452700101821E-02 
1980	 3.27700637837059E-02 
1981	 3.61031177344125E-02 
1982	 4.50262412103103E-02 
1983	 4.14234428334462E-02 
1984	 3.78025989181514E-02 
1985	 4.05577429769891E-02 
1986	 3.61825005437058E-02 
1987	 3.17095324985242E-02 
1988	 3.03945836433378E-02 
1989	 3.20731457702383E-02 
1990	 3.14891948258719E-02 
1991	 2.55593948768645E-02 
1992	 2.54469210017257E-02 
1993	 2.66578505516351E-02 
1994	 2.83549321467253E-02 
1995	 3.16608707794969E-02 
1996	 3.60764981345892E-02 
1997	 3.74840199436722E-02 
1998	 4.00540877145316E-02 
1999	 3.67432375559476E-02 
2000	 3.83855226353673E-02 
2001	 3.75579511183917E-02 
2002	 2.99827277588479E-02 
2003	 0.023445299361215 
2004	 9.81767339089679E-03 
2005	 7.09672100419156E-03 
2006	 3.78523027693117E-03 
2007	 1.63040043328178E-03 
2008	 1.26585676582676E-02 
2009	 1.10023218093383E-02 
2010	-2.83308375971793E-03 
2011	 3.84700900326046E-03 
2012	 1.71477148070218E-02 
2013	 1.74852439612109E-02 
2014	 3.01931711220299E-02 
2015	 4.49192622361416E-02 
2016	 3.87026447724261E-02 
2017	 3.43795709221473E-02 
2018	 0.036434243994145 
2019	 3.70091588219476E-02 
2020	 3.86238016943315E-02 
2021	 4.21386277666217E-02 
2022	 4.60060251687869E-02 
2023	 4.58911952576581E-02 
2024	 4.58391214242798E-02 
2025	 4.59592059798515E-02 
2026	 4.49314904980252E-02 
2027	 4.24623250792347E-02 
2028	 4.13885868945636E-02 
2029	 3.90046051256324E-02 
2030	 3.46956956833909E-02 
2031	 3.44235697916549E-02 
2032	 0.035181470040025 
2033	 3.67240574378937E-02 
2034	 0.038428736280489 
2035	 3.63361844147068E-02 
2036	 3.61122090779699E-02 
2037	 3.82359103832366E-02 
2038	 3.60717461932801E-02 
2039	 3.43953018850536E-02 
2040	 3.29659693665509E-02 
2041	 3.06885913282153E-02 
2042	 2.61915648159398E-02 
2043	 2.49572545073729E-02 
2044	 2.58641174061357E-02 
2045	 2.42552398956373E-02 
2046	 2.41647839143655E-02 
2047	 2.65476240155387E-02 
2048	 2.87082986634656E-02 
2049	 3.14151880275646E-02 
2050	 0.037816869818487 
2051	 4.04889716501699E-02 
2052	 3.91346052875531E-02 
2053	 0.041885545475564 
2054	 4.20014466257245E-02 
2055	 3.83315641651713E-02 
2056	 3.71983322568359E-02 
2057	 3.78720811854838E-02 
2058	 3.76346885834533E-02 
2059	 3.75070157752219E-02 
2060	 3.72382375479631E-02 
2061	 3.77063987035464E-02 
2062	 3.67718362171487E-02 
2063	 3.38869939457985E-02 
2064	 3.04064103501765E-02 
2065	 3.09860964446211E-02 
2066	 3.30025572645528E-02 
2067	 3.48131226128976E-02 
2068	 0.040831525453891 
2069	 4.24737923773296E-02 
2070	 4.00825799924799E-02 
2071	 3.92372333054905E-02 
2072	 3.81177115834412E-02 
2073	 3.78084715853965E-02 
2074	 3.89584532778219E-02 
2075	 3.83641302478366E-02 
2076	 3.68271508679261E-02 
2077	 3.59260439540939E-02 
2078	 3.37318599016431E-02 
2079	 3.39253088008093E-02 
2080	 3.56488835059557E-02 
2081	 3.73990580710266E-02 
2082	 0.039197532106004 
2083	 4.19031141879432E-02 
2084	 4.05629397689859E-02 
2085	 3.86367747551657E-02 
2086	 3.71298138678558E-02 
2087	 3.28946312113077E-02 
2088	 0.031785083870125 
2089	 3.20047065513309E-02 
2090	 3.09122321972872E-02 
2091	 3.17547890502604E-02 
2092	 3.29845156581489E-02 
2093	 3.51464932701889E-02 
2094	 3.58792431562661E-02 
2095	 3.70091646166016E-02 
2096	 3.77379974511681E-02 
2097	 3.78700253446098E-02 
2098	 0.037032182735192 
2099	 3.60208489148616E-02 
2100	 3.42398330717416E-02 
2101	 3.22602868675117E-02 
2102	 3.19891400780468E-02 
2103	 3.37493906398426E-02 
2104	 3.50115813305443E-02 
2105	 3.66062977849687E-02 
2106	 3.81885401037097E-02 
2107	 3.78779994627767E-02 
2108	 3.84676143979017E-02 
2109	 3.84422422221021E-02 
2110	 3.79210733343738E-02 
2111	 4.01532291605219E-02 
2112	 4.11826841200288E-02 
2113	 4.17118173582598E-02 
2114	 4.23001282744254E-02 
2115	 4.29649229797738E-02 
2116	 4.36579716355321E-02 
2117	 4.30007458658463E-02 
2118	 4.07388585191675E-02 
2119	 3.98981033731627E-02 
2120	 3.91415579323695E-02 
2121	 3.68717810494152E-02 
2122	 3.43542974973243E-02 
2123	 3.36646763986724E-02 
2124	 3.15781950894018E-02 
2125	 3.10906093461727E-02 
2126	 3.39929101862049E-02 
2127	 3.55677694099436E-02 
2128	 3.59302875700694E-02 
2129	 3.61443859942846E-02 
2130	 3.39797781385336E-02 
2131	 3.31139153696048E-02 
2132	 3.41224171629541E-02 
2133	 3.26172440200278E-02 
2134	 3.23080991924177E-02 
2135	 3.29429479618342E-02 
2136	 3.43448509241369E-02 
2137	 3.72663525322963E-02 
2138	 3.81028729852576E-02 
2139	 3.91297146763583E-02 
2140	 4.03017442645541E-02 
2141	 3.86907713244701E-02 
2142	 0.038130828582427 
2143	 3.90391610282208E-02 
2144	 3.98818958529296E-02 
2145	 4.00030604677836E-02 
2146	 4.04060054583392E-02 
2147	 4.11614709620019E-02 
2148	 4.33874422397174E-02 
2149	 4.32376644267577E-02 
2150	 4.13727970737142E-02 
2151	 3.99848837633349E-02 
2152	 3.81733887271401E-02 
2153	 3.62923978040353E-02 
2154	 3.47962229719028E-02 
2155	 0.034827348598554 
2156	 0.033320250036478 
2157	 0.032772098339481 
2158	 3.37421216748107E-02 
2159	 3.37792875990639E-02 
2160	 3.30599649174574E-02 
2161	 3.29985117744897E-02 
2162	 3.19939392934502E-02 
2163	 3.34979787970592E-02 
2164	 0.03843129881248 
2165	 3.94653501923462E-02 
2166	 4.02940679965239E-02 
2167	 0.040107375872694 
2168	 3.58314180588696E-02 
2169	 3.44178038833812E-02 
2170	 3.49782075734936E-02 
2171	 3.32459727312143E-02 
2172	 3.57392178884117E-02 
2173	 3.74865219716855E-02 
2174	 3.68090546795673E-02 
2175	 3.95084850032828E-02 
2176	 4.00747574374346E-02 
2177	 3.93146760398477E-02 
2178	 4.22698567768027E-02 
2179	 4.16515927621794E-02 
2180	 3.81789859159434E-02 
2181	 3.75289236316781E-02 
2182	 3.39756872456047E-02 
2183	 2.99027192147186E-02 
2184	 3.10613473276592E-02 
2185	 3.13821257342376E-02 
2186	 3.08985433197461E-02 
2187	 3.17656015035852E-02 
2188	 3.33183516035636E-02 
2189	 3.29041990601968E-02 
2190	 3.29780256123689E-02 
2191	 3.60341938402179E-02 
2192	 3.63104130545247E-02 
2193	 3.28157115257199E-02 
2194	 3.30594413118909E-02 
2195	 3.65432355350954E-02 
2196	 3.69645854088629E-02 
2197	 3.53040091982897E-02 
2198	 3.81010116918546E-02 
2199	 4.56511178331188E-02 
2200	 4.19663348876422E-02 
2201	 4.27398372296125E-02 
2202	 4.52318419898349E-02 
2203	 4.07809653605658E-02 
2204	 4.11406835697819E-02 
2205	 4.51649961636929E-02 
2206	 0.047760242576824 
2207	 4.56014019417609E-02 
2208	 0.040717855467103 
2209	 3.74557256371705E-02 
2210	 3.53735202767401E-02 
2211	 3.46820747976845E-02 
2212	 3.40669461443356E-02 
2213	 3.66617894378145E-02 
2214	 3.93509820254039E-02 
2215	 0.037477349777879 
2216	 4.11937153494105E-02 
2217	 4.35604186648312E-02 
2218	 0.043414174918195 
2219	 4.11710333121536E-02 
2220	 4.08040295733253E-02 
2221	 3.96838428417368E-02 
2222	 3.32297439305873E-02 
2223	 3.25258474858331E-02 
2224	 3.63404798688317E-02 
2225	 3.71130009631911E-02 
2226	 3.85865034592529E-02 
2227	 3.87926886894824E-02 
2228	 3.64101345712924E-02 
2229	 3.67673647158962E-02 
2230	 4.01374587900482E-02 
2231	 3.96073809530208E-02 
2232	 3.84658889944328E-02 
2233	 3.74775140046994E-02 
2234	 3.21618092499666E-02 
2235	 2.90795991172871E-02 
2236	 3.50370314882553E-02 
2237	 4.02615143186506E-02 
2238	 3.84428363507939E-02 
2239	 3.26522465238655E-02 
2240	 3.01158771607309E-02 
2241	 2.91708681543662E-02 
2242	 2.97708203763189E-02 
2243	 3.40921730733938E-02 
2244	 3.37677118964062E-02 
2245	 2.88124089686564E-02 
2246	 3.02846781922914E-02 
2247	 3.50710278361026E-02 
2248	 3.52972668589976E-02 
2249	 3.30617791910883E-02 
2250	 2.85563820329206E-02 
2251	 2.60676277974445E-02 
2252	 3.06642178894963E-02 
2253	 3.73187116214807E-02 
2254	 0.043166962642355 
2255	 4.53385753817985E-02 
2256	 3.98286287822542E-02 
2257	 3.73609863057573E-02 
2258	 3.91279497438625E-02 
2259	 3.75167361149749E-02 
2260	 3.75204011896446E-02 
2261	 4.07461442586659E-02 
2262	 3.84869664846288E-02 
2263	 3.20377793964042E-02 
2264	 3.08467219364025E-02 
2265	 3.10362919997635E-02 
2266	 2.93563433278465E-02 
2267	 2.64620371165907E-02 
2268	 2.88358966499528E-02 
2269	 3.49302243766853E-02 
2270	 3.53846449982885E-02 
2271	 3.67107193371946E-02 
2272	 3.74506723917208E-02 
2273	 3.34484337400825E-02 
2274	 2.82677210601655E-02 
2275	 2.46441399319654E-02 
2276	 2.32490169657608E-02 
2277	 1.86983794096854E-02 
2278	 1.75441824693181E-02 
2279	 2.13528361902318E-02 
2280	 2.29816612275648E-02 
2281	 2.32289781063101E-02 
2282	 2.36654738949691E-02 
2283	 0.029110504603677 
2284	 3.50836334708228E-02 
2285	 4.30064953225195E-02 
2286	 4.45091538200716E-02 
2287	 0.040153838674067 
2288	 3.85921459484859E-02 
2289	 3.59759340975012E-02 
2290	 3.05221596044182E-02 
2291	 2.42531666138598E-02 
2292	 2.34100797376808E-02 
2293	 2.58579753283095E-02 
2294	 3.07961100573739E-02 
2295	 3.37807244885676E-02 
2296	 2.53233519278738E-02 
2297	 1.37027989609965E-02 
2298	 5.41166107462217E-03 
2299	 1.84535335272497E-03 
2300	 8.67066855529304E-03 
2301	 1.75408761387658E-02 
2302	 2.28667760321269E-02 
2303	 0.032794735887364 
2304	 3.87439455752156E-02 
2305	 3.32295033770347E-02 
2306	 2.39173885524025E-02 
2307	 2.09193638617592E-02 
2308	 0.019796530244308 
2309	 1.60320698539269E-02 
2310	 2.62024718728582E-02 
2311	 3.42440865364232E-02 
2312	 3.38669610702307E-02 
2313	 4.07542330685128E-02 
2314	 4.51503679621732E-02 
2315	 4.55124873485721E-02 
2316	 4.00488596729053E-02 
2317	 0.038931619486115 
2318	 4.83288905337226E-02 
2319	 4.14564160311833E-02 
2320	 3.36338996005807E-02 
2321	 3.99778450852794E-02 
2322	 2.97194291254809E-02 
2323	 1.86037244494907E-02 
2324	 3.38846214262265E-02 
2325	 3.71313238291899E-02 
2326	 3.33524238692359E-02 
2327	 5.26160630582066E-02 
2328	 4.71724215013483E-02 
2329	 3.31872587349921E-02 
2330	 4.49564901885677E-02 
2331	 4.66407557973134E-02 
2332	 4.30019388013015E-02 
2333	 0.043276074865692 
2334	 3.04697518632503E-02 
2335	 1.97801563849107E-02 
2336	 0.01435647064751 
2337	 7.86999037889699E-03 
2338	-8.90719164979707E-03 
2339	-4.25749322521975E-02 
2340	-3.50441977816024E-02 
2341	-1.43667151742219E-02 
2342	-2.56948778605359E-03 
2343	 3.52502525682164E-02 
2344	 0.055072921228854 
2345	 4.22354796774638E-02 
2346	 1.92347203582507E-02 
2347	 7.65434086991418E-03 
2348	-9.6074611074506E-03 
2349	-3.59764406619421E-03 
2350	 2.02489081327682E-02 
2351	-1.9434380198909E-03 
2352	-1.87319241732231E-02 
2353	 1.71865808557893E-02 
2354	 6.62869232725411E-02 
2355	 0.111695220064584 
2356	 0.14245430157128 
2357	 8.06575524218687E-02 
2358	 2.27382228004697E-02 
2359	 4.29662923518133E-02 
2360	 3.77494756819221E-02 
2361	 5.84565516520975E-02 
2362	 6.04462081315441E-02 
2363	 1.14411803698587E-03 
2364	-4.64807593885747E-02 
2365	-7.10130376313506E-02 
2366	-5.16826825196951E-02 
2367	-2.26758112853903E-02 
2368	 7.66396197280685E-03 
2369	 2.97685087710466E-02 
2370	-9.50750070900893E-03 
2371	-0.047670877980742 
2372	 6.56857413747076E-03 
2373	 3.21035486663861E-02 
2374	-3.74179014483314E-02 
2375	-9.49307950307061E-02 
2376	-0.174453496658406 
2377	-0.190284100041248 
2378	-0.146222197363656 
2379	-0.110136636933946 
2380	 0.004947853315273 
2381	-1.48757403170233E-02 
2382	-8.04098437832204E-02 
2383	-3.82018697933874E-02 
2384	-7.51730912022991E-02 
2385	-0.142964944745116 
2386	-0.112025412592201 
2387	 1.14032227165678E-02 
2388	 1.23321305941217E-02 
2389	-2.69518437659218E-02 
2390	 8.20215270683268E-03 
2391	-0.164854573073514 
2392	-0.291792885596367 
2393	-0.176285961009933 
2394	-0.123089422876583 
2395	-7.66370658589077E-02 
2396	-4.54267781035941E-02 
2397	-8.19660033667036E-02 
2398	-7.36865893816387E-02 
2399	 0.032042162595255 
2400	 0.166015897730406 
2401	 0.223716725467717 
2402	 0.100773827791495 
2403	-1.83655365930976E-02 
2404	-7.23250155380859E-02 
2405	-0.094969745439564 
2406	-8.95331970017833E-02 
2407	-5.62961567494272E-02 
2408	-6.53681267083275E-02 
2409	-0.228101696115201 
2410	-0.217901345961201 
2411	 0.121275822387476 
2412	 0.658006293035065 
2413	 1.31613579167328 
2414	 0.964963170658821 
2415	 0.563670165919758 
2416	 0.133733986288002 
2417	 5.22484486208618E-02 
2418	 0.192094978714978 
2419	 0.176706514295146 
2420	 6.14934745190761E-02 
2421	-0.167786579840207 
2422	-0.286139442089517 
2423	-1.61997571564452 
2424	-1.71567843315016 
2425	 0.311456460223637 
2426	 1.882590758622 
2427	 0.766136197234907 
2428	 0.769028012320118 
2429	 0.243893483461978 
2430	-8.31408115550479E-02 
2431	 0.112776362917639 
2432	 0.291224528397529 
2433	-0.209435997965066 
2434	-0.223145422484858 
2435	-0.308013425910086 
2436	-1.14321767095922 
2437	-135.487646882914 
2438	 0.916645380995762 
2439	 2.99861211773789 
2440	-45.2722329962286 
2441	-27.40585197264 
2442	-1.09571174768082 
2443	-1.88540335210625 
2444	 24.504031977984 
2445	 7.40733169195246 
2446	 1.32119682130188 
2447	 0.524396401314217 
2448	 0.160331088478637 
2449	-0.444858010213802 
2450	-0.54612754826468 
2451	-0.38661677938001 
2452	-0.409953022228057 
2453	-0.532593325157261 
2454	-6.18373737126439E-02 
2455	-6.17525366494803E-02 
2456	-0.201908649042858 
2457	-1.77026021629047E-03 
2458	-0.388359818584391 
2459	-1.23417259906762 
2460	 1.19979692845142 
2461	 2.02070017455772 
2462	 1.33905062387975 
2463	 1.3055136322812 
2464	 1.23797180157707 
2465	 0.847586906831311 
2466	 0.985569382044834 
2467	 0.847432147996945 
2468	-0.770709262518463 
2469	-2.15339839884295 
2470	-1.0890777056902 
2471	-10.3598631768012 
2472	-7.59583100597596 
2473	-2.29956218662318 
2474	-2.20447528561073 
2475	-0.16123162475757 
2476	-0.240201673429653 
2477	-0.94005070907832 
2478	-2.88221295666443 
2479	 0.545609594886581 
2480	-0.112172314181782 
2481	-0.372681048369361 
2482	-0.314819317254228 
2483	-0.414061415109869 
2484	-0.10917765460015 
2485	 0.210129737281534 
2486	 0.05931383213475 
2487	 0.244402469591911 
2488	-0.477317988679602 
2489	-0.80642702467715 
2490	-0.784263462149051 
2491	-0.665857719021674 
2492	-0.243192238119895 
2493	 0.352092257984878 
2494	 0.508464767825096 
2495	 3.76193162519365 
2496	-20.3050216064585 
2497	-6.21113109391339 
2498	-16.8789774160783 
2499	-9.03954479105479 
2500	-4.5065571459971 
