Wavelength	rt0713west_far_cloud00001.asd
350	 4.93050844756306E-02 
351	 5.01179412141224E-02 
352	 4.99111516226182E-02 
353	 4.96530265688576E-02 
354	 4.99673011118625E-02 
355	 4.98089017565588E-02 
356	 4.98706517440984E-02 
357	 0.050231349912871 
358	 5.06087636881556E-02 
359	 5.00222464221337E-02 
360	 5.00034172291195E-02 
361	 5.03845537025507E-02 
362	 4.99631358858515E-02 
363	 5.02068065901555E-02 
364	 5.02110573976626E-02 
365	 4.97813302634724E-02 
366	 5.02194298590958E-02 
367	 5.04936316066263E-02 
368	 0.050631436411086 
369	 5.08261241163368E-02 
370	 0.050830380480151 
371	 5.08558134652856E-02 
372	 5.08489441265299E-02 
373	 5.06668717191715E-02 
374	 5.07851647978682E-02 
375	 5.12761280483846E-02 
376	 5.18294331150866E-02 
377	 5.17248523789743E-02 
378	 5.19187358587954E-02 
379	 5.20702138053035E-02 
380	 5.18780564688459E-02 
381	 5.21700692905726E-02 
382	 5.22133341770971E-02 
383	 5.23486802562459E-02 
384	 5.31077715338648E-02 
385	 5.25518203466576E-02 
386	 5.20481924030358E-02 
387	 5.23889302431836E-02 
388	 5.33352273999804E-02 
389	 5.34075777514436E-02 
390	 5.32621571446942E-02 
391	 5.35660695922577E-02 
392	 5.39082734609761E-02 
393	 0.054172103055562 
394	 5.42450573398256E-02 
395	 5.41502857050347E-02 
396	 5.44430879916915E-02 
397	 5.47395498220586E-02 
398	 5.48764626007234E-02 
399	 5.49324182608123E-02 
400	 5.47782085009049E-02 
401	 5.48154802595134E-02 
402	 5.51920093476226E-02 
403	 5.53641301866441E-02 
404	 5.54130238218804E-02 
405	 5.55546277462443E-02 
406	 5.59370920816257E-02 
407	 5.59704856312834E-02 
408	 5.59791044816663E-02 
409	 0.056127048686551 
410	 5.63496061079124E-02 
411	 5.63484953997615E-02 
412	 5.64170740152525E-02 
413	 5.67045922431955E-02 
414	 5.67362432385998E-02 
415	 5.69350493612847E-02 
416	 5.72329515849401E-02 
417	 5.74146066242758E-02 
418	 5.76934172157135E-02 
419	 5.79090602077149E-02 
420	 5.80626024517019E-02 
421	 5.83454480418913E-02 
422	 5.85271397061125E-02 
423	 5.87322981096399E-02 
424	 0.059051661555653 
425	 5.92590487992833E-02 
426	 5.96252516170094E-02 
427	 6.00600522879336E-02 
428	 6.03369710345657E-02 
429	 6.06348530787219E-02 
430	 6.09813217656831E-02 
431	 0.061367810064755 
432	 6.17614819369019E-02 
433	 6.19545843273428E-02 
434	 6.21525233554193E-02 
435	 6.25519571062387E-02 
436	 6.30659945340223E-02 
437	 6.34733798860729E-02 
438	 6.37915922331794E-02 
439	 6.41615769627275E-02 
440	 6.45225717403684E-02 
441	 0.06481071545963 
442	 6.50654814301782E-02 
443	 6.54821730259255E-02 
444	 6.57632634800915E-02 
445	 6.60295067688442E-02 
446	 6.64359706041673E-02 
447	 6.68173234041418E-02 
448	 6.70791792470174E-02 
449	 6.72766749647515E-02 
450	 6.75653712044117E-02 
451	 6.78726902573967E-02 
452	 0.068092865444021 
453	 6.82266303515387E-02 
454	 6.84999373565092E-02 
455	 6.87491517741837E-02 
456	 0.068956207658678 
457	 6.91503365446087E-02 
458	 6.93354532749123E-02 
459	 6.94502572408275E-02 
460	 6.95235192368722E-02 
461	 6.96744983024237E-02 
462	 6.99303892710562E-02 
463	 7.01399722966028E-02 
464	 7.02241664662618E-02 
465	 7.03973079551842E-02 
466	 7.06011622396293E-02 
467	 7.07517325148878E-02 
468	 7.07933389535372E-02 
469	 7.09950573517343E-02 
470	 7.12455693901417E-02 
471	 7.14457720041547E-02 
472	 7.15637732813524E-02 
473	 7.17142298657055E-02 
474	 7.19017232480181E-02 
475	 7.21058859503883E-02 
476	 7.23433778953668E-02 
477	 7.25214647065099E-02 
478	 7.27493925163928E-02 
479	 7.32174432510631E-02 
480	 7.33625908254444E-02 
481	 7.35000785323994E-02 
482	 7.38393066899771E-02 
483	 7.41279749893785E-02 
484	 7.44834011527546E-02 
485	 0.074841161379944 
486	 7.51164171289443E-02 
487	 7.54579204304581E-02 
488	 7.58365831593388E-02 
489	 7.62082468982548E-02 
490	 7.65309361750694E-02 
491	 7.68795792589253E-02 
492	 7.72384926726571E-02 
493	 7.76098968715396E-02 
494	 7.81082153792418E-02 
495	 7.86278956993957E-02 
496	 7.90887464246003E-02 
497	 7.94505631963645E-02 
498	 7.98549362539762E-02 
499	 8.03867623840133E-02 
500	 8.09749161162424E-02 
501	 8.13209396740765E-02 
502	 8.18293619873121E-02 
503	 8.24762706010745E-02 
504	 8.31116225916683E-02 
505	 0.083635702269058 
506	 8.40894760125674E-02 
507	 8.45759950414191E-02 
508	 8.52270126272794E-02 
509	 8.59148530625166E-02 
510	 8.65266421476459E-02 
511	 8.70494286025477E-02 
512	 0.087694616696648 
513	 8.83152264270354E-02 
514	 8.88784209597375E-02 
515	 8.94333287804315E-02 
516	 9.02549044862354E-02 
517	 9.11320006941339E-02 
518	 9.18907968445987E-02 
519	 9.24730453896346E-02 
520	 9.31624901403061E-02 
521	 9.38952565357869E-02 
522	 9.45813547963955E-02 
523	 9.53359947204432E-02 
524	 9.61056564835127E-02 
525	 9.68392369630985E-02 
526	 9.75094343204014E-02 
527	 9.82945856310277E-02 
528	 9.90379264321378E-02 
529	 9.96750764322044E-02 
530	 0.100419338326692 
531	 0.101161621803222 
532	 0.101907376411879 
533	 0.102677670575823 
534	 0.103364748369484 
535	 0.104068647343969 
536	 0.104834362443848 
537	 0.10562547306246 
538	 0.106311517864001 
539	 0.107008394282318 
540	 0.107815043331792 
541	 0.108562509860462 
542	 0.109334812982762 
543	 0.110087002405082 
544	 0.11072484389037 
545	 0.111497680620868 
546	 0.112280388288576 
547	 0.112990163177929 
548	 0.113725807228251 
549	 0.114412200210744 
550	 0.115093878090924 
551	 0.115830871724374 
552	 0.116500717682092 
553	 0.117236293884008 
554	 0.118025123466856 
555	 0.118675880460204 
556	 0.119304708248204 
557	 0.119927313782074 
558	 0.120539790965193 
559	 0.12117394346063 
560	 0.121777962151715 
561	 0.122338163710667 
562	 0.122865998820684 
563	 0.123317199803352 
564	 0.12376345878049 
565	 0.12423606228701 
566	 0.124665701141265 
567	 0.125012280070184 
568	 0.125381037952614 
569	 0.125872137553875 
570	 0.126224507156806 
571	 0.126548241929794 
572	 0.126889996183244 
573	 0.127201155924634 
574	 0.127409075288802 
575	 0.127604400154307 
576	 0.127866008443115 
577	 0.128111063681071 
578	 0.128328539296859 
579	 0.128521361814902 
580	 0.12869782233013 
581	 0.128806157461783 
582	 0.12888628012322 
583	 0.12894202669155 
584	 0.128877620366741 
585	 0.128918370224162 
586	 0.128962137290818 
587	 0.128816174788966 
588	 0.12854295764559 
589	 0.128444274411316 
590	 0.128485955152962 
591	 0.128276664483015 
592	 0.128225793594291 
593	 0.128158173866324 
594	 0.127876458266805 
595	 0.12745477420145 
596	 0.127124732871068 
597	 0.126815936433834 
598	 0.126315937802069 
599	 0.125847722016686 
600	 0.125507715022044 
601	 0.125305752082411 
602	 0.125140304305555 
603	 0.124937743555598 
604	 0.124796564532836 
605	 0.124816807868403 
606	 0.124775228905569 
607	 0.124739719966559 
608	 0.124740993149848 
609	 0.124758089583956 
610	 0.124825774961 
611	 0.124864251699965 
612	 0.124827501030097 
613	 0.124833938704179 
614	 0.124850096417065 
615	 0.12484877370501 
616	 0.124820607062509 
617	 0.124917485544637 
618	 0.124874055883588 
619	 0.124656656286113 
620	 0.124674547240599 
621	 0.124619241064072 
622	 0.124572138460812 
623	 0.124663941904743 
624	 0.124643732819399 
625	 0.12468560061961 
626	 0.124741768993511 
627	 0.124561673496583 
628	 0.124503253327437 
629	 0.124549606917427 
630	 0.124598849857747 
631	 0.124545094491151 
632	 0.124429105142437 
633	 0.124265773253209 
634	 0.124085076975192 
635	 0.124113475336679 
636	 0.124064403583721 
637	 0.123822691838739 
638	 0.123578685943665 
639	 0.123431448601863 
640	 0.123286289686876 
641	 0.123062420505797 
642	 0.123042287763857 
643	 0.122759310289189 
644	 0.122308743064463 
645	 0.122229814287355 
646	 0.122070459214007 
647	 0.121788474439262 
648	 0.121455138320489 
649	 0.121187004798207 
650	 0.121083313500946 
651	 0.121035395724411 
652	 0.120857581014035 
653	 0.120459329530514 
654	 0.120053922784341 
655	 0.119791706791916 
656	 0.119713435479596 
657	 0.119275797436273 
658	 0.11880611630195 
659	 0.118584542437689 
660	 0.118251052429801 
661	 0.117958014162217 
662	 0.117722433939494 
663	 0.117481568767699 
664	 0.117207890948827 
665	 0.116946964631248 
666	 0.116741068540729 
667	 0.116615923417037 
668	 0.116548678406481 
669	 0.116447597525345 
670	 0.116271894375892 
671	 0.116348076049549 
672	 0.116355784058137 
673	 0.116270042460642 
674	 0.116356332701833 
675	 0.116429319074602 
676	 0.116576334773667 
677	 0.116819959959479 
678	 0.116873582328274 
679	 0.117081430486967 
680	 0.117463413926162 
681	 0.117872906868088 
682	 0.118149020313546 
683	 0.118574408259464 
684	 0.119192553630293 
685	 0.119730090437378 
686	 0.120336386371601 
687	 0.120962281172075 
688	 0.121500746279434 
689	 0.121969152554968 
690	 0.122440892749493 
691	 0.122970983092867 
692	 0.123570235611278 
693	 0.12382916821723 
694	 0.124102796121967 
695	 0.124528651921281 
696	 0.124762973110124 
697	 0.124786084658323 
698	 0.12479486162391 
699	 0.124932648821575 
700	 0.124635539648492 
701	 0.124589391299038 
702	 0.124668793045001 
703	 0.124148755188662 
704	 0.12386113920571 
705	 0.123577242458677 
706	 0.123055266818151 
707	 0.122334106988855 
708	 0.121642724470581 
709	 0.120835235836734 
710	 0.119705605773206 
711	 0.118567282382651 
712	 0.117331808876486 
713	 0.115979654336651 
714	 0.114544847349077 
715	 0.112988297502956 
716	 0.111310178725087 
717	 0.10965446375295 
718	 0.107836455309136 
719	 0.105677174764997 
720	 0.103836137083005 
721	 0.102446842925123 
722	 0.100603310483536 
723	 9.84336378524161E-02 
724	 9.64081403125128E-02 
725	 9.45622033285106E-02 
726	 9.22805927939589E-02 
727	 8.98068827125484E-02 
728	 8.73605660834861E-02 
729	 8.43815249270445E-02 
730	 8.14647526524813E-02 
731	 7.88852123964133E-02 
732	 7.65235139269484E-02 
733	 7.44533127068695E-02 
734	 7.27901578503867E-02 
735	 7.14525273086317E-02 
736	 7.00486838254998E-02 
737	 0.069126472279244 
738	 6.84581018150826E-02 
739	 6.78134062670394E-02 
740	 6.74767246651657E-02 
741	 6.72621224549572E-02 
742	 6.70668524155615E-02 
743	 6.68583896105479E-02 
744	 6.67921229737694E-02 
745	 6.67746450770349E-02 
746	 6.67357731261454E-02 
747	 6.66716149946839E-02 
748	 6.65150297451201E-02 
749	 6.64529953953797E-02 
750	 6.65758679712619E-02 
751	 6.64404456666871E-02 
752	 0.066366932100728 
753	 6.64373491072505E-02 
754	 6.65700521413289E-02 
755	 6.65687469421201E-02 
756	 0.06650007744691 
757	 6.64479454283605E-02 
758	 6.65013898142502E-02 
759	 6.68016999721229E-02 
760	 0.067073441319797 
761	 6.68668504308219E-02 
762	 6.69523644156078E-02 
763	 6.68847848862094E-02 
764	 6.68626544335251E-02 
765	 6.71186799429942E-02 
766	 6.72037905031407E-02 
767	 6.73261212278654E-02 
768	 6.75482330769727E-02 
769	 6.77765800840123E-02 
770	 6.78583298793343E-02 
771	 6.79737254203373E-02 
772	 0.068246572575581 
773	 6.84548677421329E-02 
774	 6.86972397995806E-02 
775	 6.89976863979459E-02 
776	 6.93396718013789E-02 
777	 6.96378400365044E-02 
778	 6.99960393953727E-02 
779	 7.04107852299553E-02 
780	 7.07625320806615E-02 
781	 7.10399912662809E-02 
782	 7.13643092742376E-02 
783	 7.18045187283461E-02 
784	 7.22631298949524E-02 
785	 7.27073602330639E-02 
786	 7.31071527007412E-02 
787	 7.34796373661762E-02 
788	 7.40498719258724E-02 
789	 7.45881241169794E-02 
790	 7.50473625539081E-02 
791	 7.55531917666892E-02 
792	 7.60494321381873E-02 
793	 7.65918247182544E-02 
794	 7.71329161194602E-02 
795	 7.74060766914284E-02 
796	 7.78970253656448E-02 
797	 7.84506276215436E-02 
798	 7.88366836318144E-02 
799	 7.91413976938111E-02 
800	 0.079536856601986 
801	 8.00589508259446E-02 
802	 8.06026117629172E-02 
803	 8.07731481314079E-02 
804	 8.08193532461811E-02 
805	 0.080954327149698 
806	 8.12556686158778E-02 
807	 8.12282068731756E-02 
808	 8.10025422701566E-02 
809	 8.08090621190857E-02 
810	 8.07957583811095E-02 
811	 8.06241648168736E-02 
812	 8.02406734135507E-02 
813	 7.97433628691705E-02 
814	 7.92797635745897E-02 
815	 7.87663996762908E-02 
816	 0.078214566247217 
817	 7.76834913278126E-02 
818	 7.69385382480391E-02 
819	 7.61547316677355E-02 
820	 7.53749119657222E-02 
821	 7.44970060458966E-02 
822	 7.27587049669726E-02 
823	 7.08929685600997E-02 
824	 6.95678593653141E-02 
825	 6.82128111654334E-02 
826	 6.64470198789657E-02 
827	 6.43188469003249E-02 
828	 6.22389581438069E-02 
829	 6.04189038480415E-02 
830	 0.058665475847927 
831	 5.70594574464566E-02 
832	 5.59222114379659E-02 
833	 5.52174354613027E-02 
834	 5.42259636784529E-02 
835	 5.30069236256229E-02 
836	 5.26616668721906E-02 
837	 5.21491542379941E-02 
838	 5.17050737500071E-02 
839	 5.15364564001435E-02 
840	 5.10656154258106E-02 
841	 5.07011831039725E-02 
842	 0.050352776104819 
843	 4.98724375839905E-02 
844	 4.96960874062355E-02 
845	 4.95248427201276E-02 
846	 4.92286246775749E-02 
847	 4.88340925745679E-02 
848	 4.84863540829044E-02 
849	 4.80624794328804E-02 
850	 4.76713579482812E-02 
851	 4.77032836308029E-02 
852	 4.74656462244017E-02 
853	 0.047221622183156 
854	 4.71439390280071E-02 
855	 4.67702032854093E-02 
856	 4.64422470091129E-02 
857	 4.62623895946803E-02 
858	 4.61603696305722E-02 
859	 0.045682274789162 
860	 4.57069432567082E-02 
861	 4.58130991179114E-02 
862	 4.51750579153735E-02 
863	 4.49250877991951E-02 
864	 4.47515601538403E-02 
865	 4.45524389845328E-02 
866	 4.44481353660691E-02 
867	 4.39487925897621E-02 
868	 4.34026169934798E-02 
869	 4.31038567894425E-02 
870	 4.31019403095453E-02 
871	 4.27584255463844E-02 
872	 4.26162408650645E-02 
873	 4.28625735773406E-02 
874	 4.23037249761438E-02 
875	 0.041870273643154 
876	 4.17584021866582E-02 
877	 4.17504028277879E-02 
878	 4.10341114241405E-02 
879	 4.07476696821887E-02 
880	 4.05557940984822E-02 
881	 3.96953856280444E-02 
882	 3.93066375423062E-02 
883	 3.93893495706046E-02 
884	 3.95340263639006E-02 
885	 3.91829669987657E-02 
886	 3.88779320399998E-02 
887	 0.03858258393701 
888	 3.82978129281743E-02 
889	 3.81333695257856E-02 
890	 3.81863317352706E-02 
891	 3.81836917964302E-02 
892	 0.037890759726663 
893	 3.72909520997645E-02 
894	 3.72705061807428E-02 
895	 3.74639240653119E-02 
896	 3.71700780314714E-02 
897	 0.036061254100142 
898	 3.64145375758835E-02 
899	 3.70871158232992E-02 
900	 3.63678635830332E-02 
901	 3.52983205279455E-02 
902	 0.035107094487948 
903	 3.53131508492789E-02 
904	 3.50078882879692E-02 
905	 3.47375498547772E-02 
906	 3.47095447593245E-02 
907	 3.45714443482199E-02 
908	 3.38321412888317E-02 
909	 3.43541538366658E-02 
910	 3.41666069330032E-02 
911	 0.033185151752077 
912	 3.31642748963284E-02 
913	 3.29099153376043E-02 
914	 3.20494992904665E-02 
915	 3.12753199636616E-02 
916	 3.19980587284142E-02 
917	 3.21050595019311E-02 
918	 3.13266527657996E-02 
919	 3.03717133578954E-02 
920	 3.06512773032295E-02 
921	 3.06114460244247E-02 
922	 0.030341944911786 
923	 3.01039153993255E-02 
924	 2.98399579413537E-02 
925	 2.96859872994494E-02 
926	 0.030078498929637 
927	 3.08652975578169E-02 
928	 2.91020087843318E-02 
929	 2.94986671516091E-02 
930	 3.22624253534617E-02 
931	 3.36881427510657E-02 
932	 2.87786919056759E-02 
933	 2.34823638383213E-02 
934	 2.39231984649329E-02 
935	 3.00920095429662E-02 
936	 3.22575033361116E-02 
937	 2.84064961794604E-02 
938	 2.55702697855534E-02 
939	 2.88977343422562E-02 
940	 2.75476436506824E-02 
941	 0.02698770914431 
942	 2.77977803301594E-02 
943	 2.81912311036696E-02 
944	 2.83956448753096E-02 
945	 3.05277958439802E-02 
946	 3.23279380497613E-02 
947	 2.97439218771091E-02 
948	 2.33158772420744E-02 
949	 0.026251353963759 
950	 3.08242676485131E-02 
951	 2.25275302126335E-02 
952	 2.98002124123481E-02 
953	 3.26185976043653E-02 
954	 2.74528580859464E-02 
955	 2.43674359288726E-02 
956	 2.93984384681815E-02 
957	 2.71015569860835E-02 
958	 2.27067279657366E-02 
959	 3.12009830700599E-02 
960	 2.79772219097044E-02 
961	 2.67380899477363E-02 
962	 2.78435690747087E-02 
963	 2.29424574951222E-02 
964	 2.48957325441243E-02 
965	 2.83036878265797E-02 
966	 2.85645007647989E-02 
967	 2.46170892980688E-02 
968	 2.81385989796802E-02 
969	 2.86541465476189E-02 
970	 2.56178297178752E-02 
971	 2.70857031682319E-02 
972	 2.56239208931279E-02 
973	 2.61862878102554E-02 
974	 2.83129964086945E-02 
975	 2.62145793578114E-02 
976	 2.63973183067585E-02 
977	 2.65385132676319E-02 
978	 0.026453573377552 
979	 2.78349267793638E-02 
980	 2.52168173107122E-02 
981	 2.45800811349128E-02 
982	 2.67511543063723E-02 
983	 2.77300923491841E-02 
984	 2.72014277163978E-02 
985	 2.51190239411005E-02 
986	 2.35730992413669E-02 
987	 2.53236766351135E-02 
988	 2.67572085835444E-02 
989	 2.78900113674735E-02 
990	 2.79613162364092E-02 
991	 2.61269666452975E-02 
992	 2.56869202012526E-02 
993	 2.67415950801483E-02 
994	 2.73889084364335E-02 
995	 2.55213060903136E-02 
996	 2.47484030581306E-02 
997	 2.59188883964108E-02 
998	 2.73477167959329E-02 
999	 2.68209365957896E-02 
1000	 2.76596583814435E-02 
1001	 2.41063548943969E-02 
1002	 2.38204868269647E-02 
1003	 2.38787040364264E-02 
1004	 2.38296788806659E-02 
1005	 2.40931137162724E-02 
1006	 2.49126469464381E-02 
1007	 2.55147350356996E-02 
1008	 2.52944694426994E-02 
1009	 2.48309966231128E-02 
1010	 2.40549053643137E-02 
1011	 2.33490022587156E-02 
1012	 2.32169480613677E-02 
1013	 2.32402837017059E-02 
1014	 0.023324192800517 
1015	 2.34725745011422E-02 
1016	 2.35975058575543E-02 
1017	 2.38783096206472E-02 
1018	 2.40464433369752E-02 
1019	 0.024364371013776 
1020	 2.43026125436996E-02 
1021	 2.38740590579537E-02 
1022	 0.02377440913077 
1023	 0.023793199311104 
1024	 2.36364488195419E-02 
1025	 0.023884443687694 
1026	 2.39186000371156E-02 
1027	 2.40424062154239E-02 
1028	 2.39877852387585E-02 
1029	 2.40407173186607E-02 
1030	 2.44775062535947E-02 
1031	 0.024452511931704 
1032	 0.023777437636052 
1033	 2.36764371469329E-02 
1034	 2.38018713486522E-02 
1035	 2.37969609976513E-02 
1036	 2.40415495991475E-02 
1037	 2.42926018907397E-02 
1038	 2.47332467949652E-02 
1039	 2.44645799118637E-02 
1040	 2.43504833438151E-02 
1041	 0.024662848374664 
1042	 2.47187929395771E-02 
1043	 2.45363682015041E-02 
1044	 2.46196118034038E-02 
1045	 2.48342802311611E-02 
1046	 2.49386890805196E-02 
1047	 2.50935031078049E-02 
1048	 2.52393023096232E-02 
1049	 2.53547140481946E-02 
1050	 2.55247341815406E-02 
1051	 2.59415210977574E-02 
1052	 2.58977137962351E-02 
1053	 0.025567304142912 
1054	 2.53434967581506E-02 
1055	 2.43827938426993E-02 
1056	 2.42309506698828E-02 
1057	 2.44696988203054E-02 
1058	 2.54361276034866E-02 
1059	 2.55077590811239E-02 
1060	 0.025819564659566 
1061	 2.56425872433483E-02 
1062	 2.40230883039354E-02 
1063	 2.42853165023781E-02 
1064	 2.60914633546267E-02 
1065	 2.63691915014265E-02 
1066	 2.71108185566784E-02 
1067	 2.70077433148334E-02 
1068	 2.46421033896452E-02 
1069	 2.39925999993621E-02 
1070	 2.43480967684919E-02 
1071	 2.43217107352313E-02 
1072	 2.46818802199806E-02 
1073	 2.52134935061977E-02 
1074	 2.54622904159234E-02 
1075	 2.54912727927038E-02 
1076	 2.52866915410116E-02 
1077	 2.47656316714153E-02 
1078	 2.48348542213076E-02 
1079	 2.48830616329142E-02 
1080	 0.024822232751731 
1081	 0.025327406156075 
1082	 2.54809492199182E-02 
1083	 2.53061630977011E-02 
1084	 2.49827430060382E-02 
1085	 2.42532192357498E-02 
1086	 2.41019122800881E-02 
1087	 2.36965473035354E-02 
1088	 2.36923857442149E-02 
1089	 2.43946017132951E-02 
1090	 2.57334218657368E-02 
1091	 2.59026640586278E-02 
1092	 2.56044533399924E-02 
1093	 2.55208473571422E-02 
1094	 2.47686139475696E-02 
1095	 0.024517798569279 
1096	 0.024696792467417 
1097	 2.47176801891008E-02 
1098	 2.45369581781658E-02 
1099	 2.47254264079073E-02 
1100	 2.55103294301884E-02 
1101	 2.56212329532067E-02 
1102	 0.025628352074095 
1103	 2.56639813657345E-02 
1104	 0.02531496776793 
1105	 2.45502513261896E-02 
1106	 2.50634840219847E-02 
1107	 2.49447895219816E-02 
1108	 2.41320212257638E-02 
1109	 2.46684819625651E-02 
1110	 2.50714500318819E-02 
1111	 2.54521656861281E-02 
1112	 2.58549138509437E-02 
1113	 0.028033625586975 
1114	 2.78151912618319E-02 
1115	 2.39007643680226E-02 
1116	 2.30107150782793E-02 
1117	 2.22816085949991E-02 
1118	 2.17362060990466E-02 
1119	 2.68332973649149E-02 
1120	 2.98138726146413E-02 
1121	 3.35975155699703E-02 
1122	 2.78385254481736E-02 
1123	 1.98518184783133E-02 
1124	 2.19067835040334E-02 
1125	 2.47563640457513E-02 
1126	 2.55763041804436E-02 
1127	 3.17576033100176E-02 
1128	 0.027911045845504 
1129	 2.81702913018089E-02 
1130	 2.70891910244746E-02 
1131	 3.00187593857119E-02 
1132	 3.81101428303435E-02 
1133	 0.037110508348216 
1134	 2.98775985643955E-02 
1135	 2.81246831744345E-02 
1136	 2.68005570180931E-02 
1137	 2.53455870106447E-02 
1138	 2.64634734821703E-02 
1139	 2.64206292067441E-02 
1140	 2.47836854625919E-02 
1141	 2.26633807772794E-02 
1142	 2.31123431362426E-02 
1143	 2.56447738806955E-02 
1144	 2.54149267107703E-02 
1145	 2.49763780466313E-02 
1146	 2.64214322432419E-02 
1147	 2.66611791432879E-02 
1148	 2.63920310979625E-02 
1149	 2.39297321891245E-02 
1150	 2.32910043853797E-02 
1151	 2.34770929967015E-02 
1152	 2.32850210479509E-02 
1153	 2.20550471763951E-02 
1154	 2.29393568544098E-02 
1155	 2.56993134894487E-02 
1156	 2.37549764329183E-02 
1157	 2.18429612139531E-02 
1158	 2.42181841279277E-02 
1159	 2.33597898365404E-02 
1160	 2.22327361766468E-02 
1161	 2.42391146061412E-02 
1162	 2.46122279939566E-02 
1163	 2.35961340790008E-02 
1164	 2.33890644674569E-02 
1165	 2.33000204946514E-02 
1166	 2.32989314400491E-02 
1167	 2.40805487617244E-02 
1168	 2.46480273182237E-02 
1169	 2.42620662928538E-02 
1170	 2.37613327326067E-02 
1171	 2.33776018444423E-02 
1172	 2.26604825754909E-02 
1173	 2.25594015266885E-02 
1174	 2.28891081683798E-02 
1175	 0.022889932342321 
1176	 2.29933499256923E-02 
1177	 2.36241752108408E-02 
1178	 2.34621707368309E-02 
1179	 0.023236025825394 
1180	 2.39670286624985E-02 
1181	 2.41800408412235E-02 
1182	 2.39293301179865E-02 
1183	 2.40196903988779E-02 
1184	 2.33528261094295E-02 
1185	 2.27532216649208E-02 
1186	 2.34106754085917E-02 
1187	 2.40170044256735E-02 
1188	 2.37415604990521E-02 
1189	 2.31672793562487E-02 
1190	 2.31431041543091E-02 
1191	 0.023063610295839 
1192	 2.29554611228261E-02 
1193	 2.33113359488838E-02 
1194	 2.37847452386283E-02 
1195	 2.31456419816157E-02 
1196	 2.29910804756867E-02 
1197	 2.33756297057469E-02 
1198	 2.31320894439755E-02 
1199	 2.30932515039803E-02 
1200	 2.34178492906587E-02 
1201	 2.31574032974823E-02 
1202	 2.27117043608493E-02 
1203	 2.31422357921417E-02 
1204	 2.30661521527406E-02 
1205	 2.23820826304201E-02 
1206	 2.28547928012415E-02 
1207	 2.32293172648948E-02 
1208	 2.27872074354975E-02 
1209	 2.29573846056632E-02 
1210	 2.34321822743419E-02 
1211	 2.32918770823079E-02 
1212	 2.31476168599544E-02 
1213	 0.023351046344773 
1214	 2.33224162096766E-02 
1215	 2.29438304920261E-02 
1216	 2.27826500698769E-02 
1217	 2.30022870855921E-02 
1218	 2.28679513246886E-02 
1219	 2.30137774815289E-02 
1220	 2.33212577043258E-02 
1221	 2.31163506138685E-02 
1222	 2.27959257669504E-02 
1223	 2.26205512256779E-02 
1224	 2.27581808070469E-02 
1225	 2.29240651452911E-02 
1226	 2.30611337641443E-02 
1227	 2.33976049525283E-02 
1228	 2.32846456695482E-02 
1229	 2.29707672338367E-02 
1230	 2.30557777323098E-02 
1231	 2.30349083945618E-02 
1232	 2.31436732951191E-02 
1233	 2.34792318889793E-02 
1234	 2.33141134782612E-02 
1235	 2.32529338577775E-02 
1236	 0.022953999062364 
1237	 0.02290264106522 
1238	 2.28251379550403E-02 
1239	 0.023255030223179 
1240	 2.34309099845271E-02 
1241	 2.28671493640166E-02 
1242	 2.26034508012376E-02 
1243	 2.27657802809876E-02 
1244	 0.02302407740622 
1245	 2.31117731577756E-02 
1246	 2.30637326650576E-02 
1247	 2.30819564445623E-02 
1248	 2.30417071706261E-02 
1249	 2.32915327013593E-02 
1250	 2.35678259773276E-02 
1251	 2.31994795714943E-02 
1252	 0.022528403563454 
1253	 2.25545446967791E-02 
1254	 2.29138455501671E-02 
1255	 2.27239073533862E-02 
1256	 2.26932016253866E-02 
1257	 2.28962365624349E-02 
1258	 2.28331125280001E-02 
1259	 2.25308596851289E-02 
1260	 2.25232427784795E-02 
1261	 2.24203546068719E-02 
1262	 2.25198120992341E-02 
1263	 0.022883483463176 
1264	 2.30967104093898E-02 
1265	 2.30130581635005E-02 
1266	 2.30664027250701E-02 
1267	 0.022778376782481 
1268	 2.21930204842577E-02 
1269	 2.20159115493202E-02 
1270	 2.22967693074166E-02 
1271	 2.28120090507538E-02 
1272	 2.30890443706715E-02 
1273	 2.30309727090352E-02 
1274	 0.022983356566799 
1275	 2.26522849554745E-02 
1276	 2.23540744085625E-02 
1277	 2.24803252861767E-02 
1278	 2.25999639296418E-02 
1279	 2.25293877965065E-02 
1280	 2.25969850102275E-02 
1281	 2.27012576753166E-02 
1282	 2.30331720261885E-02 
1283	 2.30854149227295E-02 
1284	 2.29274281376562E-02 
1285	 2.29114989260585E-02 
1286	 2.29097865475358E-02 
1287	 2.29125600709297E-02 
1288	 2.28999553686978E-02 
1289	 2.30080379025581E-02 
1290	 2.33975370036419E-02 
1291	 2.32556081557113E-02 
1292	 2.25564666479348E-02 
1293	 2.27693757819775E-02 
1294	 2.32157583016594E-02 
1295	 0.022842788038772 
1296	 0.022780043332495 
1297	 2.30935850836017E-02 
1298	 2.26217593037351E-02 
1299	 2.22429749122888E-02 
1300	 2.27575101782758E-02 
1301	 2.26139600306353E-02 
1302	 0.0220698840389 
1303	 2.27983640356691E-02 
1304	 2.38595316123443E-02 
1305	 2.38641234944862E-02 
1306	 2.37431854190647E-02 
1307	 2.33137384666838E-02 
1308	 2.30475258906194E-02 
1309	 2.19217033908608E-02 
1310	 2.20165099678353E-02 
1311	 2.36041264071812E-02 
1312	 0.023718816688649 
1313	 2.30256290073662E-02 
1314	 2.31987780786238E-02 
1315	 2.32403233443629E-02 
1316	 2.32115185749321E-02 
1317	 2.39581890883697E-02 
1318	 2.44683266671782E-02 
1319	 2.46400753827738E-02 
1320	 2.44494601758038E-02 
1321	 2.38128444208942E-02 
1322	 2.38455117957606E-02 
1323	 2.47531411012724E-02 
1324	 2.50730697678525E-02 
1325	 2.41989980141977E-02 
1326	 0.023303253418622 
1327	 2.32222747437802E-02 
1328	 2.33026695282322E-02 
1329	 2.37349746053595E-02 
1330	 2.53896528948738E-02 
1331	 2.61807026430006E-02 
1332	 2.46088703561654E-02 
1333	 2.34879496894261E-02 
1334	 2.46377029918967E-02 
1335	 2.53627351664627E-02 
1336	 2.59567990823711E-02 
1337	 2.53481807348506E-02 
1338	 2.43281410927878E-02 
1339	 2.45151051542696E-02 
1340	 0.023747926794296 
1341	 2.35314896638453E-02 
1342	 2.58592629313675E-02 
1343	 2.73861153460347E-02 
1344	 2.74653421329062E-02 
1345	 2.72607216139133E-02 
1346	 2.84255643309847E-02 
1347	 3.03790421534753E-02 
1348	 3.12331252634006E-02 
1349	 3.27258420688477E-02 
1350	 3.72817685561414E-02 
1351	 4.13169131488197E-02 
1352	 3.46850415876868E-02 
1353	 0.03296739901087 
1354	 4.10095337438028E-02 
1355	 7.62062990610601E-02 
1356	 1.08470957088672E-02 
1357	-1.82420674393509E-02 
1358	 8.96434170550117E-02 
1359	 0.195908922446048 
1360	 0.250550657799997 
1361	 8.42288672212725E-02 
1362	-2.0056545002784E-03 
1363	-7.80842721455261E-02 
1364	-4.36102527881535E-02 
1365	 0.606786697572183 
1366	 0.832951008411924 
1367	 0.290337156525055 
1368	 0.259233535774729 
1369	 0.29344575937998 
1370	 0.391443886792966 
1371	 0.959809292585493 
1372	 0.942793787973858 
1373	 3.36045898501523E-02 
1374	-0.328993891713657 
1375	-0.447562073049853 
1376	-0.445639322571767 
1377	 0.460748917941062 
1378	 0.422302535320993 
1379	-0.64588691533904 
1380	-0.727681054555827 
1381	 5.38736495531058 
1382	 1.39385360059456 
1383	 0.209669846983207 
1384	 0.400858744211068 
1385	 0.166255012573844 
1386	-2.62157482602027E-02 
1387	 0.097521046358122 
1388	 0.512644341221169 
1389	 0.525893903044264 
1390	 0.470800466354582 
1391	 0.893012723297682 
1392	 1.67077151273434 
1393	 1.12678925804481 
1394	 0.351538336540709 
1395	 0.779918219035707 
1396	 3.22977977328814 
1397	 0.836781064661687 
1398	 0.826464244476859 
1399	 1.93510896684019 
1400	 1.43763330112933 
1401	 1.9833347496124 
1402	 1.69451678091642 
1403	 0.310387855083058 
1404	 0.439173792935765 
1405	 0.388798748856272 
1406	 0.523154737704452 
1407	 0.457689646589633 
1408	 0.131432212852583 
1409	 9.81270130232807E-02 
1410	 0.265987038014129 
1411	 0.261002494831471 
1412	 0.24972273450642 
1413	 0.158911437624483 
1414	 1.05891046235619E-02 
1415	-3.98563157041254E-02 
1416	-6.92199198563186E-02 
1417	-3.69712173702676E-02 
1418	 4.62682384629635E-02 
1419	 5.51861983776236E-02 
1420	 5.65737554335048E-02 
1421	 6.08365646200874E-02 
1422	 0.031809113072773 
1423	 2.67905268500793E-02 
1424	 2.48464736010373E-02 
1425	 4.57050400389859E-02 
1426	 0.121900432807561 
1427	 0.097586882198588 
1428	 2.17254761846165E-02 
1429	 7.85547165446337E-03 
1430	-4.02292970790002E-02 
1431	-5.49828621696346E-02 
1432	-2.16737209309409E-02 
1433	 5.86845607008376E-03 
1434	 7.14921976554368E-02 
1435	 8.04752151913085E-02 
1436	 5.81599480150383E-02 
1437	 4.75179508077499E-02 
1438	 4.53855947308305E-02 
1439	-9.11276714922645E-04 
1440	 4.79986331729269E-03 
1441	 4.62321358995645E-02 
1442	 5.60264015325334E-02 
1443	 0.049889996918319 
1444	 2.62397967763536E-02 
1445	 1.63630608278353E-02 
1446	 2.09393915112944E-02 
1447	 1.51465511550388E-02 
1448	 1.97255653976877E-02 
1449	 2.69717383971264E-02 
1450	 3.10750363078455E-02 
1451	 0.035098433509842 
1452	 2.81241148994307E-02 
1453	 2.01573489868652E-02 
1454	 2.42948947629326E-02 
1455	 2.98823955805504E-02 
1456	 2.70129998287247E-02 
1457	 0.028638491826628 
1458	 3.13291744474385E-02 
1459	 2.58341107039186E-02 
1460	 2.38528621811397E-02 
1461	 3.04314975165304E-02 
1462	 3.21158164317212E-02 
1463	 2.58056842131521E-02 
1464	 2.58631740896947E-02 
1465	 3.31187669599365E-02 
1466	 3.72777924012171E-02 
1467	 4.15522941741208E-02 
1468	 0.040331035646908 
1469	 3.62315874545773E-02 
1470	 3.39448696504315E-02 
1471	 2.61224418730786E-02 
1472	 2.48219949047671E-02 
1473	 3.03285077555437E-02 
1474	 2.98325459305867E-02 
1475	 2.51723893459636E-02 
1476	 2.69586027307598E-02 
1477	 3.34180967005551E-02 
1478	 3.25189651497437E-02 
1479	 3.04953975981653E-02 
1480	 0.029954475833298 
1481	 2.52553733943896E-02 
1482	 2.39832908697615E-02 
1483	 2.69960067475933E-02 
1484	 2.71914170322305E-02 
1485	 2.49407551190942E-02 
1486	 2.54515393297721E-02 
1487	 2.85980278592633E-02 
1488	 0.028291893672309 
1489	 2.54801842460611E-02 
1490	 2.59818819488107E-02 
1491	 2.81465815531163E-02 
1492	 2.74489113393433E-02 
1493	 2.67373295494652E-02 
1494	 2.66044712758745E-02 
1495	 0.024245679725619 
1496	 2.35691997656945E-02 
1497	 2.54440156488863E-02 
1498	 2.57435102135856E-02 
1499	 2.48909226136008E-02 
1500	 2.47360772476728E-02 
1501	 2.48863684918802E-02 
1502	 2.47074330759879E-02 
1503	 2.43125233460561E-02 
1504	 2.43063608149773E-02 
1505	 2.44622591189416E-02 
1506	 2.42262878283561E-02 
1507	 2.37990334277224E-02 
1508	 2.46030506964353E-02 
1509	 2.56326237392945E-02 
1510	 0.025349314729456 
1511	 2.47631663817988E-02 
1512	 2.44896318152864E-02 
1513	 2.43078865848296E-02 
1514	 2.44211926443747E-02 
1515	 0.02456975711763 
1516	 2.47169404365573E-02 
1517	 2.47929096586654E-02 
1518	 2.47701929044794E-02 
1519	 2.48165043777502E-02 
1520	 2.47598154221258E-02 
1521	 2.45643705713994E-02 
1522	 2.42458269854634E-02 
1523	 2.42933663097336E-02 
1524	 2.45087418556074E-02 
1525	 2.43001494202419E-02 
1526	 2.39706900266573E-02 
1527	 2.39406250342488E-02 
1528	 2.42396073071489E-02 
1529	 2.41159517107157E-02 
1530	 2.38251777230637E-02 
1531	 2.39200403242834E-02 
1532	 2.39616141439299E-02 
1533	 2.43825208921118E-02 
1534	 2.44970528457036E-02 
1535	 2.38573176603816E-02 
1536	 2.37223476044579E-02 
1537	 2.37813943614157E-02 
1538	 2.39428568671412E-02 
1539	 2.44783770421326E-02 
1540	 2.45404875885906E-02 
1541	 2.40192252106618E-02 
1542	 0.023559169962065 
1543	 2.33870226073459E-02 
1544	 2.36064384581563E-02 
1545	 2.42490781342612E-02 
1546	 0.024544645708851 
1547	 2.42159380184083E-02 
1548	 2.38775405534844E-02 
1549	 2.36350290191183E-02 
1550	 2.32465944150344E-02 
1551	 2.28380829544285E-02 
1552	 2.28962402244429E-02 
1553	 2.32486965845112E-02 
1554	 2.32554761416113E-02 
1555	 0.023500518066815 
1556	 2.40337065067693E-02 
1557	 2.33315352368064E-02 
1558	 2.27444848601051E-02 
1559	 2.37517403933207E-02 
1560	 2.40829346243815E-02 
1561	 2.33648101902084E-02 
1562	 2.34249843138407E-02 
1563	 2.38607746241221E-02 
1564	 2.36737055254021E-02 
1565	 2.37950403251051E-02 
1566	 0.024187033909061 
1567	 2.37393399440549E-02 
1568	 2.31076354166137E-02 
1569	 2.32817911470381E-02 
1570	 0.023973893334579 
1571	 2.41753948607251E-02 
1572	 2.36690918511395E-02 
1573	 2.35507091214958E-02 
1574	 2.37920536033197E-02 
1575	 2.36041541879854E-02 
1576	 2.35025479613602E-02 
1577	 2.33297458332706E-02 
1578	 2.32606893278587E-02 
1579	 2.37099123854264E-02 
1580	 2.39163781922082E-02 
1581	 2.40546569762206E-02 
1582	 0.024184001261631 
1583	 0.02379995796531 
1584	 2.32904101867746E-02 
1585	 2.29865050316585E-02 
1586	 2.29874697669755E-02 
1587	 2.32937918624015E-02 
1588	 2.36378929449256E-02 
1589	 2.41094299854491E-02 
1590	 2.40009947900806E-02 
1591	 2.31548919914486E-02 
1592	 2.31999376075575E-02 
1593	 2.39963561003018E-02 
1594	 2.39890544252748E-02 
1595	 2.35333814147377E-02 
1596	 2.37253081542162E-02 
1597	 2.38478807311698E-02 
1598	 2.34105592166861E-02 
1599	 2.36972693383606E-02 
1600	 2.43520341770392E-02 
1601	 2.40902323297557E-02 
1602	 0.023358185247508 
1603	 2.29715125379747E-02 
1604	 2.33155862606473E-02 
1605	 2.37096991285944E-02 
1606	 2.39294940076656E-02 
1607	 2.43450808246723E-02 
1608	 2.44249099645518E-02 
1609	 2.39034290025548E-02 
1610	 2.36610859002487E-02 
1611	 2.40047785342244E-02 
1612	 2.35624225947196E-02 
1613	 2.30152216309647E-02 
1614	 2.33923728184426E-02 
1615	 2.35836570823405E-02 
1616	 2.33076420434684E-02 
1617	 2.33592128817435E-02 
1618	 2.36983923627291E-02 
1619	 2.36685131041496E-02 
1620	 2.37409845741579E-02 
1621	 2.41120247013026E-02 
1622	 2.42232547505412E-02 
1623	 2.39789037024153E-02 
1624	 2.35984087862297E-02 
1625	 0.023322724124027 
1626	 2.28717736317793E-02 
1627	 2.23588675626455E-02 
1628	 2.27069657920307E-02 
1629	 2.31832045799917E-02 
1630	 0.022946222544706 
1631	 2.30473753472861E-02 
1632	 2.33257837354831E-02 
1633	 2.30934534178353E-02 
1634	 2.29553952973044E-02 
1635	 2.35003476899459E-02 
1636	 2.41027934276187E-02 
1637	 2.38298837910418E-02 
1638	 0.023587996830555 
1639	 2.34092666420082E-02 
1640	 2.26367857854095E-02 
1641	 2.28181262450815E-02 
1642	 2.32396790268702E-02 
1643	 2.26103832794138E-02 
1644	 2.25784582634346E-02 
1645	 2.30880652816122E-02 
1646	 2.33370549816224E-02 
1647	 0.023567439970071 
1648	 2.34748555732564E-02 
1649	 2.31130701278668E-02 
1650	 0.022603439633394 
1651	 2.26467842089516E-02 
1652	 0.023520757893808 
1653	 2.30049688524372E-02 
1654	 2.28222563470791E-02 
1655	 2.26953327358069E-02 
1656	 2.29095002470804E-02 
1657	 2.38279459482721E-02 
1658	 2.37642445713521E-02 
1659	 2.31283484738176E-02 
1660	 0.023032963567799 
1661	 2.26336497229363E-02 
1662	 0.022537699277794 
1663	 2.29000201941421E-02 
1664	 2.30639774032877E-02 
1665	 2.34165623427422E-02 
1666	 2.34027203302119E-02 
1667	 2.29369598289852E-02 
1668	 2.31559726891558E-02 
1669	 2.36604334660054E-02 
1670	 2.35794939892716E-02 
1671	 2.35070782424826E-02 
1672	 2.35013682386339E-02 
1673	 2.32930147989336E-02 
1674	 2.29570028120579E-02 
1675	 2.29584102697822E-02 
1676	 2.30702026774385E-02 
1677	 2.25508185836795E-02 
1678	 2.24086438137278E-02 
1679	 2.30464843569311E-02 
1680	 2.31901469663566E-02 
1681	 2.34302489292852E-02 
1682	 2.40872427061428E-02 
1683	 2.38227188738145E-02 
1684	 2.35179771917635E-02 
1685	 2.33442507124123E-02 
1686	 2.27128969167867E-02 
1687	 2.30874960237531E-02 
1688	 2.34473218098713E-02 
1689	 2.26424100896162E-02 
1690	 2.21080767378511E-02 
1691	 2.23825745264097E-02 
1692	 2.30901869797265E-02 
1693	 2.34845599824472E-02 
1694	 2.38262519058813E-02 
1695	 2.38764608087833E-02 
1696	 2.33424692351036E-02 
1697	 2.36517720144385E-02 
1698	 2.36711470942862E-02 
1699	 2.31191424288558E-02 
1700	 2.38569793611943E-02 
1701	 2.43993327664659E-02 
1702	 2.36510092453996E-02 
1703	 2.29659776720688E-02 
1704	 2.23902229633885E-02 
1705	 2.23239095518421E-02 
1706	 0.0239457456398 
1707	 2.53263325961873E-02 
1708	 2.48511860508403E-02 
1709	 2.36155992131633E-02 
1710	 2.28214697494827E-02 
1711	 2.34693289772811E-02 
1712	 2.41524703344032E-02 
1713	 2.38936041332477E-02 
1714	 2.38522226222717E-02 
1715	 2.24873822126802E-02 
1716	 0.021778204054471 
1717	 2.20469108171039E-02 
1718	 2.27788009870785E-02 
1719	 2.32195704911118E-02 
1720	 2.36512054295497E-02 
1721	 2.44835220647884E-02 
1722	 2.38523162410664E-02 
1723	 2.29023934004637E-02 
1724	 2.42369704785913E-02 
1725	 2.40420176791051E-02 
1726	 2.28444312926656E-02 
1727	 2.39407496828591E-02 
1728	 2.40879112114653E-02 
1729	 2.45759423271497E-02 
1730	 2.58930514301636E-02 
1731	 0.025045817683807 
1732	 2.41917990130198E-02 
1733	 2.36728961811131E-02 
1734	 2.28842270937182E-02 
1735	 2.34379664510464E-02 
1736	 2.36684596213333E-02 
1737	 2.28781071075407E-02 
1738	 0.023305024179309 
1739	 2.41455334959969E-02 
1740	 0.024188799297846 
1741	 2.42776246358089E-02 
1742	 2.44242485511285E-02 
1743	 2.38942915982894E-02 
1744	 2.34149837008899E-02 
1745	 2.41217573878593E-02 
1746	 2.45873686288762E-02 
1747	 2.42821836647951E-02 
1748	 2.34600502750934E-02 
1749	 0.023382129954457 
1750	 2.33757596141469E-02 
1751	 2.31298723233406E-02 
1752	 2.34127340970012E-02 
1753	 2.36204880795591E-02 
1754	 0.022770141254717 
1755	 2.29091878793471E-02 
1756	 2.46308330354038E-02 
1757	 2.45368946873739E-02 
1758	 2.45332095366363E-02 
1759	 2.49898739197418E-02 
1760	 2.31043457975538E-02 
1761	 2.14515540328141E-02 
1762	 2.25888218871907E-02 
1763	 2.35377972084197E-02 
1764	 2.36803528857621E-02 
1765	 2.45264362663437E-02 
1766	 2.41610559790507E-02 
1767	 2.24994358919859E-02 
1768	 2.50864551978563E-02 
1769	 2.78369000879206E-02 
1770	 2.59377554568273E-02 
1771	 2.62613845958479E-02 
1772	 2.51520215189167E-02 
1773	 2.05253070337379E-02 
1774	 2.21142439991632E-02 
1775	 0.023624645819929 
1776	 2.32056649032319E-02 
1777	 2.39443501068554E-02 
1778	 2.42982215011138E-02 
1779	 2.21633100527628E-02 
1780	 2.25665646731249E-02 
1781	 2.50299934434013E-02 
1782	 2.61848397195293E-02 
1783	 2.81749254041165E-02 
1784	 0.028905785632814 
1785	 2.96519016061374E-02 
1786	 3.19037861466527E-02 
1787	 3.33799884172218E-02 
1788	 3.19749882436271E-02 
1789	 2.89870761561125E-02 
1790	 1.65054400516837E-02 
1791	 1.63283050662878E-02 
1792	 2.14229135853578E-02 
1793	 3.11523673267236E-02 
1794	 4.56108196214004E-02 
1795	 5.29466660923903E-02 
1796	 4.97701676519949E-02 
1797	 3.21572540844148E-02 
1798	 1.08402525398191E-02 
1799	 9.00407392829321E-03 
1800	 4.37279450772014E-02 
1801	 6.39608327104323E-02 
1802	 0.114491620592979 
1803	 0.121845035102925 
1804	 0.016087681441634 
1805	-1.88117372727342E-02 
1806	-0.072421544995265 
1807	-9.57762457221663E-02 
1808	 0.129000370710762 
1809	 0.265745402689397 
1810	 0.381384259306999 
1811	 0.413914004234993 
1812	 0.14359707738565 
1813	-0.167569345458138 
1814	-0.665000448097211 
1815	-0.875178005683483 
1816	-0.99291782469813 
1817	-0.46036924012543 
1818	 2.74317619185544 
1819	 1.34377484031497 
1820	 0.896027368000182 
1821	 0.223705286975938 
1822	 0.08775458033632 
1823	 1.51483159340179 
1824	-1.20594573678435 
1825	-1.72539041934349 
1826	-1.46850082146318 
1827	-0.236735174224011 
1828	-0.240397608000582 
1829	 1.55283827751445 
1830	 1.30663428237163 
1831	 0.174871228927312 
1832	 0.25685969738344 
1833	 0.732151662528533 
1834	 0.823556928671603 
1835	 0.800607173539437 
1836	 1.11041331819631 
1837	 3.74713290022202 
1838	 4.22532555539394 
1839	 3.39954192788326 
1840	 0.953132173637859 
1841	-0.840286450754629 
1842	-1.31663081053538 
1843	-1.46006842688184 
1844	-1.23475326185844 
1845	-0.670715819652344 
1846	 1.43833481879692 
1847	 3.53782689319051 
1848	-167.863469927013 
1849	 4.95720585888941 
1850	 2.37290666926937 
1851	-18.9875877102263 
1852	 0.600131126070122 
1853	 0.687542599432983 
1854	 0.873802574022323 
1855	 2.52067146693616 
1856	 1.80067182954321 
1857	 0.475908590384002 
1858	 0.290484423041769 
1859	 0.152087461289741 
1860	-0.470409241643823 
1861	 0.101590338570086 
1862	 8.96600439498069 
1863	-1.85032937603777E-02 
1864	 0.057099849589945 
1865	-6.70153691288129E-02 
1866	-0.242873432461533 
1867	-0.216852235846006 
1868	 7.52111421087992E-02 
1869	 3.14588481493779E-02 
1870	 0.692945071313469 
1871	 11.544019656607 
1872	 2.25974574208662 
1873	-0.69839501484542 
1874	-0.240241854541441 
1875	 7.97901596057835E-02 
1876	 8.50354316349579E-02 
1877	-0.488387937638399 
1878	-0.936340314066237 
1879	 3.65448164728534 
1880	 1.6620192596779 
1881	 3.08000207008811 
1882	 6.58905111419126 
1883	 0.926626283538513 
1884	 0.174411050636248 
1885	 3.99427668052721 
1886	-27.7442522838427 
1887	 11.8748820294102 
1888	 6.75921991821523 
1889	 2.92927117951776 
1890	 1.95483770558198 
1891	 1.4086730425488 
1892	 0.834626409824518 
1893	 0.913038476219079 
1894	 0.926710654027368 
1895	 0.676370243780836 
1896	 0.170288711394802 
1897	 9.76651547764437E-03 
1898	 2.69211590421227 
1899	-2.78579666148691 
1900	-2.45028604319636 
1901	-1.99777706373581 
1902	-1.56109247728801 
1903	-1.17170384840309 
1904	 0.261592817406312 
1905	-0.402701347195691 
1906	-4.34783248120933 
1907	 2.15293100974127 
1908	 0.282276007531034 
1909	 0.219003897760107 
1910	 0.644469219044248 
1911	 1.86879206508156 
1912	 1.34716055094302 
1913	 1.03857303399956 
1914	 0.775118031628426 
1915	 0.775199749734492 
1916	 7.53193344483154E-02 
1917	 4.14640904696414E-02 
1918	-1.99514918035487 
1919	-3.63689760084585 
1920	-4.34030467787756 
1921	-1.80870520018236 
1922	-1.56145726838316 
1923	-1.28397409727188 
1924	-0.177100228028942 
1925	 0.426342731087524 
1926	 0.843721946557446 
1927	 1.79555039002594 
1928	 1.91466526557433 
1929	 3.27247756262817 
1930	 2.64661499668135 
1931	 2.19759752410679 
1932	 2.90446301935049 
1933	 1.93681084312425 
1934	 1.42107601957014 
1935	 0.839225412067484 
1936	 0.334615781333096 
1937	-0.51121076711207 
1938	-1.01125097795491 
1939	-0.733047744094229 
1940	-0.544727987154727 
1941	-0.236529323495452 
1942	-4.03452687479598E-02 
1943	 0.069083587908296 
1944	 3.16808747123298E-02 
1945	 1.57918204302608E-02 
1946	 6.78688161034588E-02 
1947	 0.132054089033844 
1948	 0.214701253795827 
1949	 0.230521120209516 
1950	 0.170848667118159 
1951	 0.136859540918791 
1952	 0.137939757457827 
1953	 0.140031167303193 
1954	 0.185217244813673 
1955	 0.14853239900593 
1956	 7.93845003564114E-02 
1957	 2.89616671469639E-02 
1958	-4.62650727718324E-02 
1959	-5.40900005936115E-02 
1960	-2.76971921505786E-02 
1961	-4.53017387558072E-03 
1962	 1.87166439883178E-02 
1963	 2.78652149551892E-02 
1964	 4.20214855633892E-02 
1965	 4.38399120081981E-02 
1966	 4.05574871242806E-02 
1967	 2.99758346864238E-02 
1968	 3.38155559514928E-02 
1969	 3.15779194572933E-02 
1970	 2.66406467177316E-02 
1971	 0.024954821460463 
1972	 1.96098010418874E-02 
1973	 2.09791160474408E-02 
1974	 2.33003095202997E-02 
1975	 2.50109739916639E-02 
1976	 2.68517085525791E-02 
1977	 2.35664318502573E-02 
1978	 2.17532916530241E-02 
1979	 0.021411972140821 
1980	 0.023420442438755 
1981	 2.36910446088964E-02 
1982	 2.19590341536493E-02 
1983	 2.26905333348619E-02 
1984	 2.28137997512006E-02 
1985	 2.11450678458479E-02 
1986	 2.20716389792459E-02 
1987	 2.08168358218027E-02 
1988	 2.02235558828932E-02 
1989	 0.024052636994243 
1990	 2.88759147756285E-02 
1991	 2.99275208105069E-02 
1992	 2.73663421196597E-02 
1993	 2.64018619049225E-02 
1994	 2.58659980203093E-02 
1995	 2.31790551775572E-02 
1996	 2.47434055136727E-02 
1997	 3.09099700612545E-02 
1998	 3.28120768378394E-02 
1999	 3.44293718473948E-02 
2000	 3.50607735071667E-02 
2001	 3.70652284530648E-02 
2002	 0.044159334623197 
2003	 4.48430647562464E-02 
2004	 0.040976256778854 
2005	 3.42690211057719E-02 
2006	 0.020720519654426 
2007	 1.08420117154753E-02 
2008	 1.07253357837549E-02 
2009	 1.25004115610137E-02 
2010	 2.18601673985876E-02 
2011	 0.024998239688433 
2012	 2.94291715525231E-02 
2013	 3.03247742714913E-02 
2014	 2.67632468889721E-02 
2015	 2.38903536982208E-02 
2016	 2.24267042168083E-02 
2017	 2.21782269501668E-02 
2018	 2.55320591017601E-02 
2019	 2.79287280200491E-02 
2020	 2.64871723363476E-02 
2021	 2.53636163632108E-02 
2022	 2.44778570325829E-02 
2023	 2.40156530329175E-02 
2024	 2.34214124502207E-02 
2025	 0.024101209998442 
2026	 2.39591595080294E-02 
2027	 2.36280988456657E-02 
2028	 2.16452538399829E-02 
2029	 2.10251396056622E-02 
2030	 2.13226944923621E-02 
2031	 1.96494305667176E-02 
2032	 0.021225707484385 
2033	 2.50105950774379E-02 
2034	 2.42357348917924E-02 
2035	 2.37499498726463E-02 
2036	 2.35637048332724E-02 
2037	 2.06336117318071E-02 
2038	 2.07213916270289E-02 
2039	 0.020448580959865 
2040	 2.06823641390261E-02 
2041	 2.13063026639972E-02 
2042	 0.022743993850946 
2043	 2.25750149226523E-02 
2044	 2.18220449068462E-02 
2045	 2.33177797745141E-02 
2046	 2.31898860815901E-02 
2047	 2.21024739439302E-02 
2048	 2.47990122223182E-02 
2049	 0.027731140321266 
2050	 2.82486119750229E-02 
2051	 2.89840275768312E-02 
2052	 2.83927634612344E-02 
2053	 2.43985464878012E-02 
2054	 2.17916644512306E-02 
2055	 2.27345675714811E-02 
2056	 2.25833078533743E-02 
2057	 0.023768950383921 
2058	 2.50091438613801E-02 
2059	 2.67906107387868E-02 
2060	 2.53799656672366E-02 
2061	 2.21865124159191E-02 
2062	 2.12475675405143E-02 
2063	 2.10963171347001E-02 
2064	 2.14514249891514E-02 
2065	 2.35129752425209E-02 
2066	 2.46448470136496E-02 
2067	 0.021762946297799 
2068	 1.88964534979148E-02 
2069	 1.81316550023728E-02 
2070	 1.90478763912839E-02 
2071	 1.92861667060641E-02 
2072	 1.81524364420931E-02 
2073	 0.018483149557406 
2074	 1.93557952912543E-02 
2075	 1.99659187218363E-02 
2076	 2.14895712900394E-02 
2077	 2.22975075734932E-02 
2078	 2.30278703749921E-02 
2079	 2.30038571952009E-02 
2080	 2.21403813708782E-02 
2081	 2.18029011618469E-02 
2082	 2.10891880494241E-02 
2083	 2.12187526523188E-02 
2084	 2.20466734790984E-02 
2085	 2.11762943158258E-02 
2086	 2.13379607816862E-02 
2087	 2.12865782464535E-02 
2088	 2.11814544418163E-02 
2089	 2.17048848785003E-02 
2090	 2.20019838460416E-02 
2091	 2.21040179200987E-02 
2092	 2.20402470291391E-02 
2093	 2.19754179626126E-02 
2094	 2.18573850894216E-02 
2095	 2.11260467634354E-02 
2096	 0.020367073405719 
2097	 1.94216811796035E-02 
2098	 1.91788211589463E-02 
2099	 1.93851579491915E-02 
2100	 1.92195303433506E-02 
2101	 1.99073569318762E-02 
2102	 2.00016827183478E-02 
2103	 1.81997041330524E-02 
2104	 1.82714237574937E-02 
2105	 1.94250840345237E-02 
2106	 2.04348274901029E-02 
2107	 2.23447580484449E-02 
2108	 2.38528521056347E-02 
2109	 2.56917038793226E-02 
2110	 2.54202084921742E-02 
2111	 2.32073360824208E-02 
2112	 2.35093508778948E-02 
2113	 0.023118825987047 
2114	 0.021478004963585 
2115	 2.11510545664722E-02 
2116	 2.24203433909492E-02 
2117	 2.21723586449292E-02 
2118	 2.08106280338528E-02 
2119	 2.08527370974236E-02 
2120	 2.09493069739613E-02 
2121	 2.18375864190278E-02 
2122	 2.32408244836014E-02 
2123	 2.42187681939597E-02 
2124	 2.59257191233881E-02 
2125	 2.69407474364106E-02 
2126	 2.55088089798753E-02 
2127	 0.024615621086934 
2128	 2.27846474401923E-02 
2129	 1.98426433848676E-02 
2130	 2.00104802952077E-02 
2131	 2.14323464583028E-02 
2132	 2.22984764672179E-02 
2133	 2.32063159595384E-02 
2134	 2.42575042142755E-02 
2135	 2.63079717608221E-02 
2136	 2.55446879737158E-02 
2137	 2.29581597434553E-02 
2138	 2.24394577223173E-02 
2139	 1.93926118175211E-02 
2140	 1.98147653798032E-02 
2141	 0.025817524816301 
2142	 2.72863582106858E-02 
2143	 2.79066548597408E-02 
2144	 2.72013443077077E-02 
2145	 2.57443347793787E-02 
2146	 0.023986074958303 
2147	 2.35935455607187E-02 
2148	 0.024941632944342 
2149	 2.48154914020733E-02 
2150	 2.43710954617848E-02 
2151	 2.38250310341453E-02 
2152	 2.42593464479859E-02 
2153	 2.68447770725782E-02 
2154	 2.47010805186229E-02 
2155	 2.15182259711598E-02 
2156	 0.021183285451628 
2157	 2.02555373526826E-02 
2158	 1.85108805641617E-02 
2159	 1.80728999709816E-02 
2160	 0.019847677685402 
2161	 1.97125278149106E-02 
2162	 0.01854813662214 
2163	 1.80149029919675E-02 
2164	 1.56599665608232E-02 
2165	 1.57828578885283E-02 
2166	 1.84294875093703E-02 
2167	 1.98318468524889E-02 
2168	 0.023095700825986 
2169	 2.38535621014888E-02 
2170	 2.15998243692171E-02 
2171	 2.14229482354857E-02 
2172	 2.12264246944919E-02 
2173	 2.12130330490423E-02 
2174	 2.16828515083882E-02 
2175	 2.20256530775166E-02 
2176	 2.24654879948546E-02 
2177	 2.48377670091147E-02 
2178	 2.61913929958555E-02 
2179	 2.20514119147208E-02 
2180	 1.68896307312631E-02 
2181	 0.012991361365814 
2182	 0.011776154099399 
2183	 1.54723652868157E-02 
2184	 2.04251119627088E-02 
2185	 2.28481695533053E-02 
2186	 2.46594221194061E-02 
2187	 2.51878813085792E-02 
2188	 2.65540284104477E-02 
2189	 2.75590262024972E-02 
2190	 0.027327506276825 
2191	 2.64405431501465E-02 
2192	 2.56843995252802E-02 
2193	 2.40805108178716E-02 
2194	 2.26599408419283E-02 
2195	 2.22348460239819E-02 
2196	 2.02017610153132E-02 
2197	 1.49370130211083E-02 
2198	 1.28275117970322E-02 
2199	 1.23000014366506E-02 
2200	 1.12271752402994E-02 
2201	 1.26264823678759E-02 
2202	 1.38317557497303E-02 
2203	 1.31295971909963E-02 
2204	 1.38266170062433E-02 
2205	 1.45195818320984E-02 
2206	 1.50277493702759E-02 
2207	 1.85819165043546E-02 
2208	 2.00700512264407E-02 
2209	 1.80401243439437E-02 
2210	 1.74037188529207E-02 
2211	 1.32433465871524E-02 
2212	 9.02433214753966E-03 
2213	 8.88222244608492E-03 
2214	 6.77837893812642E-03 
2215	 9.39681373390943E-03 
2216	 1.65389811934346E-02 
2217	 1.90449937039366E-02 
2218	 0.021573621480288 
2219	 0.023611207524553 
2220	 2.24862308418297E-02 
2221	 2.15715335178349E-02 
2222	 2.13268600803562E-02 
2223	 2.19327941561917E-02 
2224	 2.05436106130313E-02 
2225	 2.13493066742318E-02 
2226	 2.72257440854066E-02 
2227	 2.69027117414736E-02 
2228	 2.23048115966313E-02 
2229	 2.13242208415057E-02 
2230	 1.91811981116832E-02 
2231	 1.80170371772139E-02 
2232	 1.98255623831651E-02 
2233	 1.94603420369896E-02 
2234	 1.68290163992227E-02 
2235	 1.55685734547677E-02 
2236	 1.58131159942625E-02 
2237	 1.81081556518003E-02 
2238	 0.02291746696227 
2239	 2.53365735307952E-02 
2240	 2.36170146688094E-02 
2241	 2.31167615863839E-02 
2242	 2.13491388745229E-02 
2243	 1.75013131845889E-02 
2244	 1.90211964665091E-02 
2245	 1.85474665148571E-02 
2246	 0.01487224077868 
2247	 1.60663285878264E-02 
2248	 1.72137263287849E-02 
2249	 1.93079183887766E-02 
2250	 2.11611331118007E-02 
2251	 1.98604435959669E-02 
2252	 0.019616602762923 
2253	 1.79606342584933E-02 
2254	 1.68100994542175E-02 
2255	 2.13594257855053E-02 
2256	 2.38698183878071E-02 
2257	 2.32971481427969E-02 
2258	 0.024414421426019 
2259	 0.022904176013404 
2260	 2.32101670968894E-02 
2261	 2.36434472601849E-02 
2262	 2.23410111623012E-02 
2263	 2.06468041113775E-02 
2264	 2.05615177745336E-02 
2265	 2.03786061015277E-02 
2266	 2.00685631081413E-02 
2267	 2.17663898292705E-02 
2268	 2.18527615999504E-02 
2269	 1.82852426419272E-02 
2270	 1.58025406698421E-02 
2271	 1.57526141889753E-02 
2272	 1.53705511850091E-02 
2273	 1.31673831482592E-02 
2274	 1.24159088295916E-02 
2275	 1.33682938391711E-02 
2276	 1.12881321845863E-02 
2277	 7.80053967780302E-03 
2278	 6.44973718289273E-03 
2279	 1.99162785770078E-03 
2280	 4.63358632894458E-03 
2281	 1.41140410704964E-02 
2282	 1.98342467561472E-02 
2283	 2.54163196075887E-02 
2284	 2.53676919682431E-02 
2285	 2.18629844530656E-02 
2286	 1.96169803923869E-02 
2287	 1.41527372313474E-02 
2288	 1.58252309469766E-02 
2289	 1.79196462078436E-02 
2290	 1.39537774071842E-02 
2291	 1.57372890725057E-02 
2292	 1.18919733847203E-02 
2293	 6.3621854767537E-03 
2294	 9.69262265181134E-03 
2295	 1.04274231117742E-02 
2296	 1.48087452485316E-02 
2297	 2.36606851817601E-02 
2298	 2.22691434088461E-02 
2299	 2.32045512791391E-02 
2300	 3.28263119038731E-02 
2301	 3.61725666270672E-02 
2302	 3.74578862324765E-02 
2303	 3.84739615887842E-02 
2304	 3.24019381774481E-02 
2305	 0.030932734309 
2306	 0.030924972571437 
2307	 2.70344962998789E-02 
2308	 2.91297349043582E-02 
2309	 2.62138159148078E-02 
2310	 1.90445870503879E-02 
2311	 1.75379786766819E-02 
2312	 1.99222200012016E-02 
2313	 0.021500412078802 
2314	 1.86439260903472E-02 
2315	 1.91334295463563E-02 
2316	 1.83436770194975E-02 
2317	 0.017838894609958 
2318	 2.72950581574588E-02 
2319	 0.034680258382624 
2320	 3.56090101318398E-02 
2321	 2.77179481172915E-02 
2322	 1.64864021800403E-02 
2323	 2.13355047959463E-02 
2324	 2.28887375243108E-02 
2325	 2.31166809255642E-02 
2326	 2.54690591020696E-02 
2327	 1.66964744674775E-02 
2328	 1.91215538991869E-02 
2329	 2.04438752321788E-02 
2330	 1.93353740480165E-02 
2331	 2.52486881451262E-02 
2332	 2.22800079764441E-02 
2333	 1.90462027857427E-02 
2334	 1.94382652700637E-02 
2335	 1.74323135539427E-02 
2336	 1.35699718672762E-02 
2337	 1.28917076310236E-02 
2338	 2.21571141019303E-02 
2339	 2.13959064121953E-02 
2340	 1.47013420432962E-02 
2341	 1.35539005391281E-02 
2342	-3.06754415564929E-03 
2343	-4.07160624016938E-03 
2344	 3.84884707811633E-03 
2345	-1.72893588997336E-03 
2346	 0.012389254309822 
2347	 2.69118196545035E-02 
2348	 9.21037151627379E-03 
2349	-1.01375620199758E-02 
2350	-1.33689940488532E-02 
2351	-4.05186040545892E-02 
2352	-4.73151406963897E-02 
2353	-0.020786385711872 
2354	-7.00501374825686E-03 
2355	 8.34043159653109E-03 
2356	 9.99366460850454E-03 
2357	 1.22213341371922E-03 
2358	-5.47490462531958E-03 
2359	-1.99063690360158E-02 
2360	-1.63064623323774E-02 
2361	 4.20435384276029E-03 
2362	 1.25448780668289E-02 
2363	 2.55042422835481E-02 
2364	 4.50860047088336E-02 
2365	 3.80296678765993E-02 
2366	 2.21453404924641E-03 
2367	-3.65623274467387E-02 
2368	-5.69767129814103E-02 
2369	-7.09106281292746E-02 
2370	-7.39724636600505E-02 
2371	-3.00216669942279E-02 
2372	 1.48920258019334E-02 
2373	 5.22670552225094E-02 
2374	 0.090015556021336 
2375	 5.07711917664894E-02 
2376	 5.42256570529072E-03 
2377	-1.80787998944232E-02 
2378	-0.055015229048424 
2379	-5.61339376781738E-02 
2380	-6.18934595554332E-02 
2381	-4.00338127403869E-02 
2382	-3.33857163034572E-02 
2383	-8.86342046644112E-02 
2384	-0.109479490327548 
2385	-0.11145797074425 
2386	-8.28533334337497E-02 
2387	 5.20457496154329E-02 
2388	 0.191481250737888 
2389	 0.187994678832577 
2390	 8.06309376451199E-02 
2391	 3.63015989201702E-02 
2392	 4.44861343019413E-02 
2393	 1.46545088081837E-02 
2394	 6.78210603490598E-02 
2395	 8.87125530710031E-02 
2396	 0.055918162482336 
2397	 5.64019429311015E-02 
2398	 2.04126113363836E-02 
2399	 6.77853221709068E-03 
2400	-1.56060068356023E-02 
2401	-9.59898650642346E-03 
2402	 1.51629906143295E-02 
2403	-5.91198389484049E-03 
2404	 0.016464183774491 
2405	 4.94433587842655E-02 
2406	 0.10012095497456 
2407	 0.18093461390908 
2408	 0.211752540487928 
2409	 0.15546467258965 
2410	 0.132923234185386 
2411	 0.111039736071229 
2412	 9.52224603612373E-02 
2413	 0.124273114409181 
2414	 9.44548709656065E-02 
2415	 0.114938900224625 
2416	-2.55488765098245E-03 
2417	-0.2544718603527 
2418	-8.84336097004168E-02 
2419	-2.75112692942825E-02 
2420	 0.115172480848645 
2421	 0.332824348699553 
2422	 0.146966058367693 
2423	-0.136792347410698 
2424	-0.293004718290754 
2425	-0.443441082931924 
2426	-0.322270880142043 
2427	-7.69688031398883E-02 
2428	 0.096313793788885 
2429	 0.283375867166099 
2430	 0.296676806118454 
2431	 0.235308266734792 
2432	 0.310842229800481 
2433	 0.282278614186123 
2434	 0.190431886349514 
2435	 8.29188678318017E-02 
2436	-2.64491728199604E-02 
2437	-0.129051280085438 
2438	-0.200630447360408 
2439	 1.10434251318029E-02 
2440	 0.247791553816157 
2441	 0.206624219221201 
2442	 0.175559475491538 
2443	 0.104809542005708 
2444	-7.94632712292672E-02 
2445	-0.134494248494406 
2446	-0.250324104566005 
2447	 1.80562072864484 
2448	 2.09459177348748 
2449	 0.177046785073993 
2450	 9.25837675642007E-02 
2451	-6.82415946260041E-03 
2452	-0.404289363566849 
2453	-0.250086166852962 
2454	-0.419889120530335 
2455	-0.66752638546322 
2456	 0.487094123991706 
2457	 1.08131233301333 
2458	-2.41734086782353 
2459	-45.5018554310877 
2460	 2.17908549956501 
2461	 0.859038826224771 
2462	-7.96784886267888E-02 
2463	-0.587903819211381 
2464	-1.11699997554889 
2465	-2.29089813800809 
2466	-13.9991128652424 
2467	 0.123833380763815 
2468	-0.868806437692641 
2469	-7.85660427897379 
2470	-5.439793068332 
2471	-0.312505738128133 
2472	-1.22606286187582 
2473	 0.471029692345806 
2474	 0.476369085485426 
2475	-0.44209799894206 
2476	 0.498009441706973 
2477	 4.43487332605576E-03 
2478	 7.3012945455228E-04 
2479	-0.385899001399767 
2480	-1.40954171242962 
2481	-1.59337849750363 
2482	-0.29034541744722 
2483	-0.463048710426604 
2484	-1.31435268094733 
2485	-3.02590478353976 
2486	 1.459557497123 
2487	 0.112115762402102 
2488	-2.56492442361601 
2489	 2.17761421264512 
2490	 0.315376543737043 
2491	 0.153796301243454 
2492	-0.52026273704137 
2493	-1.7509893933376 
2494	-2.21111190841986 
2495	 4.07470975006759 
2496	 9.87987049619052 
2497	-1.31345859043779 
2498	-0.246572916590546 
2499	 0.244590374888298 
2500	 2.5313278096787 
