Wavelength	rt0713west_close_sunny_200000.asd
350	 5.52849342055282E-02 
351	 0.054630268616105 
352	 5.45795243129639E-02 
353	 5.49210115088642E-02 
354	 5.51252761709742E-02 
355	 5.44866506746157E-02 
356	 5.41326480722534E-02 
357	 5.40652815649426E-02 
358	 5.39653013898358E-02 
359	 5.38307504407435E-02 
360	 0.05377222282827 
361	 0.053686844663447 
362	 5.33487697712361E-02 
363	 0.052771943945286 
364	 5.25074578343434E-02 
365	 5.27166291145936E-02 
366	 5.29180504954887E-02 
367	 5.27366803206027E-02 
368	 5.25387118601878E-02 
369	 5.26439970317626E-02 
370	 5.24110914474538E-02 
371	 5.23973620325675E-02 
372	 5.24081518185028E-02 
373	 5.19501869206852E-02 
374	 5.20389120905111E-02 
375	 5.21089183508602E-02 
376	 5.19351448107442E-02 
377	 0.051971894293102 
378	 5.19275987454992E-02 
379	 0.051809071328522 
380	 5.17398694965051E-02 
381	 5.20115315719996E-02 
382	 5.20040348231094E-02 
383	 5.18642849300739E-02 
384	 5.20373802510788E-02 
385	 5.21967614503369E-02 
386	 5.20864232371198E-02 
387	 0.051973349798031 
388	 5.26068415554077E-02 
389	 0.052274425150371 
390	 5.18660357938508E-02 
391	 5.21605294198664E-02 
392	 5.24630352218646E-02 
393	 5.24591315304797E-02 
394	 5.23579694812425E-02 
395	 0.052472544103695 
396	 5.24235032596258E-02 
397	 5.24949072462829E-02 
398	 5.26060843423249E-02 
399	 0.052378109416281 
400	 5.23451399312081E-02 
401	 5.24539306560713E-02 
402	 5.25622279215954E-02 
403	 5.25537033568382E-02 
404	 5.25213225186174E-02 
405	 5.24763810728451E-02 
406	 5.24265900546696E-02 
407	 5.25302145578112E-02 
408	 5.26389003258342E-02 
409	 5.26751001755048E-02 
410	 0.05265602564027 
411	 5.26820940172058E-02 
412	 5.27350379807941E-02 
413	 5.27885770988449E-02 
414	 5.28550673592697E-02 
415	 5.29489020323268E-02 
416	 0.053046859540026 
417	 5.31284332688765E-02 
418	 5.32926616300728E-02 
419	 0.053447522206829 
420	 5.35318161252981E-02 
421	 5.35384525561821E-02 
422	 5.36921152232524E-02 
423	 5.39466395210878E-02 
424	 5.42027277654997E-02 
425	 5.43948324695894E-02 
426	 0.054572293719277 
427	 0.054750623986676 
428	 5.49454679339656E-02 
429	 5.53174512723508E-02 
430	 5.55105116850119E-02 
431	 5.55263121531533E-02 
432	 5.58250942466493E-02 
433	 5.60199051991151E-02 
434	 5.62510706346547E-02 
435	 5.66368451856268E-02 
436	 5.69003062273643E-02 
437	 5.70837938552181E-02 
438	 5.72992209322081E-02 
439	 5.76512778878085E-02 
440	 5.78173969577433E-02 
441	 5.80217796820292E-02 
442	 5.83549851967193E-02 
443	 5.86293462282369E-02 
444	 5.88286037479235E-02 
445	 5.90207054163274E-02 
446	 5.92631135877417E-02 
447	 5.94655844519145E-02 
448	 5.96312861913249E-02 
449	 5.97864742134741E-02 
450	 5.99715280686858E-02 
451	 6.01869333070706E-02 
452	 6.03603261019226E-02 
453	 0.060465513283851 
454	 6.05813927787374E-02 
455	 6.07554013779204E-02 
456	 0.060933632193405 
457	 6.10381844390658E-02 
458	 6.10967364571115E-02 
459	 6.11853320147806E-02 
460	 6.13171164453899E-02 
461	 6.14378246530752E-02 
462	 6.15041357968806E-02 
463	 6.15792315050609E-02 
464	 6.17130548416311E-02 
465	 6.18672102517425E-02 
466	 0.061954611420128 
467	 6.19841703029379E-02 
468	 6.20232855170417E-02 
469	 6.21352872656936E-02 
470	 6.22639552398217E-02 
471	 6.23699994067819E-02 
472	 6.24533842410172E-02 
473	 6.25411152369753E-02 
474	 6.26638769078086E-02 
475	 6.28367764719597E-02 
476	 6.30294886018315E-02 
477	 6.31903982103946E-02 
478	 0.063354362782464 
479	 6.35975957895595E-02 
480	 6.37267069719955E-02 
481	 6.39176218725821E-02 
482	 6.42273187320522E-02 
483	 6.43640151773751E-02 
484	 6.45982545938846E-02 
485	 6.48911573888665E-02 
486	 0.065118325690891 
487	 0.065346903092353 
488	 6.56038003625105E-02 
489	 6.58921475341303E-02 
490	 6.61933589175453E-02 
491	 6.64453041009538E-02 
492	 6.67370877684477E-02 
493	 6.71099360519262E-02 
494	 6.73979291021606E-02 
495	 6.76949589515329E-02 
496	 0.068023087241002 
497	 6.83632726944225E-02 
498	 6.86625186074914E-02 
499	 6.89667719838418E-02 
500	 6.93045120814074E-02 
501	 6.96630937136441E-02 
502	 6.99576365316756E-02 
503	 7.02767908859082E-02 
504	 7.07042255670923E-02 
505	 7.10866648943806E-02 
506	 7.14797718424621E-02 
507	 7.18962511499723E-02 
508	 7.23101261303108E-02 
509	 7.27011294058677E-02 
510	 7.31194339033018E-02 
511	 7.35872945890992E-02 
512	 7.40402229849869E-02 
513	 7.45141831782955E-02 
514	 0.075001631292738 
515	 7.54834578336545E-02 
516	 7.60163513429571E-02 
517	 7.65479684346139E-02 
518	 7.70303749108181E-02 
519	 7.74375417258316E-02 
520	 7.79702628848659E-02 
521	 7.85023500342726E-02 
522	 7.89309507862426E-02 
523	 7.94994586155648E-02 
524	 8.00546401315144E-02 
525	 8.05778838516614E-02 
526	 8.11460452012205E-02 
527	 8.17220869134061E-02 
528	 0.08225541671848 
529	 0.0827427340834 
530	 8.32692506728628E-02 
531	 8.38696148061214E-02 
532	 8.44915923167806E-02 
533	 8.50633490036548E-02 
534	 0.085654828019655 
535	 8.62332602258367E-02 
536	 8.67936022028653E-02 
537	 0.087364580803605 
538	 8.79403514359185E-02 
539	 8.85205532808242E-02 
540	 8.91037059046187E-02 
541	 8.96806904910738E-02 
542	 9.02853387839982E-02 
543	 9.09023265569702E-02 
544	 9.14948739572252E-02 
545	 9.21244884909777E-02 
546	 9.27419910846319E-02 
547	 9.33206138991809E-02 
548	 9.39002888137972E-02 
549	 9.45189089620374E-02 
550	 9.51340294978546E-02 
551	 9.56963444450931E-02 
552	 0.096297312956094 
553	 9.68767519240177E-02 
554	 9.74432880782047E-02 
555	 9.80859908551964E-02 
556	 9.86620021368303E-02 
557	 9.91881473951679E-02 
558	 9.97105433393587E-02 
559	 0.100254358556158 
560	 0.100774489228625 
561	 0.101247709497066 
562	 0.101675073947397 
563	 0.102113992874296 
564	 0.102548253160224 
565	 0.102933277361433 
566	 0.103183028207183 
567	 0.103470480954467 
568	 0.103783730731842 
569	 0.104062848596304 
570	 0.104412212179068 
571	 0.104756751060983 
572	 0.105023630535632 
573	 0.105160549540849 
574	 0.105401078822085 
575	 0.105682757402389 
576	 0.105899511335873 
577	 0.106055216617318 
578	 0.106178208253033 
579	 0.106309954863055 
580	 0.106478965334661 
581	 0.106536826473539 
582	 0.106465226664103 
583	 0.106318922223931 
584	 0.106264867568427 
585	 0.10601360441979 
586	 0.105624729904394 
587	 0.10526051479674 
588	 0.104867451301534 
589	 0.104553060315328 
590	 0.104365668913194 
591	 0.104247466922043 
592	 0.103936522518958 
593	 0.103581503361517 
594	 0.103310199287345 
595	 0.102887555534584 
596	 0.102392612333491 
597	 0.101848919374249 
598	 0.101261242926986 
599	 0.100696517929476 
600	 0.10018966130563 
601	 0.099771354134041 
602	 9.94719312604658E-02 
603	 9.92918849740491E-02 
604	 9.91812859275995E-02 
605	 9.90876909666815E-02 
606	 9.90367541885764E-02 
607	 9.89988824999491E-02 
608	 9.89699872491252E-02 
609	 9.89738046659657E-02 
610	 9.90076137569342E-02 
611	 9.90003732283795E-02 
612	 9.89234875214254E-02 
613	 9.89067625089567E-02 
614	 0.098920873974476 
615	 9.89314702634963E-02 
616	 9.88997381143767E-02 
617	 9.88040644583846E-02 
618	 9.87344612722533E-02 
619	 9.87281407839822E-02 
620	 9.87265052408799E-02 
621	 9.86659242281714E-02 
622	 9.85696267539246E-02 
623	 9.84900503358648E-02 
624	 9.84609579900249E-02 
625	 9.83105042525184E-02 
626	 9.80732565637795E-02 
627	 9.79802632582262E-02 
628	 9.79745582597488E-02 
629	 9.79902801342786E-02 
630	 0.097979230403407 
631	 9.79459589164111E-02 
632	 9.79808318285676E-02 
633	 9.80066005704555E-02 
634	 9.79034579428318E-02 
635	 9.79184178916995E-02 
636	 9.78745402065658E-02 
637	 9.77209732070665E-02 
638	 9.76404510191759E-02 
639	 9.75349413398502E-02 
640	 0.09742008064599 
641	 9.73125798526493E-02 
642	 9.71044068926751E-02 
643	 9.68841827282357E-02 
644	 9.66060071712676E-02 
645	 9.61331327521778E-02 
646	 0.095757448751339 
647	 9.55582365873332E-02 
648	 9.55019495826838E-02 
649	 9.54171493109963E-02 
650	 9.52436938911248E-02 
651	 9.50072633364963E-02 
652	 9.47643583712478E-02 
653	 9.44143772865212E-02 
654	 9.39906243069522E-02 
655	 9.35425704598517E-02 
656	 9.31833061577698E-02 
657	 9.28194149146523E-02 
658	 9.24746306480923E-02 
659	 0.092183592074426 
660	 9.19938569957382E-02 
661	 9.17094715373804E-02 
662	 9.14062222774328E-02 
663	 9.13078582357039E-02 
664	 9.11975847321715E-02 
665	 9.10447134749631E-02 
666	 9.08857802587257E-02 
667	 9.08452482306002E-02 
668	 9.06665288205891E-02 
669	 9.04998329027212E-02 
670	 9.05407854142194E-02 
671	 9.04859296096608E-02 
672	 9.04287555101198E-02 
673	 0.090391311865473 
674	 9.03189626973789E-02 
675	 9.03063522548105E-02 
676	 9.03589224317367E-02 
677	 9.04250597514725E-02 
678	 9.03481765483375E-02 
679	 9.03049974986911E-02 
680	 9.03669970599393E-02 
681	 9.05223495197787E-02 
682	 9.05716419253434E-02 
683	 9.06112085844086E-02 
684	 9.06383731396709E-02 
685	 9.04751918435127E-02 
686	 9.02162713380533E-02 
687	 9.01080184384082E-02 
688	 9.02630114267958E-02 
689	 9.02798889439145E-02 
690	 9.00653367060163E-02 
691	 8.96675068791579E-02 
692	 8.92285174019205E-02 
693	 8.88450589493736E-02 
694	 8.86631857647139E-02 
695	 8.86177616360406E-02 
696	 8.83553093496721E-02 
697	 8.77793655879537E-02 
698	 8.69985657113996E-02 
699	 8.62492053248815E-02 
700	 8.56413213484933E-02 
701	 8.50794603042692E-02 
702	 8.45036807170588E-02 
703	 8.38702780023293E-02 
704	 8.30276458724334E-02 
705	 8.21137683045912E-02 
706	 8.12452124659455E-02 
707	 8.03325011565362E-02 
708	 0.079259226787646 
709	 7.80934526767433E-02 
710	 0.076929276271187 
711	 7.55591311878625E-02 
712	 7.40345849244975E-02 
713	 0.072375089970568 
714	 7.04999323218079E-02 
715	 6.84830101334827E-02 
716	 6.62812471916928E-02 
717	 6.41153028461832E-02 
718	 6.21691649716278E-02 
719	 6.06620892569225E-02 
720	 5.95092821660925E-02 
721	 5.82461250507288E-02 
722	 5.66316336152579E-02 
723	 5.46470246914372E-02 
724	 5.26794033404278E-02 
725	 5.09757024951293E-02 
726	 4.92634579542464E-02 
727	 4.73900697863124E-02 
728	 0.045348945897912 
729	 4.33426873989471E-02 
730	 4.14544330199295E-02 
731	 3.99017135915309E-02 
732	 3.87038575622648E-02 
733	 3.73914333724976E-02 
734	 3.61704210216278E-02 
735	 3.52023611526248E-02 
736	 3.45121879091939E-02 
737	 0.034013715354323 
738	 3.36870861722422E-02 
739	 3.34994750406521E-02 
740	 3.32973610813854E-02 
741	 3.31943406554323E-02 
742	 3.31767946943769E-02 
743	 3.31575480580609E-02 
744	 3.30619932096756E-02 
745	 3.29557673981187E-02 
746	 3.29039890358497E-02 
747	 3.29469845597801E-02 
748	 3.29725914775328E-02 
749	 3.29379087373057E-02 
750	 3.28496777121909E-02 
751	 3.27935743851699E-02 
752	 3.27803880214042E-02 
753	 3.28047433964722E-02 
754	 3.28343762711608E-02 
755	 3.27414802313152E-02 
756	 3.25598967815611E-02 
757	 3.23176797578074E-02 
758	 3.19403992672841E-02 
759	 0.031402796585304 
760	 3.09625936028967E-02 
761	 3.10123423443437E-02 
762	 3.08719984618525E-02 
763	 3.11134560453942E-02 
764	 3.16578586764593E-02 
765	 0.032195252428525 
766	 3.24902689283285E-02 
767	 3.27086935224621E-02 
768	 3.29342997074005E-02 
769	 3.31612819594225E-02 
770	 3.33116386444198E-02 
771	 3.34530561786247E-02 
772	 3.36227174867345E-02 
773	 3.36803986029177E-02 
774	 3.38066426829482E-02 
775	 0.034011118150636 
776	 3.42201520371749E-02 
777	 3.43585217256249E-02 
778	 3.45517767388269E-02 
779	 3.47936524659425E-02 
780	 3.49417658780468E-02 
781	 3.51156879225739E-02 
782	 3.52905242414732E-02 
783	 3.54554116585399E-02 
784	 3.56989727337672E-02 
785	 3.58707765050434E-02 
786	 3.60202633735329E-02 
787	 3.62417184499746E-02 
788	 0.036434678458433 
789	 3.67144068312094E-02 
790	 3.70793866679388E-02 
791	 3.74376396217912E-02 
792	 3.78721965041226E-02 
793	 3.82384314378691E-02 
794	 3.84858782347159E-02 
795	 0.038744629295096 
796	 3.90411885218856E-02 
797	 3.92971826347082E-02 
798	 3.94737543491308E-02 
799	 3.97506601055349E-02 
800	 3.99113675563096E-02 
801	 3.99937572689658E-02 
802	 4.01783123405942E-02 
803	 4.04742412064198E-02 
804	 4.07069191691261E-02 
805	 4.08049618309912E-02 
806	 0.040831133698371 
807	 4.09076564867577E-02 
808	 4.07640845157667E-02 
809	 4.02703973095842E-02 
810	 3.98368976280734E-02 
811	 3.96798256041408E-02 
812	 3.94354262674203E-02 
813	 3.86437007831666E-02 
814	 3.82232461869651E-02 
815	 0.037876043183489 
816	 3.74694067151255E-02 
817	 3.70829518025121E-02 
818	 3.68494854018263E-02 
819	 3.65883612134904E-02 
820	 3.60944719794916E-02 
821	 3.51563632764256E-02 
822	 3.42026464991211E-02 
823	 3.33116092460159E-02 
824	 3.24797134947098E-02 
825	 3.17704533465586E-02 
826	 3.05239561123767E-02 
827	 2.90497918640286E-02 
828	 2.80244623775005E-02 
829	 2.70033584500426E-02 
830	 2.61472609766271E-02 
831	 2.54810083434579E-02 
832	 2.49226903003701E-02 
833	 2.42981552979449E-02 
834	 2.38905378661307E-02 
835	 2.37614390466869E-02 
836	 0.023636781031197 
837	 2.33364053013242E-02 
838	 2.30396305260113E-02 
839	 2.29356288884074E-02 
840	 2.30563014441243E-02 
841	 2.29193562066917E-02 
842	 2.26359119330707E-02 
843	 0.022498079096926 
844	 2.24558974141314E-02 
845	 2.23061858301394E-02 
846	 2.20632648531494E-02 
847	 2.18939638217829E-02 
848	 2.18226608202489E-02 
849	 2.17966625197015E-02 
850	 2.17269797666614E-02 
851	 2.15104154787088E-02 
852	 0.02134214629118 
853	 2.12220391602005E-02 
854	 2.11190082959172E-02 
855	 0.02102712032217 
856	 2.09628655173277E-02 
857	 2.09332045885615E-02 
858	 2.09253096078412E-02 
859	 0.020893585381538 
860	 2.06260715379961E-02 
861	 2.03795642141381E-02 
862	 2.05075983979624E-02 
863	 2.04147223041051E-02 
864	 2.02037546150585E-02 
865	 1.99983445125743E-02 
866	 1.98878121332625E-02 
867	 1.98327308815112E-02 
868	 1.97828560432583E-02 
869	 1.96749433016121E-02 
870	 1.94423559725717E-02 
871	 1.93238903342619E-02 
872	 1.92094559543359E-02 
873	 1.90475254588852E-02 
874	 1.90978264930864E-02 
875	 1.91033117281791E-02 
876	 1.89540892013125E-02 
877	 1.86670223583516E-02 
878	 1.85026743073895E-02 
879	 0.018303601454191 
880	 1.80534223466724E-02 
881	 0.017821778996874 
882	 1.77101275439602E-02 
883	 1.76881730731549E-02 
884	 1.76649578094984E-02 
885	 1.75368632998147E-02 
886	 1.74345658392009E-02 
887	 1.72554167921641E-02 
888	 1.70302812815246E-02 
889	 1.69456260021228E-02 
890	 1.67693078843119E-02 
891	 1.65196983852801E-02 
892	 0.016282863779558 
893	 1.61859412925125E-02 
894	 1.57373780446795E-02 
895	 1.53657579585737E-02 
896	 1.53779614459076E-02 
897	 1.46894878393889E-02 
898	 1.47120651996474E-02 
899	 1.48794146214622E-02 
900	 1.44138605488826E-02 
901	 1.44083764789324E-02 
902	 1.46135382793855E-02 
903	 1.45914758899885E-02 
904	 1.41013070252306E-02 
905	 1.41436805058964E-02 
906	 1.43714203102036E-02 
907	 1.45594908081835E-02 
908	 1.45108435798305E-02 
909	 1.35063945167629E-02 
910	 0.012803897234654 
911	 1.28266805567582E-02 
912	 1.30040708996906E-02 
913	 1.31323148528266E-02 
914	 1.31554637303663E-02 
915	 1.32073302127924E-02 
916	 1.34941488662556E-02 
917	 1.29523271897625E-02 
918	 1.25822482955987E-02 
919	 1.28567775052979E-02 
920	 1.31958431405212E-02 
921	 0.013093117574286 
922	 1.27030325888786E-02 
923	 1.23349200265513E-02 
924	 1.23218481581239E-02 
925	 1.17202113311979E-02 
926	 1.13511213416341E-02 
927	 1.19463684987688E-02 
928	 1.14511018069526E-02 
929	 1.07795415016309E-02 
930	 1.09787174998499E-02 
931	 1.27746778041314E-02 
932	 0.012618835429117 
933	 1.31387425461858E-02 
934	 1.27324564110626E-02 
935	 9.50563341193703E-03 
936	 9.20667030129481E-03 
937	 1.00202798791078E-02 
938	 9.55589541339621E-03 
939	 7.17220846556204E-03 
940	 8.2984159177952E-03 
941	 7.95020844171548E-03 
942	 7.95989863454839E-03 
943	 1.20184408744601E-02 
944	 1.28010479691936E-02 
945	 1.11066717977288E-02 
946	 9.54482259796382E-03 
947	 1.02730694734851E-02 
948	 9.29160364855478E-03 
949	 7.75130610178617E-03 
950	 7.14868678337252E-03 
951	 8.44307858595797E-03 
952	 9.8628491444563E-03 
953	 1.14226626190089E-02 
954	 1.18945635852986E-02 
955	 1.00610424785684E-02 
956	 9.9352123219446E-03 
957	 1.02756881671948E-02 
958	 1.07334112437658E-02 
959	 1.15406249346234E-02 
960	 1.03179783671751E-02 
961	 9.00428172525615E-03 
962	 9.3372127452021E-03 
963	 1.15903586863109E-02 
964	 0.010817431335936 
965	 1.03092385650512E-02 
966	 1.07120293480845E-02 
967	 1.04760711383979E-02 
968	 9.99219141489576E-03 
969	 1.01319478914647E-02 
970	 0.01078583348293 
971	 1.10387750273355E-02 
972	 1.06005401911274E-02 
973	 1.10387534517806E-02 
974	 1.19910110298286E-02 
975	 1.14541459134131E-02 
976	 1.18212568872965E-02 
977	 1.16938168349965E-02 
978	 1.08988263623848E-02 
979	 1.06603642059482E-02 
980	 1.16053140269583E-02 
981	 1.15523550894753E-02 
982	 1.09937220928015E-02 
983	 1.21575812595455E-02 
984	 1.20727747085782E-02 
985	 1.19060130406757E-02 
986	 1.26828228684212E-02 
987	 1.42963513081426E-02 
988	 1.21288785051178E-02 
989	 1.12646125927255E-02 
990	 1.24107019664202E-02 
991	 1.25202232445276E-02 
992	 1.22215694608988E-02 
993	 1.21177031739172E-02 
994	 1.22451191071372E-02 
995	 1.22858003321423E-02 
996	 1.25368334916896E-02 
997	 1.31029036442629E-02 
998	 1.33525147986517E-02 
999	 1.27363006423878E-02 
1000	 0.013585147550199 
1001	 1.11065550711997E-02 
1002	 0.011462274680437 
1003	 1.14551384035298E-02 
1004	 1.12068934263317E-02 
1005	 1.11766005412364E-02 
1006	 1.11527440095759E-02 
1007	 0.011013245619554 
1008	 1.10306148022549E-02 
1009	 1.10474752320181E-02 
1010	 1.10259992541712E-02 
1011	 0.010888743864569 
1012	 1.08211316622922E-02 
1013	 1.09020107907034E-02 
1014	 1.09080952816689E-02 
1015	 1.08560320644902E-02 
1016	 1.08977193136558E-02 
1017	 1.10232718238871E-02 
1018	 1.09792965132062E-02 
1019	 0.010788758456665 
1020	 0.010815891718396 
1021	 1.08418559701685E-02 
1022	 1.10018664174777E-02 
1023	 1.12392372338669E-02 
1024	 1.11495366576465E-02 
1025	 1.10613863782629E-02 
1026	 1.10994167652673E-02 
1027	 1.11945238765244E-02 
1028	 1.16531702683336E-02 
1029	 1.15212285442341E-02 
1030	 1.09548546313891E-02 
1031	 1.08320658842086E-02 
1032	 1.04662871124911E-02 
1033	 0.010497508648461 
1034	 1.11326270997654E-02 
1035	 1.14697711297523E-02 
1036	 0.011977110747463 
1037	 1.21052147881868E-02 
1038	 1.19929589594902E-02 
1039	 1.18055548854175E-02 
1040	 1.15637106454427E-02 
1041	 1.12209142595982E-02 
1042	 0.011163956504578 
1043	 1.13708682964502E-02 
1044	 1.13967535735228E-02 
1045	 1.14014027255415E-02 
1046	 1.15376031949858E-02 
1047	 1.18336060244674E-02 
1048	 1.18316668321459E-02 
1049	 1.17805551375694E-02 
1050	 1.17115958787688E-02 
1051	 1.12291551204387E-02 
1052	 1.11438360163661E-02 
1053	 1.14363649690001E-02 
1054	 1.15156986172333E-02 
1055	 1.16459328891242E-02 
1056	 1.17476457888034E-02 
1057	 0.011799525279943 
1058	 1.17802579410701E-02 
1059	 1.16321762136504E-02 
1060	 1.13624734385789E-02 
1061	 1.12630171099789E-02 
1062	 1.09393636481183E-02 
1063	 1.10031497089353E-02 
1064	 1.16501771699536E-02 
1065	 1.17129362904757E-02 
1066	 0.011589333846734 
1067	 1.15413086859789E-02 
1068	 1.09985098991736E-02 
1069	 0.010938970630017 
1070	 1.15806963199438E-02 
1071	 1.16704528154504E-02 
1072	 1.15989334965917E-02 
1073	 1.14667661787379E-02 
1074	 1.14881264389475E-02 
1075	 1.12460166710154E-02 
1076	 1.11801713708958E-02 
1077	 1.15657409843293E-02 
1078	 1.14728449800303E-02 
1079	 1.08587780029004E-02 
1080	 1.07610126686739E-02 
1081	 1.07545498278292E-02 
1082	 1.07940400528438E-02 
1083	 1.13561737591448E-02 
1084	 1.13787818603544E-02 
1085	 0.010953332681326 
1086	 1.08331717112965E-02 
1087	 1.05119945056464E-02 
1088	 1.03934883225989E-02 
1089	 1.06069208840003E-02 
1090	 1.08701551519471E-02 
1091	 1.08986506612949E-02 
1092	 0.010799342070937 
1093	 1.07226553506348E-02 
1094	 1.05958067897492E-02 
1095	 1.03986113564244E-02 
1096	 1.00957899914959E-02 
1097	 9.96627043877007E-03 
1098	 9.64191658383467E-03 
1099	 9.58730137612961E-03 
1100	 1.02431017522199E-02 
1101	 1.01542157876733E-02 
1102	 9.49839256871894E-03 
1103	 9.37491562735682E-03 
1104	 9.42286299259184E-03 
1105	 8.68669559518812E-03 
1106	 8.5849424549909E-03 
1107	 8.90191232612276E-03 
1108	 8.77916497256584E-03 
1109	 8.62678505109827E-03 
1110	 8.58737218493776E-03 
1111	 9.04607478301124E-03 
1112	 8.93524015006941E-03 
1113	 8.33850805863186E-03 
1114	 7.92970842386331E-03 
1115	 6.84461824209057E-03 
1116	 6.61772812284668E-03 
1117	 7.97258846480378E-03 
1118	 7.66532155378705E-03 
1119	 6.66762377435011E-03 
1120	 5.90730704959939E-03 
1121	 2.3636483037402E-03 
1122	-9.64078294091146E-04 
1123	 4.05279915821481E-03 
1124	 6.65623670377169E-03 
1125	 1.67891549082837E-03 
1126	 2.47937111052486E-03 
1127	-7.61330817781172E-04 
1128	-3.02535942179706E-03 
1129	-1.5804821904656E-03 
1130	 5.71652970337175E-03 
1131	 5.6081165976278E-03 
1132	 3.20749965081636E-03 
1133	 2.99203065170297E-03 
1134	 1.2460814338104E-03 
1135	 1.77290256726299E-03 
1136	 4.87701766287415E-03 
1137	 5.84519741229069E-03 
1138	 6.38825793829463E-03 
1139	 7.07443685207484E-03 
1140	 6.21581377952032E-03 
1141	 4.30032010062466E-03 
1142	 4.68741758617209E-03 
1143	 5.18975178901963E-03 
1144	 5.36680901663851E-03 
1145	 5.61721727318732E-03 
1146	 4.94384177549811E-03 
1147	 4.48492150998525E-03 
1148	 4.3575750963485E-03 
1149	 4.84662323390263E-03 
1150	 5.09002541065788E-03 
1151	 4.92160562644644E-03 
1152	 5.03032425448796E-03 
1153	 5.14759964141682E-03 
1154	 5.59754442491336E-03 
1155	 6.10268771486748E-03 
1156	 6.6055723991096E-03 
1157	 7.56227962084983E-03 
1158	 8.22868581821479E-03 
1159	 8.33012674783909E-03 
1160	 8.34251385654089E-03 
1161	 7.92730127561458E-03 
1162	 7.9029637650739E-03 
1163	 8.33312313564035E-03 
1164	 8.49274414912721E-03 
1165	 8.52344909023845E-03 
1166	 8.39807398901403E-03 
1167	 8.45067201652032E-03 
1168	 8.78807302040347E-03 
1169	 8.81013659707536E-03 
1170	 8.70639726290967E-03 
1171	 8.82608651499368E-03 
1172	 8.87026728464819E-03 
1173	 8.83219773436959E-03 
1174	 8.91027381161965E-03 
1175	 9.13158559303914E-03 
1176	 9.04663238824819E-03 
1177	 8.87039788779637E-03 
1178	 8.94646767790428E-03 
1179	 9.07925954946076E-03 
1180	 8.99663425326359E-03 
1181	 8.78026797400323E-03 
1182	 8.81693904209871E-03 
1183	 8.92550710609806E-03 
1184	 8.79229605760735E-03 
1185	 8.77623108984051E-03 
1186	 8.81466694869118E-03 
1187	 8.84696397690007E-03 
1188	 9.04191576593528E-03 
1189	 9.20366641612407E-03 
1190	 9.33118734429365E-03 
1191	 9.44794267214855E-03 
1192	 9.42953260052452E-03 
1193	 9.33628571673361E-03 
1194	 9.32607206269341E-03 
1195	 9.35610004189005E-03 
1196	 9.25952389529041E-03 
1197	 9.34408076216918E-03 
1198	 9.52328718328505E-03 
1199	 9.47416500648741E-03 
1200	 9.37072478431354E-03 
1201	 9.26931607036295E-03 
1202	 9.23660562596862E-03 
1203	 9.28026022331822E-03 
1204	 9.32114219556709E-03 
1205	 9.40021975915095E-03 
1206	 9.43627944937512E-03 
1207	 9.52737851484057E-03 
1208	 9.5200406447742E-03 
1209	 9.37255293379843E-03 
1210	 9.51184488727421E-03 
1211	 9.58037064091409E-03 
1212	 9.40323732182476E-03 
1213	 9.45979995062745E-03 
1214	 9.47897234201527E-03 
1215	 9.3984779035419E-03 
1216	 9.19395153543913E-03 
1217	 9.29911605607356E-03 
1218	 9.43416471948122E-03 
1219	 9.45604498420525E-03 
1220	 9.55786985142429E-03 
1221	 9.64890458879898E-03 
1222	 9.74277009122887E-03 
1223	 9.81614632127837E-03 
1224	 9.64239717121678E-03 
1225	 9.56560070030969E-03 
1226	 9.70375673021699E-03 
1227	 9.7518060510844E-03 
1228	 9.88930687572582E-03 
1229	 1.01998823505814E-02 
1230	 1.02776694015514E-02 
1231	 1.00391888278914E-02 
1232	 9.90773240556042E-03 
1233	 9.89853677708755E-03 
1234	 9.79556198426207E-03 
1235	 9.78148332717622E-03 
1236	 1.01034316915429E-02 
1237	 1.01839964250192E-02 
1238	 1.01451961772957E-02 
1239	 9.95986283559635E-03 
1240	 1.00362979037833E-02 
1241	 1.00903617679153E-02 
1242	 9.98255013232266E-03 
1243	 9.9646511586477E-03 
1244	 1.00116773488171E-02 
1245	 9.98895979571303E-03 
1246	 1.00237453572012E-02 
1247	 1.01357961484416E-02 
1248	 0.010123820936478 
1249	 9.93316929819565E-03 
1250	 9.86413379729425E-03 
1251	 1.00774457538001E-02 
1252	 1.02230614124352E-02 
1253	 1.00527770290474E-02 
1254	 9.91235672417797E-03 
1255	 1.00014419644236E-02 
1256	 0.009918169396466 
1257	 9.67159826170751E-03 
1258	 9.69769843758925E-03 
1259	 9.83813101159029E-03 
1260	 9.77012347311339E-03 
1261	 9.82889484048981E-03 
1262	 9.8561351314306E-03 
1263	 9.73012278880848E-03 
1264	 9.59708441448929E-03 
1265	 9.5911542381516E-03 
1266	 9.61317524365352E-03 
1267	 9.65824037213789E-03 
1268	 9.42845935535425E-03 
1269	 9.3393553225198E-03 
1270	 9.53428992247651E-03 
1271	 9.42284513151266E-03 
1272	 9.31869512384626E-03 
1273	 9.46273701630936E-03 
1274	 9.33140384014058E-03 
1275	 9.10730020679147E-03 
1276	 9.33200880616554E-03 
1277	 9.67794818582166E-03 
1278	 9.68936624637963E-03 
1279	 9.59263030932079E-03 
1280	 9.64876844923651E-03 
1281	 9.73605996972841E-03 
1282	 9.61883473113856E-03 
1283	 9.60081674674952E-03 
1284	 9.95391880295345E-03 
1285	 9.98642974953856E-03 
1286	 9.61149079056076E-03 
1287	 9.56723722753585E-03 
1288	 9.73413102900927E-03 
1289	 9.62876290406973E-03 
1290	 9.36046988192837E-03 
1291	 9.38310610647643E-03 
1292	 9.36127108232849E-03 
1293	 9.2925004139781E-03 
1294	 9.30963598157748E-03 
1295	 9.25846324930402E-03 
1296	 8.96764169314601E-03 
1297	 8.83394581891689E-03 
1298	 9.15309032738594E-03 
1299	 9.33708418177882E-03 
1300	 8.96270083734547E-03 
1301	 8.62519521448649E-03 
1302	 8.89562045416633E-03 
1303	 8.97182990886579E-03 
1304	 8.77642445416448E-03 
1305	 9.15993992260938E-03 
1306	 9.27323699149409E-03 
1307	 8.52741349202301E-03 
1308	 8.30710829643376E-03 
1309	 8.85927128822042E-03 
1310	 8.88973281702656E-03 
1311	 8.32472042242009E-03 
1312	 8.19960436786524E-03 
1313	 8.50886566102633E-03 
1314	 8.48013051547684E-03 
1315	 8.28658746686015E-03 
1316	 8.22096188415574E-03 
1317	 8.0532080691542E-03 
1318	 7.87680658607194E-03 
1319	 7.81811335035047E-03 
1320	 7.71869162670161E-03 
1321	 7.75335949595699E-03 
1322	 7.35425230868293E-03 
1323	 6.87102747099096E-03 
1324	 6.93741625867154E-03 
1325	 7.12972190817817E-03 
1326	 6.88856106872612E-03 
1327	 6.83145779067168E-03 
1328	 6.8767164117849E-03 
1329	 6.53156776244033E-03 
1330	 5.93218608882538E-03 
1331	 5.35690124531142E-03 
1332	 5.52951288422828E-03 
1333	 6.18500503643258E-03 
1334	 6.74996512860687E-03 
1335	 6.9693522588701E-03 
1336	 7.08111187399046E-03 
1337	 6.95778773396412E-03 
1338	 6.11707459332376E-03 
1339	 6.04634865995136E-03 
1340	 6.47771744882908E-03 
1341	 6.53572028696889E-03 
1342	 6.79834438955763E-03 
1343	 6.74407411151064E-03 
1344	 6.04635026168881E-03 
1345	 5.39862861518521E-03 
1346	 3.92464337730734E-03 
1347	 3.35153179842917E-03 
1348	 5.61676265186853E-03 
1349	 4.87843710681051E-03 
1350	-1.88056004001663E-03 
1351	-3.23803502546421E-03 
1352	 3.25421829085469E-03 
1353	-1.57345899958703E-03 
1354	-1.42252577366658E-02 
1355	-1.53871769471551E-02 
1356	 8.23495924653142E-03 
1357	 2.1579106146052E-03 
1358	 0.022559665204348 
1359	 8.91986491333307E-02 
1360	-2.55964155401616E-02 
1361	-4.20006447835472E-02 
1362	 8.94597354225047E-02 
1363	 0.110854608570569 
1364	 6.21945517637484E-02 
1365	-0.106163321933063 
1366	-0.207212488333383 
1367	-0.243633462275376 
1368	-0.261021500938267 
1369	-0.209431118048695 
1370	-0.257239311222262 
1371	-0.292296876997376 
1372	-0.291023782406483 
1373	-0.366305665657387 
1374	-0.693896693585803 
1375	-0.942787461694141 
1376	-0.859317113404788 
1377	-1.06903047162185 
1378	-0.802607971281551 
1379	-0.215130572707551 
1380	-7.40992860115214E-02 
1381	-0.127569549980561 
1382	-0.176820700317836 
1383	-8.72589448897309E-02 
1384	 0.134353809183039 
1385	 0.367861215919003 
1386	 0.165699849651614 
1387	-0.290303569684393 
1388	-0.265223066573516 
1389	-9.0415674648517E-03 
1390	-0.212911917830035 
1391	-0.132166700530253 
1392	-0.233236005452171 
1393	-0.616138411247214 
1394	-0.484390568666465 
1395	-2.39092672771329E-02 
1396	 0.35193507775713 
1397	 0.227452046030716 
1398	-0.182240759296031 
1399	-0.313540327272606 
1400	-0.276302233451007 
1401	-0.139224249902844 
1402	-8.94093376307571E-02 
1403	-0.13217830749147 
1404	 4.73965552128654E-02 
1405	 8.52536385822037E-02 
1406	-0.104416614951225 
1407	-0.195464808392332 
1408	-0.236379937366652 
1409	-0.200689428849739 
1410	-0.169741926964504 
1411	-0.117311181577938 
1412	-4.70084226206099E-03 
1413	 3.99845735613887E-02 
1414	 8.31208391518948E-02 
1415	 2.59241378424379E-02 
1416	-0.138191962949346 
1417	-9.44443326996424E-02 
1418	 1.19465808122781E-02 
1419	-1.13083630893445E-03 
1420	 0.026401381520458 
1421	 4.19833539270066E-02 
1422	-6.78035928847388E-03 
1423	-2.23529193919355E-02 
1424	-5.1494110698002E-03 
1425	 1.25507022794059E-03 
1426	 2.93759456731757E-03 
1427	-6.57100928265664E-03 
1428	-2.79068219582866E-02 
1429	-2.22607455865991E-02 
1430	-7.40886513794481E-03 
1431	-1.04187651501298E-02 
1432	-7.87286698570086E-03 
1433	 3.14237337221902E-03 
1434	 0.007220559546406 
1435	 4.61140358811489E-03 
1436	 1.50610801545266E-02 
1437	 1.74673312276914E-02 
1438	 5.01921812376965E-03 
1439	-3.51414462330994E-03 
1440	-1.41849046281665E-03 
1441	 3.38114146112175E-03 
1442	-1.71205635326733E-03 
1443	-2.29948743870929E-03 
1444	 7.75213234772067E-03 
1445	 1.16708606718124E-02 
1446	 1.20627784916333E-02 
1447	 0.012307553882625 
1448	 4.47113942486251E-03 
1449	-1.03016809617865E-03 
1450	 4.62528221090406E-03 
1451	 6.92175212708498E-03 
1452	 3.58521603763993E-03 
1453	 4.72733173413412E-03 
1454	 4.91683964840048E-03 
1455	 1.25383342124677E-03 
1456	 1.60723340532457E-03 
1457	 6.36390826403482E-03 
1458	 6.8662872382537E-03 
1459	 4.89666781064175E-03 
1460	 4.99553314818434E-03 
1461	 5.74239254982191E-03 
1462	 5.80315254684733E-03 
1463	 6.19716042212377E-03 
1464	 6.57372152369943E-03 
1465	 6.92123354990334E-03 
1466	 0.006060301703482 
1467	 3.39142407657591E-03 
1468	 3.90330849570404E-03 
1469	 6.46151354643223E-03 
1470	 5.73108474559616E-03 
1471	 4.42264864541045E-03 
1472	 5.50424253058842E-03 
1473	 5.87962843282357E-03 
1474	 5.38175669685832E-03 
1475	 6.98427678721884E-03 
1476	 7.5983903947646E-03 
1477	 5.80939419039872E-03 
1478	 4.9700399964777E-03 
1479	 5.56657072393486E-03 
1480	 5.70171668967452E-03 
1481	 4.83228010454631E-03 
1482	 4.55386158257504E-03 
1483	 4.69557344556506E-03 
1484	 5.02161211400419E-03 
1485	 5.58639784355684E-03 
1486	 5.76113696316676E-03 
1487	 5.91838346171794E-03 
1488	 6.15563951982937E-03 
1489	 6.3086895891734E-03 
1490	 6.19590235583211E-03 
1491	 5.84950238988616E-03 
1492	 6.06728683571641E-03 
1493	 6.60110784262198E-03 
1494	 6.61464660724878E-03 
1495	 6.63474604435463E-03 
1496	 6.69841895421749E-03 
1497	 6.36003548948367E-03 
1498	 6.25754967067163E-03 
1499	 6.36884934989587E-03 
1500	 6.5927867516591E-03 
1501	 7.06285591078007E-03 
1502	 7.15686719414883E-03 
1503	 7.12996694944336E-03 
1504	 7.21360409864054E-03 
1505	 7.00230861166397E-03 
1506	 7.00866384785587E-03 
1507	 7.50384717127389E-03 
1508	 7.65425024042839E-03 
1509	 7.60597136410255E-03 
1510	 7.54514502236839E-03 
1511	 7.40482031981171E-03 
1512	 7.45255328345956E-03 
1513	 7.51532480700011E-03 
1514	 7.49052229424366E-03 
1515	 7.46215251657593E-03 
1516	 7.59428578777037E-03 
1517	 8.07366283356968E-03 
1518	 8.33844152189956E-03 
1519	 8.04267584410916E-03 
1520	 7.87882936006516E-03 
1521	 7.91094085681837E-03 
1522	 7.82389386436247E-03 
1523	 7.86200576777029E-03 
1524	 7.93936584412267E-03 
1525	 7.97370706345594E-03 
1526	 8.00000361976264E-03 
1527	 8.00661911801924E-03 
1528	 8.09684419941207E-03 
1529	 8.06187412662292E-03 
1530	 7.95016105520086E-03 
1531	 8.05523285879297E-03 
1532	 8.15527106795382E-03 
1533	 8.0335662144765E-03 
1534	 7.95456781107161E-03 
1535	 8.08841350702287E-03 
1536	 8.20194551843642E-03 
1537	 8.16118046466599E-03 
1538	 8.02698598539418E-03 
1539	 7.91051837058446E-03 
1540	 7.93035318406298E-03 
1541	 8.1298023782707E-03 
1542	 8.3507891043909E-03 
1543	 8.38293463810978E-03 
1544	 8.40035353294021E-03 
1545	 8.46382759875143E-03 
1546	 8.42100315143809E-03 
1547	 8.34483901174541E-03 
1548	 8.28666547235245E-03 
1549	 8.28603054102459E-03 
1550	 8.31286085858458E-03 
1551	 8.28951704786548E-03 
1552	 8.32188654391417E-03 
1553	 8.40504591116497E-03 
1554	 8.45962157657993E-03 
1555	 8.45805889351373E-03 
1556	 8.46752438937419E-03 
1557	 8.57509072374094E-03 
1558	 8.52491561733512E-03 
1559	 8.39374101720249E-03 
1560	 8.49319178759854E-03 
1561	 8.51336080136213E-03 
1562	 8.42791411119744E-03 
1563	 8.55081977300161E-03 
1564	 8.52924574252883E-03 
1565	 8.18313238685636E-03 
1566	 7.99368521671528E-03 
1567	 8.1132920617741E-03 
1568	 8.19060738447637E-03 
1569	 8.20213122260557E-03 
1570	 8.34696371465084E-03 
1571	 8.38967828920201E-03 
1572	 8.31545909624531E-03 
1573	 8.37300464241519E-03 
1574	 8.32069768763506E-03 
1575	 8.0846139529726E-03 
1576	 8.09723369350286E-03 
1577	 8.2363940394292E-03 
1578	 8.26358819507182E-03 
1579	 8.44579510035416E-03 
1580	 8.57627158660688E-03 
1581	 8.39449345127135E-03 
1582	 8.31035675820284E-03 
1583	 8.47426050168331E-03 
1584	 8.40825384680738E-03 
1585	 8.23456970973932E-03 
1586	 8.37384439162821E-03 
1587	 8.39066333243683E-03 
1588	 8.24618976339367E-03 
1589	 8.26635274959366E-03 
1590	 8.19115382859474E-03 
1591	 8.10743382618707E-03 
1592	 8.19707880859543E-03 
1593	 8.25111130899582E-03 
1594	 8.20985498205622E-03 
1595	 8.13515117143861E-03 
1596	 8.12343823191609E-03 
1597	 8.18880170050909E-03 
1598	 8.14968563371695E-03 
1599	 8.06385784810723E-03 
1600	 7.99724043118571E-03 
1601	 7.79165387762242E-03 
1602	 7.85892911715816E-03 
1603	 8.18756870820097E-03 
1604	 8.03918508236335E-03 
1605	 7.86985542725059E-03 
1606	 8.03103598017537E-03 
1607	 7.90784310210352E-03 
1608	 7.90863646120749E-03 
1609	 0.008240520843678 
1610	 8.2299706167617E-03 
1611	 8.16252385241489E-03 
1612	 8.25279234065179E-03 
1613	 8.12764001336865E-03 
1614	 7.9438608982049E-03 
1615	 8.03579856323697E-03 
1616	 8.18374525821508E-03 
1617	 8.02587235116521E-03 
1618	 7.95888985980205E-03 
1619	 8.10726542431027E-03 
1620	 8.07853055834724E-03 
1621	 8.14662892442229E-03 
1622	 8.35801669031852E-03 
1623	 0.008229332254915 
1624	 7.9752725896861E-03 
1625	 7.9068008937804E-03 
1626	 7.89139987303926E-03 
1627	 7.9604164936842E-03 
1628	 8.06828053322901E-03 
1629	 8.12241900950545E-03 
1630	 8.19448572020734E-03 
1631	 8.14909897271257E-03 
1632	 8.04149654299154E-03 
1633	 8.16826182966675E-03 
1634	 8.17407788462918E-03 
1635	 7.93734618961569E-03 
1636	 7.91925767143683E-03 
1637	 7.92164323808047E-03 
1638	 7.94977591028344E-03 
1639	 8.32381607263433E-03 
1640	 8.42879857410484E-03 
1641	 8.10062484482765E-03 
1642	 7.98027862676925E-03 
1643	 8.00409754612688E-03 
1644	 7.94295297553073E-03 
1645	 7.9567409327801E-03 
1646	 0.007912918494594 
1647	 7.79690496910545E-03 
1648	 7.84697426568747E-03 
1649	 7.92620643245649E-03 
1650	 7.93490017287083E-03 
1651	 7.97902720455716E-03 
1652	 7.93214776476993E-03 
1653	 7.79466889229204E-03 
1654	 7.82987976288862E-03 
1655	 7.84967527753619E-03 
1656	 7.71228663094874E-03 
1657	 7.52166785703705E-03 
1658	 7.63755030864029E-03 
1659	 7.80456726289229E-03 
1660	 7.76139452784559E-03 
1661	 8.04231793950851E-03 
1662	 8.04458918632155E-03 
1663	 7.40947969661557E-03 
1664	 7.38549600781221E-03 
1665	 7.88266868356547E-03 
1666	 7.87425997407131E-03 
1667	 7.63914662527949E-03 
1668	 7.81773509214287E-03 
1669	 7.9710186690137E-03 
1670	 8.01592371130267E-03 
1671	 7.87769862590456E-03 
1672	 7.65335317304654E-03 
1673	 7.65874853116223E-03 
1674	 7.65882412854645E-03 
1675	 7.74163358727957E-03 
1676	 8.02652855861024E-03 
1677	 7.94409771818343E-03 
1678	 7.62539640550076E-03 
1679	 7.92671733959343E-03 
1680	 8.22513047242672E-03 
1681	 7.79470076627673E-03 
1682	 7.6526449644615E-03 
1683	 7.84547258866292E-03 
1684	 7.65606483861389E-03 
1685	 7.54751182656213E-03 
1686	 7.91632412388438E-03 
1687	 7.92101569155865E-03 
1688	 7.41222523204686E-03 
1689	 7.52358838869947E-03 
1690	 7.8296459896405E-03 
1691	 7.61949647682232E-03 
1692	 7.68379714908182E-03 
1693	 7.94292161704117E-03 
1694	 7.7164555597523E-03 
1695	 7.59407012725626E-03 
1696	 7.90265421966719E-03 
1697	 7.88004696219169E-03 
1698	 7.55784589030041E-03 
1699	 7.58340004181729E-03 
1700	 7.64056107324648E-03 
1701	 7.34719043413719E-03 
1702	 7.33063704458365E-03 
1703	 7.62416960523752E-03 
1704	 7.66086352592623E-03 
1705	 7.75066610295081E-03 
1706	 7.82900574051995E-03 
1707	 7.4849215627536E-03 
1708	 6.98584888489547E-03 
1709	 6.90713683515226E-03 
1710	 7.31353678833812E-03 
1711	 7.53779740393421E-03 
1712	 7.46589375041627E-03 
1713	 7.34218114854772E-03 
1714	 7.29787334990775E-03 
1715	 7.46460687345704E-03 
1716	 7.53924392471147E-03 
1717	 7.20825098335067E-03 
1718	 7.39037673195576E-03 
1719	 7.44983569347608E-03 
1720	 7.17500443434354E-03 
1721	 7.07247414710163E-03 
1722	 6.95211344545285E-03 
1723	 6.72435689612118E-03 
1724	 6.95321473348328E-03 
1725	 7.50492038736257E-03 
1726	 7.39693739607694E-03 
1727	 6.92002284033311E-03 
1728	 6.74851435876458E-03 
1729	 6.84822438509968E-03 
1730	 7.38531971246473E-03 
1731	 8.08385459259951E-03 
1732	 7.83364842342898E-03 
1733	 6.96382819180603E-03 
1734	 6.58984453861413E-03 
1735	 6.5151613586137E-03 
1736	 6.61327335221029E-03 
1737	 7.06499760656911E-03 
1738	 6.97115759852398E-03 
1739	 6.18971555970267E-03 
1740	 6.39108816125653E-03 
1741	 7.09104524464086E-03 
1742	 6.66719604919466E-03 
1743	 6.35277793250467E-03 
1744	 6.20100824977012E-03 
1745	 5.47650402551936E-03 
1746	 6.74698779276316E-03 
1747	 6.93488537266442E-03 
1748	 6.50261965556949E-03 
1749	 6.57423627021167E-03 
1750	 6.17746867577817E-03 
1751	 6.19095951381006E-03 
1752	 7.07149954640639E-03 
1753	 7.07695735021988E-03 
1754	 6.59844789987202E-03 
1755	 6.43523020901684E-03 
1756	 5.7493807698494E-03 
1757	 5.98561549299349E-03 
1758	 6.37480109577864E-03 
1759	 6.09350679092356E-03 
1760	 7.07787416815041E-03 
1761	 7.21631128367673E-03 
1762	 5.73680326596852E-03 
1763	 5.56869261886051E-03 
1764	 5.4461251926225E-03 
1765	 5.01127582547186E-03 
1766	 6.12015375520955E-03 
1767	 6.80413883532388E-03 
1768	 6.06002893232279E-03 
1769	 5.57072482299644E-03 
1770	 5.57777613164828E-03 
1771	 4.87541755795658E-03 
1772	 0.004836424516459 
1773	 5.79910352218488E-03 
1774	 5.35531591664267E-03 
1775	 5.05332062068252E-03 
1776	 5.35789452709681E-03 
1777	 6.41631419290769E-03 
1778	 6.47455943823015E-03 
1779	 6.21046092615634E-03 
1780	 5.95265927430082E-03 
1781	 3.94590826749455E-03 
1782	 3.65705278976994E-03 
1783	 5.84399067679234E-03 
1784	 5.13417601253287E-03 
1785	 2.64319625872282E-03 
1786	 1.98980376710037E-03 
1787	 1.47600502619767E-04 
1788	 6.84698010994014E-04 
1789	 5.42686551522154E-03 
1790	 4.42535181761511E-03 
1791	 3.09208481607259E-03 
1792	-1.04413233197832E-03 
1793	-1.58179394344563E-03 
1794	 3.92150585109966E-03 
1795	 8.33998231400425E-03 
1796	 1.04872983761158E-02 
1797	 7.54406867422584E-03 
1798	-3.28990931047865E-03 
1799	-1.16601974802667E-02 
1800	-1.11448245523339E-03 
1801	 1.12409825796185E-03 
1802	 3.18778192893288E-03 
1803	 5.45282028266909E-03 
1804	-3.14118862880887E-03 
1805	-1.29064456502537E-02 
1806	-2.07328882980559E-02 
1807	-2.82817644454052E-02 
1808	-6.80523448898321E-02 
1809	-6.66986049313194E-02 
1810	 2.59272967483516E-02 
1811	 8.65073449255833E-02 
1812	 0.218402461120241 
1813	 0.249491769037235 
1814	 5.81882813579328E-02 
1815	-0.104292789622245 
1816	-0.504404700924041 
1817	-0.513017493845192 
1818	-0.437119126101006 
1819	-0.396775212209828 
1820	-0.207999027421519 
1821	-0.284497573334786 
1822	-0.279307708348503 
1823	-0.424931236033875 
1824	-0.46249387964457 
1825	 0.330182847764582 
1826	 0.308542259550592 
1827	-0.322709465272827 
1828	-0.404668685220195 
1829	-0.774666902396898 
1830	-0.748430373881506 
1831	-2.04198285359294 
1832	 27.0952542902809 
1833	-8.28741436599983E-02 
1834	-0.294685369205914 
1835	-1.36176453792996 
1836	-4.27319386379865 
1837	 1.19034857840698 
1838	 0.759427490538308 
1839	 0.477444356882283 
1840	 0.256118930071043 
1841	-7.00562086938555E-03 
1842	-0.513859643220531 
1843	-0.690496916337606 
1844	-0.109892454684224 
1845	-0.202421158357546 
1846	-0.434867027867479 
1847	-0.360648712227409 
1848	-0.158739007861081 
1849	 3.07172779414606E-03 
1850	 0.950269804271463 
1851	 1.03859802533768 
1852	 6.66159537810538E-02 
1853	 3.85754263438909E-03 
1854	-0.151108075967526 
1855	-0.414101988908261 
1856	-0.905602389645519 
1857	 10.496989267102 
1858	 6.85234536460205 
1859	-3.52614228195538 
1860	-1.72106335690227 
1861	-1.46382758168351 
1862	-1.09510693368713 
1863	-1.39676039636821 
1864	-30.811551595818 
1865	 6.23435478745653 
1866	-4.0131217413258 
1867	-2.22122216846372 
1868	-2.93487588053844 
1869	-7.35082120627673 
1870	-2.68005311370346 
1871	-5.02893387839791 
1872	 1.24420762261932 
1873	 28.5479230912642 
1874	-1.19258440381756 
1875	-9.30238326229391E-02 
1876	 0.242670621307978 
1877	-0.334442906464241 
1878	-0.24183256893594 
1879	-3.99610367785427 
1880	-1.23957612201179 
1881	-0.471847381703548 
1882	-0.528272394680722 
1883	-0.384417672900958 
1884	 0.378683689073759 
1885	-0.206273976084043 
1886	-1.00016136789971 
1887	 1.90494009925952 
1888	 0.330583747100297 
1889	-1.90060922896329E-04 
1890	-1.20329951325234 
1891	-1.45073152272995 
1892	-5.15584248628836 
1893	-1.3255613962617 
1894	-0.200818572339057 
1895	 0.156910845315769 
1896	 0.488908796889821 
1897	 1.09482666874732 
1898	 1.71390635712539 
1899	-39.5559901071813 
1900	-6.00892165631313 
1901	-1.09573129751231 
1902	-0.55549638438073 
1903	-0.124893209527807 
1904	 0.141256792883948 
1905	 0.503408083661421 
1906	 0.345216985002171 
1907	 9.98743376177282E-03 
1908	-0.656787391197172 
1909	-1.97778438136143 
1910	-12.7505495097776 
1911	 0.168888438850646 
1912	 0.10940993156595 
1913	 0.478231402503066 
1914	-1.37731087925438 
1915	-0.836601493453505 
1916	-0.849126855672864 
1917	-0.574857073095511 
1918	-4.38515705039838E-02 
1919	 6.61892888096443E-02 
1920	-0.304466392805543 
1921	-0.492602024272147 
1922	-0.407804070552761 
1923	-0.327535836169652 
1924	-9.22461746624513E-02 
1925	-0.115126971329335 
1926	-0.501826882418869 
1927	-6.0097719576738 
1928	 3.03022010220235 
1929	 2.14170131476869 
1930	 2.14845306718394 
1931	 1.84646517667986 
1932	 2.28196636551646 
1933	 1.2086640948944 
1934	 0.505949614128428 
1935	 0.345280848902159 
1936	 0.390496628452674 
1937	 0.183205698695093 
1938	-3.11272338443378E-03 
1939	-2.60257966408127E-02 
1940	 4.76543237739224E-02 
1941	 0.064007185796041 
1942	 7.95903635903589E-02 
1943	 0.108092532998483 
1944	 9.08840802368161E-02 
1945	 2.40261718368516E-02 
1946	-6.93100906237743E-03 
1947	 1.41774486363226E-02 
1948	 2.04629639468393E-02 
1949	 3.70593173704457E-02 
1950	 4.91499095900706E-02 
1951	 3.88083925081147E-02 
1952	 3.20175080219176E-02 
1953	 1.88502782420076E-02 
1954	 1.94108522167244E-02 
1955	 3.48886849382853E-02 
1956	 3.18229007335304E-02 
1957	 2.18325975218476E-02 
1958	 1.99802086658997E-02 
1959	 1.17594702138199E-02 
1960	 6.70254010624185E-03 
1961	 6.22461397321775E-03 
1962	 4.79851089765549E-03 
1963	 6.56530800956808E-03 
1964	 9.13301061044755E-03 
1965	 8.17175944031021E-03 
1966	 7.69984426969699E-03 
1967	 7.70334899776678E-03 
1968	 7.83710623338285E-03 
1969	 7.35658126810794E-03 
1970	 7.62128915450198E-03 
1971	 7.63767409354237E-03 
1972	 7.99901843243049E-03 
1973	 7.22278559570139E-03 
1974	 6.80809291443198E-03 
1975	 6.51807405999855E-03 
1976	 4.3486333743862E-03 
1977	 4.2854868078276E-03 
1978	 4.19091499841454E-03 
1979	 4.19062349465951E-03 
1980	 4.7380205360345E-03 
1981	 6.36256602779529E-03 
1982	 5.28940224032077E-03 
1983	 4.73789762724751E-03 
1984	 5.42893307207537E-03 
1985	 4.58719910105465E-03 
1986	 4.88906364863383E-03 
1987	 5.95424192717677E-03 
1988	 5.1263596012008E-03 
1989	 5.02893472132251E-03 
1990	 6.10653985440462E-03 
1991	 6.84607424736149E-03 
1992	 6.83946510752193E-03 
1993	 6.58189155970378E-03 
1994	 7.16118890892435E-03 
1995	 7.93207243252652E-03 
1996	 8.07931443627819E-03 
1997	 8.86903442244472E-03 
1998	 1.02325523467361E-02 
1999	 8.23512344811586E-03 
2000	 5.5077068743721E-03 
2001	 6.17402656370615E-03 
2002	 7.69967827642367E-03 
2003	 7.21125214572962E-03 
2004	 6.62813141318448E-03 
2005	 8.0386241181276E-03 
2006	 7.94471301686289E-03 
2007	 8.77833868488865E-03 
2008	 1.32269328484147E-02 
2009	 1.42858871748653E-02 
2010	 1.01373958933626E-02 
2011	 8.35271144911403E-03 
2012	 6.81446148206777E-03 
2013	 6.79684896814398E-03 
2014	 7.59616939240032E-03 
2015	 8.9141125768002E-03 
2016	 0.010389778367192 
2017	 1.05116519903853E-02 
2018	 7.82243535243332E-03 
2019	 7.17864374343383E-03 
2020	 8.53267672151563E-03 
2021	 8.02996953044361E-03 
2022	 7.64300453121799E-03 
2023	 0.007781616448072 
2024	 7.58975910168414E-03 
2025	 6.81371176169618E-03 
2026	 6.75268164304985E-03 
2027	 7.12676376315772E-03 
2028	 6.99256042665466E-03 
2029	 7.10830145238355E-03 
2030	 7.00234498941488E-03 
2031	 6.8053570185708E-03 
2032	 7.18591722223655E-03 
2033	 7.63182658868268E-03 
2034	 7.80365022883949E-03 
2035	 7.91170395352578E-03 
2036	 7.81525626242684E-03 
2037	 7.26854824032023E-03 
2038	 6.80553694287854E-03 
2039	 6.66737205612049E-03 
2040	 6.75118863766521E-03 
2041	 6.66967701313615E-03 
2042	 6.6048746707144E-03 
2043	 6.72032237142537E-03 
2044	 6.71810133034622E-03 
2045	 7.24748797165561E-03 
2046	 7.83385635280247E-03 
2047	 9.04264489921449E-03 
2048	 9.8390221989104E-03 
2049	 9.6544044855266E-03 
2050	 8.83707288887967E-03 
2051	 7.45257808775532E-03 
2052	 6.18609412593801E-03 
2053	 5.24185654901384E-03 
2054	 0.005120392045509 
2055	 6.06317999481527E-03 
2056	 6.86189108889783E-03 
2057	 8.75051802397346E-03 
2058	 8.86375403180882E-03 
2059	 8.09450534967332E-03 
2060	 7.56991955352054E-03 
2061	 5.99058919830422E-03 
2062	 4.83817560591743E-03 
2063	 5.79380369521533E-03 
2064	 6.62650304161471E-03 
2065	 5.65540940464249E-03 
2066	 5.78360940075506E-03 
2067	 6.29722630180782E-03 
2068	 5.69406391859646E-03 
2069	 6.09007554266362E-03 
2070	 6.90493631813293E-03 
2071	 5.98379591573804E-03 
2072	 5.40430427905391E-03 
2073	 5.67440935818074E-03 
2074	 6.79147794241739E-03 
2075	 6.76618084349424E-03 
2076	 6.98152955807833E-03 
2077	 7.00190324856502E-03 
2078	 5.93106762946871E-03 
2079	 5.96651692654519E-03 
2080	 7.00288647968604E-03 
2081	 7.14105201188965E-03 
2082	 6.46528419911581E-03 
2083	 6.45841687626775E-03 
2084	 6.36269179020909E-03 
2085	 6.16841168639125E-03 
2086	 6.92258190469985E-03 
2087	 7.54727777101365E-03 
2088	 7.6321497358313E-03 
2089	 7.97452727598856E-03 
2090	 7.97823495068628E-03 
2091	 7.09167245006707E-03 
2092	 6.81240400934228E-03 
2093	 6.69926877062167E-03 
2094	 6.38663488602068E-03 
2095	 6.05533626111747E-03 
2096	 6.02833245340562E-03 
2097	 5.7267807465395E-03 
2098	 5.62158954424066E-03 
2099	 5.51402559808892E-03 
2100	 6.59371281229127E-03 
2101	 7.37406716071146E-03 
2102	 7.44111637241874E-03 
2103	 7.86465040639617E-03 
2104	 7.96329509134735E-03 
2105	 7.23911628258028E-03 
2106	 6.95782304450256E-03 
2107	 7.02087720907408E-03 
2108	 6.99867392791907E-03 
2109	 6.9517286465517E-03 
2110	 6.80766017067492E-03 
2111	 6.54505595060616E-03 
2112	 5.38756003138482E-03 
2113	 5.16179007552938E-03 
2114	 5.62102545006443E-03 
2115	 6.16237891385842E-03 
2116	 7.47147108117518E-03 
2117	 8.07568027313116E-03 
2118	 8.04843007123045E-03 
2119	 8.35097467483301E-03 
2120	 8.60945957495817E-03 
2121	 8.81699921295419E-03 
2122	 9.05356085363216E-03 
2123	 9.64456553866514E-03 
2124	 8.72213126904037E-03 
2125	 7.60053114025536E-03 
2126	 6.73612905750038E-03 
2127	 6.44135913311483E-03 
2128	 7.09718454249287E-03 
2129	 7.27514949909666E-03 
2130	 7.12497774432936E-03 
2131	 7.30314192219766E-03 
2132	 7.67755206831436E-03 
2133	 7.88947499965411E-03 
2134	 7.8539652121163E-03 
2135	 7.73055800321294E-03 
2136	 8.00431668176546E-03 
2137	 8.4709063953779E-03 
2138	 8.26117160766652E-03 
2139	 8.04462303736691E-03 
2140	 7.97824033927268E-03 
2141	 6.79404521573714E-03 
2142	 6.44288981694109E-03 
2143	 6.73937385938709E-03 
2144	 7.85659751506034E-03 
2145	 8.49202606678758E-03 
2146	 8.80302202282906E-03 
2147	 8.92306217198134E-03 
2148	 8.59443333557081E-03 
2149	 8.08020009672685E-03 
2150	 7.77005838839389E-03 
2151	 6.83652329488684E-03 
2152	 6.29883388070236E-03 
2153	 6.55387082455863E-03 
2154	 6.16829690852919E-03 
2155	 6.58237078218852E-03 
2156	 7.35153912055387E-03 
2157	 7.09945262925834E-03 
2158	 5.05246956488823E-03 
2159	 5.18476427921115E-03 
2160	 6.24484344953757E-03 
2161	 6.57349987652709E-03 
2162	 8.0167377882439E-03 
2163	 8.14169237283444E-03 
2164	 0.006717058160907 
2165	 6.44110355757785E-03 
2166	 5.73416133354042E-03 
2167	 6.27913381655903E-03 
2168	 9.17951818080858E-03 
2169	 9.5612481088097E-03 
2170	 9.36006729407476E-03 
2171	 8.72945188080405E-03 
2172	 6.82879975030592E-03 
2173	 5.14089844885852E-03 
2174	 4.82371091643892E-03 
2175	 4.51845257067443E-03 
2176	 3.77011938807241E-03 
2177	 0.003399180407814 
2178	 4.17415163609639E-03 
2179	 5.00809538210893E-03 
2180	 5.71231999351235E-03 
2181	 6.20556296214048E-03 
2182	 5.78346847679538E-03 
2183	 5.53565577533843E-03 
2184	 5.30981999520247E-03 
2185	 5.79626929371572E-03 
2186	 6.71616500965171E-03 
2187	 8.51622140382723E-03 
2188	 8.68491979011567E-03 
2189	 8.8260664668859E-03 
2190	 8.9459502585726E-03 
2191	 7.67395674817387E-03 
2192	 6.8955244157042E-03 
2193	 6.45613465156498E-03 
2194	 6.21683748468273E-03 
2195	 5.39887203821814E-03 
2196	 5.61309800239889E-03 
2197	 8.06548563130389E-03 
2198	 8.73722240710423E-03 
2199	 8.33267866542268E-03 
2200	 8.40769459433732E-03 
2201	 8.75101980647589E-03 
2202	 7.56220491046387E-03 
2203	 7.42425755227276E-03 
2204	 7.04219013977771E-03 
2205	 5.44674040258095E-03 
2206	 4.91966505666385E-03 
2207	 5.17008974608183E-03 
2208	 5.69042418504992E-03 
2209	 5.89888186890491E-03 
2210	 6.43313719973486E-03 
2211	 6.88238301370633E-03 
2212	 5.79395312940076E-03 
2213	 4.51413789078143E-03 
2214	 3.56075831485662E-03 
2215	 3.53086685536539E-03 
2216	 5.19084759235654E-03 
2217	 5.82652364557651E-03 
2218	 7.3752092213952E-03 
2219	 7.45119081006903E-03 
2220	 5.93655234068208E-03 
2221	 5.67476969271742E-03 
2222	 5.8006532208319E-03 
2223	 6.71212679396092E-03 
2224	 8.60082678035524E-03 
2225	 8.92976074284045E-03 
2226	 9.28862232575987E-03 
2227	 8.76576699245916E-03 
2228	 6.06979299308373E-03 
2229	 5.34991612573733E-03 
2230	 5.82962440300104E-03 
2231	 5.76145522081648E-03 
2232	 6.07236481995358E-03 
2233	 6.23860109872301E-03 
2234	 6.30988973002711E-03 
2235	 5.08449211567271E-03 
2236	 5.79793601152495E-03 
2237	 7.7054534722848E-03 
2238	 7.97133267032933E-03 
2239	 8.87604880167089E-03 
2240	 7.91745095060119E-03 
2241	 6.44598070885423E-03 
2242	 7.47564167878211E-03 
2243	 7.70067632726572E-03 
2244	 6.22410288695258E-03 
2245	 5.32379484131303E-03 
2246	 5.92745387699378E-03 
2247	 6.14264573358549E-03 
2248	 6.79557273562615E-03 
2249	 8.37381904044833E-03 
2250	 6.89254035598002E-03 
2251	 4.50428384096348E-03 
2252	 5.03897810858547E-03 
2253	 5.7885993862357E-03 
2254	 6.00953026255109E-03 
2255	 6.90869001046953E-03 
2256	 7.03188244884686E-03 
2257	 7.11830389890577E-03 
2258	 7.65488175257915E-03 
2259	 6.1577301171377E-03 
2260	 5.09075546238355E-03 
2261	 2.77332132193062E-03 
2262	 2.72812499720282E-03 
2263	 4.07684362897543E-03 
2264	 4.90400223346723E-03 
2265	 7.49577662364502E-03 
2266	 7.57131418260532E-03 
2267	 5.41801970738139E-03 
2268	 4.58561914337036E-03 
2269	 3.03967397984254E-03 
2270	 3.26954903762406E-03 
2271	 4.77378533025408E-03 
2272	 5.06279987114803E-03 
2273	 6.07353238836959E-03 
2274	 6.33615581403741E-03 
2275	 5.94206451853123E-03 
2276	 6.55963614308996E-03 
2277	 7.66668707788564E-03 
2278	 6.80030239226754E-03 
2279	 4.19441381799579E-03 
2280	 3.29858748828858E-03 
2281	 1.06648729673853E-03 
2282	 3.04992302033734E-03 
2283	 6.06469877061727E-03 
2284	 6.12612836622268E-03 
2285	 6.77539079827812E-03 
2286	 5.66934086867297E-03 
2287	 3.92918677678463E-03 
2288	 6.95965686258183E-03 
2289	 8.11815434145482E-03 
2290	 7.18689441515719E-03 
2291	 1.01656332909435E-02 
2292	 9.37020788471215E-03 
2293	 6.34475756280516E-03 
2294	 6.06466374274729E-03 
2295	 2.83485802419571E-03 
2296	 4.44873022355003E-04 
2297	 3.58235259554701E-03 
2298	 6.73443154519718E-03 
2299	 7.20044153500255E-03 
2300	 9.14903703348993E-03 
2301	 1.08818161919122E-02 
2302	 1.09196418782198E-02 
2303	 1.36832100376687E-02 
2304	 0.012185648528803 
2305	 5.5829959480976E-03 
2306	 4.70073865536971E-03 
2307	 3.36478024535239E-03 
2308	 1.90673391866945E-03 
2309	 5.47724881347229E-03 
2310	 3.18281553846903E-03 
2311	 1.28867706668193E-03 
2312	 4.66762548624551E-03 
2313	 4.38907608289022E-03 
2314	 6.39385333222359E-03 
2315	 0.011004764693023 
2316	 1.17488538913606E-02 
2317	 0.010338652466951 
2318	 1.07115230601933E-02 
2319	 1.07655651172264E-02 
2320	 7.71043550378707E-03 
2321	 9.02787187009458E-03 
2322	 1.13432777692143E-02 
2323	 6.08810175445912E-03 
2324	 7.06290182644835E-03 
2325	 1.38795577212801E-02 
2326	 1.05955952564035E-02 
2327	 9.13532187033899E-03 
2328	 1.04601747153906E-02 
2329	 5.84019927739931E-03 
2330	 3.80946349566633E-03 
2331	 5.53189569705461E-03 
2332	 6.12480532158605E-03 
2333	 5.59907627718601E-03 
2334	 7.81037566553915E-03 
2335	 8.21333908439533E-03 
2336	 9.45244120473132E-03 
2337	 1.56933907719516E-02 
2338	 1.65261283082509E-02 
2339	 1.12917577189273E-02 
2340	 9.49451600329706E-03 
2341	 8.99479332628839E-03 
2342	 8.43015289885872E-03 
2343	 1.11003326032334E-02 
2344	 1.05635694247276E-02 
2345	 7.75914506619446E-03 
2346	 7.05635441248364E-03 
2347	 1.24297829681972E-02 
2348	 1.18522059277647E-02 
2349	 1.5076915704148E-03 
2350	-1.32269971509642E-03 
2351	-9.24816972062788E-03 
2352	-0.012745972599029 
2353	 2.59974065607147E-03 
2354	 6.41643706488254E-03 
2355	 4.57470268768335E-03 
2356	 9.89935665603955E-03 
2357	 8.81442656086033E-03 
2358	 4.23242146534558E-03 
2359	 1.20898797955509E-03 
2360	 2.56061672391346E-03 
2361	 6.81617415960576E-03 
2362	 1.21408237131411E-02 
2363	 0.018075095778889 
2364	 2.49667801947702E-02 
2365	 2.50601627085752E-02 
2366	 1.27438752961586E-02 
2367	 8.18606764419165E-03 
2368	 5.98195216953964E-03 
2369	-1.06051545122227E-02 
2370	-1.52665666247734E-02 
2371	-1.01863008416176E-02 
2372	-2.27378566066102E-02 
2373	-0.024400391329816 
2374	-1.03186035639423E-02 
2375	-1.02741742137679E-02 
2376	-1.09552436958217E-02 
2377	-6.59345730293087E-03 
2378	-3.81898247162487E-03 
2379	-6.55263786990948E-03 
2380	-2.57769889190839E-02 
2381	-3.72023510764675E-02 
2382	-2.89810393674304E-02 
2383	-3.53173590546897E-02 
2384	-4.10773967143918E-02 
2385	-1.37786453597537E-02 
2386	-6.30146394309804E-04 
2387	-9.49704921795022E-03 
2388	-3.00930255668916E-03 
2389	-1.29935011221509E-02 
2390	-2.38035859161626E-02 
2391	 2.12268428251761E-03 
2392	 2.19415739158877E-02 
2393	 2.37493118287841E-02 
2394	 8.83157877677996E-03 
2395	-0.013892620257382 
2396	-1.84601949408717E-02 
2397	-8.46109599263065E-03 
2398	-5.86481272633819E-03 
2399	 1.10867800842124E-02 
2400	 2.04512988611815E-02 
2401	-1.30980658605768E-02 
2402	 4.80875238716732E-03 
2403	 2.02343503875231E-02 
2404	-5.21904866995712E-03 
2405	 3.22562700110102E-02 
2406	 4.77304346257556E-02 
2407	 8.36435195896762E-03 
2408	 1.45972956182496E-02 
2409	 2.92265915157384E-02 
2410	 2.87430596460195E-02 
2411	 5.63059172901952E-02 
2412	 5.94365521087003E-02 
2413	 1.52351734456168E-02 
2414	-1.81128026386063E-02 
2415	-6.18601902497209E-02 
2416	-6.71559820457102E-02 
2417	 1.16970992300983E-02 
2418	 0.02919586592665 
2419	-2.20412395458764E-02 
2420	-0.059508584128969 
2421	-0.124722585686141 
2422	-0.146951011890191 
2423	-0.121576697431419 
2424	-0.119957573565021 
2425	-0.115381201079792 
2426	-0.117647447903277 
2427	-8.55608883311249E-02 
2428	-6.56820766714414E-02 
2429	-0.131640833093652 
2430	-0.145040805890844 
2431	-0.135494544588548 
2432	-0.155153842940182 
2433	-4.65894487127717E-02 
2434	 1.50158453445742E-03 
2435	-7.65197186417534E-02 
2436	-3.59612320394093E-02 
2437	-9.77217741916859E-02 
2438	-0.21089433396167 
2439	-0.208565937788638 
2440	-0.265098663295612 
2441	-0.242787992983855 
2442	-0.110287728313866 
2443	-5.33638585693779E-02 
2444	 5.52927354111572E-02 
2445	 0.133793342518264 
2446	 0.140288611754239 
2447	 0.173342495647642 
2448	 8.36745078593729E-02 
2449	-0.677789893709465 
2450	-0.676340061004664 
2451	 0.356168702053983 
2452	 1.25179983984436 
2453	 0.828681211997629 
2454	 0.188572514758848 
2455	-0.161772324781164 
2456	-0.415421937262701 
2457	-0.501589041418462 
2458	-0.543472089964652 
2459	-0.332350905491222 
2460	-0.165450247023257 
2461	-0.270052306184638 
2462	-0.238853470838971 
2463	 7.99306879881372E-02 
2464	 0.393999756968682 
2465	 0.854003234541747 
2466	 2.86556032192713 
2467	 4.76724190759735 
2468	 0.376117071108714 
2469	 0.137077535949118 
2470	-1.01251308078872 
2471	 72.4955772078403 
2472	 4.45278733039619 
2473	 4.18431737677043 
2474	 3.24040488465776 
2475	 8.02732512661893 
2476	 3.47994521283348 
2477	 1.47411682642343 
2478	 1.77835161078475 
2479	 3.94243430805519 
2480	 0.654501311965931 
2481	-4.64466161676557 
2482	-0.278116718390823 
2483	-0.328755039649527 
2484	 2.58179427997657 
2485	 18.4477130292987 
2486	 8.8718171337512 
2487	-1.33550588073862 
2488	-1.34532696576999 
2489	-1.92855494723404 
2490	-1.42179527229275 
2491	-1.5635593115446 
2492	-1.60455138662594 
2493	-0.870793090313113 
2494	-0.433860476076006 
2495	 0.952671823785417 
2496	 0.301456879050879 
2497	 0.422961883712603 
2498	 0.545947256312561 
2499	 0.368214955321663 
2500	 0.783166962751286 
