Wavelength	rt0713west_far_sunny_200008.asd
350	 0.061408123899461 
351	 6.09923179928968E-02 
352	 6.07493326698095E-02 
353	 6.08686196846752E-02 
354	 6.10844323219131E-02 
355	 6.02821998072616E-02 
356	 0.059949716020615 
357	 5.99780318649737E-02 
358	 5.98212834602663E-02 
359	 0.059392352804635 
360	 5.92112746630851E-02 
361	 5.92369254017749E-02 
362	 5.90529213060891E-02 
363	 5.86640484189508E-02 
364	 0.058489904577483 
365	 5.86259725249665E-02 
366	 5.86234516715094E-02 
367	 5.85277389863794E-02 
368	 0.058293087044102 
369	 0.057918591125389 
370	 5.75113330533388E-02 
371	 5.77066678865793E-02 
372	 5.80017055029429E-02 
373	 5.74410432712634E-02 
374	 5.73975076294666E-02 
375	 5.75386587778577E-02 
376	 5.75345832695868E-02 
377	 5.73199002954731E-02 
378	 5.71574249006346E-02 
379	 5.70832040529529E-02 
380	 5.71327219553778E-02 
381	 5.75913795603621E-02 
382	 5.76479038706547E-02 
383	 5.74293369192982E-02 
384	 5.74774308564623E-02 
385	 0.057666702879828 
386	 5.74536608669585E-02 
387	 5.70969986528913E-02 
388	 5.76779679743073E-02 
389	 5.74403423750076E-02 
390	 5.71061194000932E-02 
391	 5.73541090901045E-02 
392	 5.75841191117742E-02 
393	 5.77183622720282E-02 
394	 5.77784059582644E-02 
395	 5.78136353131803E-02 
396	 5.76795074839033E-02 
397	 5.76532539376284E-02 
398	 5.77061909149794E-02 
399	 5.75559870498659E-02 
400	 5.74811662015168E-02 
401	 5.75446561640523E-02 
402	 5.76926504879068E-02 
403	 5.77048079215925E-02 
404	 5.77158999960995E-02 
405	 5.77438804461428E-02 
406	 5.77674001918524E-02 
407	 5.77785369497645E-02 
408	 5.78916678852536E-02 
409	 5.80177920207185E-02 
410	 5.78941274464965E-02 
411	 5.79761933431743E-02 
412	 0.058127199268923 
413	 5.81828402157872E-02 
414	 5.81591347036947E-02 
415	 5.82789136438704E-02 
416	 5.84829927595507E-02 
417	 5.86172379563172E-02 
418	 5.87567561168455E-02 
419	 5.88785768162812E-02 
420	 5.89608222416362E-02 
421	 5.89942590941543E-02 
422	 5.91989593633897E-02 
423	 5.94501714361267E-02 
424	 5.96209190306282E-02 
425	 5.97786649702387E-02 
426	 6.00411229417286E-02 
427	 6.03418698676308E-02 
428	 6.05563561046643E-02 
429	 6.08887437987626E-02 
430	 6.11211471462039E-02 
431	 6.12646155571258E-02 
432	 6.16321558120456E-02 
433	 6.18820891565643E-02 
434	 6.20810980221869E-02 
435	 6.23507702182102E-02 
436	 6.27054564528081E-02 
437	 6.30173660764998E-02 
438	 6.32797130187201E-02 
439	 6.35507159823085E-02 
440	 6.38069904380807E-02 
441	 6.40998170839761E-02 
442	 6.44310492366407E-02 
443	 6.47227596199141E-02 
444	 6.49744593393866E-02 
445	 6.52448911316732E-02 
446	 6.55716475357975E-02 
447	 6.58568171744538E-02 
448	 6.60473357711836E-02 
449	 6.62013934460801E-02 
450	 6.64471808210298E-02 
451	 6.66950860552042E-02 
452	 6.69047485148093E-02 
453	 6.70718618300185E-02 
454	 0.067244870056651 
455	 6.74321316265844E-02 
456	 6.76073439196182E-02 
457	 6.77433143576338E-02 
458	 6.78880394877366E-02 
459	 6.80428291348511E-02 
460	 6.82032959685946E-02 
461	 6.83586297221965E-02 
462	 6.84327818602152E-02 
463	 6.85524719753608E-02 
464	 6.87821416232222E-02 
465	 6.89054675394222E-02 
466	 6.90349384090877E-02 
467	 6.91727683867456E-02 
468	 6.92793010144524E-02 
469	 6.94014194068962E-02 
470	 6.95529702673453E-02 
471	 6.96991336778268E-02 
472	 6.97454836294371E-02 
473	 6.98840087703635E-02 
474	 7.01237891109483E-02 
475	 7.03957971032003E-02 
476	 7.05473547258919E-02 
477	 7.07409187812776E-02 
478	 7.10003009066003E-02 
479	 7.12505936688184E-02 
480	 7.14714904449697E-02 
481	 7.17278053326699E-02 
482	 7.20360896245837E-02 
483	 7.22890444959432E-02 
484	 0.072560475421425 
485	 7.28390918633396E-02 
486	 7.31116068295593E-02 
487	 7.35244190107696E-02 
488	 7.38613486278338E-02 
489	 7.41035707017559E-02 
490	 7.44341110832795E-02 
491	 7.47690987480987E-02 
492	 7.51092706652643E-02 
493	 7.54737284046373E-02 
494	 7.59020781063471E-02 
495	 7.63288630395709E-02 
496	 7.67313856201668E-02 
497	 7.71120727808512E-02 
498	 7.74721455703492E-02 
499	 7.78119260718196E-02 
500	 7.81574731115306E-02 
501	 7.85757210926656E-02 
502	 7.89255827692441E-02 
503	 7.92817421901751E-02 
504	 7.97411529379235E-02 
505	 8.02195676437913E-02 
506	 8.07210384808513E-02 
507	 8.12227195715756E-02 
508	 8.16821929840621E-02 
509	 8.20995768555631E-02 
510	 0.082578498522554 
511	 8.31477620389359E-02 
512	 8.36290527663755E-02 
513	 8.41479741518165E-02 
514	 8.47267876890322E-02 
515	 8.53301165612423E-02 
516	 8.58667016126959E-02 
517	 8.64669513351426E-02 
518	 8.71092911187428E-02 
519	 8.75702364751314E-02 
520	 8.81479560626121E-02 
521	 8.87381198097546E-02 
522	 8.92315718352078E-02 
523	 8.98161007031874E-02 
524	 9.04571829254312E-02 
525	 9.11053516304382E-02 
526	 9.17108022767833E-02 
527	 9.23268230457108E-02 
528	 9.29165325818761E-02 
529	 9.34766427559483E-02 
530	 9.40949086942239E-02 
531	 9.47372148313539E-02 
532	 9.54016451386369E-02 
533	 9.60814110052799E-02 
534	 9.67031056153318E-02 
535	 9.73223463376838E-02 
536	 9.79585653564263E-02 
537	 0.098576372182651 
538	 9.91457085254578E-02 
539	 9.97515555402537E-02 
540	 0.100438960648192 
541	 0.101030680344907 
542	 0.101639197008719 
543	 0.102275585359752 
544	 0.102895695203516 
545	 0.103565123144417 
546	 0.104255332306861 
547	 0.104912093090568 
548	 0.105444352525719 
549	 0.106061051013743 
550	 0.106720987322242 
551	 0.107320812122167 
552	 0.107963152000852 
553	 0.108579318105377 
554	 0.109176162620692 
555	 0.109849277201366 
556	 0.110473926049053 
557	 0.111034719983516 
558	 0.111559470928539 
559	 0.11214310293946 
560	 0.112692437393589 
561	 0.11318217896759 
562	 0.113634050197983 
563	 0.11403432850476 
564	 0.11446214427046 
565	 0.114911134540616 
566	 0.115187344610916 
567	 0.115447286872334 
568	 0.115713377156899 
569	 0.115976352362459 
570	 0.116337741500693 
571	 0.11664490879787 
572	 0.116839310354286 
573	 0.116981611495731 
574	 0.117189631479866 
575	 0.117436879584945 
576	 0.11765379207223 
577	 0.1177737064298 
578	 0.117813240535537 
579	 0.117855324505482 
580	 0.117988069256956 
581	 0.117936245628848 
582	 0.117782941531038 
583	 0.117594681195383 
584	 0.117324318908525 
585	 0.116955240080391 
586	 0.116485086419704 
587	 0.115925859863016 
588	 0.115348706381661 
589	 0.114827659542669 
590	 0.114440777761767 
591	 0.114210610031593 
592	 0.113778969203613 
593	 0.113265213952945 
594	 0.112786482500458 
595	 0.112087815561205 
596	 0.111335400097517 
597	 0.110550918604973 
598	 0.109690831117488 
599	 0.108845680536451 
600	 0.108095146607987 
601	 0.107500735383461 
602	 0.107100716967345 
603	 0.106780189117113 
604	 0.106549421181097 
605	 0.106441338133973 
606	 0.10637484495342 
607	 0.106278120248726 
608	 0.106186175238859 
609	 0.106234132624345 
610	 0.106229451923304 
611	 0.10615591297345 
612	 0.106061916974083 
613	 0.106065896247893 
614	 0.106059855874598 
615	 0.106015569074643 
616	 0.105954621597162 
617	 0.105906464327388 
618	 0.105825162448002 
619	 0.105715556565688 
620	 0.1056827437923 
621	 0.105571239112421 
622	 0.105448533187642 
623	 0.105414774330779 
624	 0.105368838740578 
625	 0.105186312511619 
626	 0.104910071601583 
627	 0.104741069769133 
628	 0.104724465193631 
629	 0.104735456523369 
630	 0.104683398509089 
631	 0.104663430601055 
632	 0.104698283307781 
633	 0.104697256490145 
634	 0.104553027132841 
635	 0.104503478696901 
636	 0.104444960432632 
637	 0.104317331293451 
638	 0.104167389067268 
639	 0.104023572985602 
640	 0.10385737306885 
641	 0.103638824834773 
642	 0.10340599200006 
643	 0.103141874009137 
644	 0.102791359642958 
645	 0.102285586496845 
646	 0.101823640416839 
647	 0.10152080660191 
648	 0.101384203916636 
649	 0.101232906410327 
650	 0.100970967132225 
651	 0.100649523378486 
652	 0.100357899475028 
653	 9.98820634023135E-02 
654	 9.93325141953106E-02 
655	 0.098757301237696 
656	 9.81662896874155E-02 
657	 0.097650439992175 
658	 0.09719788817838 
659	 9.67752671047712E-02 
660	 9.64043391556794E-02 
661	 9.60805317802957E-02 
662	 9.57819154706508E-02 
663	 9.54934222071667E-02 
664	 9.53277856742205E-02 
665	 9.51741109979041E-02 
666	 9.49639828279339E-02 
667	 9.47568802687342E-02 
668	 9.45668215527348E-02 
669	 9.44408664360234E-02 
670	 0.094397123422445 
671	 9.42693383837548E-02 
672	 9.41816811773141E-02 
673	 9.41463007819338E-02 
674	 9.40631378064199E-02 
675	 9.39678804718012E-02 
676	 9.39511432374776E-02 
677	 9.40218663607156E-02 
678	 0.093956244206761 
679	 9.39154656471147E-02 
680	 9.39232991466944E-02 
681	 9.39351544822427E-02 
682	 9.38790265123375E-02 
683	 9.39405001146298E-02 
684	 9.40523256915214E-02 
685	 9.37716149518963E-02 
686	 9.34588365102973E-02 
687	 9.32580316069604E-02 
688	 9.31898941775677E-02 
689	 9.31495312968186E-02 
690	 9.28581229087252E-02 
691	 9.23412938386835E-02 
692	 9.18107752729329E-02 
693	 9.13185781060359E-02 
694	 0.090977976350605 
695	 9.07509683361586E-02 
696	 9.03770213080619E-02 
697	 8.96272614728994E-02 
698	 8.86412821799508E-02 
699	 8.77229837066691E-02 
700	 8.68722754462346E-02 
701	 8.61363907998976E-02 
702	 0.085427632394236 
703	 8.45449604454859E-02 
704	 8.35347415397587E-02 
705	 8.24439309232785E-02 
706	 8.13323594389714E-02 
707	 8.02054579036366E-02 
708	 7.89209934250929E-02 
709	 7.75299199022902E-02 
710	 7.61175571137225E-02 
711	 7.44988082563716E-02 
712	 0.072776709723141 
713	 7.09607822247567E-02 
714	 6.88898794013291E-02 
715	 6.66465106067479E-02 
716	 6.41502418633198E-02 
717	 6.16397795542533E-02 
718	 5.94539557436116E-02 
719	 5.78279987978233E-02 
720	 0.056638695379053 
721	 0.055356285788626 
722	 5.37217564652268E-02 
723	 5.16448347793107E-02 
724	 4.95372320350206E-02 
725	 4.77980959135581E-02 
726	 4.60622128193774E-02 
727	 4.42154064631108E-02 
728	 4.22750449262145E-02 
729	 4.03366051402364E-02 
730	 3.85694433007588E-02 
731	 3.71776890907497E-02 
732	 3.61418773889488E-02 
733	 3.50635488523719E-02 
734	 3.40710973538519E-02 
735	 3.32588156155075E-02 
736	 3.26110493255198E-02 
737	 0.032196132218982 
738	 3.19690151155209E-02 
739	 3.18487252179514E-02 
740	 3.17149893181927E-02 
741	 3.16662302944833E-02 
742	 3.16454087266797E-02 
743	 3.15396219631888E-02 
744	 3.14882550565693E-02 
745	 3.14439326664869E-02 
746	 3.13922072336829E-02 
747	 0.031386147386772 
748	 3.13936870023315E-02 
749	 0.031346647623758 
750	 3.12243644889634E-02 
751	 3.11766007892143E-02 
752	 3.11817710116219E-02 
753	 3.11937884526991E-02 
754	 3.11578606056794E-02 
755	 3.10922940336551E-02 
756	 3.09772321193623E-02 
757	 0.030768479493404 
758	 0.030290376926748 
759	 2.97305104793472E-02 
760	 2.92332890041988E-02 
761	 2.90572606055161E-02 
762	 2.89502942073391E-02 
763	 2.91261873697911E-02 
764	 2.96201309938666E-02 
765	 3.02862594917729E-02 
766	 3.06193507867773E-02 
767	 3.08560934793407E-02 
768	 3.11084856196758E-02 
769	 3.13476863631324E-02 
770	 3.14365842861249E-02 
771	 3.15188531921131E-02 
772	 3.16760466190052E-02 
773	 3.16386019721543E-02 
774	 3.17580489270911E-02 
775	 3.19865128599862E-02 
776	 0.03212883019274 
777	 3.22679129125655E-02 
778	 3.24522881867031E-02 
779	 3.26525406039797E-02 
780	 3.27707058473453E-02 
781	 0.032882761427872 
782	 3.29918794429546E-02 
783	 3.31116923608784E-02 
784	 3.33196183500225E-02 
785	 3.34465210964764E-02 
786	 3.35341636706547E-02 
787	 3.36778586107407E-02 
788	 3.37891969733268E-02 
789	 3.39902758725856E-02 
790	 3.43380727168793E-02 
791	 3.48039485506208E-02 
792	 3.51884896075858E-02 
793	 3.53707488409427E-02 
794	 3.54441137880248E-02 
795	 3.58088308726543E-02 
796	 3.60915320944944E-02 
797	 3.62630836465288E-02 
798	 3.64123779062419E-02 
799	 3.66416387687367E-02 
800	 3.68297668103083E-02 
801	 3.69651317107027E-02 
802	 3.71162969511289E-02 
803	 3.73950329775971E-02 
804	 3.75894203735288E-02 
805	 3.76486687850904E-02 
806	 3.77225370407866E-02 
807	 3.77989892927455E-02 
808	 3.76128137608602E-02 
809	 3.70939387813832E-02 
810	 3.67963740038293E-02 
811	 3.66006798648132E-02 
812	 0.036217333872591 
813	 3.54100677950123E-02 
814	 3.49511727409666E-02 
815	 3.46177576471793E-02 
816	 3.42835675812833E-02 
817	 0.033973626365786 
818	 3.38792202450122E-02 
819	 3.36748178137369E-02 
820	 3.31737347736485E-02 
821	 3.23905581763233E-02 
822	 3.14991053408152E-02 
823	 0.030692686332251 
824	 3.00556610996827E-02 
825	 2.94721255959538E-02 
826	 2.84324551395701E-02 
827	 2.72020083389412E-02 
828	 2.63627411938481E-02 
829	 2.56591624480347E-02 
830	 2.50130835446105E-02 
831	 2.44984829449365E-02 
832	 2.42525599578698E-02 
833	 2.37369986318108E-02 
834	 2.33597545282773E-02 
835	 2.32867669476163E-02 
836	 2.32377720048608E-02 
837	 2.30080837231536E-02 
838	 2.27626663874222E-02 
839	 2.26990182839206E-02 
840	 2.29114330408389E-02 
841	 0.022819508432765 
842	 2.25721438307746E-02 
843	 2.25142675123329E-02 
844	 2.24585708270921E-02 
845	 2.23848639610806E-02 
846	 0.022300862329389 
847	 2.22205684513872E-02 
848	 2.20323019847341E-02 
849	 2.19560182416368E-02 
850	 2.19637945048237E-02 
851	 2.16994646640202E-02 
852	 2.17098393841762E-02 
853	 2.17509417428982E-02 
854	 2.15927745282803E-02 
855	 2.13901438207631E-02 
856	 2.14085098154815E-02 
857	 2.14538318440671E-02 
858	 2.13286574081474E-02 
859	 2.13402145816312E-02 
860	 2.11475378288599E-02 
861	 2.09630160047614E-02 
862	 2.11216063749956E-02 
863	 2.08575088925407E-02 
864	 2.07324238421046E-02 
865	 2.08129097992626E-02 
866	 2.06680776232116E-02 
867	 2.05204701196621E-02 
868	 2.04707294503392E-02 
869	 2.04698273354139E-02 
870	 2.03121158503848E-02 
871	 2.02736522792885E-02 
872	 2.01373872518354E-02 
873	 1.98360886086644E-02 
874	 1.98652084777234E-02 
875	 1.99315851259997E-02 
876	 1.97922160387567E-02 
877	 1.94331987248596E-02 
878	 1.95948777744937E-02 
879	 1.94458802420301E-02 
880	 1.90998526651495E-02 
881	 1.90323431010207E-02 
882	 1.88696203555726E-02 
883	 1.88575578215572E-02 
884	 0.018885749855758 
885	 0.018633020845362 
886	 1.85543820589752E-02 
887	 1.84708858622214E-02 
888	 0.018282062299346 
889	 1.80699177175479E-02 
890	 1.81095050026406E-02 
891	 1.78917406692005E-02 
892	 1.73111754209885E-02 
893	 1.73076796373557E-02 
894	 1.69108854189979E-02 
895	 1.62398929738333E-02 
896	 1.58091320493483E-02 
897	 1.61917940700056E-02 
898	 1.62501039735354E-02 
899	 1.58619955615641E-02 
900	 1.54295612158106E-02 
901	 1.53953768549731E-02 
902	 1.58167666540087E-02 
903	 1.60593723530319E-02 
904	 1.55963353440566E-02 
905	 1.56832241573551E-02 
906	 1.56809314921984E-02 
907	 1.55333411178504E-02 
908	 1.55321667518542E-02 
909	 1.48341453392625E-02 
910	 1.44201574365366E-02 
911	 1.45539795899766E-02 
912	 1.46445507814641E-02 
913	 1.42645010702525E-02 
914	 1.42101873949222E-02 
915	 1.46359912152183E-02 
916	 1.48010486365944E-02 
917	 1.46625619855449E-02 
918	 1.40201920368557E-02 
919	 1.34992123436416E-02 
920	 1.46197478994145E-02 
921	 1.47602276981969E-02 
922	 1.42382706018616E-02 
923	 1.37883826798857E-02 
924	 1.37785811751365E-02 
925	 1.33982376694909E-02 
926	 1.29928228598573E-02 
927	 1.29831202040156E-02 
928	 0.012515224420138 
929	 1.19065763634279E-02 
930	 1.21155580189872E-02 
931	 1.40308234930678E-02 
932	 1.42460678024299E-02 
933	 1.32379293509033E-02 
934	 1.07463397082735E-02 
935	 7.71886504319896E-03 
936	 8.84004453294449E-03 
937	 1.03043784817197E-02 
938	 1.01015500930827E-02 
939	 8.36994107356248E-03 
940	 9.62556377560187E-03 
941	 9.55140652686837E-03 
942	 9.66146318967934E-03 
943	 1.31498308234884E-02 
944	 1.45714762915219E-02 
945	 1.07919920748194E-02 
946	 7.79783978503504E-03 
947	 1.29636431552911E-02 
948	 1.20842202335491E-02 
949	 0.010072760468739 
950	 9.04188765019449E-03 
951	 8.56895733936995E-03 
952	 9.00923317777236E-03 
953	 1.02195644513614E-02 
954	 1.08458894742885E-02 
955	 9.45627130464493E-03 
956	 8.14703081795747E-03 
957	 1.04756185506369E-02 
958	 1.35022180557511E-02 
959	 1.15332110060742E-02 
960	 1.02262325403742E-02 
961	 9.18504379696774E-03 
962	 9.45399756941103E-03 
963	 1.22203193523397E-02 
964	 1.16972121991281E-02 
965	 1.10218906297777E-02 
966	 1.12106403188572E-02 
967	 1.12255325955521E-02 
968	 1.05699534118013E-02 
969	 1.12312997780804E-02 
970	 1.25354089512921E-02 
971	 1.18627348001132E-02 
972	 1.10379110087167E-02 
973	 1.13584330271278E-02 
974	 1.24824197487532E-02 
975	 1.26626514206837E-02 
976	 0.012027922573359 
977	 0.011693132784276 
978	 1.20303295465907E-02 
979	 1.25292826147578E-02 
980	 1.24443492182888E-02 
981	 1.21596817624705E-02 
982	 1.21195330510409E-02 
983	 1.26065287667457E-02 
984	 1.33424075170007E-02 
985	 1.42159704775369E-02 
986	 1.48695403406019E-02 
987	 1.47097550292083E-02 
988	 1.25866012900833E-02 
989	 1.23563989156981E-02 
990	 1.36195582182698E-02 
991	 1.31268177650541E-02 
992	 1.39654972360834E-02 
993	 1.36229158199204E-02 
994	 1.29300905128666E-02 
995	 0.014378365418696 
996	 1.39212965576889E-02 
997	 1.40209850454606E-02 
998	 1.46404491721228E-02 
999	 1.43956150830426E-02 
1000	 1.54251188381149E-02 
1001	 0.012457097211785 
1002	 1.27658994706611E-02 
1003	 1.27830258152498E-02 
1004	 1.24813903295485E-02 
1005	 1.24449986754552E-02 
1006	 1.24319566690651E-02 
1007	 1.22914274166722E-02 
1008	 1.24126042232766E-02 
1009	 1.27540329502993E-02 
1010	 1.27769221452715E-02 
1011	 0.012661653010904 
1012	 1.25701668752344E-02 
1013	 1.24612344074194E-02 
1014	 1.24467965169992E-02 
1015	 1.25713684300932E-02 
1016	 1.25558033237402E-02 
1017	 1.26225279536955E-02 
1018	 1.24456897135814E-02 
1019	 1.19564181982287E-02 
1020	 1.17177470595712E-02 
1021	 1.13666488250243E-02 
1022	 1.12094199343524E-02 
1023	 1.14775948677905E-02 
1024	 1.17446225585839E-02 
1025	 1.19847087371054E-02 
1026	 1.23895357343121E-02 
1027	 1.25733001485856E-02 
1028	 1.25564985247332E-02 
1029	 1.27536841755233E-02 
1030	 1.30577925761429E-02 
1031	 1.31300865540248E-02 
1032	 1.32518243237868E-02 
1033	 1.32033406702535E-02 
1034	 1.27591641356756E-02 
1035	 1.26714485660907E-02 
1036	 1.27020322575807E-02 
1037	 1.27338099360338E-02 
1038	 1.29905373808601E-02 
1039	 1.30931590429913E-02 
1040	 1.30577722973321E-02 
1041	 0.013059785608115 
1042	 1.30594223150343E-02 
1043	 0.012993622382096 
1044	 1.30162708612301E-02 
1045	 1.31628590038891E-02 
1046	 0.013115656956889 
1047	 1.29909335653795E-02 
1048	 1.28908521059131E-02 
1049	 1.25667116848213E-02 
1050	 1.25466353338104E-02 
1051	 1.28438546771903E-02 
1052	 1.28874884529128E-02 
1053	 1.30063149976393E-02 
1054	 1.29724367373094E-02 
1055	 1.25061833916177E-02 
1056	 1.23571723942687E-02 
1057	 1.23220384596895E-02 
1058	 1.23361977303995E-02 
1059	 1.25332937830603E-02 
1060	 1.31942434259299E-02 
1061	 1.32140068434959E-02 
1062	 1.29877883449069E-02 
1063	 1.29089627811798E-02 
1064	 1.24351267960362E-02 
1065	 1.23419263073158E-02 
1066	 1.26787473487213E-02 
1067	 1.27598526469393E-02 
1068	 1.27611980654236E-02 
1069	 1.28009031553009E-02 
1070	 1.27345427861011E-02 
1071	 1.27713809767674E-02 
1072	 1.27714106072804E-02 
1073	 1.31842749351529E-02 
1074	 1.30495499179465E-02 
1075	 1.26959939684324E-02 
1076	 1.26188120020128E-02 
1077	 1.23501337549124E-02 
1078	 1.22691043652762E-02 
1079	 1.25741249596026E-02 
1080	 1.25807391916396E-02 
1081	 0.012284350139565 
1082	 0.01228870010992 
1083	 1.25125407940333E-02 
1084	 1.25612541301587E-02 
1085	 1.27724759580221E-02 
1086	 1.27097461290595E-02 
1087	 1.23542344097424E-02 
1088	 1.20472632142959E-02 
1089	 1.13541424215602E-02 
1090	 1.10361131039186E-02 
1091	 1.10945375058967E-02 
1092	 1.16106079051055E-02 
1093	 0.011550477411857 
1094	 1.16220483868239E-02 
1095	 1.15959606049563E-02 
1096	 0.010990005628552 
1097	 1.08091283331491E-02 
1098	 1.11350610186625E-02 
1099	 1.11962477584677E-02 
1100	 1.12117715196396E-02 
1101	 1.10657935581851E-02 
1102	 1.05995087576221E-02 
1103	 1.04741532476783E-02 
1104	 1.05833104297699E-02 
1105	 1.03635022942594E-02 
1106	 9.91549246587333E-03 
1107	 9.67393683079838E-03 
1108	 9.36172249077618E-03 
1109	 9.23645945573539E-03 
1110	 9.22077310491067E-03 
1111	 1.02936644536435E-02 
1112	 1.01040361903938E-02 
1113	 8.40739186679834E-03 
1114	 7.85924726487284E-03 
1115	 7.65896670680791E-03 
1116	 7.37451962492148E-03 
1117	 7.98228642364632E-03 
1118	 8.17394645636312E-03 
1119	 7.72601273406015E-03 
1120	 6.80029536291178E-03 
1121	 3.40836305022752E-03 
1122	 6.5134587459829E-03 
1123	 7.66450303011754E-03 
1124	 2.04043868955993E-03 
1125	 4.67600402922467E-03 
1126	 7.07781322704309E-03 
1127	 1.89587655675378E-03 
1128	 3.73453415471457E-03 
1129	 4.42963862215603E-03 
1130	 1.17035711341529E-03 
1131	 1.27019480733763E-03 
1132	 6.06647272299127E-03 
1133	 6.88678054046335E-03 
1134	 5.74642534332442E-03 
1135	 6.63469066376545E-03 
1136	 8.38243052876387E-03 
1137	 8.18836203304163E-03 
1138	 7.90744987234377E-03 
1139	 6.79636853314405E-03 
1140	 6.0299567036692E-03 
1141	 5.95538164589131E-03 
1142	 4.61025999334899E-03 
1143	 6.29297166421989E-03 
1144	 0.007599439867768 
1145	 5.48413739220247E-03 
1146	 7.49008658149492E-03 
1147	 8.89706708308499E-03 
1148	 6.78170242640116E-03 
1149	 7.0431525087136E-03 
1150	 7.34794794643043E-03 
1151	 7.27425735538323E-03 
1152	 6.93109865668487E-03 
1153	 7.04959786122757E-03 
1154	 7.1585753414006E-03 
1155	 6.7684553659433E-03 
1156	 6.68885809284532E-03 
1157	 7.49828591581393E-03 
1158	 8.41091229036201E-03 
1159	 8.56488247750944E-03 
1160	 8.11055545819474E-03 
1161	 7.62395949040607E-03 
1162	 7.78801708388298E-03 
1163	 8.21115269385282E-03 
1164	 8.55425478438323E-03 
1165	 9.12999136952671E-03 
1166	 9.31741605079867E-03 
1167	 9.01877208610299E-03 
1168	 9.14870371445294E-03 
1169	 0.009577578125687 
1170	 9.50375888809165E-03 
1171	 9.52456768600769E-03 
1172	 9.8287178682878E-03 
1173	 9.90584854154934E-03 
1174	 9.70297422053838E-03 
1175	 9.5781611950754E-03 
1176	 9.82408195838029E-03 
1177	 9.84116101100359E-03 
1178	 9.8441712058835E-03 
1179	 1.01429843212697E-02 
1180	 1.01362231727584E-02 
1181	 9.7568923650564E-03 
1182	 9.64103874204629E-03 
1183	 9.63678704248665E-03 
1184	 9.57473397852821E-03 
1185	 9.77189126810074E-03 
1186	 9.98417254250954E-03 
1187	 1.00558027766395E-02 
1188	 1.02760398487591E-02 
1189	 1.04957817670979E-02 
1190	 1.03669491888383E-02 
1191	 1.00390119438903E-02 
1192	 9.94775958381874E-03 
1193	 9.84769733665661E-03 
1194	 9.89136829501532E-03 
1195	 0.010052455749286 
1196	 1.02594796806361E-02 
1197	 1.03583258033948E-02 
1198	 1.01414796034396E-02 
1199	 9.86495786832244E-03 
1200	 9.86169098124914E-03 
1201	 9.93037176740359E-03 
1202	 1.00762859198254E-02 
1203	 1.02726053755359E-02 
1204	 1.01988712481921E-02 
1205	 9.98073092484005E-03 
1206	 9.96983619735441E-03 
1207	 1.01481604924381E-02 
1208	 1.03324795204426E-02 
1209	 1.02873761997855E-02 
1210	 1.03572421561914E-02 
1211	 1.05493521452784E-02 
1212	 0.010433927142258 
1213	 1.03953982285055E-02 
1214	 1.04336903999492E-02 
1215	 1.04122438051518E-02 
1216	 0.010196406912093 
1217	 1.02781499699815E-02 
1218	 1.05610608633369E-02 
1219	 1.05087133782236E-02 
1220	 1.02199625129193E-02 
1221	 0.010228580478461 
1222	 1.04018551124992E-02 
1223	 1.05558740683554E-02 
1224	 1.07804371921282E-02 
1225	 1.08495668979698E-02 
1226	 1.06741280687347E-02 
1227	 1.06124397516086E-02 
1228	 1.06316754277073E-02 
1229	 1.06529482234861E-02 
1230	 1.08149598869501E-02 
1231	 1.08379992406985E-02 
1232	 1.07778553713048E-02 
1233	 0.01084446900636 
1234	 1.08639033816877E-02 
1235	 1.08679605425879E-02 
1236	 1.09359476895129E-02 
1237	 1.09721832650495E-02 
1238	 1.09571558019383E-02 
1239	 1.09149797531271E-02 
1240	 1.10751526477321E-02 
1241	 1.12064950443607E-02 
1242	 1.11620629369496E-02 
1243	 0.011187882845572 
1244	 1.11387132791797E-02 
1245	 1.10595282417312E-02 
1246	 1.11312869054353E-02 
1247	 1.11928753183028E-02 
1248	 1.12067623478169E-02 
1249	 1.12857954103989E-02 
1250	 1.13615564260795E-02 
1251	 1.11566272887442E-02 
1252	 1.08927600080601E-02 
1253	 1.09145402317958E-02 
1254	 1.08856182557461E-02 
1255	 1.07842964395521E-02 
1256	 1.07415871310429E-02 
1257	 1.07113136656397E-02 
1258	 1.05840860413413E-02 
1259	 0.010366434795238 
1260	 1.03575815848299E-02 
1261	 1.05014904575442E-02 
1262	 1.04374850021878E-02 
1263	 1.03061800006482E-02 
1264	 1.03628600335472E-02 
1265	 1.02745330914014E-02 
1266	 1.01420871326606E-02 
1267	 1.01719782732626E-02 
1268	 1.01095437503696E-02 
1269	 1.01216543963591E-02 
1270	 1.02312809327952E-02 
1271	 1.03323540765765E-02 
1272	 1.04745663758957E-02 
1273	 1.04365589587069E-02 
1274	 1.02738646292307E-02 
1275	 1.04374425767331E-02 
1276	 1.06753978105438E-02 
1277	 1.05998844680653E-02 
1278	 1.06198201460163E-02 
1279	 1.07204966220724E-02 
1280	 1.05741226864223E-02 
1281	 1.04370011989769E-02 
1282	 1.04074183975737E-02 
1283	 1.04697560151818E-02 
1284	 1.04212545102688E-02 
1285	 1.04044510430424E-02 
1286	 1.06759779717408E-02 
1287	 1.06702557594646E-02 
1288	 1.03500802217884E-02 
1289	 1.02712057685436E-02 
1290	 0.010301304884002 
1291	 1.02527715589354E-02 
1292	 1.02473317513167E-02 
1293	 1.01305332857765E-02 
1294	 9.98803093561036E-03 
1295	 9.83999449827221E-03 
1296	 9.78435108463634E-03 
1297	 9.82641457251574E-03 
1298	 9.75948786622137E-03 
1299	 9.73694305520035E-03 
1300	 9.68171988244898E-03 
1301	 9.47313771397198E-03 
1302	 9.4457480870702E-03 
1303	 9.63343553238115E-03 
1304	 9.71347904034167E-03 
1305	 9.55315977580594E-03 
1306	 9.46966884430124E-03 
1307	 9.16906728857667E-03 
1308	 8.97021060659182E-03 
1309	 8.84844873384109E-03 
1310	 8.89504212260575E-03 
1311	 9.04910927676468E-03 
1312	 8.90353759854109E-03 
1313	 8.81618527330662E-03 
1314	 8.78346943498403E-03 
1315	 8.48863135673227E-03 
1316	 8.14000535117708E-03 
1317	 7.6926593723578E-03 
1318	 7.81496216087255E-03 
1319	 8.43145908868942E-03 
1320	 8.31053513820611E-03 
1321	 8.21896400549569E-03 
1322	 8.16745577651909E-03 
1323	 7.80192273986957E-03 
1324	 7.6140072911914E-03 
1325	 8.04534185034088E-03 
1326	 8.24652721817874E-03 
1327	 8.10877577994905E-03 
1328	 7.75322864411147E-03 
1329	 7.59935782775611E-03 
1330	 8.03351813684583E-03 
1331	 7.43531055643231E-03 
1332	 6.11570467043908E-03 
1333	 5.85906690792557E-03 
1334	 5.9923638739374E-03 
1335	 5.92347910735132E-03 
1336	 6.0597629559293E-03 
1337	 6.37951926424458E-03 
1338	 6.96783732135765E-03 
1339	 6.66213834401252E-03 
1340	 5.80193626466465E-03 
1341	 5.76511225792675E-03 
1342	 5.45947824162924E-03 
1343	 5.50520589268207E-03 
1344	 7.37403503299152E-03 
1345	 7.67779016472216E-03 
1346	 5.44375147759555E-03 
1347	 4.62458494933009E-03 
1348	 5.36966458617975E-03 
1349	 4.24692880310524E-03 
1350	-1.07751452204591E-03 
1351	-2.06332450258109E-03 
1352	 7.77819254463242E-03 
1353	 4.86993448094812E-03 
1354	-1.74478915842733E-02 
1355	-1.47245090666844E-02 
1356	 2.16646402812078E-02 
1357	-6.17162286933668E-03 
1358	-5.24520276720681E-02 
1359	 5.90094777120411E-02 
1360	 0.185788452953167 
1361	 0.139273560928964 
1362	 8.71343904359357E-02 
1363	 0.195380325739113 
1364	 0.152361464150111 
1365	-3.56895616361053E-02 
1366	-0.103857971493695 
1367	-0.023981349435753 
1368	 5.42852023233064E-02 
1369	-5.32625265918227E-02 
1370	-9.00361778173801E-02 
1371	 0.136934247495053 
1372	 0.227868061760308 
1373	 0.23818782619682 
1374	 0.264824300334715 
1375	 0.376209245469194 
1376	 0.427816811261187 
1377	 0.572147417163544 
1378	 0.373152394770755 
1379	 0.208162789499969 
1380	 0.260408597407962 
1381	 0.398731840748715 
1382	 0.31763376475242 
1383	 0.265046664189165 
1384	 0.299128165995027 
1385	 0.104518677881069 
1386	 0.060411024166929 
1387	 0.166518217402848 
1388	 0.239461515558717 
1389	 0.364391934190583 
1390	 0.319178779186133 
1391	 0.216531881434952 
1392	 0.203471841137228 
1393	 0.449799860525724 
1394	 0.774202681710502 
1395	 0.790926773062696 
1396	 0.666490503264093 
1397	 0.201585180796256 
1398	-0.123421356020501 
1399	-8.10041585436392E-02 
1400	 5.37248144548447E-02 
1401	 0.224312469757099 
1402	 0.433688339880705 
1403	 0.370386686818686 
1404	 0.187451852791288 
1405	 9.82897657133363E-02 
1406	-0.116018517638352 
1407	-9.54536947787831E-02 
1408	 3.78051852041185E-02 
1409	 4.36498522098997E-02 
1410	 0.114113326658819 
1411	 3.19893490409981E-02 
1412	-0.16014067859643 
1413	-0.173850615845989 
1414	-0.162728129492951 
1415	-0.103630107206522 
1416	 8.34646204929182E-02 
1417	 0.085090516245138 
1418	-2.52709055657276E-02 
1419	-1.79530600823798E-02 
1420	-0.015610745681997 
1421	-1.27291618411636E-02 
1422	 3.75893136777006E-02 
1423	 4.33597810238538E-02 
1424	 1.48770261698457E-02 
1425	 7.92932797167144E-03 
1426	 9.30462777644339E-03 
1427	 6.51926791075965E-03 
1428	 4.73225137614609E-03 
1429	 1.0039693456106E-03 
1430	-7.89920112182861E-03 
1431	-1.03838305995909E-02 
1432	-1.14488010132977E-02 
1433	-1.13846705840998E-02 
1434	-6.37907457129559E-03 
1435	-1.74292028378491E-03 
1436	 1.51757095893979E-02 
1437	 3.4670693704775E-03 
1438	-4.32026096032089E-03 
1439	-1.30004671684286E-03 
1440	-1.07586102719701E-02 
1441	-4.1835167072115E-03 
1442	 7.45017521855325E-03 
1443	 2.91142815143854E-03 
1444	 2.88491445784768E-03 
1445	 1.09809834274278E-02 
1446	 8.91613890613638E-03 
1447	 2.19436898361698E-03 
1448	 3.30657206191223E-03 
1449	 2.15024730124144E-03 
1450	 9.03467374735375E-04 
1451	 5.83676829699861E-03 
1452	 5.61929313539829E-03 
1453	 2.78656571041886E-03 
1454	 2.91587228655105E-03 
1455	 4.19948786042208E-03 
1456	 3.65340825154091E-03 
1457	 2.94196771719965E-03 
1458	 3.32885980279919E-03 
1459	 3.5850435731733E-03 
1460	 3.32106664360743E-03 
1461	 3.87022660128524E-03 
1462	 3.7223341123779E-03 
1463	 1.18793297816011E-03 
1464	 0.001474582929454 
1465	 5.09822626784261E-03 
1466	 5.52811687323231E-03 
1467	 4.71271934219025E-03 
1468	 4.72236855471683E-03 
1469	 3.66057519218381E-03 
1470	 2.42047862011429E-03 
1471	 8.03395095416275E-04 
1472	 2.13664064452055E-03 
1473	 5.5499794611178E-03 
1474	 5.07896035711402E-03 
1475	 4.05935589507269E-03 
1476	 5.17178460944707E-03 
1477	 5.14868571758182E-03 
1478	 4.16786348793561E-03 
1479	 4.14059039900585E-03 
1480	 5.15178599718966E-03 
1481	 5.56975427240315E-03 
1482	 5.28341258491514E-03 
1483	 6.12108282639616E-03 
1484	 6.56838527493796E-03 
1485	 5.74866100424641E-03 
1486	 5.29485434597429E-03 
1487	 5.30917580269651E-03 
1488	 5.55129493868732E-03 
1489	 5.5980185704428E-03 
1490	 5.53682897199532E-03 
1491	 5.68983788297337E-03 
1492	 6.05856488238172E-03 
1493	 6.41704565283355E-03 
1494	 6.45679353355772E-03 
1495	 6.60698035016776E-03 
1496	 6.80640980911331E-03 
1497	 6.66783660771673E-03 
1498	 6.67687256535521E-03 
1499	 6.85773325536228E-03 
1500	 7.11618582582511E-03 
1501	 7.6388311457179E-03 
1502	 7.73199522994473E-03 
1503	 7.68581404590551E-03 
1504	 7.66321576763658E-03 
1505	 7.36242107955708E-03 
1506	 7.04793924571313E-03 
1507	 7.33236705704705E-03 
1508	 7.62020099447751E-03 
1509	 7.53997142281492E-03 
1510	 7.55501482757549E-03 
1511	 7.79207547643693E-03 
1512	 7.83000203569727E-03 
1513	 8.12548636493059E-03 
1514	 8.53339910963099E-03 
1515	 8.17397407812234E-03 
1516	 8.02692079867257E-03 
1517	 8.34324709948216E-03 
1518	 8.17720316580629E-03 
1519	 8.07196810370084E-03 
1520	 8.3144424917781E-03 
1521	 8.25474709567643E-03 
1522	 8.1530860019434E-03 
1523	 8.36060673677854E-03 
1524	 8.53474308691155E-03 
1525	 8.52168023775645E-03 
1526	 8.3342445869591E-03 
1527	 8.20387123044797E-03 
1528	 8.25213625031535E-03 
1529	 8.24710308740065E-03 
1530	 8.41183382152079E-03 
1531	 8.70154077975226E-03 
1532	 8.62661139808046E-03 
1533	 8.52711112291102E-03 
1534	 8.65757315554423E-03 
1535	 8.69410765696507E-03 
1536	 8.69046389152738E-03 
1537	 8.67214079871982E-03 
1538	 8.73328393145435E-03 
1539	 8.82078880122552E-03 
1540	 8.68990659474963E-03 
1541	 8.69987541741706E-03 
1542	 8.7511716524849E-03 
1543	 8.64239389738728E-03 
1544	 8.71710565921793E-03 
1545	 8.82154340390046E-03 
1546	 8.87812525753839E-03 
1547	 8.98553816220937E-03 
1548	 8.99843743401791E-03 
1549	 9.05518455088099E-03 
1550	 9.12184262082264E-03 
1551	 9.01113503313941E-03 
1552	 8.97674236971131E-03 
1553	 9.10921194814035E-03 
1554	 9.16296181591735E-03 
1555	 9.12591962674302E-03 
1556	 9.05719632076536E-03 
1557	 8.89255131833449E-03 
1558	 8.86148159815479E-03 
1559	 9.09992548070441E-03 
1560	 9.22521893873599E-03 
1561	 9.23043549419822E-03 
1562	 9.30951891919983E-03 
1563	 9.34794873580051E-03 
1564	 9.32367806899691E-03 
1565	 9.18230061372889E-03 
1566	 9.07188979555639E-03 
1567	 9.14976953136368E-03 
1568	 9.1725678609514E-03 
1569	 9.04622556553094E-03 
1570	 9.08581478262013E-03 
1571	 9.2482607897864E-03 
1572	 9.1959561912996E-03 
1573	 9.21998359120132E-03 
1574	 9.32807713462071E-03 
1575	 9.10085259787075E-03 
1576	 8.85456540223891E-03 
1577	 8.97005903601677E-03 
1578	 9.16238599569946E-03 
1579	 9.20364260239866E-03 
1580	 9.23321846946074E-03 
1581	 9.18828568154997E-03 
1582	 9.05938180109931E-03 
1583	 9.04003041237258E-03 
1584	 8.99038374953913E-03 
1585	 8.96564556345884E-03 
1586	 9.11537409731963E-03 
1587	 9.07129858121178E-03 
1588	 8.91414790357357E-03 
1589	 9.03065470011572E-03 
1590	 9.06903510542388E-03 
1591	 8.97328767024532E-03 
1592	 9.16022354880282E-03 
1593	 9.40175096408015E-03 
1594	 9.34920710409341E-03 
1595	 9.20435149977532E-03 
1596	 9.1710397805189E-03 
1597	 9.18016621376911E-03 
1598	 9.17302703095951E-03 
1599	 9.16625949703869E-03 
1600	 9.09043269288456E-03 
1601	 8.87143429807542E-03 
1602	 8.80781439511587E-03 
1603	 9.01709554373122E-03 
1604	 9.17459328838212E-03 
1605	 9.1858095320685E-03 
1606	 9.15111046291693E-03 
1607	 9.10212310592301E-03 
1608	 9.15654720570835E-03 
1609	 9.15646021187238E-03 
1610	 8.92077725740121E-03 
1611	 8.84520178718336E-03 
1612	 9.00001642267153E-03 
1613	 8.92025455382667E-03 
1614	 8.83126062311923E-03 
1615	 9.02049076501385E-03 
1616	 8.90716565751763E-03 
1617	 8.66829010305989E-03 
1618	 8.85651583746539E-03 
1619	 9.00242250677276E-03 
1620	 8.91196939365799E-03 
1621	 9.08767554341253E-03 
1622	 9.38659724251512E-03 
1623	 9.28194209286179E-03 
1624	 9.04090979887913E-03 
1625	 8.9374234039825E-03 
1626	 8.76933101344541E-03 
1627	 8.77487952736697E-03 
1628	 9.0057461646243E-03 
1629	 8.97328235503425E-03 
1630	 8.87786433513812E-03 
1631	 9.09287702836424E-03 
1632	 9.11733080996852E-03 
1633	 8.87346225215456E-03 
1634	 9.04885246924504E-03 
1635	 9.28624692593763E-03 
1636	 9.09866103157926E-03 
1637	 9.03144102950049E-03 
1638	 9.21832995817382E-03 
1639	 9.16044670951983E-03 
1640	 8.71238270965533E-03 
1641	 8.64043333342104E-03 
1642	 8.99558954957224E-03 
1643	 8.9150794321582E-03 
1644	 8.92350345862447E-03 
1645	 9.32889781173306E-03 
1646	 9.2868734177539E-03 
1647	 8.94219348302069E-03 
1648	 8.90551185586171E-03 
1649	 8.95731945472187E-03 
1650	 8.9186139834307E-03 
1651	 8.9197379352851E-03 
1652	 8.87752207931499E-03 
1653	 8.85636059258198E-03 
1654	 8.77056377526465E-03 
1655	 8.64961556780436E-03 
1656	 8.82274111598371E-03 
1657	 9.19333581092089E-03 
1658	 9.10022602827405E-03 
1659	 8.97225261851906E-03 
1660	 9.16315656466498E-03 
1661	 9.16572034101221E-03 
1662	 8.96575620034294E-03 
1663	 8.99844692230117E-03 
1664	 9.0445499203511E-03 
1665	 8.65933286467572E-03 
1666	 8.65539516142617E-03 
1667	 9.2202947874733E-03 
1668	 9.14849839833805E-03 
1669	 8.94674020156479E-03 
1670	 8.6878370729089E-03 
1671	 8.78049188514475E-03 
1672	 8.97922008723233E-03 
1673	 9.19955290556143E-03 
1674	 9.28452132762057E-03 
1675	 8.96134899357714E-03 
1676	 8.93311818850611E-03 
1677	 9.17122156750001E-03 
1678	 8.99459705015728E-03 
1679	 8.95520415380712E-03 
1680	 9.15464365465769E-03 
1681	 8.89195529825423E-03 
1682	 8.78518913923489E-03 
1683	 9.14661679930593E-03 
1684	 9.07715986528938E-03 
1685	 8.55982370692648E-03 
1686	 8.52160045152726E-03 
1687	 8.92055344283779E-03 
1688	 8.91089585578217E-03 
1689	 8.80658805192714E-03 
1690	 9.10663968491668E-03 
1691	 9.1301040041051E-03 
1692	 8.97836900150155E-03 
1693	 9.22972237507617E-03 
1694	 9.2102372411588E-03 
1695	 8.78716074723597E-03 
1696	 8.55192431177938E-03 
1697	 8.64434224181489E-03 
1698	 8.89080617770527E-03 
1699	 8.82953211722484E-03 
1700	 8.81840169690691E-03 
1701	 8.85820133160683E-03 
1702	 8.3546111667743E-03 
1703	 8.20701910387894E-03 
1704	 8.62002420072546E-03 
1705	 8.82414207719201E-03 
1706	 8.75079051526141E-03 
1707	 8.55606615349309E-03 
1708	 8.37975229000514E-03 
1709	 8.14183121279572E-03 
1710	 8.25051453476916E-03 
1711	 8.77633323870332E-03 
1712	 8.69636353804256E-03 
1713	 8.38357209685466E-03 
1714	 8.39854018913236E-03 
1715	 8.38777902853098E-03 
1716	 8.28090806380465E-03 
1717	 8.34007223155872E-03 
1718	 8.36281677879043E-03 
1719	 8.0771178959869E-03 
1720	 8.08588711280969E-03 
1721	 8.22410186596973E-03 
1722	 7.94138070276392E-03 
1723	 7.70760702087874E-03 
1724	 7.79458353189085E-03 
1725	 8.12379039558487E-03 
1726	 8.23069365903913E-03 
1727	 8.25063477649501E-03 
1728	 8.15020921748665E-03 
1729	 7.53843440578198E-03 
1730	 7.53932374536148E-03 
1731	 0.008046137634328 
1732	 8.00543128981047E-03 
1733	 8.04052942074701E-03 
1734	 7.79844185610201E-03 
1735	 7.39147770034497E-03 
1736	 7.87994200248896E-03 
1737	 8.10825517606108E-03 
1738	 7.80130938315865E-03 
1739	 7.82673123303907E-03 
1740	 7.76164466307944E-03 
1741	 7.54575284723536E-03 
1742	 7.85948492082447E-03 
1743	 8.22623331878182E-03 
1744	 7.77484019802401E-03 
1745	 7.37417434081565E-03 
1746	 7.1250099676174E-03 
1747	 7.00499410531978E-03 
1748	 7.47520649917477E-03 
1749	 7.59534047744828E-03 
1750	 7.3650836233422E-03 
1751	 7.33100311718836E-03 
1752	 7.30236561333259E-03 
1753	 7.4560222915414E-03 
1754	 8.23742222898997E-03 
1755	 8.06972845887013E-03 
1756	 6.95406029053515E-03 
1757	 6.83828871481929E-03 
1758	 6.69103694323478E-03 
1759	 7.15686718429375E-03 
1760	 8.36070590364776E-03 
1761	 8.20872301862063E-03 
1762	 7.56919058353216E-03 
1763	 7.25385499338042E-03 
1764	 6.22172640861078E-03 
1765	 5.98845583106191E-03 
1766	 6.28547730849434E-03 
1767	 6.24357831885618E-03 
1768	 6.99377367134217E-03 
1769	 0.00665590703328 
1770	 5.73666327491311E-03 
1771	 5.83790303469155E-03 
1772	 5.81845401890749E-03 
1773	 6.51421306798916E-03 
1774	 7.08535691694328E-03 
1775	 5.94135234023999E-03 
1776	 5.92873620275993E-03 
1777	 7.1165081641576E-03 
1778	 7.36445053650043E-03 
1779	 7.65852808484336E-03 
1780	 7.18588004627413E-03 
1781	 4.76086061861578E-03 
1782	 4.05980331053103E-03 
1783	 4.44626826063633E-03 
1784	 4.35423327794105E-03 
1785	 4.94666805035952E-03 
1786	 4.86317554905908E-03 
1787	 3.46729830666188E-03 
1788	 4.36597440650756E-03 
1789	 7.07763754959953E-03 
1790	 7.22033192699171E-03 
1791	 9.19706339245764E-03 
1792	 7.75784510119372E-03 
1793	 6.75260485047362E-03 
1794	 8.66155986323831E-03 
1795	 6.37040592205293E-03 
1796	 6.03498515366305E-03 
1797	 4.35868078164312E-03 
1798	-1.39508680747439E-03 
1799	 4.32737983720065E-04 
1800	 2.0275416614157E-03 
1801	-7.29782173320487E-04 
1802	-1.33519459524995E-02 
1803	-1.25929413577224E-02 
1804	 7.09279546778206E-03 
1805	 9.12243577191956E-03 
1806	 0.023794181349695 
1807	 2.85586916672873E-02 
1808	-4.78253960424356E-02 
1809	-6.22580577377814E-02 
1810	 2.93203113888341E-02 
1811	 5.94002686850417E-02 
1812	 0.107820428641322 
1813	 7.69957579352791E-02 
1814	-0.259038762219473 
1815	-0.318526394790009 
1816	-0.119455563738977 
1817	 7.58756816691771E-02 
1818	 0.417010421250948 
1819	 0.316252358569482 
1820	-0.142010216585357 
1821	-0.308197098416768 
1822	-0.365711182900287 
1823	-0.276440869113987 
1824	-8.50564468169612E-02 
1825	 1.04060944762643 
1826	 1.23763743148042 
1827	 0.110148573757787 
1828	 5.02477818572536E-02 
1829	-1.92769048402373E-02 
1830	-0.158613378366521 
1831	-1.46061650326992 
1832	 40.133709297521 
1833	 1.55632035980364 
1834	 1.34023019354834 
1835	 1.3044074848652 
1836	 3.16830958897237 
1837	-1.0531728202043 
1838	-0.768388103298543 
1839	-0.581882642985212 
1840	-0.351014127923062 
1841	-0.538795762448412 
1842	-1.26238017841792 
1843	-1.10369942178596 
1844	-0.451047854006322 
1845	-0.401624604875334 
1846	-0.242107084041222 
1847	-0.222939524906206 
1848	-0.575425856735729 
1849	-0.415319303155357 
1850	-0.134806539643713 
1851	-0.571505703284315 
1852	-0.399940135638554 
1853	-0.175923118017959 
1854	-0.120192404471686 
1855	 0.219670711868163 
1856	 0.208241116078159 
1857	 6.98172171293087 
1858	 4.15161062300584 
1859	-0.917978342124714 
1860	 5.49901378357825E-02 
1861	 0.605193004939106 
1862	 1.09623179828106 
1863	 0.927689632680645 
1864	 8.32452948520576 
1865	-0.627191209351445 
1866	 0.637156739014655 
1867	 0.397658087881679 
1868	-0.15290136321825 
1869	-2.95377085857587 
1870	-0.650266736612114 
1871	-7.02134721214754E-02 
1872	-0.176666623901307 
1873	-2.87214815421693 
1874	-0.170839932372166 
1875	-1.01058701449573 
1876	-1.01478549753758 
1877	-0.638201129950862 
1878	-0.751144225483982 
1879	 1.44439255522743 
1880	 0.174529877647794 
1881	 0.294575527382754 
1882	 0.317449191731648 
1883	 1.23524122797832 
1884	 2.08128551414127 
1885	 1.42766965044517 
1886	 4.26923030453161 
1887	-12.1284914676725 
1888	-2.8841890886215 
1889	-2.07870570162448 
1890	-1.40368298985168 
1891	-0.893175905742693 
1892	-1.97609050608777 
1893	-0.6157473321664 
1894	-0.16255016245523 
1895	 0.266922963915259 
1896	 0.755675903340285 
1897	 9.2877459268271 
1898	-0.463986759447044 
1899	-23.9894847950198 
1900	-4.14014088851334 
1901	-0.375002290159956 
1902	-0.275545591425817 
1903	-0.264197836964777 
1904	-0.361135168677522 
1905	-0.303023346201977 
1906	-0.125683867169747 
1907	 6.15637896740881E-02 
1908	 0.178204401312081 
1909	-0.645278748798004 
1910	-19.6149124400603 
1911	 4.30924591731621 
1912	 3.00717140246673 
1913	 3.07136816160002 
1914	-0.139828559532069 
1915	 0.148907098338273 
1916	 1.76019847755737E-03 
1917	-0.122737319860836 
1918	-8.93295305034575E-02 
1919	-0.283092488791596 
1920	-0.320059306719624 
1921	-0.194644562153983 
1922	-0.270650238661346 
1923	-0.300335312408902 
1924	 1.80416964487779E-02 
1925	 0.515521287767811 
1926	 1.54959612248813 
1927	 8.74424109925808 
1928	-2.82088405708615 
1929	-1.35531970915429 
1930	-1.35852464418379 
1931	-1.08152188564889 
1932	-0.572448253119098 
1933	 3.97182784412664E-02 
1934	 0.227437042161608 
1935	 0.395995671098714 
1936	 0.694384122744763 
1937	 0.725319174554892 
1938	 0.282915644130415 
1939	 0.126993675947752 
1940	 1.12111448308671E-02 
1941	-0.080272759222365 
1942	-0.117235965956174 
1943	-4.59616604994871E-03 
1944	 1.61676177912937E-02 
1945	-2.21821007112711E-02 
1946	 1.07341332632189E-02 
1947	 5.58819985649856E-02 
1948	 7.18739470160507E-02 
1949	 7.11401821883854E-02 
1950	 0.042859868260215 
1951	 6.56365993043452E-03 
1952	 1.05775112067504E-03 
1953	 2.50286618068566E-02 
1954	 4.80469604340387E-02 
1955	 6.10296895464499E-02 
1956	 5.36079404881391E-02 
1957	 2.78742548907098E-02 
1958	 3.25915216588678E-02 
1959	 2.92248756753208E-02 
1960	 1.96997625171664E-02 
1961	 2.24048373885112E-02 
1962	 0.019559287165414 
1963	 1.37783470124918E-02 
1964	 7.36777248966594E-03 
1965	 7.8201439205997E-03 
1966	 7.5683748310891E-03 
1967	 7.41540293579251E-03 
1968	 3.47498980539498E-03 
1969	 5.20273604448665E-03 
1970	 4.74680087816662E-03 
1971	 9.47050384504715E-04 
1972	 3.43643330697166E-03 
1973	 5.54098379143308E-03 
1974	 5.54257225853974E-03 
1975	 8.03955317380531E-03 
1976	 9.11003417391769E-03 
1977	 8.38265088426789E-03 
1978	 8.99082694884061E-03 
1979	 0.009031671136376 
1980	 9.0304172249615E-03 
1981	 7.34265138797388E-03 
1982	 6.33262130791887E-03 
1983	 6.15863206963899E-03 
1984	 5.60413759069327E-03 
1985	 6.32600065422941E-03 
1986	 7.20667890632402E-03 
1987	 5.83695989054358E-03 
1988	 4.98331270012896E-03 
1989	 0.005331893346942 
1990	 0.004769225724722 
1991	 5.83376176889122E-03 
1992	 7.59723118340912E-03 
1993	 7.8342648114406E-03 
1994	 8.29258324862984E-03 
1995	 9.42187533806814E-03 
1996	 9.8453990932011E-03 
1997	 8.51535580735495E-03 
1998	 7.89695463941032E-03 
1999	 7.15465555095801E-03 
2000	 5.86425068162972E-03 
2001	 6.44611601467612E-03 
2002	 8.89634739710445E-03 
2003	 1.10601013612867E-02 
2004	 1.25533236622755E-02 
2005	 1.29056593415876E-02 
2006	 0.01083993269917 
2007	 8.99811738635621E-03 
2008	 7.96505293081534E-03 
2009	 7.26318605215107E-03 
2010	 7.58539702652598E-03 
2011	 7.34561942087727E-03 
2012	 5.81829319691139E-03 
2013	 7.6964759090178E-03 
2014	 1.05459816542985E-02 
2015	 9.60698596702003E-03 
2016	 8.33508692237195E-03 
2017	 7.04355644438518E-03 
2018	 5.66440389364983E-03 
2019	 6.31684581472608E-03 
2020	 8.37385297714705E-03 
2021	 9.12420429710553E-03 
2022	 9.4641189388919E-03 
2023	 9.11156164321929E-03 
2024	 8.4722965975132E-03 
2025	 7.12577238857529E-03 
2026	 7.19938397354432E-03 
2027	 7.44370587703928E-03 
2028	 7.77165620646725E-03 
2029	 8.41657689025917E-03 
2030	 8.15493934742554E-03 
2031	 7.47144802312281E-03 
2032	 7.19309381082555E-03 
2033	 7.50482024743363E-03 
2034	 7.47898306037035E-03 
2035	 7.12823166477693E-03 
2036	 7.06486491281023E-03 
2037	 6.86329099862092E-03 
2038	 7.43164656876911E-03 
2039	 7.64230552807784E-03 
2040	 7.95233479137673E-03 
2041	 8.07639655902727E-03 
2042	 7.68621136218546E-03 
2043	 7.48700558124733E-03 
2044	 7.39158350879571E-03 
2045	 8.16295682406044E-03 
2046	 7.47695129825591E-03 
2047	 6.72904015895523E-03 
2048	 6.38445728470296E-03 
2049	 6.00913857609077E-03 
2050	 5.57745933360841E-03 
2051	 6.55007524010493E-03 
2052	 8.27246537222098E-03 
2053	 8.59210318081625E-03 
2054	 8.93156401540659E-03 
2055	 8.15826702025896E-03 
2056	 7.43413080206805E-03 
2057	 5.40790758236602E-03 
2058	 4.6044598620584E-03 
2059	 0.004216633190688 
2060	 4.3130345746822E-03 
2061	 5.09202094662879E-03 
2062	 5.42048325392604E-03 
2063	 5.48616875323425E-03 
2064	 6.66083995050286E-03 
2065	 7.3254290052039E-03 
2066	 6.35174513676901E-03 
2067	 6.97038860731731E-03 
2068	 8.44850662777018E-03 
2069	 8.76180303963361E-03 
2070	 9.49974037967522E-03 
2071	 9.99215783008024E-03 
2072	 9.19880281846646E-03 
2073	 9.04284725655919E-03 
2074	 9.42679206868811E-03 
2075	 9.46342497378257E-03 
2076	 9.16948902852682E-03 
2077	 8.95258096952979E-03 
2078	 8.99142759291538E-03 
2079	 8.53655922947788E-03 
2080	 7.65649300421581E-03 
2081	 7.30882479612175E-03 
2082	 6.30371303918505E-03 
2083	 5.61865690239805E-03 
2084	 6.06545006671453E-03 
2085	 6.31950197806666E-03 
2086	 6.67219653057277E-03 
2087	 6.88448317233101E-03 
2088	 7.09551403294398E-03 
2089	 6.96293519152015E-03 
2090	 6.93171313435834E-03 
2091	 8.12711143550394E-03 
2092	 8.37021488175771E-03 
2093	 7.83585872741977E-03 
2094	 7.93628311093871E-03 
2095	 8.20125060186047E-03 
2096	 7.97698744679412E-03 
2097	 7.85876585068917E-03 
2098	 7.75485245574334E-03 
2099	 7.50387006904673E-03 
2100	 6.79595636242333E-03 
2101	 6.41606246753181E-03 
2102	 6.50004981114952E-03 
2103	 6.36824423068218E-03 
2104	 6.83875839503146E-03 
2105	 7.47950723751788E-03 
2106	 7.57158555344069E-03 
2107	 7.77669759180314E-03 
2108	 7.9098740651138E-03 
2109	 8.11032408662065E-03 
2110	 8.62608031277459E-03 
2111	 8.66670630445886E-03 
2112	 8.01824018216246E-03 
2113	 7.75284698890643E-03 
2114	 7.12240381125001E-03 
2115	 6.94262987460669E-03 
2116	 7.40973775670021E-03 
2117	 7.50609127013564E-03 
2118	 7.55241472668703E-03 
2119	 7.39268818036968E-03 
2120	 7.03211786454276E-03 
2121	 6.43937106413865E-03 
2122	 6.7994313692203E-03 
2123	 7.17245090300164E-03 
2124	 7.42773934989514E-03 
2125	 0.008417255024002 
2126	 8.57219855859884E-03 
2127	 7.99678754231351E-03 
2128	 7.80699306575195E-03 
2129	 7.80911769792282E-03 
2130	 7.92948280219331E-03 
2131	 8.01919933458431E-03 
2132	 7.47839083082435E-03 
2133	 7.31249953420206E-03 
2134	 7.28400677223045E-03 
2135	 6.99888355148438E-03 
2136	 6.87055005725487E-03 
2137	 7.33388924735987E-03 
2138	 7.44722076398091E-03 
2139	 7.27022467862142E-03 
2140	 7.13371124281329E-03 
2141	 6.98101842327623E-03 
2142	 6.91967182848576E-03 
2143	 6.46122670760526E-03 
2144	 6.77285689902692E-03 
2145	 7.62028296383946E-03 
2146	 8.11072496251392E-03 
2147	 7.57231099184537E-03 
2148	 7.19322237064047E-03 
2149	 7.53436647009734E-03 
2150	 7.75440164348946E-03 
2151	 7.91152706364117E-03 
2152	 8.87360657544389E-03 
2153	 1.00684954530953E-02 
2154	 9.47568224899265E-03 
2155	 8.86734505466291E-03 
2156	 9.05627234918406E-03 
2157	 8.89061898091397E-03 
2158	 7.88055215234827E-03 
2159	 7.68118950348243E-03 
2160	 8.2867586789565E-03 
2161	 8.04227733889524E-03 
2162	 7.24210238732274E-03 
2163	 6.72057003309316E-03 
2164	 5.95230779486728E-03 
2165	 5.8385419595434E-03 
2166	 6.32630155430672E-03 
2167	 6.48034190321737E-03 
2168	 6.67739627580057E-03 
2169	 7.15734940086935E-03 
2170	 7.6563199933674E-03 
2171	 7.93415480975436E-03 
2172	 9.28361993446007E-03 
2173	 9.73084252467414E-03 
2174	 8.81754757605582E-03 
2175	 8.12221261994238E-03 
2176	 6.89808102408762E-03 
2177	 6.85797226035544E-03 
2178	 8.47631588073613E-03 
2179	 8.76451822144072E-03 
2180	 7.83344688704719E-03 
2181	 7.11839706367984E-03 
2182	 6.8952518318646E-03 
2183	 6.86512457247242E-03 
2184	 7.80465889227111E-03 
2185	 8.65405595559796E-03 
2186	 8.54827209858265E-03 
2187	 6.73679602284667E-03 
2188	 6.53262083904085E-03 
2189	 6.87809031871595E-03 
2190	 6.73650887823999E-03 
2191	 6.8211807086991E-03 
2192	 6.96430428685556E-03 
2193	 6.61670873042006E-03 
2194	 6.74209093823361E-03 
2195	 7.72813463471348E-03 
2196	 8.35757332274889E-03 
2197	 8.85103865221965E-03 
2198	 9.0548276760023E-03 
2199	 9.41537948538644E-03 
2200	 8.89293375284708E-03 
2201	 7.44998595932545E-03 
2202	 8.61181641636798E-03 
2203	 1.02473899177232E-02 
2204	 1.03926360577735E-02 
2205	 1.07761568331397E-02 
2206	 9.38470363794315E-03 
2207	 5.69325837830319E-03 
2208	 3.58343375444658E-03 
2209	 4.37954450387738E-03 
2210	 5.4358401758062E-03 
2211	 6.55886062396819E-03 
2212	 7.66075603824333E-03 
2213	 6.64003304806912E-03 
2214	 4.83653621388289E-03 
2215	 4.44533512404771E-03 
2216	 5.67606670472948E-03 
2217	 6.19238392643119E-03 
2218	 7.47689168008516E-03 
2219	 7.16394383070633E-03 
2220	 5.52247690028776E-03 
2221	 4.90665789230982E-03 
2222	 3.44194434556363E-03 
2223	 3.81740790355874E-03 
2224	 6.57712219669068E-03 
2225	 7.41979294373053E-03 
2226	 7.48249050784942E-03 
2227	 8.44689527486618E-03 
2228	 9.54348166463542E-03 
2229	 9.6888230432376E-03 
2230	 0.010521101899993 
2231	 1.06208123146267E-02 
2232	 8.73091141628267E-03 
2233	 7.67810917926382E-03 
2234	 7.01021678946857E-03 
2235	 6.34795387669111E-03 
2236	 5.45625247407053E-03 
2237	 5.00001467153589E-03 
2238	 5.11787148811074E-03 
2239	 6.18017220473671E-03 
2240	 7.86716222629277E-03 
2241	 0.010071038157617 
2242	 1.07036224092865E-02 
2243	 1.05305970091449E-02 
2244	 1.08181689082863E-02 
2245	 1.05352808173351E-02 
2246	 1.04331163859805E-02 
2247	 1.06268552882528E-02 
2248	 1.07711959630058E-02 
2249	 1.01046151807042E-02 
2250	 9.54995791608958E-03 
2251	 9.09905740813993E-03 
2252	 6.53746149594853E-03 
2253	 5.30366913061063E-03 
2254	 3.63907119728933E-03 
2255	 2.05870556170498E-03 
2256	 5.13728925725195E-03 
2257	 4.94192056374844E-03 
2258	 4.86822101165727E-03 
2259	 9.35020758983268E-03 
2260	 1.10129798740251E-02 
2261	 1.12723831071143E-02 
2262	 1.16059534123103E-02 
2263	 1.11557320093775E-02 
2264	 9.98685454670282E-03 
2265	 7.21415645813767E-03 
2266	 7.43350057588375E-03 
2267	 9.99311967370259E-03 
2268	 1.05344985420984E-02 
2269	 1.11029933621824E-02 
2270	 1.05333774598871E-02 
2271	 8.28696880976873E-03 
2272	 6.97484980509349E-03 
2273	 5.92848127700363E-03 
2274	 5.55824591098176E-03 
2275	 4.58384637888896E-03 
2276	 4.38057971321235E-03 
2277	 5.60663762629196E-03 
2278	 6.28645897550207E-03 
2279	 8.09801280119447E-03 
2280	 7.78774035943087E-03 
2281	 5.8071944888463E-03 
2282	 4.57932659431706E-03 
2283	 2.09395667063236E-03 
2284	 2.15525929703111E-03 
2285	 5.26889777890787E-03 
2286	 6.8963784191069E-03 
2287	 8.27623374231931E-03 
2288	 9.75390340777785E-03 
2289	 7.1934577658979E-03 
2290	 5.24670328136023E-03 
2291	 6.13456053635713E-03 
2292	 5.62079116084554E-03 
2293	 5.81539940432314E-03 
2294	 5.34249775742981E-03 
2295	 3.98629859597962E-03 
2296	 4.54702756718716E-03 
2297	 5.95502140850716E-03 
2298	 8.90725685085047E-03 
2299	 1.10351441504556E-02 
2300	 1.07868626324583E-02 
2301	 1.08436365549437E-02 
2302	 1.04682231680762E-02 
2303	 9.86008654524506E-03 
2304	 9.67277733189763E-03 
2305	 7.27564449330627E-03 
2306	 4.17724685121176E-03 
2307	 1.41262569853212E-03 
2308	 9.84303603053367E-04 
2309	 2.60211184903527E-03 
2310	 4.07219648004349E-03 
2311	 8.37801104556962E-03 
2312	 9.81479268405755E-03 
2313	 9.60540319400704E-03 
2314	 1.26097660808056E-02 
2315	 1.26282778476755E-02 
2316	 8.75872757673936E-03 
2317	 2.53503978976875E-03 
2318	 3.41188519033749E-04 
2319	 1.7842220804831E-03 
2320	-1.59506451792954E-04 
2321	 4.14992387685582E-03 
2322	 7.28788849921174E-03 
2323	 2.77294552307361E-03 
2324	 4.4156768856362E-03 
2325	 4.54856613797176E-03 
2326	-1.69022821959166E-03 
2327	-1.40506039184957E-03 
2328	 3.42265536688471E-03 
2329	 7.40249619278439E-03 
2330	 1.23330785864033E-02 
2331	 1.09387368583317E-02 
2332	 8.72492162289578E-03 
2333	 0.010124389655955 
2334	 8.08470550302658E-03 
2335	 6.6508734353608E-03 
2336	 4.08453559508448E-03 
2337	 7.84283099072112E-04 
2338	-6.56177407752465E-05 
2339	 5.57008821297262E-03 
2340	 1.39276429721037E-02 
2341	 0.010991354691851 
2342	 1.29631993017423E-02 
2343	 1.78434533060589E-02 
2344	 1.31149247625047E-02 
2345	 1.26600501905726E-02 
2346	 7.33317699221326E-03 
2347	 3.05731976954195E-03 
2348	 2.84478021971421E-03 
2349	 9.63322828480511E-05 
2350	 8.39220373483735E-03 
2351	 2.10031332306174E-02 
2352	 2.65960255320901E-02 
2353	 1.79031998992128E-02 
2354	 1.40450823352067E-02 
2355	 1.78052883488508E-02 
2356	 1.74548220971262E-02 
2357	 2.10672954591288E-02 
2358	 2.17761102971713E-02 
2359	 2.04055745116539E-02 
2360	 1.32874677732106E-02 
2361	 1.03510169272458E-02 
2362	 0.018817647069897 
2363	 1.88737386788135E-02 
2364	 6.64982314000984E-03 
2365	-2.98108881457762E-03 
2366	-5.04989242534234E-03 
2367	-1.76678027483163E-02 
2368	-2.22900521552117E-02 
2369	 3.82804165613057E-03 
2370	 1.55248248358464E-02 
2371	 1.28261256727963E-02 
2372	 3.00697094322164E-02 
2373	 2.78768983890169E-02 
2374	 1.31511893735861E-02 
2375	 2.37038972546662E-02 
2376	 3.06125443009674E-02 
2377	 2.09098557467862E-02 
2378	 1.46770437403652E-02 
2379	 2.30949728818526E-02 
2380	 0.030190120954093 
2381	 2.52801725695241E-02 
2382	 1.65037733147708E-02 
2383	 1.36753565307387E-02 
2384	 1.28256903359956E-02 
2385	 8.96765239723879E-03 
2386	 1.42230963414779E-02 
2387	 0.001176881844732 
2388	-1.35510220993865E-02 
2389	 9.2102979398436E-04 
2390	 2.78346013692519E-02 
2391	 4.64217452826106E-02 
2392	 3.34294055369659E-02 
2393	 9.3697274636936E-03 
2394	-8.31754279749173E-03 
2395	-8.53421323375048E-03 
2396	 5.34260314997272E-03 
2397	 9.69740522058943E-03 
2398	 9.89032737257961E-03 
2399	 2.56905338375004E-02 
2400	 4.06340582826977E-02 
2401	 1.61809461339254E-02 
2402	 1.57530921771832E-02 
2403	 1.97236076302263E-02 
2404	-2.26700923820426E-02 
2405	-6.80197708517155E-03 
2406	 3.53201560911451E-02 
2407	 1.75351738502878E-02 
2408	 2.44103635020368E-03 
2409	-2.04139369872812E-02 
2410	-7.60945698643708E-02 
2411	-0.110631730472078 
2412	-8.65990008068594E-02 
2413	-0.034092802323195 
2414	-5.43072672577122E-03 
2415	-3.71105510864764E-03 
2416	-1.87945679009808E-02 
2417	-8.24732759838251E-02 
2418	-0.113488164686841 
2419	-0.138659675806868 
2420	-0.191101461953349 
2421	-0.182687320291638 
2422	-0.164537963254849 
2423	-9.49637761975261E-02 
2424	-4.65855177463767E-02 
2425	-4.30001681437873E-02 
2426	-1.23694383342184E-02 
2427	-2.15708536895114E-03 
2428	 3.91305053028852E-02 
2429	 6.26700924365848E-02 
2430	 3.94326076170511E-02 
2431	 4.49977664499999E-02 
2432	-3.35185745036624E-02 
2433	 8.16911469677956E-03 
2434	 0.137269201557128 
2435	 0.092133729757258 
2436	 7.55718779768856E-02 
2437	 1.7161284909512E-03 
2438	-0.116957159722951 
2439	-8.70583200466119E-02 
2440	-2.48013254603479E-02 
2441	 3.80106359294414E-02 
2442	 0.135840107179791 
2443	 0.141353162983914 
2444	-1.77892129898047E-02 
2445	-0.068952672065049 
2446	-0.215209973999483 
2447	-0.639823982172505 
2448	-0.684101207255951 
2449	-0.445329152726322 
2450	-0.490265824612964 
2451	-0.142761867254555 
2452	-0.11064644617742 
2453	-0.343513526858787 
2454	-4.15480673912046E-02 
2455	 0.189153406304986 
2456	 8.32772696692348E-03 
2457	 7.00981389075875E-02 
2458	 0.416522352834407 
2459	-1.03790949295275E-03 
2460	-8.62175953215513E-02 
2461	-0.301704719116086 
2462	-0.735131586572311 
2463	-0.641656157301724 
2464	-0.884129074645229 
2465	-1.15195197712842 
2466	-1.39870572578661 
2467	-9.1310140487132 
2468	-2.49977134160345E-02 
2469	 0.456748942168384 
2470	 0.992109238485838 
2471	-31.7888661979172 
2472	 1.10812729494819 
2473	 0.282797621266839 
2474	 0.398267588474633 
2475	 1.48486605601196 
2476	-0.227684159605901 
2477	 9.00065310271874E-02 
2478	 0.390505720521785 
2479	-2.21776982359641 
2480	-1.0573136555756 
2481	-7.90809825134485 
2482	 1.46049603889796 
2483	 0.705065899452768 
2484	 9.56057008278207 
2485	 37.5735416362755 
2486	 10.0802910076004 
2487	-1.56274713354758 
2488	-6.10609341753897 
2489	 3.93980210212343 
2490	 2.18207325360881 
2491	 1.91685357614986 
2492	 0.929724539140805 
2493	 0.432565063450063 
2494	-0.372981268876435 
2495	-0.929196114770258 
2496	-0.145563828220131 
2497	-0.183453607938448 
2498	-0.365614110247001 
2499	-0.355497671946748 
2500	-0.921184379587619 
