Wavelength	rt0713east_close200009.asd
350	 8.22405802928684E-02 
351	 8.33834431537511E-02 
352	 8.26521433437033E-02 
353	 0.08178907165628 
354	 8.18941983749317E-02 
355	 0.081246665661064 
356	 8.13529216418191E-02 
357	 8.16912754270071E-02 
358	 8.14489060518004E-02 
359	 8.13589676056278E-02 
360	 8.15118163991031E-02 
361	 8.15197957236634E-02 
362	 8.08748060644438E-02 
363	 8.11678759281428E-02 
364	 8.12904110694048E-02 
365	 8.07584806826646E-02 
366	 8.05066536367567E-02 
367	 8.05950871786349E-02 
368	 8.08965881697249E-02 
369	 8.12086541048349E-02 
370	 8.14348422262603E-02 
371	 0.081115072185794 
372	 8.07286719735727E-02 
373	 8.11204244735457E-02 
374	 8.10988992899966E-02 
375	 8.11152532230704E-02 
376	 8.12723151610754E-02 
377	 0.080987188762471 
378	 8.14797612032062E-02 
379	 8.16605493478276E-02 
380	 8.07917113583933E-02 
381	 8.08708364653212E-02 
382	 8.13964082469909E-02 
383	 8.18369023993815E-02 
384	 8.17594906119223E-02 
385	 8.16083599115642E-02 
386	 8.19649804655742E-02 
387	 8.23913251810689E-02 
388	 8.14611531190749E-02 
389	 8.17455706406613E-02 
390	 8.24710479323422E-02 
391	 8.27181056867426E-02 
392	 8.29429548097623E-02 
393	 8.29035550600327E-02 
394	 8.28043874552906E-02 
395	 8.29056677838771E-02 
396	 8.28508065478624E-02 
397	 8.29025951279279E-02 
398	 8.30283293262167E-02 
399	 8.29424083169301E-02 
400	 8.29953291094628E-02 
401	 8.30945998053103E-02 
402	 0.083123535222741 
403	 8.30220441275529E-02 
404	 8.33094267121351E-02 
405	 8.35841459419076E-02 
406	 8.33410480082242E-02 
407	 8.36272994944344E-02 
408	 8.38475095168127E-02 
409	 8.38298104046245E-02 
410	 8.39083649965052E-02 
411	 8.40407843814144E-02 
412	 8.40653948322792E-02 
413	 8.40096789828256E-02 
414	 8.44534275533711E-02 
415	 8.45915758371648E-02 
416	 8.46116914196749E-02 
417	 8.49760503717991E-02 
418	 8.51184353179672E-02 
419	 8.52788465546203E-02 
420	 8.55032504260925E-02 
421	 8.55817635894698E-02 
422	 8.58197015975221E-02 
423	 0.086085685644521 
424	 8.62816671785869E-02 
425	 8.66940732703897E-02 
426	 8.68884481789294E-02 
427	 8.69799953350747E-02 
428	 8.72994147701284E-02 
429	 8.75888854092599E-02 
430	 8.80053905987814E-02 
431	 8.84579715798202E-02 
432	 8.85428406390254E-02 
433	 8.87664818660745E-02 
434	 8.90922480840119E-02 
435	 8.94239271719775E-02 
436	 8.99107799290026E-02 
437	 9.01853567587301E-02 
438	 9.03616183625077E-02 
439	 0.090766385515287 
440	 9.10479835040372E-02 
441	 9.13218467267742E-02 
442	 9.16642338584907E-02 
443	 9.20248202507645E-02 
444	 9.22852070019301E-02 
445	 9.25470530810632E-02 
446	 9.29101224368805E-02 
447	 9.32100188782638E-02 
448	 9.35460769171955E-02 
449	 9.38547512785234E-02 
450	 9.39810690141592E-02 
451	 9.42176260515915E-02 
452	 9.44992410215868E-02 
453	 9.47579537971992E-02 
454	 9.50322573760831E-02 
455	 9.53070371192591E-02 
456	 9.55192652457972E-02 
457	 9.56439379028291E-02 
458	 9.59583868933907E-02 
459	 9.61276683436719E-02 
460	 0.096170843473555 
461	 9.64719227993034E-02 
462	 9.67378978503804E-02 
463	 9.69157749910823E-02 
464	 9.70298491370386E-02 
465	 9.71640995518458E-02 
466	 9.74094054407851E-02 
467	 9.76374394263956E-02 
468	 0.097688375988464 
469	 9.80827719033952E-02 
470	 9.83529915552426E-02 
471	 9.83719577603871E-02 
472	 9.85816623851146E-02 
473	 9.87046452563092E-02 
474	 9.89107920175089E-02 
475	 9.93261326458222E-02 
476	 9.95408497655601E-02 
477	 0.099645336776515 
478	 9.97870487220604E-02 
479	 0.100119829588081 
480	 0.100423277317182 
481	 0.100709320263955 
482	 0.101005683411095 
483	 0.101304963758087 
484	 0.101562097543409 
485	 0.101891980276929 
486	 0.102381841764552 
487	 0.102649902374175 
488	 0.102926337722933 
489	 0.103302111285523 
490	 0.103696625498486 
491	 0.103980538348455 
492	 0.104251424236071 
493	 0.104601711679375 
494	 0.104985579307865 
495	 0.105388828453635 
496	 0.105772489117239 
497	 0.106096787038508 
498	 0.106371494609347 
499	 0.106863401202204 
500	 0.107506738922807 
501	 0.107694765536994 
502	 0.107949922812295 
503	 0.108411050840554 
504	 0.108996802239324 
505	 0.109213307196697 
506	 0.109604644114065 
507	 0.110249604506845 
508	 0.110827762639977 
509	 0.111138258230709 
510	 0.111510744449784 
511	 0.112121318727544 
512	 0.112581183707909 
513	 0.113106579074388 
514	 0.113647049372974 
515	 0.114088624051167 
516	 0.114732533745449 
517	 0.115302676422686 
518	 0.115701842273025 
519	 0.116116161139063 
520	 0.116703637778709 
521	 0.117324848725376 
522	 0.117829824180798 
523	 0.118274453838969 
524	 0.118776149372918 
525	 0.119355293744099 
526	 0.119953058383554 
527	 0.120451614553795 
528	 0.120955654419105 
529	 0.121544789196717 
530	 0.122204420301657 
531	 0.122791101255471 
532	 0.123324524058838 
533	 0.123880022402659 
534	 0.124435969922326 
535	 0.124981860165329 
536	 0.125570416978206 
537	 0.126317211239959 
538	 0.126762837517821 
539	 0.127247223150653 
540	 0.128036640533623 
541	 0.128485444894001 
542	 0.128986480974054 
543	 0.129601602233396 
544	 0.130187138242888 
545	 0.130771197095935 
546	 0.131386172345478 
547	 0.132013190373348 
548	 0.132522747899714 
549	 0.133121538455284 
550	 0.133755103897968 
551	 0.134319520962233 
552	 0.135019920756527 
553	 0.135580010227155 
554	 0.135988395902726 
555	 0.136552281111732 
556	 0.137118694136835 
557	 0.137702719354388 
558	 0.13832026174326 
559	 0.138921837667231 
560	 0.139293162209228 
561	 0.13960679919609 
562	 0.140221892985187 
563	 0.14066353668681 
564	 0.141093545505722 
565	 0.141583624172189 
566	 0.141865896008615 
567	 0.142104412575775 
568	 0.142387764780545 
569	 0.142761107940871 
570	 0.143178553425855 
571	 0.143518134966075 
572	 0.143794796231848 
573	 0.144165501602658 
574	 0.144354594957168 
575	 0.144533441864098 
576	 0.14486892610069 
577	 0.145179251076743 
578	 0.145463179212945 
579	 0.145715977573577 
580	 0.145944586621415 
581	 0.146261763036106 
582	 0.146515391714138 
583	 0.146585714676511 
584	 0.146454830903751 
585	 0.146322175075277 
586	 0.146117146312095 
587	 0.145712755180796 
588	 0.145313354162132 
589	 0.145091634937691 
590	 0.145100181529112 
591	 0.145238971364028 
592	 0.145341171099635 
593	 0.145291820139112 
594	 0.145110387152956 
595	 0.145162649544471 
596	 0.1451574768993 
597	 0.145043993784614 
598	 0.144914848345435 
599	 0.144824267424145 
600	 0.144756152549331 
601	 0.144715084277588 
602	 0.144774830403702 
603	 0.144598949483702 
604	 0.144464585927312 
605	 0.144680371164336 
606	 0.144598514251584 
607	 0.144617575803154 
608	 0.144799279472268 
609	 0.144815997902497 
610	 0.144803622023541 
611	 0.144805103562475 
612	 0.144841309583102 
613	 0.144925060359073 
614	 0.144951240960203 
615	 0.144968665684432 
616	 0.14509065680181 
617	 0.145151871987671 
618	 0.145179799658457 
619	 0.145212171629327 
620	 0.145269515227601 
621	 0.145259975173511 
622	 0.145184758821018 
623	 0.145113984110566 
624	 0.145293619336671 
625	 0.145257087227394 
626	 0.145010477129699 
627	 0.145022073383645 
628	 0.14513210362526 
629	 0.14528042227775 
630	 0.145408179760082 
631	 0.145417051580849 
632	 0.145429811738451 
633	 0.145487707542921 
634	 0.145580917438228 
635	 0.145648345496749 
636	 0.145663041201993 
637	 0.145707478497952 
638	 0.146024166808293 
639	 0.145983734848214 
640	 0.145813474106805 
641	 0.14586695986771 
642	 0.145897247024091 
643	 0.145748874830832 
644	 0.145368888162934 
645	 0.14481771212254 
646	 0.144537576804864 
647	 0.144385802593775 
648	 0.144269435077556 
649	 0.144548191137052 
650	 0.144531189692797 
651	 0.14425959965453 
652	 0.144051733753245 
653	 0.14390809815785 
654	 0.143626120764406 
655	 0.143215995668054 
656	 0.14304764073794 
657	 0.142849339556679 
658	 0.14261295010689 
659	 0.142380590867887 
660	 0.142190607550268 
661	 0.142010783376621 
662	 0.14182277158679 
663	 0.141615811742664 
664	 0.141306645783781 
665	 0.141105777439559 
666	 0.141100269068181 
667	 0.141126028915852 
668	 0.14079731873887 
669	 0.140520497922198 
670	 0.140750456612912 
671	 0.140699198367719 
672	 0.140809919666836 
673	 0.141023850040498 
674	 0.140813223233201 
675	 0.140886760396755 
676	 0.14098949518154 
677	 0.140936275188244 
678	 0.141201219102592 
679	 0.141463409399726 
680	 0.141664787108643 
681	 0.141865561027646 
682	 0.142092660956689 
683	 0.142197528740127 
684	 0.142121571768826 
685	 0.141929255491033 
686	 0.141708108434245 
687	 0.141708299232021 
688	 0.14200650617296 
689	 0.142132917731547 
690	 0.14211472794658 
691	 0.141831457116345 
692	 0.141152748862052 
693	 0.140991899245408 
694	 0.141255167263324 
695	 0.141616288329192 
696	 0.141811319676589 
697	 0.141403857385816 
698	 0.140680680023313 
699	 0.140164031133175 
700	 0.139868678203216 
701	 0.139793925480645 
702	 0.139698742481852 
703	 0.139230573742451 
704	 0.13893679636059 
705	 0.138594265006153 
706	 0.138057297850399 
707	 0.137586907122497 
708	 0.136932363584203 
709	 0.136155456545246 
710	 0.135397880675162 
711	 0.134555947038972 
712	 0.133652473668446 
713	 0.132511782616648 
714	 0.130704004213144 
715	 0.128499943585498 
716	 0.125858455564943 
717	 0.123227199208483 
718	 0.121675939816165 
719	 0.121244982479713 
720	 0.12110091663609 
721	 0.120367743820534 
722	 0.118628809019602 
723	 0.11636953864019 
724	 0.114445738496399 
725	 0.113286841526542 
726	 0.111816513998225 
727	 0.110164988274465 
728	 0.108552609769543 
729	 0.106470812381497 
730	 0.104708962927355 
731	 0.103575585468238 
732	 0.102794920676995 
733	 0.101339471220231 
734	 9.99548552190616E-02 
735	 9.89561609150177E-02 
736	 9.79690215191484E-02 
737	 9.76544046017539E-02 
738	 9.75099706295475E-02 
739	 0.097115568152855 
740	 9.71219976827125E-02 
741	 9.71042598597264E-02 
742	 9.70403131928372E-02 
743	 9.70841841512408E-02 
744	 9.69790528986315E-02 
745	 9.69196452980693E-02 
746	 9.69957544900542E-02 
747	 9.70985805613213E-02 
748	 0.096992575448668 
749	 9.68834682534189E-02 
750	 9.69499423150696E-02 
751	 9.68769980886739E-02 
752	 9.67605284007873E-02 
753	 9.67277241399488E-02 
754	 9.68716189374301E-02 
755	 9.68881758918441E-02 
756	 9.68364023064088E-02 
757	 9.66312634579835E-02 
758	 9.57091666464909E-02 
759	 9.46834236560099E-02 
760	 0.093940585571505 
761	 0.09385780765258 
762	 9.41251651867685E-02 
763	 9.47908230394865E-02 
764	 9.55799613990241E-02 
765	 9.62312631628804E-02 
766	 9.67186541452365E-02 
767	 9.71047907876735E-02 
768	 9.74679751380653E-02 
769	 9.78822194100608E-02 
770	 9.79741061608535E-02 
771	 9.80724862308327E-02 
772	 9.83902406993857E-02 
773	 9.84043741494141E-02 
774	 9.86225193678847E-02 
775	 9.89722117118202E-02 
776	 9.91658640952994E-02 
777	 9.92464570664573E-02 
778	 0.09959059109158 
779	 0.100102000974048 
780	 0.100231494104412 
781	 0.100589363876663 
782	 0.100869962679218 
783	 0.100919509301932 
784	 0.101322298860026 
785	 0.101572161995799 
786	 0.10153961028666 
787	 0.101381109195441 
788	 0.101913436216156 
789	 0.102427529545 
790	 0.102782299136133 
791	 0.103351909319844 
792	 0.103976989524224 
793	 0.10433690144021 
794	 0.104422360846113 
795	 0.104734036695889 
796	 0.105104754260257 
797	 0.105445480643906 
798	 0.105729282529433 
799	 0.106059316952755 
800	 0.106127740327792 
801	 0.106120514343445 
802	 0.106449912487482 
803	 0.106848539804787 
804	 0.107334026596313 
805	 0.107735688167086 
806	 0.107686169092443 
807	 0.10738890252441 
808	 0.106979054879355 
809	 0.10654885053743 
810	 0.106112629090398 
811	 0.105406777037722 
812	 0.104369994960979 
813	 0.103203737061029 
814	 0.102832646945996 
815	 0.102441491847683 
816	 0.101864622107538 
817	 0.101599047014215 
818	 0.1018664255368 
819	 0.101673186961668 
820	 0.100824535123567 
821	 0.100135714104332 
822	 9.91223233812663E-02 
823	 9.77359119582866E-02 
824	 9.62815839126929E-02 
825	 9.54208876048289E-02 
826	 9.38133301249505E-02 
827	 9.20425719987472E-02 
828	 9.11536081769026E-02 
829	 8.91987805771175E-02 
830	 8.76352059448076E-02 
831	 8.67836809895196E-02 
832	 8.60535200246434E-02 
833	 8.55611903317788E-02 
834	 8.47969913818718E-02 
835	 8.38550685284215E-02 
836	 8.36330843415242E-02 
837	 8.35597489082514E-02 
838	 8.33535426844992E-02 
839	 8.29828928742371E-02 
840	 8.29039503782267E-02 
841	 8.25390771111942E-02 
842	 8.21843738318753E-02 
843	 8.22442048315997E-02 
844	 8.20811251361663E-02 
845	 8.16371315821991E-02 
846	 8.12491959295267E-02 
847	 8.13710543248118E-02 
848	 8.10666805941417E-02 
849	 8.06884807250169E-02 
850	 8.05369855029574E-02 
851	 8.06062448730687E-02 
852	 8.00242326716804E-02 
853	 7.96300335944194E-02 
854	 7.98548164930923E-02 
855	 7.94846816499719E-02 
856	 0.079154249364742 
857	 7.88996689424395E-02 
858	 7.86941842273225E-02 
859	 7.89589914204827E-02 
860	 7.85703128037356E-02 
861	 7.77985090295574E-02 
862	 7.75663663983246E-02 
863	 7.78885179990972E-02 
864	 7.80054674943226E-02 
865	 7.75410559280557E-02 
866	 7.67249933436568E-02 
867	 7.72868435395972E-02 
868	 7.72201018800225E-02 
869	 7.61156817757411E-02 
870	 7.61998835187051E-02 
871	 7.59210734584667E-02 
872	 7.57316536702767E-02 
873	 7.58647879127791E-02 
874	 7.51306447007999E-02 
875	 7.46271628177255E-02 
876	 0.074316062503046 
877	 0.073912567339457 
878	 7.36189308200989E-02 
879	 7.34072226225069E-02 
880	 7.30852054080589E-02 
881	 7.25485062128679E-02 
882	 7.26466140666557E-02 
883	 7.20775451547738E-02 
884	 7.12275609213786E-02 
885	 0.071531892553751 
886	 7.11556811998451E-02 
887	 7.05710342638561E-02 
888	 7.03301168354684E-02 
889	 7.06313026742537E-02 
890	 6.92638455947311E-02 
891	 6.84048146057255E-02 
892	 6.90826683360016E-02 
893	 6.84793535299641E-02 
894	 6.74310606638609E-02 
895	 6.62633142217496E-02 
896	 6.53930989999093E-02 
897	 6.56450043021622E-02 
898	 6.54241643523087E-02 
899	 6.47950630136995E-02 
900	 6.43827732695463E-02 
901	 6.40549858667151E-02 
902	 6.47447726227812E-02 
903	 6.53066974478777E-02 
904	 6.43469244153382E-02 
905	 6.30280038813712E-02 
906	 0.063092780881568 
907	 6.38734304652375E-02 
908	 6.30691106127907E-02 
909	 6.19503564703867E-02 
910	 6.07663340022228E-02 
911	 6.03942655254649E-02 
912	 6.18723657788428E-02 
913	 6.27074640601785E-02 
914	 6.11764343422642E-02 
915	 0.058781424918158 
916	 0.059693839327107 
917	 5.96110482981133E-02 
918	 5.90677610300134E-02 
919	 5.86618080580243E-02 
920	 5.81418203006939E-02 
921	 5.79655266236258E-02 
922	 5.72428517765774E-02 
923	 5.57992356535963E-02 
924	 5.55233753476126E-02 
925	 5.71563229061612E-02 
926	 5.67114114150677E-02 
927	 5.14713270833803E-02 
928	 5.09253745507121E-02 
929	 5.38458966645559E-02 
930	 5.50874816313669E-02 
931	 4.85923424212844E-02 
932	 5.29676734967553E-02 
933	 5.29223753547116E-02 
934	 5.08090250926932E-02 
935	 5.57736642515804E-02 
936	 5.39453829190741E-02 
937	 5.36947423223598E-02 
938	 5.02194716454499E-02 
939	 4.05845355683818E-02 
940	 4.51448306115497E-02 
941	 4.59819121972471E-02 
942	 4.27201092469005E-02 
943	 4.34499719785581E-02 
944	 4.57721595740598E-02 
945	 0.05196270038754 
946	 5.30731347207395E-02 
947	 4.11085830927287E-02 
948	 4.61202402811883E-02 
949	 4.75459014918613E-02 
950	 4.27635244755352E-02 
951	 4.16834347404493E-02 
952	 4.35102522846503E-02 
953	 4.51940641975751E-02 
954	 4.48027156923707E-02 
955	 4.23775050583747E-02 
956	 4.20591382942527E-02 
957	 4.42975440239023E-02 
958	 4.68202872817566E-02 
959	 4.64262756207715E-02 
960	 4.42547867789948E-02 
961	 4.62650706664999E-02 
962	 4.79536234322542E-02 
963	 4.12699327091242E-02 
964	 4.02828345433101E-02 
965	 4.51455325840356E-02 
966	 4.96475182149369E-02 
967	 0.046774138738135 
968	 4.74901030409984E-02 
969	 4.77630864026911E-02 
970	 4.68362277158384E-02 
971	 4.74687711422571E-02 
972	 4.85365033015345E-02 
973	 4.62123840037539E-02 
974	 4.39915360586967E-02 
975	 5.00532994298167E-02 
976	 4.87332789179485E-02 
977	 4.52318111168999E-02 
978	 4.44806861077043E-02 
979	 4.73908942841591E-02 
980	 4.66153395296137E-02 
981	 4.69928458628216E-02 
982	 4.89709554178762E-02 
983	 4.91766094229228E-02 
984	 5.07578612995083E-02 
985	 4.95928015807777E-02 
986	 4.68657944667532E-02 
987	 4.75486018437264E-02 
988	 4.95616864603197E-02 
989	 0.050383660337272 
990	 4.94729425530331E-02 
991	 4.81392445649277E-02 
992	 4.80514881947956E-02 
993	 4.99612859343367E-02 
994	 5.13850999077168E-02 
995	 4.88395286391734E-02 
996	 4.49629936223912E-02 
997	 4.82675131521804E-02 
998	 5.30588931908614E-02 
999	 0.048570264348824 
1000	 4.76864160027219E-02 
1001	 4.25070232926906E-02 
1002	 4.27012413577281E-02 
1003	 4.26058573197214E-02 
1004	 4.25829788683865E-02 
1005	 4.26004110081258E-02 
1006	 4.24008324460681E-02 
1007	 4.22237086166338E-02 
1008	 0.042707705840738 
1009	 4.30068887643492E-02 
1010	 4.38052862491196E-02 
1011	 0.044366871039277 
1012	 4.46461102670832E-02 
1013	 4.50917542679606E-02 
1014	 4.51090903688258E-02 
1015	 4.47028150851135E-02 
1016	 4.45692476310639E-02 
1017	 4.45161717336926E-02 
1018	 4.41790433937738E-02 
1019	 4.36519626119885E-02 
1020	 4.33766824227851E-02 
1021	 4.29418350292308E-02 
1022	 4.22836773116962E-02 
1023	 4.27636584361787E-02 
1024	 4.38311199740654E-02 
1025	 4.54027952910252E-02 
1026	 4.66463065116571E-02 
1027	 4.69097344436728E-02 
1028	 4.64891338261619E-02 
1029	 0.046282247513625 
1030	 4.52912342951449E-02 
1031	 4.49010402172482E-02 
1032	 4.48174213089649E-02 
1033	 4.47021314975757E-02 
1034	 4.45031351261133E-02 
1035	 4.45293678331622E-02 
1036	 4.48686930916554E-02 
1037	 4.50954084805944E-02 
1038	 4.56629846538098E-02 
1039	 4.56536756936475E-02 
1040	 0.045091515926664 
1041	 4.55004694569772E-02 
1042	 4.58222838526141E-02 
1043	 4.62267665325331E-02 
1044	 4.65252671371546E-02 
1045	 0.047273877743943 
1046	 4.74082650043845E-02 
1047	 4.70703216536171E-02 
1048	 4.69313807146804E-02 
1049	 4.63610159018428E-02 
1050	 0.046422070702905 
1051	 4.70937933211571E-02 
1052	 4.72458435566602E-02 
1053	 4.73852201430074E-02 
1054	 0.047658354898931 
1055	 4.76092148944332E-02 
1056	 4.76713157864749E-02 
1057	 4.78572946296536E-02 
1058	 4.84923011938409E-02 
1059	 4.86515851813786E-02 
1060	 4.86982119271136E-02 
1061	 4.84741998436462E-02 
1062	 0.047824746816298 
1063	 4.76602069286101E-02 
1064	 4.73448336238729E-02 
1065	 4.73366810975857E-02 
1066	 4.78732157514753E-02 
1067	 4.81708332324849E-02 
1068	 4.87212936623018E-02 
1069	 4.87544677561584E-02 
1070	 4.82757579133696E-02 
1071	 0.048144147570313 
1072	 4.76414649605476E-02 
1073	 4.75282061720542E-02 
1074	 4.75437227204056E-02 
1075	 4.82248575101235E-02 
1076	 4.80325824000007E-02 
1077	 4.74179806181765E-02 
1078	 4.71391996062634E-02 
1079	 4.64192547410908E-02 
1080	 4.63659138259547E-02 
1081	 4.70523712108868E-02 
1082	 4.71628548058209E-02 
1083	 4.75117783901318E-02 
1084	 4.73078992098335E-02 
1085	 4.61802189833383E-02 
1086	 4.58519981432379E-02 
1087	 4.56351967493124E-02 
1088	 4.54378126814786E-02 
1089	 4.60204776860548E-02 
1090	 4.60235849495761E-02 
1091	 4.58591468255726E-02 
1092	 4.53974303327106E-02 
1093	 4.50715609901507E-02 
1094	 4.43135746964687E-02 
1095	 4.42456875859924E-02 
1096	 0.044379064572043 
1097	 4.46739942724834E-02 
1098	 4.63461461586131E-02 
1099	 4.63292471897807E-02 
1100	 4.50421004110193E-02 
1101	 4.44438676871082E-02 
1102	 4.25790742844552E-02 
1103	 4.19042269966711E-02 
1104	 0.042781049920317 
1105	 4.30713657058085E-02 
1106	 4.38841546661065E-02 
1107	 4.43732794041115E-02 
1108	 4.07228448240137E-02 
1109	 3.87441004790309E-02 
1110	 0.038823498157563 
1111	 3.95430995277285E-02 
1112	 3.96703990340417E-02 
1113	 4.51204665532983E-02 
1114	 4.59383374990705E-02 
1115	 0.039459670975186 
1116	 3.70792771678391E-02 
1117	 3.64303113101833E-02 
1118	 3.49789030799863E-02 
1119	 3.32819498665092E-02 
1120	 3.39340146433559E-02 
1121	 0.040832231916485 
1122	 4.11052954056345E-02 
1123	 3.72276121337448E-02 
1124	 3.72659003085824E-02 
1125	 2.17778256209374E-02 
1126	 9.76672108692608E-03 
1127	 1.90471703984359E-02 
1128	 3.36371853641155E-02 
1129	 3.73343887852935E-02 
1130	 4.51170442925809E-02 
1131	 4.26614788227213E-02 
1132	 0.02526264681842 
1133	 2.33915292873728E-02 
1134	 0.028443724453431 
1135	 0.029540648664165 
1136	 3.23529140395491E-02 
1137	 3.38328195395486E-02 
1138	 3.50505260007979E-02 
1139	 3.31278085732216E-02 
1140	 2.79999273168944E-02 
1141	 0.029505301644935 
1142	 3.16302711084713E-02 
1143	 2.84976697794133E-02 
1144	 3.08921260859801E-02 
1145	 3.27628239331378E-02 
1146	 3.13946539699819E-02 
1147	 3.24890675769185E-02 
1148	 3.33818861322645E-02 
1149	 3.41295614256627E-02 
1150	 3.42347016861257E-02 
1151	 3.28719309817758E-02 
1152	 3.34226817717913E-02 
1153	 3.51814270424028E-02 
1154	 3.55178446544543E-02 
1155	 3.54813076722066E-02 
1156	 3.63263820893776E-02 
1157	 3.71340893546771E-02 
1158	 3.64383732030687E-02 
1159	 3.67161951931446E-02 
1160	 3.75064058508336E-02 
1161	 3.64538751438706E-02 
1162	 3.58488708056807E-02 
1163	 0.037395851809058 
1164	 3.86447179927251E-02 
1165	 3.89167674205261E-02 
1166	 3.91460736938878E-02 
1167	 3.86803435080831E-02 
1168	 3.79059202831448E-02 
1169	 3.86009455326983E-02 
1170	 4.01240851318481E-02 
1171	 4.06461575750552E-02 
1172	 0.040803131730716 
1173	 4.08648286045871E-02 
1174	 4.05467972435173E-02 
1175	 4.00606045972105E-02 
1176	 3.96818710676448E-02 
1177	 3.98746255227851E-02 
1178	 0.040309929544153 
1179	 4.03178306523558E-02 
1180	 4.02391108711277E-02 
1181	 4.02284987624215E-02 
1182	 3.95247655314886E-02 
1183	 3.89569498135987E-02 
1184	 3.94323506692306E-02 
1185	 3.95726487217594E-02 
1186	 3.93946999315956E-02 
1187	 3.93779250239524E-02 
1188	 3.94300342484109E-02 
1189	 4.01347375914984E-02 
1190	 4.08554091287857E-02 
1191	 4.07265777130869E-02 
1192	 4.09669563254179E-02 
1193	 4.10870881703864E-02 
1194	 4.12597525463271E-02 
1195	 4.06524942128726E-02 
1196	 4.06697341482505E-02 
1197	 4.13512891917292E-02 
1198	 4.08372406654905E-02 
1199	 4.03500043822468E-02 
1200	 4.09766956239701E-02 
1201	 4.10298968826634E-02 
1202	 4.03188802963164E-02 
1203	 4.04343537008124E-02 
1204	 4.11417083593959E-02 
1205	 4.11862231088316E-02 
1206	 4.08588928886555E-02 
1207	 4.11403759294661E-02 
1208	 4.17607910411932E-02 
1209	 4.16719632061493E-02 
1210	 0.041567146663097 
1211	 4.20730979633315E-02 
1212	 4.17331676607948E-02 
1213	 4.10757495065599E-02 
1214	 4.09619899466024E-02 
1215	 4.13996519541399E-02 
1216	 4.13126773578514E-02 
1217	 4.12216151319561E-02 
1218	 4.17381397854605E-02 
1219	 4.17360108499627E-02 
1220	 0.041478959847869 
1221	 0.041555336108359 
1222	 4.13886132461638E-02 
1223	 4.10647159517056E-02 
1224	 4.13529256699204E-02 
1225	 4.20222878977036E-02 
1226	 4.20052907875103E-02 
1227	 0.041808706011212 
1228	 4.20486178580127E-02 
1229	 4.20592108522401E-02 
1230	 4.22263649216662E-02 
1231	 0.042827449174017 
1232	 4.28412587471922E-02 
1233	 4.26208867898504E-02 
1234	 4.26673003821572E-02 
1235	 4.25289070355622E-02 
1236	 4.22715688657616E-02 
1237	 4.22850451875191E-02 
1238	 4.23834693429952E-02 
1239	 4.22999739581919E-02 
1240	 4.22119523756022E-02 
1241	 4.24192929313957E-02 
1242	 0.042492849308432 
1243	 4.21900001581575E-02 
1244	 4.24056507339564E-02 
1245	 4.28902269583893E-02 
1246	 4.27415955355531E-02 
1247	 4.24088495422495E-02 
1248	 4.24626113209376E-02 
1249	 4.24077168755887E-02 
1250	 4.20682416386438E-02 
1251	 4.21900614079806E-02 
1252	 4.22556675057455E-02 
1253	 4.20296143097723E-02 
1254	 0.042150785822366 
1255	 4.20935650854995E-02 
1256	 4.22117917113241E-02 
1257	 4.25692444392574E-02 
1258	 0.042549788713398 
1259	 4.22939516338491E-02 
1260	 4.21561025848075E-02 
1261	 4.17316351358859E-02 
1262	 4.16003023850103E-02 
1263	 4.16085964735012E-02 
1264	 0.041944200786836 
1265	 4.21946263588237E-02 
1266	 4.18717802873785E-02 
1267	 4.16830089809345E-02 
1268	 4.17567890187575E-02 
1269	 4.17310068314199E-02 
1270	 4.16746191821492E-02 
1271	 0.041863165058548 
1272	 4.22174662437199E-02 
1273	 4.21338235668393E-02 
1274	 4.18601292775958E-02 
1275	 4.17701139156032E-02 
1276	 4.14971044863175E-02 
1277	 4.11613114976124E-02 
1278	 4.14934593617975E-02 
1279	 4.19201523929894E-02 
1280	 4.16953693572217E-02 
1281	 4.16074078418675E-02 
1282	 0.041905375772325 
1283	 4.21316722540515E-02 
1284	 0.04200492290084 
1285	 4.19309391797516E-02 
1286	 4.23943664121617E-02 
1287	 4.23722908104479E-02 
1288	 4.15194461554367E-02 
1289	 0.041339710165222 
1290	 4.17447048935006E-02 
1291	 4.14159418802214E-02 
1292	 4.07915307958931E-02 
1293	 4.11101404654801E-02 
1294	 4.15739936696516E-02 
1295	 4.13948845580727E-02 
1296	 4.14548866664268E-02 
1297	 4.17335957661712E-02 
1298	 0.04127479079043 
1299	 4.05343707325761E-02 
1300	 4.04418980918142E-02 
1301	 4.05745987307606E-02 
1302	 4.03212802447644E-02 
1303	 3.98835827084487E-02 
1304	 3.99173117243863E-02 
1305	 0.040360209123206 
1306	 4.02635048810983E-02 
1307	 4.01832392983997E-02 
1308	 3.99440036927544E-02 
1309	 0.038980415864977 
1310	 3.87579440421268E-02 
1311	 3.89793138474775E-02 
1312	 0.039125982185626 
1313	 3.96934992876702E-02 
1314	 3.97410964227596E-02 
1315	 3.98518832431549E-02 
1316	 3.97006744503471E-02 
1317	 3.84702806965182E-02 
1318	 3.82046693808997E-02 
1319	 3.88518570342087E-02 
1320	 0.038573333712634 
1321	 3.83293281382858E-02 
1322	 3.81262847656999E-02 
1323	 3.81451836806783E-02 
1324	 3.67561122171198E-02 
1325	 3.61600643108629E-02 
1326	 0.037788151553005 
1327	 3.81769641757059E-02 
1328	 3.80333556467638E-02 
1329	 3.83923868362399E-02 
1330	 3.69649762834442E-02 
1331	 3.54659573688179E-02 
1332	 0.035354062860743 
1333	 3.46262503176484E-02 
1334	 3.41654366014026E-02 
1335	 3.42886723564879E-02 
1336	 3.47350043994446E-02 
1337	 3.44672562099882E-02 
1338	 3.47338419040289E-02 
1339	 3.53354877168434E-02 
1340	 3.47268261800906E-02 
1341	 3.55132579103557E-02 
1342	 0.039940398340833 
1343	 4.06364470919438E-02 
1344	 3.85367707158083E-02 
1345	 3.85925307841903E-02 
1346	 3.41035470306441E-02 
1347	 3.24231959112048E-02 
1348	 4.40681580915764E-02 
1349	 4.56642595346925E-02 
1350	 2.48346953736603E-02 
1351	 2.15448884026152E-02 
1352	 0.03316760856738 
1353	 3.42774180475949E-02 
1354	 7.77621727946487E-02 
1355	 0.150862177517258 
1356	 9.49690703505343E-02 
1357	-2.85981228062406E-02 
1358	-0.115809035862346 
1359	-0.156440040785475 
1360	-3.44487943912174E-02 
1361	 8.70031214128461E-02 
1362	 0.212457986442049 
1363	 0.344184661477983 
1364	 0.198145017329368 
1365	 4.18119783361178E-02 
1366	-4.12059401158664E-02 
1367	-0.286635204867814 
1368	-0.361490565667847 
1369	-0.161910577167448 
1370	-0.147666044681916 
1371	-0.186488495537074 
1372	-0.289804717091229 
1373	-0.812019025878212 
1374	-0.747497612169411 
1375	-0.633367411188778 
1376	-0.543051521734677 
1377	-6.52267170499915E-02 
1378	 1.47224368888881E-02 
1379	-3.41646936264896E-02 
1380	-0.051940104667827 
1381	-0.307401370372621 
1382	-0.207527178131792 
1383	 0.361814474511542 
1384	 0.66870084463753 
1385	 0.118659003142149 
1386	-0.104071699655302 
1387	-0.59065676916549 
1388	-1.04529325442189 
1389	-1.2475063235566 
1390	-0.89646323954474 
1391	-1.68169375321355 
1392	-4.19816104960084E-02 
1393	-1.90298498275328 
1394	-4.5134404635059 
1395	-0.49268708980406 
1396	-1.33030452615249 
1397	-1.84644196542398 
1398	-0.136414160102973 
1399	-0.281045249581132 
1400	-1.04525589899884 
1401	-0.936176568626218 
1402	-0.740412838552148 
1403	-0.12120011063729 
1404	 0.74004964549223 
1405	 0.794410716428202 
1406	-1.99237423548696E-02 
1407	 0.294494525651795 
1408	 0.580394730578188 
1409	 0.366596280312439 
1410	 0.240220812566695 
1411	 0.353384574534929 
1412	 0.57739808651836 
1413	 0.43719048320792 
1414	 0.715970420905439 
1415	 0.621205975014592 
1416	 0.123917243636692 
1417	 0.11300347921272 
1418	 0.470516744677507 
1419	 0.339319493914774 
1420	-2.22172123475047E-02 
1421	-5.96518620269824E-02 
1422	-0.082053107987043 
1423	-0.112015644320739 
1424	-7.82593984240011E-02 
1425	-0.021655972925621 
1426	 4.59255931653901E-02 
1427	 4.54592034165532E-02 
1428	 5.22001221445872E-02 
1429	 5.95264360332314E-02 
1430	 4.45066086699547E-03 
1431	-0.025121162568007 
1432	-0.020079999042863 
1433	-7.39626840303604E-03 
1434	 1.43543820971607E-02 
1435	 1.96465632145786E-02 
1436	 3.65988023850164E-02 
1437	 4.02299656171285E-02 
1438	 4.84909740046114E-02 
1439	 5.11636481520645E-02 
1440	 6.47124606157796E-02 
1441	 8.42462817981641E-02 
1442	 8.33921772590573E-02 
1443	 5.29036690881546E-02 
1444	 1.74490426630571E-02 
1445	-6.71266495644757E-04 
1446	-5.56157271882917E-03 
1447	-2.05175432164085E-03 
1448	 5.37034411016404E-03 
1449	 1.34512606151631E-02 
1450	 0.017997606693885 
1451	 1.64968655281431E-02 
1452	 1.55790089516428E-02 
1453	 1.85695821033112E-02 
1454	 1.96997209913136E-02 
1455	 2.08199674212841E-02 
1456	 2.11521928661292E-02 
1457	 2.16001424079934E-02 
1458	 2.18891819449481E-02 
1459	 2.11908676342605E-02 
1460	 2.09513162470006E-02 
1461	 1.98151197192899E-02 
1462	 0.02281797318234 
1463	 3.08303506005252E-02 
1464	 3.21109323235026E-02 
1465	 3.22463224399176E-02 
1466	 3.26051281524503E-02 
1467	 2.77777026824523E-02 
1468	 2.55987213651625E-02 
1469	 2.73859144273218E-02 
1470	 2.68358993352903E-02 
1471	 2.06956393465262E-02 
1472	 2.16718654391471E-02 
1473	 2.85039981291538E-02 
1474	 3.08306638165163E-02 
1475	 3.66678684427878E-02 
1476	 3.52313537299065E-02 
1477	 2.42623778432234E-02 
1478	 2.33842828617486E-02 
1479	 0.025670646211117 
1480	 0.02596419005122 
1481	 2.87966205992382E-02 
1482	 3.19828613924286E-02 
1483	 3.42736013109579E-02 
1484	 3.45557287001706E-02 
1485	 3.69769177882392E-02 
1486	 3.62864310822005E-02 
1487	 3.09676781717778E-02 
1488	 0.030054233448688 
1489	 2.96964101532383E-02 
1490	 3.08155824060977E-02 
1491	 3.51176752643624E-02 
1492	 3.58991202764698E-02 
1493	 3.46907356161568E-02 
1494	 3.54334821256977E-02 
1495	 3.66486508619663E-02 
1496	 3.64918816944153E-02 
1497	 3.64432858630913E-02 
1498	 3.67970767146568E-02 
1499	 3.64562992696175E-02 
1500	 0.036032578409276 
1501	 0.035562304155385 
1502	 3.60750145264564E-02 
1503	 3.72810647203879E-02 
1504	 3.72992263115294E-02 
1505	 3.65907454891742E-02 
1506	 3.79947780520393E-02 
1507	 3.91903991062018E-02 
1508	 3.85123662245185E-02 
1509	 3.81954610628467E-02 
1510	 3.89292667019051E-02 
1511	 3.94034064764711E-02 
1512	 3.90119569366433E-02 
1513	 3.91437832633753E-02 
1514	 3.95424232101183E-02 
1515	 3.94539497043467E-02 
1516	 0.03976608951992 
1517	 4.06987918303269E-02 
1518	 4.13838872671096E-02 
1519	 4.07755685463388E-02 
1520	 4.01318394435253E-02 
1521	 0.040111620210747 
1522	 3.95656646667775E-02 
1523	 3.96436197372216E-02 
1524	 4.03060534970804E-02 
1525	 4.01961982963261E-02 
1526	 4.05866853346523E-02 
1527	 4.17551556724538E-02 
1528	 4.16912479115061E-02 
1529	 4.09283262465017E-02 
1530	 4.10978122887544E-02 
1531	 4.10118639615675E-02 
1532	 4.04073070126675E-02 
1533	 4.10067431280518E-02 
1534	 4.17609587356171E-02 
1535	 4.16282035685088E-02 
1536	 4.20473511668823E-02 
1537	 4.21455195513104E-02 
1538	 4.15607716476954E-02 
1539	 4.17816322839765E-02 
1540	 4.19315397627456E-02 
1541	 4.17464544110451E-02 
1542	 4.20788316712422E-02 
1543	 4.23035816933954E-02 
1544	 0.041988721788095 
1545	 4.19005293081111E-02 
1546	 4.21325503899554E-02 
1547	 4.20291439962025E-02 
1548	 4.15569196462894E-02 
1549	 4.14427461409674E-02 
1550	 4.16764649142516E-02 
1551	 4.13415699088848E-02 
1552	 0.04127530151183 
1553	 4.20073027691115E-02 
1554	 4.24186291431729E-02 
1555	 4.25817174000798E-02 
1556	 4.27425836520827E-02 
1557	 4.22282311286807E-02 
1558	 4.19178303241298E-02 
1559	 4.26091719562331E-02 
1560	 4.29196783485828E-02 
1561	 4.27383035393169E-02 
1562	 4.28485285763549E-02 
1563	 4.26253178746129E-02 
1564	 4.22403158209335E-02 
1565	 4.26530957619086E-02 
1566	 4.30862300900686E-02 
1567	 4.27311005602418E-02 
1568	 4.24551372605036E-02 
1569	 4.23038280119956E-02 
1570	 4.20153733598902E-02 
1571	 4.23172016315152E-02 
1572	 4.28228441012787E-02 
1573	 4.27455242193479E-02 
1574	 4.24868485971373E-02 
1575	 4.24846863510103E-02 
1576	 4.24867853086084E-02 
1577	 4.27350780517756E-02 
1578	 4.28007323814708E-02 
1579	 4.23343272773245E-02 
1580	 4.22115030323609E-02 
1581	 4.19856065540388E-02 
1582	 4.18521586606277E-02 
1583	 4.21817575148283E-02 
1584	 4.20738231586325E-02 
1585	 4.19866122347425E-02 
1586	 4.24431365932055E-02 
1587	 4.27997564558501E-02 
1588	 4.30466904745992E-02 
1589	 4.35186193767057E-02 
1590	 4.34591106385933E-02 
1591	 4.29379744778511E-02 
1592	 4.27327630427627E-02 
1593	 4.23794515710457E-02 
1594	 4.19484672259837E-02 
1595	 0.041915586559612 
1596	 4.20322682575921E-02 
1597	 4.18322934865803E-02 
1598	 4.15097558473643E-02 
1599	 4.17896584060809E-02 
1600	 4.22151626448473E-02 
1601	 4.26401391133127E-02 
1602	 4.33674675746869E-02 
1603	 4.33350228797959E-02 
1604	 4.26588380007774E-02 
1605	 4.28495760169169E-02 
1606	 4.33483119123835E-02 
1607	 4.29233108534792E-02 
1608	 4.28172461094698E-02 
1609	 4.33873197905977E-02 
1610	 4.34262330322849E-02 
1611	 4.32141731689283E-02 
1612	 4.26912939264589E-02 
1613	 0.041850708683958 
1614	 4.16484212071103E-02 
1615	 4.22586186759563E-02 
1616	 4.29038649370223E-02 
1617	 4.32627434712337E-02 
1618	 4.31873944450219E-02 
1619	 4.26871045292527E-02 
1620	 4.28293092850501E-02 
1621	 4.31222216502302E-02 
1622	 4.27275753341934E-02 
1623	 4.25154327470658E-02 
1624	 4.28839548145457E-02 
1625	 4.29195242960945E-02 
1626	 4.28216246507021E-02 
1627	 4.29935385909826E-02 
1628	 4.24850290846309E-02 
1629	 4.23731102357736E-02 
1630	 4.26637361834512E-02 
1631	 4.26776221398398E-02 
1632	 4.33700418014291E-02 
1633	 0.043554832374069 
1634	 4.27325846050938E-02 
1635	 0.042182428868208 
1636	 4.26785127724815E-02 
1637	 4.33325723525226E-02 
1638	 4.28284429916874E-02 
1639	 4.26384122267911E-02 
1640	 0.043163843092306 
1641	 4.29222293452682E-02 
1642	 4.25051777941925E-02 
1643	 4.25682856255431E-02 
1644	 4.23480424082366E-02 
1645	 4.21327133831868E-02 
1646	 4.28773143231892E-02 
1647	 0.043815075372256 
1648	 4.32964815981144E-02 
1649	 4.20896437907789E-02 
1650	 4.22319276103189E-02 
1651	 4.29567884693002E-02 
1652	 4.30229810432063E-02 
1653	 4.33018349114688E-02 
1654	 4.34516305974214E-02 
1655	 4.27085000741414E-02 
1656	 4.26587851319645E-02 
1657	 4.33973305179487E-02 
1658	 4.35002393127089E-02 
1659	 4.36896240401405E-02 
1660	 4.35086166156828E-02 
1661	 4.23622345565828E-02 
1662	 4.20805280549099E-02 
1663	 4.21807947961816E-02 
1664	 4.26789766586931E-02 
1665	 4.39204911160973E-02 
1666	 4.43044674252023E-02 
1667	 4.45543198823537E-02 
1668	 4.42745035924397E-02 
1669	 4.40064357253991E-02 
1670	 4.39621159386743E-02 
1671	 4.35649096871481E-02 
1672	 4.32955796661738E-02 
1673	 4.33367630029131E-02 
1674	 4.33263627777791E-02 
1675	 4.38571266775275E-02 
1676	 0.044448477950634 
1677	 4.45263189316866E-02 
1678	 4.44516924104205E-02 
1679	 4.37197214591556E-02 
1680	 4.27909114998961E-02 
1681	 4.28470373426415E-02 
1682	 4.38868537833024E-02 
1683	 4.46921008254292E-02 
1684	 4.43322725511699E-02 
1685	 4.32877283725488E-02 
1686	 4.25251851070144E-02 
1687	 4.30274924827418E-02 
1688	 0.044108116274175 
1689	 4.44864213287978E-02 
1690	 4.46470745008779E-02 
1691	 0.04496959836297 
1692	 4.46723046294319E-02 
1693	 4.40149274810361E-02 
1694	 4.41103192184457E-02 
1695	 4.42907379726548E-02 
1696	 4.37674711406442E-02 
1697	 4.38908674922483E-02 
1698	 4.44667911182402E-02 
1699	 4.33373798072543E-02 
1700	 4.23279614987059E-02 
1701	 4.28490536508194E-02 
1702	 4.33013098528414E-02 
1703	 4.34371781247066E-02 
1704	 4.28961201890033E-02 
1705	 4.29097147322164E-02 
1706	 4.30246398870325E-02 
1707	 4.23032113088129E-02 
1708	 4.35056568337028E-02 
1709	 4.42487093593022E-02 
1710	 4.28189358486631E-02 
1711	 4.25474279623583E-02 
1712	 4.24452075495464E-02 
1713	 4.36310361456086E-02 
1714	 4.41793311957043E-02 
1715	 0.044203301201733 
1716	 4.44526609694945E-02 
1717	 4.31951073992698E-02 
1718	 4.19997444260881E-02 
1719	 4.20936638839261E-02 
1720	 0.043093275287938 
1721	 4.45321410599424E-02 
1722	 0.04411377748638 
1723	 4.27505202313217E-02 
1724	 4.12618900438303E-02 
1725	 4.00342698292208E-02 
1726	 4.18200051221932E-02 
1727	 4.36716236201506E-02 
1728	 0.043481266032374 
1729	 4.41309160574475E-02 
1730	 4.41642248110794E-02 
1731	 4.34130147829802E-02 
1732	 4.39338939575826E-02 
1733	 4.36585120316954E-02 
1734	 4.24910209262474E-02 
1735	 4.27413721135517E-02 
1736	 4.32784785799046E-02 
1737	 4.24823215234085E-02 
1738	 4.10680597775879E-02 
1739	 4.04021200241093E-02 
1740	 4.10425588220166E-02 
1741	 4.18955415376537E-02 
1742	 4.24962203933941E-02 
1743	 4.27560824727166E-02 
1744	 4.09770436750057E-02 
1745	 3.91480606192282E-02 
1746	 4.00657953581907E-02 
1747	 3.99650069513049E-02 
1748	 3.98964962985756E-02 
1749	 4.03029391996657E-02 
1750	 4.08897310146777E-02 
1751	 4.08098959139617E-02 
1752	 0.040319053452449 
1753	 4.05719962717345E-02 
1754	 4.04151187555776E-02 
1755	 4.05885792736169E-02 
1756	 4.26370504124048E-02 
1757	 4.00492995539888E-02 
1758	 3.90641429369183E-02 
1759	 3.97736871148339E-02 
1760	 3.97734311257235E-02 
1761	 4.03185002675574E-02 
1762	 4.00769720222397E-02 
1763	 0.038459108795597 
1764	 3.68775436282748E-02 
1765	 3.78162570558812E-02 
1766	 0.039868971451727 
1767	 4.11581888664711E-02 
1768	 4.23010102817979E-02 
1769	 4.15426967812795E-02 
1770	 3.92967730759591E-02 
1771	 3.66237725492732E-02 
1772	 3.40355817767843E-02 
1773	 3.56912665391126E-02 
1774	 3.83288982994009E-02 
1775	 0.040892990804112 
1776	 4.19683489133422E-02 
1777	 3.80719467372215E-02 
1778	 0.03662873957458 
1779	 3.62726195742358E-02 
1780	 3.46692825107587E-02 
1781	 3.29734179829825E-02 
1782	 3.22964541042528E-02 
1783	 3.24276925883675E-02 
1784	 3.34344255162121E-02 
1785	 3.67322485574856E-02 
1786	 3.80539860281137E-02 
1787	 3.72133743328296E-02 
1788	 3.53235118681365E-02 
1789	 0.032075689025027 
1790	 2.69139890214753E-02 
1791	 3.10673389291818E-02 
1792	 3.95141604516575E-02 
1793	 3.48507758455693E-02 
1794	 2.86610791816163E-02 
1795	 2.39687050030512E-02 
1796	 1.96325789788395E-02 
1797	 2.34151044126001E-02 
1798	 3.29549602273583E-02 
1799	 4.40694574077864E-02 
1800	 5.93557555475049E-02 
1801	 6.45493662020865E-02 
1802	 4.15066091222207E-02 
1803	 3.55093161469784E-02 
1804	 1.58581534168213E-02 
1805	 1.12524808793577E-02 
1806	 0.112613384582266 
1807	 0.130208469259652 
1808	-0.135517936310985 
1809	-0.15386034784921 
1810	-2.91017957356868E-02 
1811	-8.27610063359183E-03 
1812	 0.230836701279554 
1813	 0.260076260416232 
1814	 1.86761210797494 
1815	 1.00180121019099 
1816	-24.532837921473 
1817	 0.623678016040815 
1818	 0.42279448129096 
1819	 0.435164835853418 
1820	 0.106268306758896 
1821	-0.449432932711372 
1822	-0.610768814881205 
1823	 2.93652356579718 
1824	 2.07509759755527 
1825	 0.953878301564094 
1826	 0.37153335632742 
1827	 16.208660931774 
1828	 3.30067768487118 
1829	-4.33585904448204 
1830	-2.97637349054021 
1831	 3.44329215307576 
1832	 3.37028414256647 
1833	 2.12582504972283 
1834	 1.97016674468438 
1835	 6.05919932744848 
1836	-60.0904892445818 
1837	-3.84083762168041 
1838	-14.4084086943934 
1839	 0.687997097332883 
1840	 0.498633623704139 
1841	 0.135696317308596 
1842	-0.19747516482805 
1843	-0.208697220102717 
1844	 1.44046287309178 
1845	 8.55113593135541 
1846	 5.0695663347052 
1847	 4.63797950113465 
1848	 4.31399744622994 
1849	 1.59475008075929 
1850	 0.416482419676433 
1851	 0.016962317962723 
1852	-1.03082072861455 
1853	-8.43299976540402E-02 
1854	 0.209266806200131 
1855	 0.463694758811111 
1856	-6.76616528317318E-02 
1857	-2.10333841212266 
1858	-2.32900493879027 
1859	-1.02342579515309 
1860	-2.31018801049864 
1861	-3.68353355586096 
1862	-0.849908299611635 
1863	-2.99303822405732E-04 
1864	-5.56302495169052 
1865	-1.00063104592354 
1866	 0.202162588469455 
1867	 0.31152985135956 
1868	 1.16178884239647 
1869	-4.69884987276654 
1870	-1.01331625028034 
1871	-0.83726860831182 
1872	-1.09094916585141 
1873	-0.927426579276032 
1874	-0.224607930644396 
1875	 0.443576189368382 
1876	 0.5963593143053 
1877	 0.224965129946383 
1878	 0.182692801034885 
1879	 0.673726125016479 
1880	 0.404594878363792 
1881	-0.416168101419609 
1882	-0.365927212201713 
1883	 4.92624253635873E-02 
1884	 2.44425900280557E-03 
1885	 5.37536814577177E-02 
1886	 0.742535919628103 
1887	-0.744327740597596 
1888	 0.595224544327682 
1889	 0.442709808704556 
1890	 0.820585329945385 
1891	 1.05323495639218 
1892	 1.20295396325515 
1893	-6.37633252291672E-02 
1894	 0.612533607371587 
1895	 0.73039609355192 
1896	 0.262123452601455 
1897	-0.537859512806354 
1898	-8.69903919122971 
1899	-14.2307362998028 
1900	-6.20479725280602 
1901	-0.917088487896643 
1902	-0.72283122208051 
1903	-0.728561080461194 
1904	-8.73455848041052E-02 
1905	 9.39420436680485E-02 
1906	 0.383806440898453 
1907	 0.524866392825311 
1908	 0.868192995398619 
1909	 3.03948130523953 
1910	-7.16111289372346 
1911	 0.761086702464552 
1912	-0.57000230483809 
1913	-1.0616163069451 
1914	-2.32720590802749 
1915	-1.85579079575526 
1916	-0.464875249478954 
1917	 0.63748559039561 
1918	 0.635155411754121 
1919	 0.586912880345368 
1920	 8.39438841339656E-02 
1921	 9.16263278290359E-02 
1922	 9.29653466575879E-02 
1923	 7.72169205467622E-02 
1924	 3.17324052553275E-02 
1925	-0.166874276299394 
1926	-0.335861615394271 
1927	 0.141162696256316 
1928	 3.43643984086528E-02 
1929	-1.55923971684675 
1930	-5.76927808901959E-02 
1931	 0.124738704778346 
1932	 0.519169985007989 
1933	 1.77551535810344 
1934	 2.48822745485576 
1935	 2.79676278597097 
1936	 3.95134452031769E-02 
1937	-0.751983634966225 
1938	-1.82606993008406 
1939	-2.11517147952554 
1940	 65.560537701733 
1941	 6.96857182337937E-02 
1942	 3.88113936202143 
1943	-10.2860034416976 
1944	-3.190746337934 
1945	-1.20545429856903 
1946	-0.402077981056253 
1947	-0.368493719550201 
1948	-0.55925343175328 
1949	-0.336310674419017 
1950	-0.262676083611261 
1951	-0.436929409887244 
1952	-0.386045589463585 
1953	-0.276563426497889 
1954	-0.162191914437218 
1955	-3.34661162520591E-02 
1956	 0.128297405604441 
1957	 0.121337210880852 
1958	 7.71568070544319E-02 
1959	 3.87676691645701E-02 
1960	 1.57912624887372E-02 
1961	 5.14153695771958E-02 
1962	 6.73686734050548E-02 
1963	 5.48318457120638E-02 
1964	 4.56158762307394E-02 
1965	 3.30196632979213E-02 
1966	 3.06355575969175E-02 
1967	 2.97557483120096E-02 
1968	 2.37361459184805E-02 
1969	 2.10473896663243E-02 
1970	 2.28105667441095E-02 
1971	 1.18816377911863E-02 
1972	 1.02133375191357E-02 
1973	 1.39023761513818E-02 
1974	 2.11077847701237E-02 
1975	 0.02968872599961 
1976	 2.98676683870222E-02 
1977	 2.95709842663757E-02 
1978	 0.02703326902078 
1979	 2.68885605424739E-02 
1980	 2.43162672239631E-02 
1981	 2.84933308349195E-02 
1982	 3.07430410670545E-02 
1983	 3.28454449970121E-02 
1984	 3.31518009139791E-02 
1985	 2.81374106654625E-02 
1986	 0.029009408159972 
1987	 2.94095193355545E-02 
1988	 2.80053110441553E-02 
1989	 2.75679166376875E-02 
1990	 2.50140773348211E-02 
1991	 0.028087744151498 
1992	 2.96661317785681E-02 
1993	 2.99325086930371E-02 
1994	 3.01716989960824E-02 
1995	 3.27756221619908E-02 
1996	 2.52340484925503E-02 
1997	 2.15139566611481E-02 
1998	 2.23511173807197E-02 
1999	 1.28182339191653E-02 
2000	 1.31617503859081E-02 
2001	 1.76782302225887E-02 
2002	 1.36977178888615E-02 
2003	 2.59642784951297E-02 
2004	 3.91363966608546E-02 
2005	 3.95758070506588E-02 
2006	 3.70898747121706E-02 
2007	 3.14175717862908E-02 
2008	 2.54922359941388E-02 
2009	 2.64499773478713E-02 
2010	 3.96781416192108E-02 
2011	 3.96349062058906E-02 
2012	 3.86632229244322E-02 
2013	 3.05134330196587E-02 
2014	 2.56327525731638E-02 
2015	 2.51864156993979E-02 
2016	 3.06704271555639E-02 
2017	 0.036468136078936 
2018	 3.03407655113445E-02 
2019	 2.02763778864865E-02 
2020	 2.24933902297421E-02 
2021	 2.78674963538204E-02 
2022	 3.40113263932056E-02 
2023	 4.13853352391034E-02 
2024	 0.043918795791024 
2025	 4.23628793059038E-02 
2026	 4.19291993614114E-02 
2027	 4.16442109584836E-02 
2028	 3.84572134214379E-02 
2029	 3.78780669015665E-02 
2030	 0.037417565199031 
2031	 3.84025243718409E-02 
2032	 4.05838246683201E-02 
2033	 3.89434602896111E-02 
2034	 3.62058812264698E-02 
2035	 3.59397327201024E-02 
2036	 3.82801603037166E-02 
2037	 4.00571030981639E-02 
2038	 3.84980637410288E-02 
2039	 3.96775931252184E-02 
2040	 4.21699586365503E-02 
2041	 4.11380560406635E-02 
2042	 4.06551738739759E-02 
2043	 4.00681341522181E-02 
2044	 3.70152080133052E-02 
2045	 2.98492697474309E-02 
2046	 3.02290979241289E-02 
2047	 3.06549932041771E-02 
2048	 3.05245436100281E-02 
2049	 0.031875491410916 
2050	 3.33792750104134E-02 
2051	 3.75272562175097E-02 
2052	 3.80834946868682E-02 
2053	 3.79572725389577E-02 
2054	 3.84970528158504E-02 
2055	 3.79945478412849E-02 
2056	 3.94061284274237E-02 
2057	 4.65041999548236E-02 
2058	 4.84700879722435E-02 
2059	 4.77215072699997E-02 
2060	 0.046715217871227 
2061	 4.44952118492945E-02 
2062	 4.07504663011525E-02 
2063	 3.82467350517323E-02 
2064	 3.72470254755454E-02 
2065	 3.61796271775436E-02 
2066	 3.51943130106263E-02 
2067	 3.57393037920624E-02 
2068	 3.65706155294503E-02 
2069	 3.51277978590255E-02 
2070	 3.40887219679763E-02 
2071	 3.29351602902958E-02 
2072	 3.10724470164544E-02 
2073	 3.02520696052723E-02 
2074	 3.11316249928081E-02 
2075	 3.13398454459892E-02 
2076	 3.13698177883927E-02 
2077	 3.02491864153747E-02 
2078	 2.73618797574352E-02 
2079	 2.86547208032559E-02 
2080	 3.07802611985277E-02 
2081	 0.034131270780923 
2082	 0.038523524481946 
2083	 4.07600832605146E-02 
2084	 4.26855248115539E-02 
2085	 4.24373080620087E-02 
2086	 0.04011874007257 
2087	 4.03454488333654E-02 
2088	 3.88820752049141E-02 
2089	 0.03670248057868 
2090	 3.94517614589219E-02 
2091	 4.13486893137099E-02 
2092	 4.15071860365953E-02 
2093	 4.03908716294868E-02 
2094	 3.99316103648807E-02 
2095	 3.82132614883211E-02 
2096	 3.71994419489209E-02 
2097	 3.64967836196949E-02 
2098	 3.64230817195551E-02 
2099	 0.036572462404807 
2100	 3.69751813539722E-02 
2101	 3.77646188168102E-02 
2102	 3.85987937042393E-02 
2103	 3.75961656591523E-02 
2104	 3.69499694046279E-02 
2105	 3.76686658436076E-02 
2106	 3.64036033017366E-02 
2107	 3.76439460444667E-02 
2108	 0.040209873834085 
2109	 4.04526553520325E-02 
2110	 4.21362478497487E-02 
2111	 0.041531309146158 
2112	 3.86366410712103E-02 
2113	 3.84465621429181E-02 
2114	 3.96399177475949E-02 
2115	 0.039845645860447 
2116	 0.041937879388445 
2117	 4.17028876856378E-02 
2118	 3.82344274761947E-02 
2119	 3.68203497174618E-02 
2120	 0.034689667272934 
2121	 3.53182823550999E-02 
2122	 3.81889009613636E-02 
2123	 4.12009037220628E-02 
2124	 4.29570367333559E-02 
2125	 4.35395685410969E-02 
2126	 4.12303476840604E-02 
2127	 3.86474548797215E-02 
2128	 4.03765030198141E-02 
2129	 4.05566556571709E-02 
2130	 3.97628219325361E-02 
2131	 0.042212780585394 
2132	 4.45200305733299E-02 
2133	 4.77178733642227E-02 
2134	 4.89982691380797E-02 
2135	 5.16065366921369E-02 
2136	 5.13345529328862E-02 
2137	 4.66475807706739E-02 
2138	 4.47461825585994E-02 
2139	 0.043758252269715 
2140	 4.28516724658285E-02 
2141	 4.23775565040411E-02 
2142	 4.16122412711951E-02 
2143	 4.02907875122965E-02 
2144	 4.03330470606067E-02 
2145	 4.21043354439928E-02 
2146	 4.43699685937511E-02 
2147	 4.54843367707083E-02 
2148	 0.043820600789541 
2149	 4.02592123736332E-02 
2150	 3.66510303851615E-02 
2151	 3.63158199239133E-02 
2152	 3.94508684379374E-02 
2153	 4.06347921501515E-02 
2154	 4.11646131206755E-02 
2155	 4.44662306265487E-02 
2156	 0.043179730254945 
2157	 4.15084628263109E-02 
2158	 3.96986033152387E-02 
2159	 3.93393092776911E-02 
2160	 3.68623340289789E-02 
2161	 3.63880658745192E-02 
2162	 3.83118324547564E-02 
2163	 3.95038349629247E-02 
2164	 4.03170119524863E-02 
2165	 4.05553688571323E-02 
2166	 4.27876073496058E-02 
2167	 4.20101963967495E-02 
2168	 3.76666045370955E-02 
2169	 0.036489191015053 
2170	 3.64044884856656E-02 
2171	 3.41142332730903E-02 
2172	 3.42793558875521E-02 
2173	 3.41827141144993E-02 
2174	 3.40892164068348E-02 
2175	 3.77655392098371E-02 
2176	 4.12687002571257E-02 
2177	 0.039134518180666 
2178	 3.64902696499351E-02 
2179	 3.55690549693546E-02 
2180	 3.52240498438476E-02 
2181	 3.91574676509982E-02 
2182	 4.26005769205445E-02 
2183	 4.24180920898945E-02 
2184	 0.040867109809284 
2185	 4.12590941417731E-02 
2186	 0.042192328392938 
2187	 4.35410687319291E-02 
2188	 4.36883589689549E-02 
2189	 4.52712153829641E-02 
2190	 4.43007945959603E-02 
2191	 4.13574306327435E-02 
2192	 4.10157797103921E-02 
2193	 3.98798020482789E-02 
2194	 0.039479405394958 
2195	 0.041362160890765 
2196	 4.12408859218283E-02 
2197	 3.99962361365667E-02 
2198	 3.92740410853268E-02 
2199	 3.98259112986278E-02 
2200	 3.49505823205601E-02 
2201	 3.35850858923804E-02 
2202	 0.034994830214146 
2203	 3.17588821446042E-02 
2204	 3.34325300528577E-02 
2205	 3.58941376755086E-02 
2206	 0.0329698079802 
2207	 3.46412206486046E-02 
2208	 3.83082541315975E-02 
2209	 4.04972037820413E-02 
2210	 4.23423392094674E-02 
2211	 4.03167242185789E-02 
2212	 3.88241088721144E-02 
2213	 3.41250142601509E-02 
2214	 3.22064213739912E-02 
2215	 3.59533288503704E-02 
2216	 3.77070965058767E-02 
2217	 0.037916307767363 
2218	 3.60681413664775E-02 
2219	 3.52914527586032E-02 
2220	 3.40892765007514E-02 
2221	 3.36685110001492E-02 
2222	 3.54432748558592E-02 
2223	 3.57056672076211E-02 
2224	 3.31304730017291E-02 
2225	 3.30590769846152E-02 
2226	 3.42332755938054E-02 
2227	 3.56609315037585E-02 
2228	 4.07381309864663E-02 
2229	 4.12656016843766E-02 
2230	 3.73996082181379E-02 
2231	 3.64366246947799E-02 
2232	 3.61565995742673E-02 
2233	 3.39831059980907E-02 
2234	 3.02200005905785E-02 
2235	 3.04099799447673E-02 
2236	 3.46795318869752E-02 
2237	 3.67442585437291E-02 
2238	 3.99626179705498E-02 
2239	 3.80984302238002E-02 
2240	 0.030135762473761 
2241	 2.74657654196677E-02 
2242	 2.73186142389547E-02 
2243	 2.74028562484481E-02 
2244	 2.95834490416443E-02 
2245	 2.93645687558069E-02 
2246	 2.66541948794452E-02 
2247	 3.33031006290648E-02 
2248	 4.11420288783723E-02 
2249	 3.91229796307668E-02 
2250	 4.03747682658415E-02 
2251	 4.49948532907481E-02 
2252	 3.77276082028832E-02 
2253	 3.03851538258382E-02 
2254	 3.21377224195588E-02 
2255	 2.82228438641697E-02 
2256	 2.89149175391071E-02 
2257	 3.14506084601518E-02 
2258	 2.18643802961523E-02 
2259	 1.57717110615943E-02 
2260	 1.72177262865348E-02 
2261	 2.60664832227711E-02 
2262	 2.81468876118991E-02 
2263	 3.35244219758461E-02 
2264	 3.55189923770577E-02 
2265	 3.04273978322055E-02 
2266	 3.04613606964707E-02 
2267	 3.68213144332148E-02 
2268	 4.00858673798329E-02 
2269	 3.98060783467882E-02 
2270	 0.040264256673461 
2271	 3.99641950690657E-02 
2272	 4.24757190607424E-02 
2273	 4.77933568245394E-02 
2274	 4.87293291403136E-02 
2275	 5.26841584096734E-02 
2276	 5.14869058204032E-02 
2277	 3.97909112063318E-02 
2278	 3.59025843826124E-02 
2279	 3.73729491196235E-02 
2280	 3.15812790805979E-02 
2281	 2.13062444652255E-02 
2282	 1.89884010278158E-02 
2283	 2.00698214094991E-02 
2284	 1.90712431220838E-02 
2285	 2.50718298563198E-02 
2286	 0.034029754539058 
2287	 3.29178861744958E-02 
2288	 3.17702885650652E-02 
2289	 3.77277908784025E-02 
2290	 3.99564371831503E-02 
2291	 4.62721182812865E-02 
2292	 5.17833834844596E-02 
2293	 4.66798902238321E-02 
2294	 4.20792823040083E-02 
2295	 3.61262261188428E-02 
2296	 3.28190808371372E-02 
2297	 3.67215314888808E-02 
2298	 4.27489479961155E-02 
2299	 3.46759704055607E-02 
2300	 2.09698823439566E-02 
2301	 1.95795925236549E-02 
2302	 1.31645762208946E-02 
2303	 1.54963335771782E-02 
2304	 2.99739315684177E-02 
2305	 3.37124704569419E-02 
2306	 3.69696837722647E-02 
2307	 4.44648516516377E-02 
2308	 0.040419170653786 
2309	 0.034535843719353 
2310	 3.87543899822221E-02 
2311	 3.69427968891818E-02 
2312	 3.93307098581811E-02 
2313	 0.04138635830057 
2314	 3.42307262591756E-02 
2315	 3.36321019879475E-02 
2316	 2.64787309016731E-02 
2317	 1.79663781299577E-02 
2318	 2.25911225498416E-02 
2319	 3.01889870381536E-02 
2320	 3.19473814101994E-02 
2321	 3.40174754877837E-02 
2322	 2.53399587021347E-02 
2323	 4.51192609477183E-03 
2324	-1.12671907536805E-03 
2325	 7.47200257096954E-03 
2326	 0.020484363865187 
2327	 2.25488362021758E-02 
2328	 1.42633992717475E-02 
2329	 1.24863564164623E-02 
2330	 1.79308131678049E-02 
2331	 2.59135455994576E-02 
2332	 3.61627082031171E-02 
2333	 4.06799199338873E-02 
2334	 4.00135924796364E-02 
2335	 0.043948122389517 
2336	 3.74964854996968E-02 
2337	 3.46836695513489E-02 
2338	 4.04654632341746E-02 
2339	 2.65114815455929E-02 
2340	 1.60312324926152E-02 
2341	 8.91798922759593E-03 
2342	-1.63576407308098E-02 
2343	-0.030289966502554 
2344	-0.024776985919997 
2345	-1.39231484972266E-02 
2346	-1.96581099070495E-03 
2347	 1.73789939666467E-02 
2348	 3.57631336595395E-02 
2349	 4.90008773913942E-02 
2350	 5.59576983339932E-02 
2351	 4.00104416096458E-02 
2352	 3.44240053413469E-02 
2353	 2.86029502329813E-02 
2354	-6.02355217119196E-03 
2355	-1.25758190013678E-02 
2356	 5.89712789213052E-03 
2357	 2.10876491926777E-02 
2358	 6.96621523741103E-02 
2359	 0.102897263446771 
2360	 0.095412824191823 
2361	 9.36645234098756E-02 
2362	 6.61747042771476E-02 
2363	 2.86077643782491E-02 
2364	 1.79241418022098E-05 
2365	-2.11786201590321E-02 
2366	-3.38165926840052E-02 
2367	-1.12897549618457E-02 
2368	 3.26648206636821E-02 
2369	 7.75130343304447E-03 
2370	-2.42903661684687E-02 
2371	-2.15715707138876E-02 
2372	-5.09356799300986E-02 
2373	-8.07581347117148E-02 
2374	-5.91306023605691E-02 
2375	-7.59047468751949E-02 
2376	-0.131776820384221 
2377	-0.111368594479947 
2378	-0.143659782989834 
2379	-0.209409374779567 
2380	-0.154429805938082 
2381	-7.11662574488672E-02 
2382	 2.69779093792299E-02 
2383	 9.97543156966687E-02 
2384	 9.38190680937489E-02 
2385	 7.69149833862923E-02 
2386	 0.112363178579253 
2387	 8.70157545302615E-02 
2388	-0.030957774895663 
2389	-4.19621391771352E-02 
2390	-5.25159966464342E-02 
2391	-6.23020441429171E-02 
2392	 3.44394102892689E-02 
2393	 6.87461446108628E-02 
2394	 0.133965939480145 
2395	 0.243467306808578 
2396	 0.241411906722385 
2397	 0.2341183353897 
2398	 0.158327453045424 
2399	-1.73930787219972E-02 
2400	-5.53473907991007E-02 
2401	-0.212923734441398 
2402	-0.408231307365402 
2403	-0.267285161040533 
2404	-7.68257130195114E-02 
2405	 4.11279182833759E-02 
2406	 0.12077828407147 
2407	 0.146855370676845 
2408	-2.80467864722426E-02 
2409	-0.211259020914803 
2410	-2.66014391329413E-02 
2411	 4.83201874262954E-04 
2412	-0.248297484559389 
2413	-2.85642588153234E-02 
2414	-5.92289947839972E-02 
2415	-0.488095280729259 
2416	-0.493324150177481 
2417	-0.450526068005604 
2418	-0.650320215372361 
2419	-0.579834221300174 
2420	-0.711473657161857 
2421	-1.18831801894062 
2422	-0.94872989342181 
2423	-1.24047816992982 
2424	 0.493314179172551 
2425	 1.73825105010523 
2426	 4.80983872215579 
2427	 1.16970045892276 
2428	 0.631372819251586 
2429	 0.405477321678515 
2430	 0.360248295269054 
2431	 0.467795547594091 
2432	 0.307740256735625 
2433	 0.128229618960861 
2434	-0.403057908295966 
2435	-0.832219013226817 
2436	-0.380378723905035 
2437	-35.8753623921917 
2438	-0.155751691094448 
2439	-2.92112939985166 
2440	 40.7217843083427 
2441	 35.4254823278072 
2442	 1.41602858331277 
2443	 1.0712432275597 
2444	-10.5323308754895 
2445	-2.79462795058583 
2446	-0.429480452575269 
2447	-0.129018684648219 
2448	 8.07305265466545E-02 
2449	 0.29148050348541 
2450	 0.250053640601667 
2451	 0.231517034129389 
2452	-0.318467695220799 
2453	-0.485861221906017 
2454	-0.311159638481868 
2455	-0.35209325620605 
2456	 0.117620832578995 
2457	 0.479118691786421 
2458	 0.504055953962912 
2459	 1.81792081177017 
2460	 3.43862801931467 
2461	 1.95601970048045 
2462	 1.08392616615581 
2463	 0.774200840852061 
2464	 0.200059197230351 
2465	-5.68494256795303E-02 
2466	 0.010643292684602 
2467	 0.131153808320612 
2468	 0.584106292960292 
2469	 1.78062632560362 
2470	-0.785710156581527 
2471	 0.385094879023018 
2472	-0.522095646166182 
2473	 5.74665885756782E-03 
2474	-0.246678738554236 
2475	-0.96290141638789 
2476	-0.651065218004627 
2477	-0.710522657993779 
2478	-0.128444007596416 
2479	-0.623280300334262 
2480	-0.478175649884459 
2481	-0.335855543244541 
2482	 0.305160909745494 
2483	 0.551044202941119 
2484	 0.689221535562388 
2485	 0.666099979759198 
2486	 0.225036849101208 
2487	-0.777253074463574 
2488	-1.05816241156593 
2489	-0.570686941204418 
2490	-9.97146956836938E-02 
2491	 9.35975475210242E-02 
2492	 0.461445105498523 
2493	 1.51023266302779 
2494	 1.45955193734679 
2495	 4.67792292393916 
2496	-16.561817913923 
2497	-3.60680393510915 
2498	-9.86372160672276 
2499	-8.94413459747423 
2500	-7.43514003913394 
