Wavelength	rt0713west_far00000.asd
350	 9.30665456982765E-02 
351	 9.24760784860522E-02 
352	 9.16846449842301E-02 
353	 9.16552347906064E-02 
354	 9.23153402050142E-02 
355	 9.14560099751121E-02 
356	 9.07102008298748E-02 
357	 9.04975433672919E-02 
358	 9.06547051196661E-02 
359	 9.03454957391403E-02 
360	 0.089948466869541 
361	 8.95986304894258E-02 
362	 8.92749517150387E-02 
363	 8.94875547347381E-02 
364	 8.96891485039098E-02 
365	 8.94860805035012E-02 
366	 8.88829698517058E-02 
367	 8.89227441228682E-02 
368	 8.90440458740274E-02 
369	 8.86227823780934E-02 
370	 8.84261515333206E-02 
371	 8.81851669323271E-02 
372	 8.79087222933976E-02 
373	 8.77445953331573E-02 
374	 8.75331554987282E-02 
375	 8.74552826830621E-02 
376	 8.75089763780448E-02 
377	 8.74110018655983E-02 
378	 8.75352491490126E-02 
379	 8.75976611044318E-02 
380	 8.73600408341515E-02 
381	 8.71724716652016E-02 
382	 8.71857910448468E-02 
383	 8.72436583113542E-02 
384	 8.71151040435847E-02 
385	 8.72453868864215E-02 
386	 8.72724951891696E-02 
387	 8.71084142761511E-02 
388	 8.70302977065282E-02 
389	 8.69027341109509E-02 
390	 8.69599303164787E-02 
391	 8.72016549911436E-02 
392	 8.69023764552391E-02 
393	 8.67861547390531E-02 
394	 8.69075560849642E-02 
395	 8.70545424843126E-02 
396	 8.71615428393242E-02 
397	 8.70048708831502E-02 
398	 8.67310129966888E-02 
399	 8.67686951524418E-02 
400	 8.69609162819308E-02 
401	 8.70881382130162E-02 
402	 8.70379617195093E-02 
403	 8.69138749161505E-02 
404	 8.68300162936476E-02 
405	 8.69160706247359E-02 
406	 8.71791187374521E-02 
407	 8.69700970911662E-02 
408	 8.68831118280032E-02 
409	 8.70254687766328E-02 
410	 8.69757386742362E-02 
411	 8.69955959595622E-02 
412	 8.70408707955312E-02 
413	 8.70622108372214E-02 
414	 8.71165918172079E-02 
415	 8.72805510849654E-02 
416	 8.74009435214954E-02 
417	 8.73126154463506E-02 
418	 8.73722906293985E-02 
419	 0.087492759684004 
420	 8.76528379330139E-02 
421	 8.79295439513911E-02 
422	 8.80541431512143E-02 
423	 8.81224303413345E-02 
424	 8.82748826424481E-02 
425	 8.85681072623914E-02 
426	 8.87308399336005E-02 
427	 0.088862144826104 
428	 8.91959927530326E-02 
429	 8.95246626361141E-02 
430	 8.97712624225766E-02 
431	 0.089951556073337 
432	 9.01720331138295E-02 
433	 9.04001982968693E-02 
434	 9.06354627141388E-02 
435	 0.090879077505713 
436	 9.11137907136923E-02 
437	 9.14270127234937E-02 
438	 9.17477787079295E-02 
439	 9.19444896589044E-02 
440	 9.21902756165761E-02 
441	 0.092412333005419 
442	 0.092615862552839 
443	 9.29627629237364E-02 
444	 9.32009995612334E-02 
445	 9.34164379146409E-02 
446	 9.37216759061219E-02 
447	 9.39464974874257E-02 
448	 9.42151957562484E-02 
449	 9.45164038922425E-02 
450	 9.47437139942727E-02 
451	 9.49706490012606E-02 
452	 9.51148693926281E-02 
453	 9.51927205900601E-02 
454	 9.54759721362579E-02 
455	 9.56139329542446E-02 
456	 9.56933984407688E-02 
457	 9.58945469833768E-02 
458	 9.59932895104978E-02 
459	 9.60271102315732E-02 
460	 9.60813634496161E-02 
461	 9.62678725526154E-02 
462	 9.65187413883438E-02 
463	 9.66682539280098E-02 
464	 9.66618692938315E-02 
465	 9.67865945411764E-02 
466	 9.69430337950749E-02 
467	 9.70363197542184E-02 
468	 9.70169224505302E-02 
469	 9.71923648909152E-02 
470	 9.72821947512603E-02 
471	 0.097249603416391 
472	 9.74477021488636E-02 
473	 9.76657666458954E-02 
474	 9.78315993708116E-02 
475	 9.79397810686113E-02 
476	 9.80804429130373E-02 
477	 0.098292038756918 
478	 9.85723499318868E-02 
479	 9.88774337173544E-02 
480	 9.90423044726368E-02 
481	 9.92392152971427E-02 
482	 9.95530291263713E-02 
483	 9.97942236379632E-02 
484	 0.100105314036705 
485	 0.100404396770471 
486	 0.100590138855555 
487	 0.100897918309603 
488	 0.101230502088169 
489	 0.101540917038309 
490	 0.101853348719714 
491	 0.102252518447581 
492	 0.102617429705408 
493	 0.102888470994064 
494	 0.103298520872941 
495	 0.103623664840351 
496	 0.103903590491578 
497	 0.104297506127771 
498	 0.104760856503816 
499	 0.105091303834818 
500	 0.105279625060162 
501	 0.105631631031706 
502	 0.105943932956784 
503	 0.106267135049467 
504	 0.106683176659785 
505	 0.107101597232203 
506	 0.107581567448892 
507	 0.108151139020568 
508	 0.108792833288472 
509	 0.109231700673945 
510	 0.109708819533457 
511	 0.110353379398594 
512	 0.110830943872244 
513	 0.111386039791686 
514	 0.11200628598754 
515	 0.112577907920973 
516	 0.113122500467008 
517	 0.113754348316858 
518	 0.114434119784568 
519	 0.114934659628239 
520	 0.115487446869018 
521	 0.116099523767177 
522	 0.116717328916693 
523	 0.117253664848855 
524	 0.117821841100609 
525	 0.118470692344902 
526	 0.119184709436804 
527	 0.119768068643829 
528	 0.120345602832504 
529	 0.120977723575992 
530	 0.121491195342477 
531	 0.122115129434138 
532	 0.122831795577951 
533	 0.123517551361222 
534	 0.124047270355117 
535	 0.124614338775792 
536	 0.125269809947791 
537	 0.12587825634574 
538	 0.126423470525375 
539	 0.126940065101576 
540	 0.127476225029642 
541	 0.128059915811818 
542	 0.128708680699437 
543	 0.129364052215486 
544	 0.129939946050374 
545	 0.130558591794195 
546	 0.131186381909743 
547	 0.131810631657357 
548	 0.13250995960713 
549	 0.133126207712932 
550	 0.133714195597202 
551	 0.134368158887392 
552	 0.134916877092078 
553	 0.135515693896937 
554	 0.136157474845955 
555	 0.136634557444024 
556	 0.137168570969331 
557	 0.137754397747458 
558	 0.1383203047589 
559	 0.138791776891715 
560	 0.139233909155003 
561	 0.139638412169416 
562	 0.139970063774069 
563	 0.140410428272604 
564	 0.140775564801651 
565	 0.140973284470141 
566	 0.141179606234259 
567	 0.141338964264096 
568	 0.141471424674855 
569	 0.141626973873357 
570	 0.141883946244202 
571	 0.142108635617882 
572	 0.142272024090225 
573	 0.142469675578504 
574	 0.142659360026016 
575	 0.142800979303394 
576	 0.142892388248046 
577	 0.143055756071226 
578	 0.143220760331973 
579	 0.143303033585663 
580	 0.143233985205587 
581	 0.143177865651227 
582	 0.143065015874686 
583	 0.142817960829716 
584	 0.142408871508879 
585	 0.141705040328969 
586	 0.14074971897977 
587	 0.139666225691288 
588	 0.138594340065439 
589	 0.13782957988243 
590	 0.137481566144061 
591	 0.137379365501088 
592	 0.137053030182625 
593	 0.136576233223565 
594	 0.136099332018817 
595	 0.135567745342757 
596	 0.134996043254791 
597	 0.134386918953543 
598	 0.133745077997804 
599	 0.133109418399986 
600	 0.132547431299049 
601	 0.132090432417746 
602	 0.131701613373137 
603	 0.131430894088956 
604	 0.131234714487643 
605	 0.131060245133562 
606	 0.130964919913962 
607	 0.13090760828049 
608	 0.130861458798962 
609	 0.13081950273689 
610	 0.130780176747743 
611	 0.130705569521469 
612	 0.130600722676797 
613	 0.130624497360594 
614	 0.130598833243997 
615	 0.130478221881505 
616	 0.130311033552902 
617	 0.130208220944002 
618	 0.130164584099941 
619	 0.130129027644879 
620	 0.130001302483716 
621	 0.129921105027437 
622	 0.129837055711826 
623	 0.129659876037365 
624	 0.129451679356254 
625	 0.129112235203036 
626	 0.128722159821476 
627	 0.128529556288788 
628	 0.128479023212792 
629	 0.128532131312186 
630	 0.128601155640671 
631	 0.128468315321801 
632	 0.128383199757515 
633	 0.128369449699595 
634	 0.128332553551004 
635	 0.128184716231206 
636	 0.128093233060584 
637	 0.128065081734071 
638	 0.12784160643191 
639	 0.127700724696259 
640	 0.127554301390587 
641	 0.127271472583022 
642	 0.12701673086164 
643	 0.126584076280608 
644	 0.125890391942735 
645	 0.124984043729416 
646	 0.124147956564494 
647	 0.123734361243059 
648	 0.123810683352882 
649	 0.123843923116819 
650	 0.123608354790148 
651	 0.123308856463835 
652	 0.123229385586203 
653	 0.122741081229526 
654	 0.122221609532581 
655	 0.121808044787894 
656	 0.12127132522466 
657	 0.120924798639464 
658	 0.120666444152385 
659	 0.120377816931488 
660	 0.120182532231714 
661	 0.119985615758532 
662	 0.119751850437664 
663	 0.119497818237734 
664	 0.119308917032948 
665	 0.119146035053802 
666	 0.118983485330309 
667	 0.118858025667436 
668	 0.118697338429975 
669	 0.118558507265375 
670	 0.118511603212514 
671	 0.118466154035735 
672	 0.11837617022787 
673	 0.118272127602603 
674	 0.118246580222385 
675	 0.11819961123485 
676	 0.118136991098493 
677	 0.118085302556528 
678	 0.11806870330569 
679	 0.118100808560593 
680	 0.118132717768467 
681	 0.11810667787151 
682	 0.118132708458372 
683	 0.118173636754687 
684	 0.11804354686989 
685	 0.117330483929358 
686	 0.116695676174772 
687	 0.116456437081084 
688	 0.116587505462263 
689	 0.116638748903636 
690	 0.116285574000655 
691	 0.11548999544632 
692	 0.114452578366642 
693	 0.11387961726562 
694	 0.113905604430436 
695	 0.114233890846467 
696	 0.114237599766982 
697	 0.11347501776025 
698	 0.112154654584585 
699	 0.110858010518606 
700	 0.110199986115915 
701	 0.109778291834572 
702	 0.109311777739854 
703	 0.108672108350903 
704	 0.107719251260546 
705	 0.10673674739736 
706	 0.105889209930296 
707	 0.104878020749218 
708	 0.10371752254697 
709	 0.102435887487693 
710	 0.101061964741998 
711	 9.95524230188204E-02 
712	 9.77762508629598E-02 
713	 9.56262136328352E-02 
714	 9.29466592708881E-02 
715	 8.94478261125367E-02 
716	 8.54415119679227E-02 
717	 0.08192407010054 
718	 7.93204879156574E-02 
719	 7.83902934984784E-02 
720	 7.82403600388036E-02 
721	 7.75160053428217E-02 
722	 7.53088994328589E-02 
723	 7.24262400722801E-02 
724	 7.00062502793495E-02 
725	 6.84623191248001E-02 
726	 6.69365801155218E-02 
727	 6.51738997352337E-02 
728	 6.32022355407234E-02 
729	 0.061183461667756 
730	 5.99696829294501E-02 
731	 5.95776669258669E-02 
732	 5.94186806257129E-02 
733	 0.058773139290539 
734	 5.77627882720415E-02 
735	 0.05678571327268 
736	 5.65368811274414E-02 
737	 0.056398851514607 
738	 5.63773017100737E-02 
739	 5.65585113479633E-02 
740	 5.68403956128812E-02 
741	 0.056985527590354 
742	 0.057064891177811 
743	 5.72709775847184E-02 
744	 5.72959912996204E-02 
745	 5.72190840851201E-02 
746	 5.71742381978738E-02 
747	 5.73110522153797E-02 
748	 5.72711140611225E-02 
749	 5.71731095059798E-02 
750	 0.057182925247118 
751	 5.71964081047855E-02 
752	 5.71302319192256E-02 
753	 5.70373012095855E-02 
754	 5.70259847797985E-02 
755	 5.69890812242886E-02 
756	 5.68467698264487E-02 
757	 5.64384478180641E-02 
758	 5.52066710559226E-02 
759	 5.29075613519402E-02 
760	 0.050720538152009 
761	 5.09262054890326E-02 
762	 5.09386044542873E-02 
763	 5.16450085203697E-02 
764	 5.29981547343709E-02 
765	 5.45337845276418E-02 
766	 5.54482951726673E-02 
767	 0.056136605896739 
768	 5.67021425714702E-02 
769	 0.056926777721228 
770	 5.71434444246271E-02 
771	 5.73345535983729E-02 
772	 5.74536206420926E-02 
773	 5.75791769475039E-02 
774	 5.76831881663723E-02 
775	 5.77812776502769E-02 
776	 5.79093049310014E-02 
777	 5.81066943319111E-02 
778	 0.058265824866544 
779	 5.83607714201233E-02 
780	 5.84606096758349E-02 
781	 5.85731525569263E-02 
782	 5.87245568079334E-02 
783	 5.88624419424836E-02 
784	 5.87513785697153E-02 
785	 5.86220849159482E-02 
786	 5.84489659015205E-02 
787	 5.81776440011242E-02 
788	 5.80443729991833E-02 
789	 5.82563325450403E-02 
790	 5.87694257145114E-02 
791	 5.93303471695156E-02 
792	 5.98664783779028E-02 
793	 0.060107577693833 
794	 6.00399241547966E-02 
795	 6.00682177667841E-02 
796	 6.02076882843032E-02 
797	 6.04113372458714E-02 
798	 6.05950539689995E-02 
799	 6.06416584560344E-02 
800	 6.07048478236274E-02 
801	 6.08134522320318E-02 
802	 0.060953216150538 
803	 6.13502758171076E-02 
804	 6.19103789085402E-02 
805	 6.23611985736622E-02 
806	 6.23055147696392E-02 
807	 6.18448306106648E-02 
808	 6.12104125937825E-02 
809	 0.060555328785055 
810	 5.97313217302039E-02 
811	 5.86852558003399E-02 
812	 5.74529564017992E-02 
813	 5.61775224922849E-02 
814	 5.50939798700142E-02 
815	 5.45487919457358E-02 
816	 5.44524979856153E-02 
817	 5.43796830874655E-02 
818	 5.47141044570765E-02 
819	 0.054920573129715 
820	 5.46016118892413E-02 
821	 5.35275239612888E-02 
822	 5.28934609317223E-02 
823	 5.25580569748255E-02 
824	 5.20992672055769E-02 
825	 5.14836921455389E-02 
826	 5.03230165626671E-02 
827	 4.91343619806241E-02 
828	 4.86373905891584E-02 
829	 4.77982780203329E-02 
830	 4.71755658099686E-02 
831	 4.68826501721306E-02 
832	 4.66844661740336E-02 
833	 4.67594184259085E-02 
834	 4.68528896150313E-02 
835	 4.68727652772125E-02 
836	 4.69921816293199E-02 
837	 4.70563907057744E-02 
838	 4.71480300571636E-02 
839	 4.73063679054116E-02 
840	 4.73059077069795E-02 
841	 4.75549502896475E-02 
842	 4.78367680654665E-02 
843	 0.047819383145976 
844	 4.78014631146538E-02 
845	 4.78546061116612E-02 
846	 4.78866597624006E-02 
847	 4.77329625662021E-02 
848	 4.76413417891931E-02 
849	 4.74726507288003E-02 
850	 4.72407864325274E-02 
851	 4.71931251630132E-02 
852	 0.047286024976324 
853	 0.047280029905917 
854	 4.70847882564916E-02 
855	 4.69911923205279E-02 
856	 4.71958683145327E-02 
857	 4.73306598770718E-02 
858	 4.71167760782163E-02 
859	 4.71600851132966E-02 
860	 4.72918473659754E-02 
861	 4.72788446430588E-02 
862	 4.69752493559245E-02 
863	 4.69241456230262E-02 
864	 0.046959719564347 
865	 4.69614900671695E-02 
866	 0.046892592058512 
867	 4.66290798109583E-02 
868	 4.65720608867604E-02 
869	 0.046713350505807 
870	 4.64641402602293E-02 
871	 4.63616414073327E-02 
872	 0.046296718841304 
873	 4.61324232291463E-02 
874	 4.59849896332389E-02 
875	 4.57601745804725E-02 
876	 4.55606970539421E-02 
877	 4.54688522659681E-02 
878	 4.52713846988896E-02 
879	 4.51185655694629E-02 
880	 4.50686969577633E-02 
881	 4.50850618589151E-02 
882	 4.49191584436329E-02 
883	 4.48344799584805E-02 
884	 4.47590059512208E-02 
885	 4.44201631677351E-02 
886	 4.42656967881457E-02 
887	 4.41441643088558E-02 
888	 4.38948165606501E-02 
889	 0.043439741635676 
890	 4.29278071267507E-02 
891	 4.21494736402857E-02 
892	 4.10658475047791E-02 
893	 4.00897806762096E-02 
894	 3.91082887559044E-02 
895	 3.83374226371346E-02 
896	 3.77945190858754E-02 
897	 3.65838291264487E-02 
898	 3.61757964156568E-02 
899	 3.64100838207689E-02 
900	 3.65273251024487E-02 
901	 3.62090361273736E-02 
902	 3.64678274971271E-02 
903	 0.036763299524853 
904	 0.036334017009571 
905	 3.64795876847238E-02 
906	 3.63440258263778E-02 
907	 0.03566970242387 
908	 3.47697781271753E-02 
909	 3.39236653698619E-02 
910	 3.40893112761307E-02 
911	 3.45986508572101E-02 
912	 3.36607398640281E-02 
913	 3.33656849991404E-02 
914	 3.31137753495429E-02 
915	 3.29121111809505E-02 
916	 3.36630777770564E-02 
917	 3.45539223875709E-02 
918	 3.49769039357724E-02 
919	 3.48487694165149E-02 
920	 3.46463298357501E-02 
921	 3.40056150781083E-02 
922	 3.39403149580538E-02 
923	 3.45767358355209E-02 
924	 3.36623867571449E-02 
925	 3.18878229037194E-02 
926	 3.05652559598199E-02 
927	 3.05053410486397E-02 
928	 2.93609407792627E-02 
929	 2.82408939002941E-02 
930	 2.63684226410479E-02 
931	 2.28333863868286E-02 
932	 2.36671589299339E-02 
933	 2.45317180706364E-02 
934	 2.38311762446493E-02 
935	 2.26533732054015E-02 
936	 2.15901404178286E-02 
937	 2.01781346893937E-02 
938	 1.94362876977523E-02 
939	 2.02367238683546E-02 
940	 2.19196510960664E-02 
941	 0.021064727289887 
942	 1.87605160124119E-02 
943	 1.83015615984799E-02 
944	 2.04587339100888E-02 
945	 2.07974047741627E-02 
946	 1.90894293350062E-02 
947	 1.84356950041994E-02 
948	 2.26046533960673E-02 
949	 2.28944863813847E-02 
950	 0.019828829322191 
951	 1.96983186281379E-02 
952	 0.023672931688676 
953	 2.39571124957713E-02 
954	 2.21321548336108E-02 
955	 2.48105428125465E-02 
956	 2.47305418526418E-02 
957	 2.43743903457596E-02 
958	 2.52486246677991E-02 
959	 2.69135125892554E-02 
960	 2.46092501623414E-02 
961	 2.57872627401799E-02 
962	 2.90110715812557E-02 
963	 2.78127892400348E-02 
964	 2.92115903536427E-02 
965	 3.00394417804368E-02 
966	 3.01185214249081E-02 
967	 3.13465121391967E-02 
968	 2.99962696733125E-02 
969	 0.03070780188933 
970	 3.25315350503897E-02 
971	 3.05153982797362E-02 
972	 0.033017429410903 
973	 3.32989914960872E-02 
974	 0.030539244492446 
975	 3.07728785063012E-02 
976	 0.032464279495561 
977	 3.30649080798619E-02 
978	 3.26509259988335E-02 
979	 3.32446734878703E-02 
980	 3.20533360183475E-02 
981	 3.28444464301015E-02 
982	 3.50639831313288E-02 
983	 3.49410052922369E-02 
984	 3.52180592721346E-02 
985	 3.62213810119687E-02 
986	 3.68458037188492E-02 
987	 3.57292895789126E-02 
988	 3.63701732780528E-02 
989	 3.71152778954757E-02 
990	 3.75680896973468E-02 
991	 3.84514935726412E-02 
992	 3.89232260267162E-02 
993	 3.83809386676245E-02 
994	 3.82130257378927E-02 
995	 4.01264737593821E-02 
996	 3.96002342215777E-02 
997	 3.87116610296907E-02 
998	 3.81499804587901E-02 
999	 0.037672520779255 
1000	 3.88721400686288E-02 
1001	 3.77839317171956E-02 
1002	 3.82210496210781E-02 
1003	 3.83564973148034E-02 
1004	 3.82822403288212E-02 
1005	 3.82055921416144E-02 
1006	 3.79763177523351E-02 
1007	 3.76644435280921E-02 
1008	 3.74855086613967E-02 
1009	 3.74553371111456E-02 
1010	 3.76394788919549E-02 
1011	 3.77671984676535E-02 
1012	 3.77953324081884E-02 
1013	 3.78649392358161E-02 
1014	 3.77903064713877E-02 
1015	 3.73388863608024E-02 
1016	 3.73157287284991E-02 
1017	 3.75507225822828E-02 
1018	 3.76011464526105E-02 
1019	 3.77749747063819E-02 
1020	 3.78689547624957E-02 
1021	 3.78169629564852E-02 
1022	 3.77238126971109E-02 
1023	 3.80238223814218E-02 
1024	 3.80233129134627E-02 
1025	 3.79989665648756E-02 
1026	 3.79477810406288E-02 
1027	 3.78269073614119E-02 
1028	 3.74726277818736E-02 
1029	 3.74126524906068E-02 
1030	 3.74452031242552E-02 
1031	 3.75330981694106E-02 
1032	 3.78025378358286E-02 
1033	 3.79182018708171E-02 
1034	 3.79783299715118E-02 
1035	 0.038079830477261 
1036	 0.038202105761075 
1037	 3.82552953210924E-02 
1038	 3.82542440391826E-02 
1039	 3.83808966098976E-02 
1040	 3.82310478674223E-02 
1041	 3.81846333419731E-02 
1042	 3.83133507361376E-02 
1043	 3.86130015968886E-02 
1044	 3.86965333451354E-02 
1045	 3.89259840425219E-02 
1046	 3.88641759469003E-02 
1047	 3.85093785256183E-02 
1048	 3.83116341814847E-02 
1049	 3.79637913909726E-02 
1050	 3.78555802241912E-02 
1051	 3.78692612739438E-02 
1052	 3.78757691909621E-02 
1053	 3.81217725681069E-02 
1054	 3.81818141956681E-02 
1055	 3.80436297623032E-02 
1056	 3.80660525625788E-02 
1057	 3.81234470933154E-02 
1058	 3.82041470829859E-02 
1059	 3.82009298621873E-02 
1060	 3.83061501381974E-02 
1061	 3.82445638064597E-02 
1062	 3.79961995060687E-02 
1063	 3.78201557736107E-02 
1064	 3.75613771699478E-02 
1065	 0.037464913350997 
1066	 3.73877211067715E-02 
1067	 3.73846238958041E-02 
1068	 3.76082335317878E-02 
1069	 3.76852665283151E-02 
1070	 3.78453023657137E-02 
1071	 0.037801193122407 
1072	 3.76132897786572E-02 
1073	 3.72909199705247E-02 
1074	 3.71424453775194E-02 
1075	 3.68623220685711E-02 
1076	 0.036813127398011 
1077	 3.71103724944616E-02 
1078	 3.70251731992779E-02 
1079	 3.67832630899771E-02 
1080	 3.66189819643012E-02 
1081	 3.62933101754599E-02 
1082	 3.60792432158985E-02 
1083	 3.59340434207492E-02 
1084	 3.58843447951815E-02 
1085	 3.60057954111894E-02 
1086	 3.58889817456274E-02 
1087	 3.57760566562191E-02 
1088	 3.55778618075324E-02 
1089	 3.50200770905032E-02 
1090	 3.47049911268035E-02 
1091	 3.43931339240576E-02 
1092	 3.42249729061526E-02 
1093	 3.38961595816792E-02 
1094	 0.033407573488385 
1095	 0.033093749086463 
1096	 3.28531707407391E-02 
1097	 0.032498328219158 
1098	 3.22111075334319E-02 
1099	 3.19803116142909E-02 
1100	 3.17424565979959E-02 
1101	 3.12469448330412E-02 
1102	 3.06731699943789E-02 
1103	 3.00699637807997E-02 
1104	 2.87778980527055E-02 
1105	 2.83716847609085E-02 
1106	 2.80169151801533E-02 
1107	 2.77111992849805E-02 
1108	 2.82597292169562E-02 
1109	 0.027678983524691 
1110	 2.71554539608459E-02 
1111	 2.66017077266169E-02 
1112	 2.59259027730668E-02 
1113	 2.40932714018582E-02 
1114	 2.35111161732463E-02 
1115	 2.41876898890427E-02 
1116	 2.34453712714893E-02 
1117	 2.26026070468798E-02 
1118	 2.21308970214538E-02 
1119	 2.02524421858866E-02 
1120	 1.83396292673574E-02 
1121	 1.79991411918114E-02 
1122	 1.65605073044378E-02 
1123	 1.26497547036059E-02 
1124	 0.016354666286825 
1125	 0.018575036335705 
1126	 1.43437648911658E-02 
1127	 0.012843034817984 
1128	 1.04513618003534E-02 
1129	 1.06727108202183E-02 
1130	 1.39797918899829E-02 
1131	 1.59535373308796E-02 
1132	 1.87056398134291E-02 
1133	 1.87425137972786E-02 
1134	 1.74821576747686E-02 
1135	 1.75195671146085E-02 
1136	 1.67541393049235E-02 
1137	 1.62655252411595E-02 
1138	 1.61594938446293E-02 
1139	 1.66846005468707E-02 
1140	 1.70369717717507E-02 
1141	 1.76889646601008E-02 
1142	 1.77268700869617E-02 
1143	 1.73399759319482E-02 
1144	 1.74310454441278E-02 
1145	 1.63876439499881E-02 
1146	 1.69569059838756E-02 
1147	 1.88342219186504E-02 
1148	 1.84745040144439E-02 
1149	 1.84394290315285E-02 
1150	 1.82079058942892E-02 
1151	 1.62349890592499E-02 
1152	 1.72147653809434E-02 
1153	 2.00995782695473E-02 
1154	 2.06905015911562E-02 
1155	 2.12163409355609E-02 
1156	 2.17068833316648E-02 
1157	 2.14110009365232E-02 
1158	 2.21040481762779E-02 
1159	 2.38176070518305E-02 
1160	 2.47051550636012E-02 
1161	 2.53337646114062E-02 
1162	 2.55675016090431E-02 
1163	 2.54580110579012E-02 
1164	 2.61577656726491E-02 
1165	 2.71225846416677E-02 
1166	 2.76431745113762E-02 
1167	 2.80713250780708E-02 
1168	 2.86264851958033E-02 
1169	 2.90842747077591E-02 
1170	 2.96071557794857E-02 
1171	 0.029911352469613 
1172	 3.00955357271872E-02 
1173	 3.02753624261658E-02 
1174	 3.02709038318684E-02 
1175	 3.05154508751223E-02 
1176	 3.07031383128761E-02 
1177	 3.09711332778984E-02 
1178	 3.11404002210345E-02 
1179	 3.08547248703904E-02 
1180	 0.030482960460773 
1181	 3.05537292057299E-02 
1182	 3.05520253826923E-02 
1183	 3.03634768899832E-02 
1184	 3.06699235495638E-02 
1185	 3.09633620191693E-02 
1186	 0.030795778059569 
1187	 3.06434433504875E-02 
1188	 3.09131951460645E-02 
1189	 3.12059370277882E-02 
1190	 3.13119945629928E-02 
1191	 3.15553919476065E-02 
1192	 3.17624134881988E-02 
1193	 3.17421754679906E-02 
1194	 3.16193271921955E-02 
1195	 3.18147415567974E-02 
1196	 3.21063019602926E-02 
1197	 3.21039159474852E-02 
1198	 3.18468687942859E-02 
1199	 3.18889252692784E-02 
1200	 3.20108471817889E-02 
1201	 3.19280713753909E-02 
1202	 3.20559997036572E-02 
1203	 3.24162989721448E-02 
1204	 3.25160730633094E-02 
1205	 3.24950462719901E-02 
1206	 3.26090137378521E-02 
1207	 3.25202961482315E-02 
1208	 3.24166284124647E-02 
1209	 3.26031498691376E-02 
1210	 3.27836817831897E-02 
1211	 3.27984163786868E-02 
1212	 3.29450889611594E-02 
1213	 3.32027159127788E-02 
1214	 3.33211143082336E-02 
1215	 3.33994895658315E-02 
1216	 3.34674851076877E-02 
1217	 3.36339610284555E-02 
1218	 3.38223940600768E-02 
1219	 3.40529147964387E-02 
1220	 3.44040573542236E-02 
1221	 3.44014781486368E-02 
1222	 3.41767538940899E-02 
1223	 3.44519349575073E-02 
1224	 3.48125949191721E-02 
1225	 3.49584894631124E-02 
1226	 3.51996308465588E-02 
1227	 3.53800541868644E-02 
1228	 3.53721353114224E-02 
1229	 3.53749310891581E-02 
1230	 3.55651673306128E-02 
1231	 3.56843481520663E-02 
1232	 3.55762420295223E-02 
1233	 3.56772883954627E-02 
1234	 3.60292158711779E-02 
1235	 3.62309314125914E-02 
1236	 0.036345347850024 
1237	 3.64853715351056E-02 
1238	 3.66470095507117E-02 
1239	 3.67748066015514E-02 
1240	 3.67691107373875E-02 
1241	 3.67219325268166E-02 
1242	 3.66689462112501E-02 
1243	 3.66081662322288E-02 
1244	 0.036698746405315 
1245	 3.68415267902168E-02 
1246	 3.67445395973825E-02 
1247	 3.66134753127299E-02 
1248	 0.03659475535997 
1249	 3.65329915605385E-02 
1250	 3.64907473482448E-02 
1251	 3.65007294738591E-02 
1252	 3.63321992642383E-02 
1253	 3.61244472308796E-02 
1254	 3.63111777080783E-02 
1255	 3.64463867652564E-02 
1256	 3.63168001686987E-02 
1257	 3.59024480519303E-02 
1258	 0.035771753632979 
1259	 3.55406699797933E-02 
1260	 3.53369169772575E-02 
1261	 3.54297650784531E-02 
1262	 3.53017430650862E-02 
1263	 0.034939616319667 
1264	 3.46888247991326E-02 
1265	 0.034706748819483 
1266	 3.45351268675894E-02 
1267	 3.44627946906243E-02 
1268	 3.45632822750665E-02 
1269	 3.44907684258783E-02 
1270	 3.44880486718712E-02 
1271	 3.46482441727441E-02 
1272	 3.47908260416529E-02 
1273	 3.49508655250675E-02 
1274	 3.51692394314331E-02 
1275	 3.53755077427275E-02 
1276	 3.53977367222627E-02 
1277	 3.53515586470758E-02 
1278	 3.54446789410555E-02 
1279	 3.53822116563489E-02 
1280	 3.52606189171072E-02 
1281	 3.52504470646757E-02 
1282	 0.035348953271038 
1283	 3.52627845853185E-02 
1284	 3.50996842133275E-02 
1285	 3.51048330568463E-02 
1286	 3.51741821121671E-02 
1287	 3.50527124405645E-02 
1288	 3.49289863227051E-02 
1289	 0.034780415607176 
1290	 3.43848465107473E-02 
1291	 3.42393521648745E-02 
1292	 0.034195243515518 
1293	 0.033828307496241 
1294	 3.35109305806526E-02 
1295	 3.34373660723763E-02 
1296	 3.33244202441402E-02 
1297	 3.31498917306417E-02 
1298	 3.29195826842786E-02 
1299	 0.032611578051833 
1300	 3.23329829444562E-02 
1301	 3.21718291142957E-02 
1302	 3.21215688958237E-02 
1303	 3.19106798764137E-02 
1304	 3.14960156084013E-02 
1305	 3.14097800830215E-02 
1306	 0.031100399172824 
1307	 3.06862009899867E-02 
1308	 3.02542812079228E-02 
1309	 0.029616369710769 
1310	 2.92147999596889E-02 
1311	 2.91737211232528E-02 
1312	 2.87573901047403E-02 
1313	 2.80417364869506E-02 
1314	 2.76742167233061E-02 
1315	 2.73069795333913E-02 
1316	 2.70091810320122E-02 
1317	 2.71645389796792E-02 
1318	 2.69195027727529E-02 
1319	 2.61968619773846E-02 
1320	 2.59122115654772E-02 
1321	 2.57903426931043E-02 
1322	 2.57182815871426E-02 
1323	 2.56923138591292E-02 
1324	 2.50766428870661E-02 
1325	 2.43095328369946E-02 
1326	 2.38174056367301E-02 
1327	 2.29141589968479E-02 
1328	 2.24948095954303E-02 
1329	 2.29211414043109E-02 
1330	 2.28426202219764E-02 
1331	 2.20186237013936E-02 
1332	 2.13113978913646E-02 
1333	 0.020551621301838 
1334	 1.93165170814453E-02 
1335	 1.85226477788165E-02 
1336	 1.90172254137067E-02 
1337	 1.90282604322486E-02 
1338	 1.86672457717725E-02 
1339	 1.83076762582024E-02 
1340	 1.82263391727334E-02 
1341	 1.84090939503035E-02 
1342	 1.83380195202581E-02 
1343	 1.77317244158227E-02 
1344	 1.76071216139318E-02 
1345	 1.75249510249982E-02 
1346	 1.54307080069915E-02 
1347	 1.49475552973526E-02 
1348	 1.79711516750069E-02 
1349	 1.98641500792944E-02 
1350	 2.39585213496643E-02 
1351	 2.55019665542585E-02 
1352	 1.45036291950705E-02 
1353	 1.26426044802001E-02 
1354	 1.99778675515536E-02 
1355	 0.033082177551949 
1356	 4.13541924828953E-02 
1357	 8.56551875625264E-02 
1358	 0.086159114314329 
1359	 5.72422782442115E-03 
1360	-3.25804086181662E-03 
1361	 9.29516095148183E-03 
1362	 2.46775680653067E-02 
1363	 9.76485509298509E-02 
1364	 0.16956167367895 
1365	 0.172599054161037 
1366	 4.86479448570629E-04 
1367	-7.87331501245677E-02 
1368	-0.059167154143498 
1369	 0.156379760424966 
1370	 0.13425440168908 
1371	 0.134481293785878 
1372	 8.88855439099266E-02 
1373	-0.263831050134406 
1374	-0.32822320460237 
1375	-0.297170155937645 
1376	-0.188853778338162 
1377	 0.339979583155279 
1378	 0.400496501677568 
1379	 0.233610490491779 
1380	 0.231315408310846 
1381	-0.229169801419858 
1382	-0.358620519257478 
1383	 3.28306143165119E-02 
1384	 0.118608211979339 
1385	 5.35529327595083E-02 
1386	 0.10250409889991 
1387	 0.242690628362424 
1388	 0.31070117181789 
1389	 0.325856418440278 
1390	 0.343556901953062 
1391	 0.337352127346817 
1392	 0.364322023062285 
1393	 0.179527648374136 
1394	 0.106885451969938 
1395	 0.164601071262983 
1396	 0.21295980652927 
1397	 0.14663004396604 
1398	-3.27541579871055E-02 
1399	 3.28856626780204E-02 
1400	 0.165453881771491 
1401	 3.97062709840578E-02 
1402	 5.26969280875309E-02 
1403	 0.26134255036522 
1404	 0.194077067162805 
1405	 6.86802208977291E-02 
1406	 0.349476508016402 
1407	 0.364881674545473 
1408	-0.313097428955485 
1409	-0.345263768461412 
1410	 1.34881744325256E-02 
1411	 0.145902325565194 
1412	 0.237497816960791 
1413	 0.232968873776214 
1414	 0.196911841262907 
1415	 0.15914032255417 
1416	 0.059441959800045 
1417	 8.82737137571785E-03 
1418	 4.55406792372597E-03 
1419	 1.81375128796213E-02 
1420	 3.29497491411824E-02 
1421	 2.32497422517976E-02 
1422	 2.45687780431707E-02 
1423	 0.024283311398041 
1424	 1.24647351165197E-02 
1425	-1.08736079723977E-03 
1426	-1.77037445139541E-02 
1427	-1.10057819761706E-02 
1428	 4.7347048006208E-03 
1429	 5.61264570013506E-03 
1430	 1.28229605491468E-02 
1431	 1.77668837642464E-02 
1432	 1.12488285376332E-02 
1433	 5.87735003119807E-03 
1434	 4.80753227946004E-03 
1435	 7.48793544956495E-03 
1436	 8.37758240043884E-03 
1437	 3.55475069174922E-03 
1438	 3.74555609730297E-03 
1439	 8.19275378032056E-03 
1440	 9.30586408137611E-03 
1441	 2.55623376663838E-03 
1442	 1.2523229651049E-03 
1443	 4.81402217180619E-03 
1444	 2.36184410126078E-03 
1445	 2.53165238152299E-03 
1446	 7.69775189096609E-03 
1447	 1.27676079623129E-02 
1448	 1.77524211553707E-02 
1449	 1.73447002303885E-02 
1450	 1.12242406128377E-02 
1451	 9.20186269303046E-03 
1452	 9.43427193820106E-03 
1453	 0.008547827106471 
1454	 8.55783725816016E-03 
1455	 0.010189093873124 
1456	 0.011262087572761 
1457	 1.21801831124695E-02 
1458	 1.17820125415345E-02 
1459	 1.10294511941806E-02 
1460	 1.18592800336673E-02 
1461	 1.24807307935936E-02 
1462	 1.22289399425111E-02 
1463	 1.31932637825657E-02 
1464	 1.38569821609015E-02 
1465	 1.25632003822887E-02 
1466	 1.20870401175652E-02 
1467	 1.36581498076855E-02 
1468	 1.43966872408656E-02 
1469	 1.28896056394532E-02 
1470	 1.32249795848646E-02 
1471	 1.60213689550746E-02 
1472	 1.64673206167305E-02 
1473	 1.54695972154301E-02 
1474	 1.55854763603232E-02 
1475	 1.60568370390042E-02 
1476	 1.57705910168826E-02 
1477	 1.54717489047257E-02 
1478	 1.52925191917714E-02 
1479	 1.42820096253858E-02 
1480	 1.40764370865101E-02 
1481	 1.43033665582541E-02 
1482	 1.44387904360173E-02 
1483	 0.015203842712356 
1484	 1.52639345792409E-02 
1485	 1.42267265510713E-02 
1486	 1.48821277415826E-02 
1487	 1.61319039612763E-02 
1488	 1.67968760588943E-02 
1489	 1.78960771292785E-02 
1490	 0.018683446684907 
1491	 1.87541894050425E-02 
1492	 1.93397572825178E-02 
1493	 0.020428683893317 
1494	 0.021098829419889 
1495	 2.18246313317993E-02 
1496	 2.22109491480395E-02 
1497	 2.21318299937821E-02 
1498	 0.022367382445834 
1499	 2.27098808306562E-02 
1500	 0.023018018644366 
1501	 2.33014672121678E-02 
1502	 2.37974498801303E-02 
1503	 0.024605469556239 
1504	 2.49266430062689E-02 
1505	 2.50869672801824E-02 
1506	 2.53133527975347E-02 
1507	 2.55171546547526E-02 
1508	 2.57286934001476E-02 
1509	 2.59632196251324E-02 
1510	 2.62987431649701E-02 
1511	 2.65296568244647E-02 
1512	 2.65877568776677E-02 
1513	 2.69008181381383E-02 
1514	 2.73504955513191E-02 
1515	 0.027253356462923 
1516	 2.71146382778504E-02 
1517	 2.75364415766321E-02 
1518	 2.79566775343846E-02 
1519	 2.82001559213816E-02 
1520	 2.85220698815213E-02 
1521	 0.028686001100772 
1522	 2.86942299008419E-02 
1523	 2.88712602951823E-02 
1524	 2.92435802524179E-02 
1525	 2.94883903574075E-02 
1526	 2.93839857468113E-02 
1527	 2.94197512439209E-02 
1528	 0.029690974459696 
1529	 2.98989250194801E-02 
1530	 3.02256967888065E-02 
1531	 3.03774899927574E-02 
1532	 3.02985871375357E-02 
1533	 3.04749814827652E-02 
1534	 3.05789664927408E-02 
1535	 3.06336489348251E-02 
1536	 3.09521953939568E-02 
1537	 3.11352760331654E-02 
1538	 3.11525320102791E-02 
1539	 3.11129268374651E-02 
1540	 3.12123728724418E-02 
1541	 3.14016953414598E-02 
1542	 3.13314724747178E-02 
1543	 3.15234793702085E-02 
1544	 3.19240475429578E-02 
1545	 3.19749547158886E-02 
1546	 3.20268050169441E-02 
1547	 3.20722815303972E-02 
1548	 3.19268820898024E-02 
1549	 0.032044903241188 
1550	 3.23395918753311E-02 
1551	 3.24232676670933E-02 
1552	 3.25723532831795E-02 
1553	 3.27579908369967E-02 
1554	 3.26999462270456E-02 
1555	 3.26781646027792E-02 
1556	 3.28208907264722E-02 
1557	 3.29057440395433E-02 
1558	 3.28321535142885E-02 
1559	 3.28185663118848E-02 
1560	 3.29986071524251E-02 
1561	 3.29869970574617E-02 
1562	 3.28242786832161E-02 
1563	 0.032892090210757 
1564	 3.29621191568596E-02 
1565	 3.28888881655607E-02 
1566	 3.29011951992197E-02 
1567	 3.29446636644378E-02 
1568	 3.29172798801143E-02 
1569	 3.28015778504761E-02 
1570	 0.032632085584189 
1571	 3.25866917228887E-02 
1572	 3.25404281988184E-02 
1573	 3.25365541586475E-02 
1574	 3.26572981044335E-02 
1575	 3.28292408588291E-02 
1576	 3.30012248043658E-02 
1577	 3.28962469800423E-02 
1578	 3.27705023471667E-02 
1579	 3.29086742883184E-02 
1580	 3.29530849982755E-02 
1581	 3.29042297295017E-02 
1582	 3.30135895811249E-02 
1583	 3.31269609566619E-02 
1584	 3.30839496758532E-02 
1585	 3.30523283637338E-02 
1586	 3.33299378990792E-02 
1587	 0.033681145459805 
1588	 3.35449567542213E-02 
1589	 3.33641946410791E-02 
1590	 3.35669440164926E-02 
1591	 3.34960575289801E-02 
1592	 3.34020268891056E-02 
1593	 3.36433403826967E-02 
1594	 3.37063933077245E-02 
1595	 3.36299607807727E-02 
1596	 3.34723900763784E-02 
1597	 3.33312090056675E-02 
1598	 3.32567731914544E-02 
1599	 3.31265430183238E-02 
1600	 0.033173858129046 
1601	 3.32242041406876E-02 
1602	 3.31239269881144E-02 
1603	 3.31954284060205E-02 
1604	 3.32962291048134E-02 
1605	 3.33345009666394E-02 
1606	 3.35078579450375E-02 
1607	 3.36156409025443E-02 
1608	 3.36101994947334E-02 
1609	 3.36426281844664E-02 
1610	 3.36371721472958E-02 
1611	 3.36323272295579E-02 
1612	 3.36013560562744E-02 
1613	 3.34844517553977E-02 
1614	 3.36099935341169E-02 
1615	 3.38029950255941E-02 
1616	 3.37805916042615E-02 
1617	 3.37737539395307E-02 
1618	 3.38334695148464E-02 
1619	 3.40395846397038E-02 
1620	 3.43061675079788E-02 
1621	 3.44476987068175E-02 
1622	 0.034432169458473 
1623	 3.42482874517977E-02 
1624	 3.40838184300178E-02 
1625	 3.41999985655081E-02 
1626	 3.43239724174085E-02 
1627	 3.42036466357032E-02 
1628	 3.42254656389957E-02 
1629	 3.42641111867549E-02 
1630	 3.42095324094939E-02 
1631	 3.42944559457752E-02 
1632	 3.42159131936543E-02 
1633	 3.40844742458927E-02 
1634	 3.41194980842226E-02 
1635	 3.41355897423243E-02 
1636	 0.034266316435901 
1637	 3.41611878353895E-02 
1638	 3.39228400260606E-02 
1639	 3.41068091594442E-02 
1640	 0.034075131361268 
1641	 3.39863513001748E-02 
1642	 3.42068804187016E-02 
1643	 3.40733519802533E-02 
1644	 3.39916624385735E-02 
1645	 3.42433701693488E-02 
1646	 3.42643376512008E-02 
1647	 3.40371548842491E-02 
1648	 3.36119978225413E-02 
1649	 3.33756781680133E-02 
1650	 3.36123576957974E-02 
1651	 3.38465138831192E-02 
1652	 3.39771281230788E-02 
1653	 3.39295811980611E-02 
1654	 3.38905715254874E-02 
1655	 0.033942215669881 
1656	 3.39525445852692E-02 
1657	 3.38601096509983E-02 
1658	 3.38305972064086E-02 
1659	 3.37552573890876E-02 
1660	 3.37627646552994E-02 
1661	 3.39639679668648E-02 
1662	 0.034002505545165 
1663	 0.033896556713598 
1664	 3.39323472181306E-02 
1665	 3.41262539530461E-02 
1666	 3.39517335230539E-02 
1667	 3.35153892687863E-02 
1668	 3.37740007240426E-02 
1669	 3.37230866938196E-02 
1670	 3.37272781740362E-02 
1671	 3.38261380549099E-02 
1672	 3.36039350271838E-02 
1673	 0.033452300567605 
1674	 3.37601556368253E-02 
1675	 3.40184773637765E-02 
1676	 3.40717386369402E-02 
1677	 3.40944530194744E-02 
1678	 3.38411607033408E-02 
1679	 3.37633521252332E-02 
1680	 3.40934094121637E-02 
1681	 3.41849668348414E-02 
1682	 3.41722163366392E-02 
1683	 3.41960258797864E-02 
1684	 3.39342522589057E-02 
1685	 3.38642214786205E-02 
1686	 3.39802266913811E-02 
1687	 3.38236281249327E-02 
1688	 3.36152031557902E-02 
1689	 3.35881711078753E-02 
1690	 0.033423236752286 
1691	 3.32083083588781E-02 
1692	 0.033542684626591 
1693	 3.35224099906064E-02 
1694	 3.31565042129458E-02 
1695	 3.34941226476484E-02 
1696	 3.34635540778191E-02 
1697	 3.31352642601285E-02 
1698	 3.32935221602181E-02 
1699	 3.31234497792273E-02 
1700	 3.28509235521875E-02 
1701	 3.28897117095923E-02 
1702	 3.28923292612876E-02 
1703	 3.28457852868908E-02 
1704	 3.28377447017889E-02 
1705	 3.28236207830567E-02 
1706	 3.26872239150476E-02 
1707	 3.26244299847047E-02 
1708	 3.26995027979162E-02 
1709	 3.26090438044928E-02 
1710	 3.24412735764085E-02 
1711	 3.23477994047085E-02 
1712	 3.21807015900036E-02 
1713	 3.24010200753063E-02 
1714	 3.24100828186441E-02 
1715	 3.24516388197805E-02 
1716	 3.24039510015492E-02 
1717	 3.20519896766826E-02 
1718	 3.20978984860506E-02 
1719	 3.22942255316962E-02 
1720	 3.19180282295681E-02 
1721	 3.17239944002006E-02 
1722	 3.17560127419135E-02 
1723	 3.13691516273457E-02 
1724	 3.12282191983839E-02 
1725	 3.16080642577251E-02 
1726	 3.14526635972014E-02 
1727	 3.10047821428721E-02 
1728	 3.13835260504461E-02 
1729	 3.14977476062138E-02 
1730	 3.10904228850345E-02 
1731	 3.13631543438429E-02 
1732	 3.11758897156473E-02 
1733	 3.03744062308145E-02 
1734	 3.04059211965161E-02 
1735	 3.03792477861681E-02 
1736	 2.95501906792878E-02 
1737	 2.94732867837843E-02 
1738	 3.00605702935858E-02 
1739	 2.97617056049983E-02 
1740	 2.96420006974372E-02 
1741	 2.98866042302294E-02 
1742	 2.89954588406655E-02 
1743	 2.84409611910311E-02 
1744	 2.88368404582895E-02 
1745	 2.88685175442371E-02 
1746	 2.87803955390753E-02 
1747	 2.88776054328571E-02 
1748	 0.0290728801435 
1749	 2.90964672369359E-02 
1750	 2.95191367138769E-02 
1751	 2.96268371694338E-02 
1752	 0.029268220673176 
1753	 2.88119312788298E-02 
1754	 2.76024178785968E-02 
1755	 2.73275853212651E-02 
1756	 2.80248672441113E-02 
1757	 2.84533948843993E-02 
1758	 2.81852327762591E-02 
1759	 2.80118609406031E-02 
1760	 2.70486428746904E-02 
1761	 2.63398388553944E-02 
1762	 2.68434270530873E-02 
1763	 2.62596636718651E-02 
1764	 2.53090891310898E-02 
1765	 2.58287365605699E-02 
1766	 2.58683605180234E-02 
1767	 2.54441874915025E-02 
1768	 2.54573882296724E-02 
1769	 2.47548907715575E-02 
1770	 2.39990938720489E-02 
1771	 2.40845825141249E-02 
1772	 2.42631529826573E-02 
1773	 0.024115069246075 
1774	 2.35763547401972E-02 
1775	 2.27056789416052E-02 
1776	 2.24604424804029E-02 
1777	 2.25831820449326E-02 
1778	 2.22425840596249E-02 
1779	 2.25956320903294E-02 
1780	 2.18886043923443E-02 
1781	 0.018885057203593 
1782	 1.85217429437035E-02 
1783	 1.99310565835607E-02 
1784	 2.01081327333292E-02 
1785	 2.14465823948027E-02 
1786	 2.17474900403622E-02 
1787	 1.96373409121863E-02 
1788	 1.92625648187592E-02 
1789	 2.08524130560177E-02 
1790	 1.97686512723386E-02 
1791	 0.019791817016475 
1792	 2.04653690912536E-02 
1793	 2.01150247140769E-02 
1794	 1.92346396228571E-02 
1795	 1.71671486333629E-02 
1796	 1.42047676379039E-02 
1797	 1.00309359471493E-02 
1798	 1.39410734075854E-02 
1799	 2.21839870641419E-02 
1800	 3.44236515026158E-02 
1801	 3.91147156520217E-02 
1802	 2.27137127096955E-02 
1803	 1.58139591454761E-02 
1804	-1.52239734715094E-03 
1805	-6.31496651823753E-03 
1806	 3.08063498780211E-02 
1807	 4.86311632197111E-02 
1808	 7.27872224455268E-02 
1809	 8.67648004559091E-02 
1810	 0.034314906218968 
1811	 4.48824647552887E-03 
1812	-4.64939763075681E-02 
1813	-4.04971970226138E-02 
1814	 5.48133937898459E-02 
1815	 0.117528991112863 
1816	 0.280747221020906 
1817	 1.57191134277661E-02 
1818	-0.247053796436866 
1819	-9.54580361351326E-02 
1820	-0.251722423960465 
1821	-7.47272784431043E-02 
1822	 6.84130744780002E-02 
1823	 3.16777297470697E-02 
1824	-1.90029197188981E-02 
1825	-3.86623460785503E-02 
1826	-2.13952859241743E-02 
1827	-0.248060461817759 
1828	-0.177113662313899 
1829	 0.396244420050658 
1830	 0.51071280969789 
1831	-1.18750512493393 
1832	-1.42772532455529 
1833	-5.97399094829569 
1834	-17.7575841023126 
1835	 1.11017206970214 
1836	 1.52049625189206 
1837	 0.621637107628425 
1838	 1.07600091689935 
1839	 0.41812921379812 
1840	 0.152232425510639 
1841	-0.547195430299888 
1842	-1.42800627268928 
1843	-1.32360166028063 
1844	-3.69102682697035 
1845	-1.12823353528428 
1846	 7.53511057403279 
1847	 9.48104018064044 
1848	-3.93714195736532 
1849	 1.15000348358112 
1850	 0.443393610426959 
1851	-1.00888273507333 
1852	-2.31239330272906 
1853	 22.8503292123427 
1854	 3.64897634362284 
1855	-0.150580733801139 
1856	-0.235129622053721 
1857	-0.722259179030201 
1858	-0.784609545482999 
1859	-0.838003428292249 
1860	-1.09657376307724 
1861	 4.14670594849863 
1862	 0.956648640956898 
1863	 0.490392701837802 
1864	 0.235109412672188 
1865	 2.29796624424036E-02 
1866	-0.350351231977277 
1867	-1.2330215426183 
1868	-5.11487496936731 
1869	-8.8795889654429 
1870	-7.90073219964017 
1871	 3.14297506761443 
1872	 8.93253728623695 
1873	-4.28602909356554 
1874	-1.23535163879281 
1875	 2.13802426534341E-02 
1876	 0.12548973317987 
1877	 1.08852502783924 
1878	 1.21182689065239 
1879	-0.96225119976477 
1880	-1.02218655900345 
1881	-0.288318750782992 
1882	 0.502678896778885 
1883	 0.861618239715365 
1884	 0.457681911840873 
1885	 1.00122462230572 
1886	-2.5649601346101 
1887	-2.25570154791699 
1888	-1.68753801523332 
1889	-3.66206585527503 
1890	-8.7923807520875 
1891	-6.67825237351929 
1892	-5.53839457425666 
1893	-1.47154222572101 
1894	-0.644642830806304 
1895	-0.301694907435941 
1896	 249.839529463195 
1897	 0.55268118683186 
1898	 0.500104915144792 
1899	-6.96725096128575E-02 
1900	-0.484592455527173 
1901	-0.417771581011911 
1902	 0.500672696215598 
1903	 0.816440202819705 
1904	 1.0398662340789 
1905	 8.45595268183574 
1906	 3.05666229321317 
1907	 0.998795713180339 
1908	 0.800778106363359 
1909	-0.467974562545629 
1910	-1.29727375823672 
1911	 6.58408605108989 
1912	 6.31768936037366 
1913	 1.61855886869608 
1914	-3.19524786875881E-02 
1915	 0.076847526848294 
1916	 0.642600301966304 
1917	 1.71863427630001 
1918	 251.870908167127 
1919	-5.24389220800633 
1920	 1.40711142535197 
1921	-1.68513260903633 
1922	 8.02001458671001 
1923	 1.35453317173634 
1924	 0.943492060371161 
1925	 1.38971897427913 
1926	 3.93249660368279 
1927	 0.662823056945148 
1928	 0.256284938705946 
1929	-0.602831440482202 
1930	 1.21466598096945 
1931	 0.991551117658683 
1932	-8.07855828507534 
1933	-8.81030226991813E-02 
1934	-0.100647216104661 
1935	-0.185212039656993 
1936	-9.99403880744151E-02 
1937	-4.31713107311425E-02 
1938	-3.01107025410242E-02 
1939	-0.082269125591809 
1940	-0.123191520648471 
1941	-0.124810812321389 
1942	-0.162001678635408 
1943	-0.176169915371598 
1944	-5.61766211109816E-02 
1945	 1.87736091636666E-02 
1946	 6.69512055956178E-02 
1947	 9.46310036167904E-02 
1948	 3.89382321130528E-02 
1949	 3.02016886050913E-03 
1950	-1.12437533440116E-02 
1951	-3.26693020909476E-02 
1952	-3.29257011825391E-02 
1953	-1.51258514416125E-02 
1954	 6.12384905624608E-03 
1955	 5.77202121674557E-03 
1956	 9.66896760523291E-03 
1957	 0.015788343961691 
1958	 1.04449480268711E-02 
1959	 4.0077033966049E-03 
1960	-1.79750996981795E-03 
1961	-2.81744266458538E-03 
1962	-3.41511549849101E-03 
1963	-3.47874972191972E-03 
1964	 5.31764721474955E-03 
1965	 1.12190417564705E-02 
1966	 1.23210947886384E-02 
1967	 1.18621753063271E-02 
1968	 1.36953184849567E-02 
1969	 1.25830472366979E-02 
1970	 1.07355599340486E-02 
1971	 1.25913791524917E-02 
1972	 1.32098868277656E-02 
1973	 1.21270379970679E-02 
1974	 1.24940009387532E-02 
1975	 1.33118350970425E-02 
1976	 1.32898003469412E-02 
1977	 1.22131867994024E-02 
1978	 1.20796621790891E-02 
1979	 1.28779433496819E-02 
1980	 1.34108690796638E-02 
1981	 1.45048237252868E-02 
1982	 1.62853714792991E-02 
1983	 1.67887542480908E-02 
1984	 1.60692547689929E-02 
1985	 1.45352271717366E-02 
1986	 1.40013162675595E-02 
1987	 1.43576289517039E-02 
1988	 1.36602575855496E-02 
1989	 1.39159488679898E-02 
1990	 0.01456652630806 
1991	 1.38856407513225E-02 
1992	 1.37085673018019E-02 
1993	 1.39076369659621E-02 
1994	 1.41968988824702E-02 
1995	 1.45125498272192E-02 
1996	 1.61098078763403E-02 
1997	 1.77711688402484E-02 
1998	 1.83700313695649E-02 
1999	 1.80245965574166E-02 
2000	 1.80928491236889E-02 
2001	 1.77023444679471E-02 
2002	 1.55615542288544E-02 
2003	 1.61358028835561E-02 
2004	 1.78220694176383E-02 
2005	 1.53550930290524E-02 
2006	 1.36941905188598E-02 
2007	 1.49730577514026E-02 
2008	 1.27085249331081E-02 
2009	 1.20576778183842E-02 
2010	 1.64611858616759E-02 
2011	 1.63554273717194E-02 
2012	 1.29143392248865E-02 
2013	 9.81612265151756E-03 
2014	 1.17880388610177E-02 
2015	 1.26694151125901E-02 
2016	 1.39716444342717E-02 
2017	 1.52819076567218E-02 
2018	 1.49693270614968E-02 
2019	 0.014038353024824 
2020	 0.014268200061112 
2021	 0.016182838905637 
2022	 1.56554531605736E-02 
2023	 0.014539196005188 
2024	 1.50719596513601E-02 
2025	 1.62639903800729E-02 
2026	 1.71437480137074E-02 
2027	 0.018961943393715 
2028	 1.98552046016365E-02 
2029	 1.95495189614092E-02 
2030	 1.87929986306322E-02 
2031	 1.90200671703735E-02 
2032	 1.98901511276332E-02 
2033	 2.10928399103456E-02 
2034	 2.21475436787442E-02 
2035	 2.16143306295116E-02 
2036	 2.09545605903489E-02 
2037	 2.07223471183897E-02 
2038	 2.01201635641118E-02 
2039	 1.99264653581996E-02 
2040	 2.03341335130726E-02 
2041	 2.06338680099075E-02 
2042	 2.10943035439424E-02 
2043	 2.13326360636991E-02 
2044	 2.16769865728193E-02 
2045	 2.19356234258687E-02 
2046	 2.19017673951197E-02 
2047	 2.15938117863048E-02 
2048	 2.10084045736021E-02 
2049	 2.05301960076718E-02 
2050	 2.07128014304277E-02 
2051	 2.04266289016095E-02 
2052	 1.99228071772682E-02 
2053	 1.97551522904236E-02 
2054	 0.019810858820413 
2055	 1.98204141242894E-02 
2056	 1.99243437025288E-02 
2057	 2.11980655339886E-02 
2058	 2.15628178861078E-02 
2059	 2.08487791508142E-02 
2060	 2.09890087898129E-02 
2061	 2.15474943129409E-02 
2062	 2.19907299639236E-02 
2063	 2.21122146378305E-02 
2064	 2.22427173275206E-02 
2065	 2.25328369692712E-02 
2066	 2.23239204650964E-02 
2067	 2.19476853997555E-02 
2068	 2.18419287020349E-02 
2069	 2.18074860558972E-02 
2070	 2.15631573739431E-02 
2071	 2.14691633716162E-02 
2072	 2.22360812946662E-02 
2073	 2.30647916045744E-02 
2074	 2.42683667624279E-02 
2075	 2.46427172313978E-02 
2076	 2.51239274939725E-02 
2077	 2.51809005618127E-02 
2078	 2.42822616851508E-02 
2079	 2.41698765108045E-02 
2080	 0.024496920880313 
2081	 2.45534019767415E-02 
2082	 0.024679796122709 
2083	 2.46870686133382E-02 
2084	 2.53460030077388E-02 
2085	 2.59572044569737E-02 
2086	 2.54329560725444E-02 
2087	 2.54242860591327E-02 
2088	 2.52450652817642E-02 
2089	 2.45240875230704E-02 
2090	 2.50297020380328E-02 
2091	 2.59649606551194E-02 
2092	 2.60251950009286E-02 
2093	 2.54804482864439E-02 
2094	 2.51615799719654E-02 
2095	 2.42798204263361E-02 
2096	 2.40003131242081E-02 
2097	 2.43675940341387E-02 
2098	 2.45022808420754E-02 
2099	 0.024987617347399 
2100	 0.024586376078473 
2101	 2.43740348148057E-02 
2102	 2.39341398540057E-02 
2103	 2.38414455947632E-02 
2104	 2.42440526853395E-02 
2105	 2.49492297996715E-02 
2106	 2.56371345664369E-02 
2107	 2.59131314538365E-02 
2108	 2.65661175914134E-02 
2109	 2.68980928325288E-02 
2110	 2.66966037491947E-02 
2111	 2.68903062414181E-02 
2112	 2.69213984605728E-02 
2113	 2.68755112736319E-02 
2114	 2.68321246258851E-02 
2115	 2.67882262671276E-02 
2116	 2.64967894794684E-02 
2117	 2.62522484126262E-02 
2118	 2.63048741075407E-02 
2119	 2.59984762570879E-02 
2120	 2.53437498517294E-02 
2121	 2.47126663046431E-02 
2122	 2.52312437141938E-02 
2123	 2.54205249282024E-02 
2124	 0.024639237926367 
2125	 2.53079452744233E-02 
2126	 2.68931003889441E-02 
2127	 2.66168961107474E-02 
2128	 2.67081926942113E-02 
2129	 2.77690576095432E-02 
2130	 2.72639689048069E-02 
2131	 2.64822863581064E-02 
2132	 0.026614660998074 
2133	 2.67983364679613E-02 
2134	 2.70155162611004E-02 
2135	 2.69276104434086E-02 
2136	 2.74724299423118E-02 
2137	 2.89987872297524E-02 
2138	 2.92859311310099E-02 
2139	 2.93305899632018E-02 
2140	 2.90423046888909E-02 
2141	 2.76287110945678E-02 
2142	 2.72248927012959E-02 
2143	 2.71651467791397E-02 
2144	 2.68449363744105E-02 
2145	 2.78640631509422E-02 
2146	 2.75712943586581E-02 
2147	 2.69546946503952E-02 
2148	 2.76191733171043E-02 
2149	 2.73340034334836E-02 
2150	 2.73451143578487E-02 
2151	 2.71033116902991E-02 
2152	 2.60538406346478E-02 
2153	 2.62990355398759E-02 
2154	 2.63415679393226E-02 
2155	 2.62686552308623E-02 
2156	 2.75572298470251E-02 
2157	 2.77988584676628E-02 
2158	 2.70549990397881E-02 
2159	 0.026702993076281 
2160	 2.63006472850376E-02 
2161	 2.60598265656751E-02 
2162	 2.60021531806441E-02 
2163	 2.60033395053356E-02 
2164	 2.58639732017162E-02 
2165	 2.62470118231711E-02 
2166	 2.68847963073281E-02 
2167	 0.027155596748929 
2168	 2.79769677661055E-02 
2169	 2.84866397857711E-02 
2170	 2.84149842059583E-02 
2171	 2.88362037927959E-02 
2172	 2.90969781415653E-02 
2173	 2.84691675923286E-02 
2174	 0.026984138395254 
2175	 2.63970364537383E-02 
2176	 0.026590906989389 
2177	 2.64648534083409E-02 
2178	 2.72649908481252E-02 
2179	 2.73102565484611E-02 
2180	 2.67985884934882E-02 
2181	 2.74898201178353E-02 
2182	 2.80436233923373E-02 
2183	 2.82164710108668E-02 
2184	 2.81196019280397E-02 
2185	 2.75978775365623E-02 
2186	 2.74518469367695E-02 
2187	 2.73341621135747E-02 
2188	 2.70946248456449E-02 
2189	 2.71155553103996E-02 
2190	 2.71380951977205E-02 
2191	 2.65721851021639E-02 
2192	 2.63274957898444E-02 
2193	 2.67284379225203E-02 
2194	 2.67693200123731E-02 
2195	 2.65735849823414E-02 
2196	 2.70148211253092E-02 
2197	 0.027693106768684 
2198	 2.78970594651181E-02 
2199	 2.85649437269186E-02 
2200	 2.83125576380027E-02 
2201	 2.68723287177499E-02 
2202	 2.60306673573104E-02 
2203	 2.51950315054667E-02 
2204	 2.52227195025502E-02 
2205	 2.61063913754486E-02 
2206	 2.57301098379823E-02 
2207	 2.54890159814963E-02 
2208	 2.58800810773425E-02 
2209	 2.48593895004512E-02 
2210	 2.50603630490093E-02 
2211	 2.61983125260858E-02 
2212	 2.62555088395078E-02 
2213	 2.79812353688029E-02 
2214	 2.93325134590711E-02 
2215	 2.79433988813535E-02 
2216	 2.65286511209878E-02 
2217	 0.025710369207073 
2218	 2.40436002768364E-02 
2219	 2.33788309427477E-02 
2220	 2.32513773659736E-02 
2221	 2.42036948507345E-02 
2222	 2.64376933865449E-02 
2223	 2.67978261316279E-02 
2224	 2.81178598876149E-02 
2225	 2.80880483937791E-02 
2226	 2.50273247105863E-02 
2227	 2.42392450182321E-02 
2228	 2.51337413235236E-02 
2229	 2.45613697439503E-02 
2230	 2.35623192796389E-02 
2231	 2.27269245584705E-02 
2232	 2.00968494943158E-02 
2233	 1.97373830503276E-02 
2234	 2.09540677989556E-02 
2235	 2.28445680446378E-02 
2236	 0.023071109834398 
2237	 2.31176195006902E-02 
2238	 2.37548893083125E-02 
2239	 2.40406501350496E-02 
2240	 2.51972206428949E-02 
2241	 0.027234066519259 
2242	 2.72151688790174E-02 
2243	 2.61810257319816E-02 
2244	 2.67425507242113E-02 
2245	 2.80196244586163E-02 
2246	 2.88956181179358E-02 
2247	 2.75873434873472E-02 
2248	 2.52860477848916E-02 
2249	 2.46856637830101E-02 
2250	 2.41991805370061E-02 
2251	 2.40497655754694E-02 
2252	 2.54777764723206E-02 
2253	 0.02622735008966 
2254	 2.68725720722843E-02 
2255	 2.74073064665998E-02 
2256	 2.58905837119067E-02 
2257	 2.50435512719663E-02 
2258	 2.44042213003017E-02 
2259	 2.41361613150765E-02 
2260	 2.42389285164018E-02 
2261	 2.54426478810452E-02 
2262	 2.50478629041962E-02 
2263	 2.40197598015595E-02 
2264	 2.37450665632401E-02 
2265	 0.023616303648709 
2266	 2.37335090768729E-02 
2267	 0.02346368097344 
2268	 0.024362713044236 
2269	 2.64621409636871E-02 
2270	 0.026976649110447 
2271	 2.83397254079097E-02 
2272	 2.80105926071799E-02 
2273	 2.45309879127642E-02 
2274	 2.31518934147832E-02 
2275	 2.27967786942375E-02 
2276	 2.23555541360716E-02 
2277	 2.20314086483901E-02 
2278	 2.31273570135848E-02 
2279	 2.53332802924619E-02 
2280	 2.57812603610219E-02 
2281	 0.026772321730275 
2282	 2.69024355444582E-02 
2283	 2.49149561098857E-02 
2284	 2.31435926179841E-02 
2285	 2.12033011099028E-02 
2286	 2.29581003977146E-02 
2287	 2.54773594183172E-02 
2288	 2.53767450114291E-02 
2289	 0.026059567836746 
2290	 0.025189981277121 
2291	 2.13527822323491E-02 
2292	 1.85510744320397E-02 
2293	 0.019342229745583 
2294	 1.91265615440381E-02 
2295	 1.79360665135925E-02 
2296	 2.01907115392631E-02 
2297	 2.27565181629529E-02 
2298	 2.36759411741794E-02 
2299	 2.37238140605073E-02 
2300	 2.35414905586468E-02 
2301	 2.10152297970772E-02 
2302	 0.017145696121291 
2303	 0.018745097915186 
2304	 2.02897562353538E-02 
2305	 1.99137189725165E-02 
2306	 2.17592259454229E-02 
2307	 1.95371054239796E-02 
2308	 1.75091224416425E-02 
2309	 2.12394038715071E-02 
2310	 0.024408278185128 
2311	 2.62354389922235E-02 
2312	 2.81143554571906E-02 
2313	 0.027662531798838 
2314	 2.34904811075782E-02 
2315	 2.08685931698494E-02 
2316	 2.43182023651354E-02 
2317	 2.40823463729947E-02 
2318	 2.10229884722036E-02 
2319	 1.99846266442463E-02 
2320	 1.63317924429492E-02 
2321	 1.75431593850464E-02 
2322	 2.26929775357842E-02 
2323	 2.60487243400116E-02 
2324	 0.025916813076311 
2325	 2.25960747086845E-02 
2326	 2.08906721107625E-02 
2327	 1.70812680520273E-02 
2328	 1.48522361485264E-02 
2329	 1.51079856035501E-02 
2330	 1.19141169008536E-02 
2331	 1.18228115106511E-02 
2332	 1.37835617507013E-02 
2333	 1.46765960949941E-02 
2334	 0.01649348411412 
2335	 1.76286713895947E-02 
2336	 2.04419565710968E-02 
2337	 2.37095317824396E-02 
2338	 2.36725718987147E-02 
2339	 1.83379347230828E-02 
2340	 1.04493034456417E-02 
2341	 3.61757562871848E-03 
2342	 3.3183545714675E-03 
2343	 7.8818813785985E-03 
2344	 1.37937242595312E-02 
2345	 2.26009451181322E-02 
2346	 0.022167501019742 
2347	 2.22872022641439E-02 
2348	 2.46113031290336E-02 
2349	 2.13580297465082E-02 
2350	 2.16565254501002E-02 
2351	 2.53396479190405E-02 
2352	 3.25200166459702E-02 
2353	 2.88474061785312E-02 
2354	 1.95937427612327E-02 
2355	 1.73567988044577E-02 
2356	 1.11626977503907E-02 
2357	 9.61110727109378E-03 
2358	 2.03286316394199E-02 
2359	 1.89596312244358E-02 
2360	 1.06166581194617E-02 
2361	 1.21709115734146E-02 
2362	 6.08374255702736E-03 
2363	 3.70440290484058E-03 
2364	 5.98205128642231E-03 
2365	-7.17061584430912E-04 
2366	 3.55467092596585E-03 
2367	 5.71530585467148E-03 
2368	-3.45717031333159E-03 
2369	-7.94762092258483E-03 
2370	-1.64243010533984E-02 
2371	-2.07039550430171E-02 
2372	-7.15505351129099E-03 
2373	 1.34649907335582E-02 
2374	 2.62833204883901E-02 
2375	 2.08808907350574E-02 
2376	 8.58238650547558E-03 
2377	-9.11146697036076E-03 
2378	-1.97730295468668E-02 
2379	-1.01584428190572E-02 
2380	-5.09123584935036E-03 
2381	 2.21357188329037E-03 
2382	 2.58521563132116E-02 
2383	 4.27435612719248E-02 
2384	 5.32966640506873E-02 
2385	 6.32216725315075E-02 
2386	 5.39406050875249E-02 
2387	 2.04036916754983E-02 
2388	-3.88021379646431E-03 
2389	 3.03695352003569E-03 
2390	-2.67228403365263E-03 
2391	-2.35753235408199E-02 
2392	-1.88294619224272E-02 
2393	-1.50906697745553E-02 
2394	-2.96159735153451E-02 
2395	-1.57718464470553E-03 
2396	 0.038180860156644 
2397	 2.87892635804968E-02 
2398	 0.031728978904539 
2399	 1.45988759768195E-02 
2400	-2.03354962062977E-02 
2401	-2.29146413753008E-02 
2402	-8.89878260503855E-03 
2403	 0.025946659822785 
2404	 3.43543655943008E-02 
2405	 2.77261521259603E-02 
2406	 0.013863353177995 
2407	-1.96776274659414E-02 
2408	-2.87986145238697E-02 
2409	-4.70778314474882E-02 
2410	-6.55667980953235E-02 
2411	-5.73765084242827E-02 
2412	-3.01913382127713E-02 
2413	-1.80611212699645E-02 
2414	-5.56217312420785E-02 
2415	-9.12059792604408E-02 
2416	-8.19900895275532E-02 
2417	-3.53712925648933E-02 
2418	 1.52416508505961E-02 
2419	 1.89412453081311E-02 
2420	-1.20784904225528E-02 
2421	-0.109628233556596 
2422	-0.183799829175302 
2423	-0.10274107436401 
2424	-0.110601006324343 
2425	-9.75736123510699E-02 
2426	 1.45476087430487E-02 
2427	 4.67828259076663E-02 
2428	 8.66673816717529E-02 
2429	 0.129908410871549 
2430	 0.128253266400365 
2431	 0.140062625440073 
2432	 0.125698083944544 
2433	 9.83964800781725E-02 
2434	 7.26745195845769E-02 
2435	 2.50303096608873E-03 
2436	-6.29520902057189E-03 
2437	 6.13098703946095E-02 
2438	 5.33480459541697E-02 
2439	 7.61596917318171E-02 
2440	 9.12427615222164E-02 
2441	-1.27245966283204E-02 
2442	-1.87718071867395E-02 
2443	-1.90686806909233E-02 
2444	-0.190851262312757 
2445	-0.421909275696222 
2446	-0.509132363553875 
2447	-0.332721505160885 
2448	-0.334286855986185 
2449	-0.535983765445616 
2450	-0.56418158166617 
2451	-0.348027637769018 
2452	-0.860825272996352 
2453	-0.590978512030989 
2454	-3.49264416571924E-02 
2455	 4.69885841773057E-02 
2456	 0.127875459652447 
2457	 0.239892697012475 
2458	-5.80224813761165E-02 
2459	-0.167129795127639 
2460	-9.51446852991252E-02 
2461	-0.457524584984853 
2462	-0.596008837845336 
2463	-0.851575457996337 
2464	-2.34591822055043 
2465	-1.00104785087893 
2466	-0.421219386891254 
2467	-0.736407238524276 
2468	-0.501062804690285 
2469	-0.373418027403138 
2470	-0.320059094242321 
2471	 0.29396624285099 
2472	 3.78973119337327E-04 
2473	-0.396920635148825 
2474	 3.17836742216119 
2475	-2.47553197430526 
2476	 21.6196674037963 
2477	 3.23186494231108 
2478	 8.01801583653058 
2479	 6.16796485952996 
2480	 13.8617424332038 
2481	 12.1901592991709 
2482	 8.03365734561514 
2483	 5.65752392075238 
2484	-3.55207468745813E-02 
2485	 6.79043782504939E-02 
2486	 0.269793320314457 
2487	 0.235201640910015 
2488	 0.628264672176614 
2489	 0.914858577201697 
2490	 0.588273043962065 
2491	 0.142890414915222 
2492	-4.62081033380561E-02 
2493	-0.348478569351708 
2494	-0.522653040274221 
2495	 1.69147383713134 
2496	 2.66039763929226 
2497	 5.05055002412528 
2498	-0.525739559492734 
2499	 8.77493953513431 
2500	 0.992087554315538 
