Wavelength	rt0713west_far_sunny_300007.asd
350	 7.98524765321125E-02 
351	 7.93643232854865E-02 
352	 7.87386908710681E-02 
353	 7.86269733251886E-02 
354	 7.89547532738868E-02 
355	 7.82778256609779E-02 
356	 7.78576729857282E-02 
357	 7.78414418697712E-02 
358	 7.79359155998744E-02 
359	 0.077589555824942 
360	 7.75049942633127E-02 
361	 7.75734686473614E-02 
362	 7.71935527500307E-02 
363	 7.69208561069909E-02 
364	 7.67804573714537E-02 
365	 7.67700774503224E-02 
366	 7.69570745765477E-02 
367	 7.71050768287341E-02 
368	 7.69127261605815E-02 
369	 7.63346930407809E-02 
370	 7.61596687290885E-02 
371	 7.62473418773798E-02 
372	 7.62535359206978E-02 
373	 7.58471829042965E-02 
374	 7.58625967631432E-02 
375	 7.60324971664462E-02 
376	 7.60632069823145E-02 
377	 7.58079411534337E-02 
378	 7.59539661741243E-02 
379	 7.60355521575607E-02 
380	 0.075721123590967 
381	 0.076000466087852 
382	 0.075920382029465 
383	 7.57731591495134E-02 
384	 7.62414274129441E-02 
385	 7.62717836772727E-02 
386	 7.60275075281519E-02 
387	 7.58012619592066E-02 
388	 7.58799028475499E-02 
389	 0.075833232325184 
390	 7.58417857966269E-02 
391	 7.60722430728364E-02 
392	 0.076429122461707 
393	 7.63914975966936E-02 
394	 7.61418234855672E-02 
395	 7.60687553644648E-02 
396	 7.60441577163571E-02 
397	 7.60483569140839E-02 
398	 7.60562695084807E-02 
399	 7.60404475074472E-02 
400	 7.60643060691897E-02 
401	 7.61833415975473E-02 
402	 7.63500633422815E-02 
403	 7.62800309194212E-02 
404	 7.63303970523432E-02 
405	 7.64142509905764E-02 
406	 7.63448167066113E-02 
407	 7.63699480728146E-02 
408	 7.64571922708403E-02 
409	 7.65286508623318E-02 
410	 7.64924572486731E-02 
411	 7.65022478906612E-02 
412	 7.65797500842992E-02 
413	 7.66797657817953E-02 
414	 7.66431316883998E-02 
415	 0.076779085242402 
416	 7.69687472294568E-02 
417	 7.69917513515622E-02 
418	 7.71789018560139E-02 
419	 7.73088508630943E-02 
420	 7.73375189497841E-02 
421	 7.74472767270463E-02 
422	 0.077693827325707 
423	 7.79582853261147E-02 
424	 7.81484541247164E-02 
425	 7.83606894678438E-02 
426	 7.85399338910185E-02 
427	 7.87296276518684E-02 
428	 7.90103459101995E-02 
429	 7.93970754729512E-02 
430	 7.96229078342123E-02 
431	 7.97213622583235E-02 
432	 8.00928093060741E-02 
433	 8.03346513507363E-02 
434	 8.05093354107379E-02 
435	 8.07531061735017E-02 
436	 8.11195142718745E-02 
437	 8.13875832212107E-02 
438	 8.16084151769409E-02 
439	 8.19496800754355E-02 
440	 8.21662132710412E-02 
441	 0.082437014626426 
442	 8.27910513663306E-02 
443	 8.29708706578185E-02 
444	 8.32281913856447E-02 
445	 8.35339377152191E-02 
446	 8.38091081159214E-02 
447	 8.41110571729662E-02 
448	 0.084332281837814 
449	 8.44883481190965E-02 
450	 8.46874582266771E-02 
451	 8.49504319841546E-02 
452	 8.51887815872326E-02 
453	 8.53565498347058E-02 
454	 0.085522184744872 
455	 8.57016907660625E-02 
456	 8.58810292410859E-02 
457	 8.60311782755834E-02 
458	 8.61223736951143E-02 
459	 8.62376301794899E-02 
460	 8.63913412809384E-02 
461	 8.65233060189697E-02 
462	 8.66305838278165E-02 
463	 0.086746107954095 
464	 8.68949112685087E-02 
465	 8.70635344742383E-02 
466	 8.72017034327805E-02 
467	 8.73083633019016E-02 
468	 8.74131321077942E-02 
469	 8.75502650996106E-02 
470	 8.76744372934238E-02 
471	 8.77648867415671E-02 
472	 8.78425929993865E-02 
473	 0.087953373470218 
474	 8.81620550424798E-02 
475	 8.84670432494001E-02 
476	 8.86382890230624E-02 
477	 8.87936411899792E-02 
478	 8.89832839543301E-02 
479	 8.92072728172982E-02 
480	 8.94738778342455E-02 
481	 8.97485457634091E-02 
482	 9.00007698237314E-02 
483	 9.02103159976154E-02 
484	 9.04970880502052E-02 
485	 9.08049633028433E-02 
486	 9.10488370904649E-02 
487	 9.13771911549353E-02 
488	 9.17049618916537E-02 
489	 9.20070001683876E-02 
490	 9.23278727155567E-02 
491	 9.26399412107211E-02 
492	 9.29747508216241E-02 
493	 9.33490067209309E-02 
494	 9.37192643768576E-02 
495	 9.40826357931541E-02 
496	 9.44242584235356E-02 
497	 9.47367487833069E-02 
498	 9.51108492931612E-02 
499	 9.54381751116155E-02 
500	 9.57040409649284E-02 
501	 9.60665612167062E-02 
502	 9.64403133912725E-02 
503	 9.67921464643711E-02 
504	 9.71358772339033E-02 
505	 9.76068009896935E-02 
506	 9.81034522276128E-02 
507	 9.85752462276819E-02 
508	 9.90211503016841E-02 
509	 9.94680355093075E-02 
510	 9.99592336029286E-02 
511	 0.100488444322061 
512	 0.100927513427551 
513	 0.101430021369639 
514	 0.101984735246083 
515	 0.102517228134817 
516	 0.103088605981441 
517	 0.103658808066498 
518	 0.104198807373987 
519	 0.104706916642996 
520	 0.105270713951398 
521	 0.105802416877855 
522	 0.106243675010324 
523	 0.106753039695206 
524	 0.107363294979892 
525	 0.108009956641511 
526	 0.108573718221476 
527	 0.10914654127335 
528	 0.109700221812939 
529	 0.110226495288554 
530	 0.110786681414423 
531	 0.111384060409977 
532	 0.112024037776101 
533	 0.11268852946783 
534	 0.11326641465911 
535	 0.113800668849086 
536	 0.114320987974621 
537	 0.114825384471883 
538	 0.115408721101236 
539	 0.11599778062918 
540	 0.11652719278489 
541	 0.11709595168895 
542	 0.117716315702539 
543	 0.118335377765187 
544	 0.118877933592539 
545	 0.119462531566532 
546	 0.120082810636239 
547	 0.120702978855435 
548	 0.121263119429638 
549	 0.12183305886756 
550	 0.122428674694678 
551	 0.123040230098996 
552	 0.123627050539385 
553	 0.124187809687741 
554	 0.124741024653915 
555	 0.12531962308362 
556	 0.125854075016368 
557	 0.126382593602696 
558	 0.126932380633652 
559	 0.127430958210001 
560	 0.127878857639547 
561	 0.128285526098268 
562	 0.128669868722573 
563	 0.129047605944458 
564	 0.129404739373934 
565	 0.129706316166485 
566	 0.129880246353946 
567	 0.130050908940882 
568	 0.130252482714648 
569	 0.130489189944675 
570	 0.130818620400455 
571	 0.131089799636354 
572	 0.131226909201894 
573	 0.131253689332197 
574	 0.131433111549765 
575	 0.13167762767069 
576	 0.131846756272022 
577	 0.131934477539855 
578	 0.131974261265189 
579	 0.131999800494972 
580	 0.132027618986365 
581	 0.131927189913678 
582	 0.131720480414672 
583	 0.131449370593604 
584	 0.131170335504768 
585	 0.130620167774546 
586	 0.129848515737885 
587	 0.129018312884043 
588	 0.128200080743678 
589	 0.127576794380922 
590	 0.127214531748593 
591	 0.126990342862319 
592	 0.126554507036927 
593	 0.126009554162778 
594	 0.125487083017143 
595	 0.124847555047127 
596	 0.124110520067505 
597	 0.123307284767553 
598	 0.122484608087958 
599	 0.12167146517924 
600	 0.120938446138182 
601	 0.120352012438166 
602	 0.119969271841346 
603	 0.119665878105043 
604	 0.119399132924263 
605	 0.119178254197358 
606	 0.119111218104101 
607	 0.119052060238278 
608	 0.118952971411321 
609	 0.118881825941313 
610	 0.118885333831353 
611	 0.118841736864426 
612	 0.118686566660479 
613	 0.118626253830891 
614	 0.118586176397822 
615	 0.118542911341367 
616	 0.118496158479724 
617	 0.11841498834133 
618	 0.118298619828456 
619	 0.118172392308011 
620	 0.118102020580106 
621	 0.117989602023958 
622	 0.117836206111725 
623	 0.117679063353808 
624	 0.117568233913461 
625	 0.117337911286606 
626	 0.117016137085237 
627	 0.116818984762472 
628	 0.116729393721157 
629	 0.116739238608676 
630	 0.116783671070514 
631	 0.116653995218312 
632	 0.116614846697162 
633	 0.116627671212847 
634	 0.116534681242578 
635	 0.116493434703919 
636	 0.116415940604141 
637	 0.116262233280234 
638	 0.116088740960969 
639	 0.115925260205157 
640	 0.115747979446363 
641	 0.115526310247068 
642	 0.115292543649289 
643	 0.114908994682183 
644	 0.114329266233728 
645	 0.113608019845566 
646	 0.113048713635247 
647	 0.112755064066747 
648	 0.112673871164274 
649	 0.112527774305385 
650	 0.11227466773404 
651	 0.11196276176865 
652	 0.111664551804778 
653	 0.111203556701549 
654	 0.1105985307335 
655	 0.109940319752133 
656	 0.109477768489235 
657	 0.109055467726333 
658	 0.108622905415542 
659	 0.108187589615619 
660	 0.107905054419625 
661	 0.107598148156977 
662	 0.107291387579531 
663	 0.107119446184208 
664	 0.10689211564877 
665	 0.106661269912956 
666	 0.106465497958057 
667	 0.106267542953056 
668	 0.106095469026917 
669	 0.105985980504371 
670	 0.105935429369795 
671	 0.10572365220939 
672	 0.105592169303188 
673	 0.105571743380307 
674	 0.105482277803295 
675	 0.105360567133122 
676	 0.105297402395135 
677	 0.105315660392471 
678	 0.105236654088152 
679	 0.10517596538421 
680	 0.105177364193886 
681	 0.105227081556166 
682	 0.105154618153213 
683	 0.105115301969609 
684	 0.105059386492118 
685	 0.104599280998083 
686	 0.104056406746413 
687	 0.103779685259791 
688	 0.103868326677013 
689	 0.103710167410505 
690	 0.103362098440655 
691	 0.102777523857956 
692	 0.101896741220902 
693	 0.101276107561793 
694	 0.101043247653571 
695	 0.101011466582992 
696	 0.100709897719525 
697	 9.98805938894098E-02 
698	 9.87243603432347E-02 
699	 9.76590666028527E-02 
700	 9.67683267024149E-02 
701	 9.61409242973412E-02 
702	 0.095591247431707 
703	 9.47399423003592E-02 
704	 9.37192483356556E-02 
705	 9.26520453043395E-02 
706	 9.16153068092804E-02 
707	 9.05120973493151E-02 
708	 0.089233060310708 
709	 8.78767821019904E-02 
710	 8.65564346460435E-02 
711	 8.49703996067825E-02 
712	 8.32458714741609E-02 
713	 8.13625427217845E-02 
714	 7.90577685680362E-02 
715	 7.63283738030176E-02 
716	 7.33165778088151E-02 
717	 7.05927478354031E-02 
718	 6.83139794077181E-02 
719	 6.71120911417252E-02 
720	 6.64712261918471E-02 
721	 6.54312987964431E-02 
722	 6.35741648973379E-02 
723	 6.12709844363351E-02 
724	 5.92191969140611E-02 
725	 5.76586869194703E-02 
726	 5.61212392824234E-02 
727	 5.44804514300739E-02 
728	 5.27597591741894E-02 
729	 5.10035303752838E-02 
730	 4.96381591515512E-02 
731	 4.88167748386824E-02 
732	 0.048323635670451 
733	 4.75255236513907E-02 
734	 4.65715806635542E-02 
735	 4.57413108491229E-02 
736	 4.54136133067036E-02 
737	 4.51966108174741E-02 
738	 4.50951091949142E-02 
739	 4.51361223308663E-02 
740	 4.51044810085939E-02 
741	 4.51648356508022E-02 
742	 4.52871290052168E-02 
743	 4.53426108433793E-02 
744	 4.52945014000259E-02 
745	 4.52322493069126E-02 
746	 4.51995225692432E-02 
747	 4.51583785824463E-02 
748	 4.51814058566806E-02 
749	 4.51974400770706E-02 
750	 4.51358111025846E-02 
751	 4.50462170829165E-02 
752	 4.49814608562875E-02 
753	 4.49731372594819E-02 
754	 4.50171193249481E-02 
755	 4.49904094938587E-02 
756	 4.48144019578375E-02 
757	 4.44248149006526E-02 
758	 4.35876135319171E-02 
759	 4.21292272285073E-02 
760	 4.08136205126909E-02 
761	 4.10262602982806E-02 
762	 0.040951209584946 
763	 4.14223218112054E-02 
764	 4.23371972920482E-02 
765	 4.32704506225212E-02 
766	 4.38584570529248E-02 
767	 4.42521105693906E-02 
768	 4.45578144561475E-02 
769	 4.48143481125365E-02 
770	 4.49284712205576E-02 
771	 4.50478495326868E-02 
772	 0.045239810498086 
773	 4.52012736943561E-02 
774	 4.53256400789649E-02 
775	 4.55584046875356E-02 
776	 4.56676801954625E-02 
777	 4.56507827082177E-02 
778	 4.57496496714748E-02 
779	 4.59767950899101E-02 
780	 4.61014437868978E-02 
781	 0.046163704460212 
782	 4.62095884299652E-02 
783	 4.62694554810773E-02 
784	 4.63337779939751E-02 
785	 4.63332612839343E-02 
786	 4.62670091745061E-02 
787	 4.61903299056254E-02 
788	 4.62581750124435E-02 
789	 4.64251769030823E-02 
790	 4.66891103959493E-02 
791	 4.70780377326415E-02 
792	 4.74937691528775E-02 
793	 4.77815864245326E-02 
794	 4.78678201100916E-02 
795	 4.77905629062488E-02 
796	 4.79897441578343E-02 
797	 4.82373640997232E-02 
798	 4.82690421867347E-02 
799	 0.048380166115285 
800	 4.84900180708456E-02 
801	 4.85875360594353E-02 
802	 4.87215621370814E-02 
803	 4.90622509380165E-02 
804	 4.93796354706869E-02 
805	 4.95220152487563E-02 
806	 4.94723734357671E-02 
807	 4.93612610893141E-02 
808	 4.90447899648728E-02 
809	 4.84484834050656E-02 
810	 4.77792243076612E-02 
811	 4.74256320563004E-02 
812	 4.70031878426394E-02 
813	 4.59683171061107E-02 
814	 0.045283708167812 
815	 4.48284796560095E-02 
816	 4.44710566224254E-02 
817	 4.41683409217617E-02 
818	 4.44219532753594E-02 
819	 4.46162504636369E-02 
820	 0.044319760560015 
821	 0.043365097559725 
822	 4.25959977676899E-02 
823	 4.20796916304054E-02 
824	 4.16297258934669E-02 
825	 4.11179633944615E-02 
826	 4.02893997345505E-02 
827	 0.039256462069557 
828	 3.83757757562939E-02 
829	 3.78448798886927E-02 
830	 3.73901183590817E-02 
831	 3.70002983214012E-02 
832	 3.68535639137721E-02 
833	 3.66251740909785E-02 
834	 3.64631877573281E-02 
835	 3.64404740089461E-02 
836	 0.036463523389354 
837	 3.64697184516657E-02 
838	 3.64586207989596E-02 
839	 3.64871951395795E-02 
840	 3.67511946749092E-02 
841	 3.67002329100409E-02 
842	 3.65071223151231E-02 
843	 3.65346393041001E-02 
844	 3.66300883409539E-02 
845	 3.66486640829459E-02 
846	 0.036544537419262 
847	 3.63548809804832E-02 
848	 3.61276575387147E-02 
849	 3.60621060529876E-02 
850	 0.036141695798462 
851	 3.60740123890775E-02 
852	 3.59954175065874E-02 
853	 3.59970944686582E-02 
854	 3.60328280645861E-02 
855	 3.57820074303887E-02 
856	 3.58025892074091E-02 
857	 3.58994413927475E-02 
858	 3.57995354801152E-02 
859	 3.57452717843364E-02 
860	 0.035707753324462 
861	 0.035692787030127 
862	 3.56870488606637E-02 
863	 3.54565487442947E-02 
864	 3.54352576077297E-02 
865	 3.55469316277064E-02 
866	 0.035283942611726 
867	 3.51547488073458E-02 
868	 0.035192450366792 
869	 3.52385671506846E-02 
870	 3.50029078279938E-02 
871	 3.48986244870111E-02 
872	 3.47643178149413E-02 
873	 3.45442722377697E-02 
874	 3.47065612890294E-02 
875	 3.47136921369009E-02 
876	 3.45488530132646E-02 
877	 3.43914531248032E-02 
878	 3.44931290410464E-02 
879	 3.42926976480992E-02 
880	 3.39074393147379E-02 
881	 3.37369979683364E-02 
882	 3.36642683511283E-02 
883	 3.35960038680287E-02 
884	 3.35406712697552E-02 
885	 3.35540318178947E-02 
886	 3.33852517948983E-02 
887	 3.32271492790593E-02 
888	 3.31165928456186E-02 
889	 3.28725083677827E-02 
890	 3.27086635214412E-02 
891	 3.23161120752542E-02 
892	 3.16361659851849E-02 
893	 3.12658133305268E-02 
894	 3.06974482223987E-02 
895	 2.98124828760421E-02 
896	 2.88340033860165E-02 
897	 0.02855878677896 
898	 2.88176225658927E-02 
899	 0.029081370525035 
900	 2.89155462773861E-02 
901	 2.86033801403877E-02 
902	 2.87596078616852E-02 
903	 2.88982704737832E-02 
904	 2.84373649405406E-02 
905	 0.028555091283731 
906	 2.83671193783534E-02 
907	 2.79867920185472E-02 
908	 2.81018239243684E-02 
909	 2.73564808458763E-02 
910	 2.68380395208208E-02 
911	 2.68320419897799E-02 
912	 2.67339562431839E-02 
913	 2.70736931073728E-02 
914	 2.72819611100931E-02 
915	 0.027146109345085 
916	 2.70253241735637E-02 
917	 2.70234149201935E-02 
918	 2.69241380117984E-02 
919	 2.69885395194716E-02 
920	 2.80519903886812E-02 
921	 0.027811378512153 
922	 2.68469796011133E-02 
923	 2.60744108539169E-02 
924	 2.58974603858176E-02 
925	 2.52676798092112E-02 
926	 2.46431752839834E-02 
927	 2.46283801464749E-02 
928	 2.43591254726809E-02 
929	 2.35585639302223E-02 
930	 2.32365873958287E-02 
931	 2.48403448258414E-02 
932	 2.52848001789284E-02 
933	 2.32198255849235E-02 
934	 1.99210592120559E-02 
935	 1.81904555424478E-02 
936	 1.79288505036298E-02 
937	 1.96985625391731E-02 
938	 2.07310636028821E-02 
939	 1.91763088069546E-02 
940	 1.92041031437241E-02 
941	 0.018676752979773 
942	 1.90777639179387E-02 
943	 2.23464973058552E-02 
944	 0.021779911953134 
945	 2.01135618988004E-02 
946	 1.90797374131639E-02 
947	 1.92568195014769E-02 
948	 0.022146100028874 
949	 2.07398963505203E-02 
950	 0.01659844630179 
951	 1.61349862776063E-02 
952	 1.89972893835321E-02 
953	 2.23530528391461E-02 
954	 2.30217236415064E-02 
955	 1.94798351383997E-02 
956	 1.84892481528155E-02 
957	 2.06102713295084E-02 
958	 2.31249413579921E-02 
959	 2.25197554461198E-02 
960	 2.14996683762435E-02 
961	 2.04560249317412E-02 
962	 2.10324980439922E-02 
963	 2.44149281249049E-02 
964	 2.36314887290951E-02 
965	 2.37178779456292E-02 
966	 2.49041484161517E-02 
967	 2.40171523049935E-02 
968	 2.41574930669718E-02 
969	 2.43835638376941E-02 
970	 2.45322553088281E-02 
971	 2.51947021118133E-02 
972	 2.48020577789027E-02 
973	 2.52174602575084E-02 
974	 0.026280494608729 
975	 2.58448855483435E-02 
976	 2.53927877165817E-02 
977	 2.52882920695929E-02 
978	 2.57203854142826E-02 
979	 2.65532424182316E-02 
980	 2.58153313247062E-02 
981	 2.55536295934421E-02 
982	 2.63312801793471E-02 
983	 2.71377081375042E-02 
984	 2.73867563257243E-02 
985	 2.77417579075868E-02 
986	 2.82071104448125E-02 
987	 2.82158810205147E-02 
988	 2.77313549995305E-02 
989	 2.76017950359753E-02 
990	 2.80521346046599E-02 
991	 2.86290322089147E-02 
992	 2.84067219564456E-02 
993	 2.83841580597846E-02 
994	 2.86155584643515E-02 
995	 0.028523926875909 
996	 2.88077258161113E-02 
997	 2.84387650928247E-02 
998	 0.028524299800753 
999	 3.05691520208783E-02 
1000	 3.07806030138909E-02 
1001	 0.026687981714256 
1002	 2.67795571056383E-02 
1003	 2.67131980744152E-02 
1004	 2.67340363680615E-02 
1005	 2.66097504261405E-02 
1006	 2.62598489563166E-02 
1007	 2.58266258670674E-02 
1008	 2.57675545392643E-02 
1009	 2.58598928429277E-02 
1010	 2.61199281789335E-02 
1011	 2.63560130900203E-02 
1012	 0.026399011703294 
1013	 2.63773414327702E-02 
1014	 2.63315794647786E-02 
1015	 2.61868967406887E-02 
1016	 2.61200597875498E-02 
1017	 2.60744100124168E-02 
1018	 2.60162557818443E-02 
1019	 0.025912091345732 
1020	 0.025900034299793 
1021	 2.60509818342668E-02 
1022	 2.58818827801361E-02 
1023	 2.58400135925513E-02 
1024	 2.60638770032812E-02 
1025	 2.61612043178325E-02 
1026	 2.66121210676449E-02 
1027	 2.68858833444735E-02 
1028	 2.73836399599134E-02 
1029	 2.73760080891791E-02 
1030	 2.70301820518636E-02 
1031	 2.68622046307507E-02 
1032	 2.63561277887566E-02 
1033	 2.62817225388981E-02 
1034	 2.65670084104692E-02 
1035	 2.66436355220799E-02 
1036	 2.68723421241696E-02 
1037	 2.69545087399305E-02 
1038	 2.67837306002514E-02 
1039	 2.68494443412557E-02 
1040	 2.68906196324562E-02 
1041	 0.026579842309248 
1042	 2.66368337863464E-02 
1043	 2.67947942413418E-02 
1044	 2.68770213661071E-02 
1045	 2.71569137916691E-02 
1046	 2.72461593263037E-02 
1047	 2.72179064465196E-02 
1048	 2.71630028490489E-02 
1049	 2.70570565430949E-02 
1050	 2.69202377829702E-02 
1051	 0.026633285638133 
1052	 2.64534566095596E-02 
1053	 2.62201092425674E-02 
1054	 2.61595736852531E-02 
1055	 2.62703984107785E-02 
1056	 2.63361115760352E-02 
1057	 2.64417077612315E-02 
1058	 2.67371574890569E-02 
1059	 2.67449821637926E-02 
1060	 0.026628132738885 
1061	 2.65083781180673E-02 
1062	 0.026194797578722 
1063	 2.60779066198281E-02 
1064	 2.59856015596899E-02 
1065	 2.59764283720695E-02 
1066	 2.61121475759667E-02 
1067	 2.61810474694972E-02 
1068	 2.63812121292039E-02 
1069	 2.63926815836052E-02 
1070	 2.63313212636688E-02 
1071	 2.61994399428743E-02 
1072	 2.59804971821957E-02 
1073	 2.55135002669394E-02 
1074	 2.53970229600461E-02 
1075	 2.53902945956708E-02 
1076	 0.02526521503702 
1077	 2.52504387635048E-02 
1078	 2.52161687359112E-02 
1079	 0.024989788791869 
1080	 2.50001640433647E-02 
1081	 2.53193702311469E-02 
1082	 2.53491521327868E-02 
1083	 2.53285223977481E-02 
1084	 2.52583499925048E-02 
1085	 2.51286415813126E-02 
1086	 2.49071209743421E-02 
1087	 2.43178048156133E-02 
1088	 2.41094174523993E-02 
1089	 2.41978384672606E-02 
1090	 2.39770167598449E-02 
1091	 2.38768979713556E-02 
1092	 2.42554412806899E-02 
1093	 2.40755920411368E-02 
1094	 2.32184820032461E-02 
1095	 2.30345729138939E-02 
1096	 2.31338530625432E-02 
1097	 2.29367281241056E-02 
1098	 2.31333539455226E-02 
1099	 0.022896817000057 
1100	 2.16192891794448E-02 
1101	 0.021235468126627 
1102	 2.17219634409606E-02 
1103	 2.14912937156276E-02 
1104	 2.11218243182474E-02 
1105	 0.020935961027939 
1106	 2.10188446562095E-02 
1107	 2.04799074871062E-02 
1108	 2.01740023295182E-02 
1109	 2.08647284851886E-02 
1110	 2.06013378702578E-02 
1111	 1.87518864811142E-02 
1112	 1.82840036718949E-02 
1113	 1.89808011753126E-02 
1114	 1.86344918903605E-02 
1115	 1.82383939062908E-02 
1116	 1.77981697757831E-02 
1117	 1.55868882715516E-02 
1118	 1.44062693672594E-02 
1119	 1.53733332332121E-02 
1120	 1.50480509375036E-02 
1121	 1.43762714783218E-02 
1122	 1.42551235929435E-02 
1123	 1.03858915648636E-02 
1124	 1.02655943292433E-02 
1125	 1.35059061353978E-02 
1126	 1.14630169854883E-02 
1127	 0.010132299945467 
1128	 1.18565517130432E-02 
1129	 0.013093559324473 
1130	 1.47909426739388E-02 
1131	 0.014097357880617 
1132	 1.29285658628698E-02 
1133	 1.26704742863249E-02 
1134	 9.94202451577551E-03 
1135	 0.010144352649824 
1136	 1.41196152645238E-02 
1137	 1.47718697052777E-02 
1138	 1.38648770383834E-02 
1139	 1.43223237449211E-02 
1140	 1.44018814258705E-02 
1141	 1.46487094472046E-02 
1142	 1.75110259312014E-02 
1143	 1.76215617632529E-02 
1144	 1.52662098252061E-02 
1145	 1.37647221828226E-02 
1146	 1.25837085782052E-02 
1147	 1.35590372197081E-02 
1148	 1.55295856434741E-02 
1149	 1.54623259759711E-02 
1150	 1.56029793234668E-02 
1151	 0.013846598077291 
1152	 1.44655857634386E-02 
1153	 0.016592797604044 
1154	 1.73457554109918E-02 
1155	 1.80751083269474E-02 
1156	 1.81908968948362E-02 
1157	 1.78454954954815E-02 
1158	 1.79710167697771E-02 
1159	 1.88507645510303E-02 
1160	 1.95237079042461E-02 
1161	 1.94010061371772E-02 
1162	 0.019394162214455 
1163	 2.00106575955912E-02 
1164	 2.03726251933832E-02 
1165	 2.06374793233392E-02 
1166	 2.10163574003659E-02 
1167	 2.10430215323781E-02 
1168	 2.08003028944997E-02 
1169	 2.10976108848086E-02 
1170	 2.19275685582482E-02 
1171	 2.21953497840799E-02 
1172	 2.20253764509922E-02 
1173	 2.21434127285878E-02 
1174	 2.23521905257354E-02 
1175	 2.22206481852204E-02 
1176	 2.18988593393268E-02 
1177	 2.20055846175959E-02 
1178	 2.22467998330122E-02 
1179	 2.21607906439665E-02 
1180	 2.23088691222511E-02 
1181	 2.25095055882562E-02 
1182	 2.21519157212096E-02 
1183	 2.18960530309208E-02 
1184	 2.21422369035504E-02 
1185	 2.24975648004349E-02 
1186	 2.26353107423359E-02 
1187	 2.25503183060064E-02 
1188	 2.23761187600224E-02 
1189	 2.22791692175368E-02 
1190	 2.24513578061347E-02 
1191	 2.25406976021849E-02 
1192	 0.02261833365915 
1193	 2.26789257107215E-02 
1194	 2.28868053387067E-02 
1195	 2.29311853689434E-02 
1196	 2.29501226671086E-02 
1197	 2.31121799529394E-02 
1198	 2.28852798381888E-02 
1199	 2.25256439436281E-02 
1200	 2.27198584050947E-02 
1201	 2.29900210033877E-02 
1202	 2.28828767558367E-02 
1203	 2.29691688147175E-02 
1204	 2.31956343707336E-02 
1205	 2.30205067808427E-02 
1206	 2.28697189726098E-02 
1207	 2.30787977047643E-02 
1208	 0.023376069686745 
1209	 2.33995191615493E-02 
1210	 0.023345138923321 
1211	 2.35551627443253E-02 
1212	 2.35078759520835E-02 
1213	 2.32116456536515E-02 
1214	 2.31266767478431E-02 
1215	 2.32779600036904E-02 
1216	 2.34223059367832E-02 
1217	 2.34707266327189E-02 
1218	 2.36298175749232E-02 
1219	 2.40351413590641E-02 
1220	 2.40927574539191E-02 
1221	 2.38594996118222E-02 
1222	 2.40462305991158E-02 
1223	 2.43031952721774E-02 
1224	 2.43908488699703E-02 
1225	 0.024453993364846 
1226	 2.44224364185133E-02 
1227	 2.44236764639615E-02 
1228	 2.44765641564846E-02 
1229	 2.44957840710078E-02 
1230	 2.45497046460002E-02 
1231	 2.47502153172357E-02 
1232	 0.024826611826446 
1233	 2.46590002096748E-02 
1234	 2.46374991598088E-02 
1235	 2.47100375171815E-02 
1236	 2.46775517556326E-02 
1237	 2.46966256946575E-02 
1238	 2.49060673964038E-02 
1239	 2.51408876387566E-02 
1240	 2.51398582607998E-02 
1241	 2.50251474029523E-02 
1242	 0.024921445934016 
1243	 2.48824045522906E-02 
1244	 2.47936193671528E-02 
1245	 2.47572054760962E-02 
1246	 2.49615999348481E-02 
1247	 2.49760562456336E-02 
1248	 2.46562967881955E-02 
1249	 2.45552805425353E-02 
1250	 2.46375039372784E-02 
1251	 2.45056623221965E-02 
1252	 2.45893253720023E-02 
1253	 0.024769563822345 
1254	 2.45364068462922E-02 
1255	 2.44597536041742E-02 
1256	 0.024436409380897 
1257	 0.024475854432478 
1258	 2.43654112235169E-02 
1259	 2.42572572209358E-02 
1260	 2.41025872077605E-02 
1261	 0.023761808555902 
1262	 2.36648057250768E-02 
1263	 2.36922956955009E-02 
1264	 0.023722442730126 
1265	 2.37354815965025E-02 
1266	 2.37664988688132E-02 
1267	 2.37382243630442E-02 
1268	 2.35667265859896E-02 
1269	 2.35628609570509E-02 
1270	 2.36813316845053E-02 
1271	 2.36981245132267E-02 
1272	 2.37088842166876E-02 
1273	 2.37668985096132E-02 
1274	 2.38392891436008E-02 
1275	 0.023835128004061 
1276	 0.023906039676538 
1277	 2.39322464336707E-02 
1278	 2.38170886134269E-02 
1279	 2.37730264652042E-02 
1280	 2.38274026019595E-02 
1281	 2.38050273125078E-02 
1282	 2.37651761399113E-02 
1283	 2.37169974551248E-02 
1284	 2.36188368607899E-02 
1285	 0.023590719600009 
1286	 2.37456372090345E-02 
1287	 2.36829353862394E-02 
1288	 2.33216841509191E-02 
1289	 2.32518941681582E-02 
1290	 2.32448345900296E-02 
1291	 2.32623704537915E-02 
1292	 2.32407499697856E-02 
1293	 2.32253223545778E-02 
1294	 2.30885535495218E-02 
1295	 2.29023415787562E-02 
1296	 2.28670199570414E-02 
1297	 2.27657606271202E-02 
1298	 2.25603195226253E-02 
1299	 2.22121589758497E-02 
1300	 2.18988445031245E-02 
1301	 0.021968834449578 
1302	 0.021889655729771 
1303	 2.17609381041946E-02 
1304	 2.16308877028826E-02 
1305	 2.11692087763857E-02 
1306	 0.021000405412738 
1307	 2.09832959791455E-02 
1308	 2.07667580240019E-02 
1309	 2.05422041012729E-02 
1310	 2.05028620795892E-02 
1311	 2.04615046135123E-02 
1312	 2.02038107779316E-02 
1313	 2.01571983242424E-02 
1314	 1.99820907371829E-02 
1315	 1.91956715872217E-02 
1316	 1.87990159889033E-02 
1317	 0.018810584182749 
1318	 1.87154373202221E-02 
1319	 1.86957795541877E-02 
1320	 0.018620867283949 
1321	 1.87407047304653E-02 
1322	 1.82832189233178E-02 
1323	 1.78872235774194E-02 
1324	 1.79642538306792E-02 
1325	 1.79321948568126E-02 
1326	 0.017772085871794 
1327	 1.73792851755437E-02 
1328	 1.67976324961277E-02 
1329	 1.66465550126831E-02 
1330	 1.64792765331037E-02 
1331	 1.58187872554085E-02 
1332	 1.52501924738326E-02 
1333	 1.51170721107108E-02 
1334	 1.47754056692589E-02 
1335	 1.46426170587714E-02 
1336	 1.55134861676017E-02 
1337	 1.55288595586464E-02 
1338	 1.45518608597151E-02 
1339	 1.44176660663106E-02 
1340	 1.46757670618352E-02 
1341	 1.44756755583603E-02 
1342	 1.46658646303548E-02 
1343	 1.44626262186816E-02 
1344	 0.013030952180419 
1345	 1.25081996906411E-02 
1346	 1.26553461146512E-02 
1347	 1.21454017186683E-02 
1348	 1.15282246688004E-02 
1349	 1.15451736303461E-02 
1350	 1.38022734261052E-02 
1351	 1.27740580871839E-02 
1352	 4.21646532964933E-03 
1353	-1.00881946126027E-03 
1354	-0.016848267674416 
1355	-1.34423796583112E-02 
1356	-2.30114363259627E-02 
1357	-3.52784371811616E-02 
1358	-4.65860236246214E-02 
1359	-0.120732243248872 
1360	-8.58105081088653E-02 
1361	-7.90370126653225E-02 
1362	-0.157793823121433 
1363	-5.89262918759438E-02 
1364	 3.81845639247577E-02 
1365	-8.55478958298059E-04 
1366	-0.148913346660147 
1367	-0.240331837587998 
1368	-0.264348305839253 
1369	-0.373208726942095 
1370	-0.42661863177149 
1371	-0.118430048476242 
1372	-4.99545903814895E-02 
1373	-0.171593638303718 
1374	-0.189448877707026 
1375	 6.71457632900746E-02 
1376	 0.057561730239228 
1377	-0.395956339288926 
1378	-0.312985528861463 
1379	-9.06205129550989E-02 
1380	-9.35500278339982E-02 
1381	 2.58761717086584E-02 
1382	-5.69710731934074E-03 
1383	-0.416255697738493 
1384	-0.461830061858364 
1385	 3.06550083881999E-02 
1386	 6.21365989779511E-02 
1387	 6.57507990731657E-02 
1388	 0.134763130514996 
1389	-1.46502206905723E-02 
1390	-0.149582042151339 
1391	-0.166964445458564 
1392	 9.00581551237491E-02 
1393	 0.111675922773659 
1394	-0.173633135494981 
1395	-7.70723547308592E-02 
1396	-6.46332921163954E-02 
1397	 0.195676046579092 
1398	 0.201867616519203 
1399	-5.52972537960769E-02 
1400	-1.11150599646614E-02 
1401	 0.435127882062532 
1402	 0.455065827474284 
1403	-9.44939230804097E-02 
1404	 8.09946982818164E-02 
1405	 0.166489062347434 
1406	-0.116829030506749 
1407	-0.170697424246188 
1408	 0.146593033544142 
1409	 0.24772383045146 
1410	 0.131441194078584 
1411	 8.22052220411207E-02 
1412	 0.147316989061715 
1413	 0.156830575887706 
1414	 7.47257690419806E-02 
1415	 4.33213172104527E-02 
1416	 6.86210755871014E-02 
1417	 6.20650886934851E-02 
1418	 3.15820715430928E-02 
1419	 0.020780229451017 
1420	 2.54690805781861E-02 
1421	 1.48368195410388E-02 
1422	-1.45864760584526E-02 
1423	-1.54152526204753E-02 
1424	 2.07808797425808E-03 
1425	-5.53380917449998E-04 
1426	-1.39922982939115E-02 
1427	-7.57918929989596E-03 
1428	 8.58542149930034E-03 
1429	 6.91605809111225E-03 
1430	 5.4475291482103E-03 
1431	 8.25474310729107E-03 
1432	-1.83654604206033E-03 
1433	-3.43767360953244E-03 
1434	 0.01409340459557 
1435	 1.38891729092229E-02 
1436	-9.25952359437365E-03 
1437	-6.20892487843474E-03 
1438	 5.1641892345841E-03 
1439	 4.27416840195484E-03 
1440	 6.42512036707276E-03 
1441	 1.30222657380486E-02 
1442	 1.84757465758122E-02 
1443	 1.71279534502397E-02 
1444	 1.44512870767294E-02 
1445	 1.46160756556022E-02 
1446	 9.98268698003016E-03 
1447	 5.71344058834367E-03 
1448	 6.37937275007323E-03 
1449	 9.76573134628215E-03 
1450	 1.14294331708383E-02 
1451	 1.02045679612775E-02 
1452	 1.27432993823313E-02 
1453	 1.45380321313118E-02 
1454	 1.38684453666592E-02 
1455	 1.15271753136751E-02 
1456	 1.18499371575951E-02 
1457	 1.23927616626542E-02 
1458	 1.16624408290846E-02 
1459	 1.12607615940179E-02 
1460	 1.13085040449381E-02 
1461	 1.03788184383092E-02 
1462	 9.88454110012202E-03 
1463	 1.04351428789038E-02 
1464	 1.06540255376313E-02 
1465	 9.89323758739219E-03 
1466	 1.05837080585434E-02 
1467	 1.38853957100996E-02 
1468	 1.38776107597014E-02 
1469	 1.14452942348911E-02 
1470	 0.010737103769563 
1471	 9.25200345201393E-03 
1472	 8.72315024889981E-03 
1473	 9.67611557158793E-03 
1474	 0.010896401194304 
1475	 1.21712641564629E-02 
1476	 1.22103179598882E-02 
1477	 1.22936462565144E-02 
1478	 1.30151770920898E-02 
1479	 1.33537259291134E-02 
1480	 0.013324236509526 
1481	 1.33756777954746E-02 
1482	 1.40056666858435E-02 
1483	 1.45769448294692E-02 
1484	 0.01461446602585 
1485	 1.51341661506554E-02 
1486	 1.55106066277508E-02 
1487	 0.015047894495154 
1488	 1.49644313999761E-02 
1489	 0.015011117872175 
1490	 1.55529674755666E-02 
1491	 1.66434801613952E-02 
1492	 1.68370998896766E-02 
1493	 1.68044107064608E-02 
1494	 1.70357653613732E-02 
1495	 1.68329712302796E-02 
1496	 0.016808941931422 
1497	 0.017070705106518 
1498	 1.75632899390365E-02 
1499	 1.82457366233524E-02 
1500	 1.85201113445555E-02 
1501	 1.87749583485175E-02 
1502	 1.91005899230305E-02 
1503	 0.019318639094354 
1504	 1.93684642852751E-02 
1505	 1.95621636508716E-02 
1506	 1.95133680900063E-02 
1507	 1.93574458911668E-02 
1508	 1.94934322087601E-02 
1509	 1.97360061721878E-02 
1510	 2.00206919087649E-02 
1511	 2.01802398972603E-02 
1512	 2.01426196514305E-02 
1513	 2.01588202012843E-02 
1514	 2.02525039860687E-02 
1515	 2.02403528613929E-02 
1516	 2.02402983239367E-02 
1517	 2.04405282705232E-02 
1518	 2.04875507038627E-02 
1519	 2.05579218365599E-02 
1520	 2.07564534490183E-02 
1521	 2.08160807428519E-02 
1522	 2.10099007010786E-02 
1523	 2.12653575453553E-02 
1524	 2.13972822052518E-02 
1525	 2.14417539145266E-02 
1526	 2.15334591187327E-02 
1527	 2.16681212747637E-02 
1528	 2.14755022028502E-02 
1529	 2.12677105188181E-02 
1530	 2.14884118098084E-02 
1531	 2.18426203502811E-02 
1532	 2.20864567132998E-02 
1533	 2.21684896302235E-02 
1534	 2.21071628274955E-02 
1535	 2.20187539198701E-02 
1536	 2.20425148913871E-02 
1537	 2.21667290039602E-02 
1538	 2.21611565037682E-02 
1539	 2.21017795430942E-02 
1540	 2.20989160700585E-02 
1541	 2.20859175996712E-02 
1542	 2.22387911990075E-02 
1543	 2.24263704719219E-02 
1544	 0.022330793774587 
1545	 2.23235731122366E-02 
1546	 2.25347633680191E-02 
1547	 2.25430092832741E-02 
1548	 2.25052125436374E-02 
1549	 2.24784781292019E-02 
1550	 2.23990244864685E-02 
1551	 2.24734156921239E-02 
1552	 2.24998448346408E-02 
1553	 2.24727697328747E-02 
1554	 2.24905671568741E-02 
1555	 2.24961810607265E-02 
1556	 2.25335926006584E-02 
1557	 2.25236268943495E-02 
1558	 2.25351386535751E-02 
1559	 2.25180411405722E-02 
1560	 2.24979659713272E-02 
1561	 2.26029076546958E-02 
1562	 2.26599191990859E-02 
1563	 2.26416738486701E-02 
1564	 2.25505269395747E-02 
1565	 0.022539114101514 
1566	 2.26602584234041E-02 
1567	 2.26826729625247E-02 
1568	 2.26342147424475E-02 
1569	 2.25279980528469E-02 
1570	 2.23912527950133E-02 
1571	 2.22680405180444E-02 
1572	 0.022178396967619 
1573	 2.22498631354733E-02 
1574	 2.23035903527713E-02 
1575	 2.22634857496394E-02 
1576	 0.022345359771746 
1577	 2.24855457298031E-02 
1578	 2.25774637108702E-02 
1579	 2.25554422788186E-02 
1580	 2.24002404587354E-02 
1581	 2.24101407068998E-02 
1582	 2.25834567160093E-02 
1583	 2.26580745600018E-02 
1584	 2.27848085847889E-02 
1585	 2.29459210151307E-02 
1586	 2.28960722556214E-02 
1587	 2.27759836371666E-02 
1588	 2.28013930500174E-02 
1589	 2.28536825879431E-02 
1590	 2.27273524337112E-02 
1591	 2.26144116430696E-02 
1592	 0.022718571687981 
1593	 2.28141400163295E-02 
1594	 2.27317931642725E-02 
1595	 2.27562306603132E-02 
1596	 2.29865936766914E-02 
1597	 2.29826756525882E-02 
1598	 2.28395535491889E-02 
1599	 2.27770180287991E-02 
1600	 0.02267771711642 
1601	 2.26518019374674E-02 
1602	 0.022601230138708 
1603	 2.26086386170905E-02 
1604	 2.28260821124551E-02 
1605	 2.27336241426011E-02 
1606	 2.24374893858096E-02 
1607	 2.26800994853794E-02 
1608	 2.28631343403871E-02 
1609	 2.25773953173075E-02 
1610	 2.25741684466414E-02 
1611	 2.27030642520391E-02 
1612	 2.26219836431056E-02 
1613	 2.26139127511437E-02 
1614	 2.28181612573699E-02 
1615	 2.30397193283384E-02 
1616	 2.29596553798354E-02 
1617	 2.28292104802363E-02 
1618	 2.29653593948475E-02 
1619	 2.30068172847438E-02 
1620	 2.29021252905217E-02 
1621	 2.30065492545262E-02 
1622	 0.023133089526839 
1623	 2.30183707622016E-02 
1624	 2.28989475458628E-02 
1625	 2.28114609620796E-02 
1626	 2.27352844136906E-02 
1627	 2.28229182850948E-02 
1628	 2.29526966569996E-02 
1629	 2.30724890227479E-02 
1630	 0.023205143483391 
1631	 2.31013656941714E-02 
1632	 2.27709283669202E-02 
1633	 2.27600562917871E-02 
1634	 2.29802008433313E-02 
1635	 2.29567275875819E-02 
1636	 2.28643206338362E-02 
1637	 2.28952885910118E-02 
1638	 2.28490787701611E-02 
1639	 2.28179878062151E-02 
1640	 2.28503054005375E-02 
1641	 2.25841697347739E-02 
1642	 2.24959183342005E-02 
1643	 2.28027466405025E-02 
1644	 2.29687905019488E-02 
1645	 0.022991347049075 
1646	 2.28716847867168E-02 
1647	 2.26911975099762E-02 
1648	 2.27013953457162E-02 
1649	 2.28906239156904E-02 
1650	 2.27861897334774E-02 
1651	 2.24101580340582E-02 
1652	 2.24751009161359E-02 
1653	 2.27336189226254E-02 
1654	 2.27793316093936E-02 
1655	 2.29615079778068E-02 
1656	 2.30781670524029E-02 
1657	 2.29389351348062E-02 
1658	 2.29545970594375E-02 
1659	 2.32922159693114E-02 
1660	 2.33155880928358E-02 
1661	 2.30532005078243E-02 
1662	 2.29821744623055E-02 
1663	 0.023016529631536 
1664	 2.29150956730479E-02 
1665	 2.25782874801459E-02 
1666	 2.25095175631049E-02 
1667	 2.25985291809733E-02 
1668	 2.25956345086347E-02 
1669	 2.27230319173434E-02 
1670	 2.29324835942012E-02 
1671	 2.30221764334344E-02 
1672	 2.29936602891301E-02 
1673	 2.29490586718236E-02 
1674	 2.32038656296001E-02 
1675	 2.33504692713392E-02 
1676	 2.31829681397191E-02 
1677	 2.30773263056322E-02 
1678	 2.28563473664736E-02 
1679	 2.26979883821273E-02 
1680	 2.26270299378364E-02 
1681	 2.27301655244177E-02 
1682	 2.29829702487725E-02 
1683	 2.27072730151382E-02 
1684	 2.24067788329902E-02 
1685	 0.022524190891616 
1686	 2.25206931283265E-02 
1687	 2.24520307233528E-02 
1688	 2.27076948951086E-02 
1689	 2.27791549020686E-02 
1690	 2.24057098881501E-02 
1691	 2.23865296278269E-02 
1692	 2.24637816941894E-02 
1693	 0.022285491853676 
1694	 2.22660588294764E-02 
1695	 2.21235154658524E-02 
1696	 2.18677395067691E-02 
1697	 2.18737879991333E-02 
1698	 2.20506559293599E-02 
1699	 2.21951534356762E-02 
1700	 0.022350176573563 
1701	 2.25255578891278E-02 
1702	 2.24984468582927E-02 
1703	 2.24430734546488E-02 
1704	 2.25261260767011E-02 
1705	 2.24455920478025E-02 
1706	 2.23915750928535E-02 
1707	 2.24616699672802E-02 
1708	 2.20653304389373E-02 
1709	 2.17173816617659E-02 
1710	 2.19808660931831E-02 
1711	 2.19995022320416E-02 
1712	 2.19210949181123E-02 
1713	 2.18214807761222E-02 
1714	 2.18151712038034E-02 
1715	 2.20519315041165E-02 
1716	 2.16094371058761E-02 
1717	 0.021697148284 
1718	 2.20759910635017E-02 
1719	 2.16370115997463E-02 
1720	 2.13825437402424E-02 
1721	 2.17044390080456E-02 
1722	 2.18542263229496E-02 
1723	 2.20213598404004E-02 
1724	 2.18821358513261E-02 
1725	 2.14776679783621E-02 
1726	 2.13549375592633E-02 
1727	 2.10736424062299E-02 
1728	 2.11058552050027E-02 
1729	 2.14949795551596E-02 
1730	 2.11915415139239E-02 
1731	 2.08140435652795E-02 
1732	 0.021224614131185 
1733	 2.14403421622713E-02 
1734	 2.09251573087524E-02 
1735	 2.06606906554496E-02 
1736	 0.020600610544306 
1737	 2.04078708950258E-02 
1738	 2.06927854882701E-02 
1739	 2.10427893014711E-02 
1740	 2.08043829961102E-02 
1741	 2.07076748302109E-02 
1742	 2.09061429148403E-02 
1743	 2.05611904698727E-02 
1744	 2.04905954868729E-02 
1745	 2.06104899071476E-02 
1746	 2.00136620609715E-02 
1747	 1.97316997070547E-02 
1748	 1.94620644093015E-02 
1749	 1.94066365141987E-02 
1750	 1.94245431672512E-02 
1751	 1.94228117174158E-02 
1752	 1.97092184134386E-02 
1753	 1.99666362616124E-02 
1754	 2.04437286531593E-02 
1755	 2.03871207331229E-02 
1756	 2.00216172721707E-02 
1757	 1.95528561929945E-02 
1758	 1.89487364821609E-02 
1759	 1.89829712523459E-02 
1760	 1.91344722832362E-02 
1761	 0.019290392517109 
1762	 1.97137422086728E-02 
1763	 0.018747760751651 
1764	 1.82033487794761E-02 
1765	 0.018366824419767 
1766	 0.017165222514849 
1767	 1.78755267661119E-02 
1768	 1.92350047160773E-02 
1769	 1.83521384786886E-02 
1770	 1.85409697153696E-02 
1771	 1.86114861763193E-02 
1772	 1.72089462200043E-02 
1773	 1.71733762183334E-02 
1774	 0.017438690705428 
1775	 1.78821845734902E-02 
1776	 0.017652319893808 
1777	 0.0165579510503 
1778	 1.62785306026209E-02 
1779	 1.55140575448618E-02 
1780	 0.015145747400847 
1781	 1.66894647432183E-02 
1782	 1.66746097356837E-02 
1783	 1.53179965883119E-02 
1784	 1.49874004521175E-02 
1785	 1.41898674195095E-02 
1786	 1.41537692445835E-02 
1787	 1.56317614390004E-02 
1788	 1.51174882757437E-02 
1789	 1.37662294273906E-02 
1790	 1.15412939404192E-02 
1791	 1.11036716403992E-02 
1792	 1.28632234200605E-02 
1793	 1.32113173662333E-02 
1794	 1.35209443035007E-02 
1795	 1.06085823551445E-02 
1796	 9.75125618240473E-03 
1797	 1.24130202884221E-02 
1798	 8.01285551775238E-03 
1799	 6.33698729540092E-03 
1800	-2.8172018647423E-04 
1801	-2.50336587214882E-03 
1802	 1.69538166257601E-02 
1803	 2.73997213066729E-02 
1804	 3.32451661887344E-02 
1805	 3.77366834558164E-02 
1806	 2.93147393662992E-02 
1807	 0.023368864833405 
1808	-2.04459849642995E-03 
1809	-1.78255405871135E-02 
1810	-3.40627100860076E-02 
1811	-3.48205674620718E-02 
1812	 0.030885588775208 
1813	 0.104192397376312 
1814	 0.330666518261663 
1815	 0.286302401254813 
1816	-0.144811664509247 
1817	-0.340388999209107 
1818	-0.622278771761939 
1819	-0.486386428879053 
1820	-8.38166641016168E-02 
1821	-0.166601169173662 
1822	-0.142757305616678 
1823	-0.191796499009906 
1824	-0.275110937570819 
1825	-0.300891753752734 
1826	-0.237128526838825 
1827	-0.139875083761314 
1828	-0.108682119168797 
1829	-5.34574192745831E-02 
1830	-1.22855681240606E-02 
1831	 2.34784420954601 
1832	-36.550103565563 
1833	-1.03179884284762 
1834	-0.774503724677877 
1835	-0.750832554484282 
1836	-1.99546081798632 
1837	 0.929398866441191 
1838	 0.815231250643851 
1839	 0.682918078494003 
1840	 0.831795659127998 
1841	 0.989274381805096 
1842	 1.95193169921887 
1843	 1.46865502438456 
1844	 9.23357428874822E-02 
1845	-8.41154475184743E-02 
1846	-1.92986636107585E-03 
1847	-1.46460242833141E-02 
1848	-5.72550432529706E-02 
1849	 0.124507239564959 
1850	-0.39658744687708 
1851	-0.819189472201399 
1852	-3.33367547160752E-02 
1853	 5.27256365450888E-02 
1854	 0.113715477921436 
1855	 0.669402033454119 
1856	 1.20235526817792 
1857	-6.4929191063134 
1858	-2.80606106547519 
1859	 1.73711703307348 
1860	 0.268961661991539 
1861	-1.29504395673889 
1862	-1.3205220503998 
1863	-0.990392720782761 
1864	-12.5591459528574 
1865	 1.22920891175213 
1866	 2.07993433989309 
1867	 1.55623994751375 
1868	 0.295209642816376 
1869	 3.26394762340675 
1870	 1.48130361824701 
1871	 4.4649953733605 
1872	-1.67442586305965 
1873	-10.9504577371138 
1874	 0.304001250149728 
1875	 0.22705070813243 
1876	-2.33695808660308E-02 
1877	 0.464441574986905 
1878	 0.602984846503167 
1879	 2.49200459576573 
1880	 1.45134755147858 
1881	 1.22273017682252 
1882	 0.461711764373737 
1883	 0.852555699178531 
1884	 1.33784878248466 
1885	 0.415384431296716 
1886	-7.53308761608103E-02 
1887	 1.8318737280147 
1888	 1.13959532668566 
1889	 1.29602747689742 
1890	 1.42869754325079 
1891	 1.20072963019656 
1892	 1.86900507290952 
1893	 1.70494256464651 
1894	 1.21259387692078 
1895	 0.888969503181592 
1896	 1.40809958246164 
1897	 22.850196899889 
1898	-2.25329676399223 
1899	-6.5989109410647 
1900	-2.82763331403471 
1901	-0.656298528774112 
1902	-0.505186002604934 
1903	-0.128098816058517 
1904	-0.185371776330875 
1905	-0.75496911549456 
1906	-0.803243136362333 
1907	-0.936112978628836 
1908	-0.86676157542827 
1909	 1.09969363424456E-02 
1910	 4.64070800757023 
1911	 0.215905298032845 
1912	 0.351104157933056 
1913	 0.394730581026766 
1914	-0.281724495439914 
1915	 4.53178648297556E-02 
1916	 0.577578012456577 
1917	 0.586510071309161 
1918	 0.477165033557353 
1919	 0.751408671845826 
1920	 0.660189883413908 
1921	 0.688379408861615 
1922	 0.868426937438945 
1923	 0.556749082984603 
1924	 0.316453978026986 
1925	 0.234719962030785 
1926	 2.49636074987843E-02 
1927	-3.0502452186264 
1928	 0.697620008256181 
1929	-0.10899694039904 
1930	-0.331003586164443 
1931	 0.325181667103499 
1932	 0.470756277791773 
1933	-0.106933784072448 
1934	 0.262900918908848 
1935	 0.139848305894002 
1936	-0.2586488789947 
1937	-0.137797296310429 
1938	-0.176859199798528 
1939	-0.15891751152576 
1940	-0.150167954453409 
1941	-6.05546382888714E-02 
1942	-2.96386657421279E-02 
1943	 2.65591852232453E-02 
1944	 8.51180686562753E-02 
1945	 7.30005272321503E-02 
1946	 9.86301488751583E-02 
1947	 0.128541948824706 
1948	 0.099228518039929 
1949	 6.52425386839895E-02 
1950	 5.06475181061533E-02 
1951	 2.67570857508857E-02 
1952	 2.82266642527539E-03 
1953	-0.015907433836506 
1954	-2.15449054052728E-02 
1955	-2.30920470399758E-02 
1956	-9.15181981741313E-03 
1957	-2.60733636427903E-03 
1958	 4.06829905319649E-03 
1959	 1.92571960723807E-03 
1960	-7.19820615061832E-03 
1961	 6.00374934390632E-04 
1962	 1.26099106883346E-02 
1963	 1.82483543491371E-02 
1964	 1.95699972852358E-02 
1965	 1.60350229952405E-02 
1966	 1.45448479286939E-02 
1967	 1.08403067977127E-02 
1968	 1.22235565149393E-02 
1969	 0.014222900868076 
1970	 1.45769598354024E-02 
1971	 1.54804635791764E-02 
1972	 1.51929007137847E-02 
1973	 1.31277736104003E-02 
1974	 1.21189307051872E-02 
1975	 1.20139058341577E-02 
1976	 1.19321680247059E-02 
1977	 1.24246787611079E-02 
1978	 1.27290125975992E-02 
1979	 1.29069991416365E-02 
1980	 1.26933452063684E-02 
1981	 1.23944397393898E-02 
1982	 1.29891151568255E-02 
1983	 0.013781526839809 
1984	 1.41876331238851E-02 
1985	 1.48995878201374E-02 
1986	 0.014331337918058 
1987	 1.40784733673603E-02 
1988	 1.51164243188929E-02 
1989	 1.50014359176454E-02 
1990	 1.49151809733721E-02 
1991	 1.53849996748617E-02 
1992	 1.53174566813726E-02 
1993	 1.47249898307793E-02 
1994	 1.39874609062615E-02 
1995	 1.29307228872651E-02 
1996	 1.22251100637954E-02 
1997	 1.30391701982702E-02 
1998	 1.39410809789176E-02 
1999	 1.36932878932868E-02 
2000	 1.43523565845605E-02 
2001	 1.38588242255781E-02 
2002	 1.10654580938161E-02 
2003	 0.013030335103158 
2004	 1.76619870067561E-02 
2005	 1.68121122079916E-02 
2006	 1.54893344575016E-02 
2007	 1.62212439765894E-02 
2008	 1.40148250803734E-02 
2009	 0.012646071779439 
2010	 1.18205718106574E-02 
2011	 0.012361264801973 
2012	 1.41385202129502E-02 
2013	 1.36791043415905E-02 
2014	 1.13829801899103E-02 
2015	 0.010441559866755 
2016	 9.1860868696017E-03 
2017	 8.69494516869036E-03 
2018	 1.11818322821931E-02 
2019	 1.20832995298251E-02 
2020	 1.20045967130158E-02 
2021	 0.012958093367579 
2022	 0.013346720507928 
2023	 1.43767351145106E-02 
2024	 1.51376483377338E-02 
2025	 1.57196626238912E-02 
2026	 1.58444631259633E-02 
2027	 0.015697848560103 
2028	 1.62890936187229E-02 
2029	 1.61935876731863E-02 
2030	 1.64827778064467E-02 
2031	 1.78868614484718E-02 
2032	 1.86545527032275E-02 
2033	 1.85598571605282E-02 
2034	 1.80453282838725E-02 
2035	 1.72025092627503E-02 
2036	 1.58530870662257E-02 
2037	 1.49819679143102E-02 
2038	 1.55132649910613E-02 
2039	 1.58004166549545E-02 
2040	 1.63459187629117E-02 
2041	 1.68312411509708E-02 
2042	 1.77219320069618E-02 
2043	 1.80404240969523E-02 
2044	 0.018067248766731 
2045	 1.80361364205745E-02 
2046	 1.85987907106165E-02 
2047	 1.86946871333272E-02 
2048	 1.77184062637393E-02 
2049	 1.68551536599641E-02 
2050	 1.64446548372973E-02 
2051	 1.63060614294202E-02 
2052	 1.68745342323431E-02 
2053	 1.76223155963387E-02 
2054	 1.69248606459211E-02 
2055	 1.54350394124679E-02 
2056	 1.51263194097068E-02 
2057	 1.58223465114335E-02 
2058	 1.60678675328716E-02 
2059	 1.66032516860985E-02 
2060	 1.70103546684434E-02 
2061	 1.74264120249244E-02 
2062	 1.73621913282544E-02 
2063	 0.01650871977964 
2064	 1.58995117289958E-02 
2065	 1.53135230581667E-02 
2066	 1.49731210608162E-02 
2067	 1.59220828678627E-02 
2068	 1.71005046735954E-02 
2069	 1.69457682622025E-02 
2070	 1.58193427056746E-02 
2071	 1.54792187693416E-02 
2072	 1.62822702349281E-02 
2073	 1.68008760845046E-02 
2074	 1.84054812094932E-02 
2075	 0.018890466302893 
2076	 1.85906954794232E-02 
2077	 1.84452239736531E-02 
2078	 1.81275662842108E-02 
2079	 1.79722219511245E-02 
2080	 1.79905066034398E-02 
2081	 1.75577103380721E-02 
2082	 1.71740395460884E-02 
2083	 1.72491445391543E-02 
2084	 1.68361823868547E-02 
2085	 1.67629046218771E-02 
2086	 1.70908131764085E-02 
2087	 1.73102079679893E-02 
2088	 1.86673665433532E-02 
2089	 1.99917527470046E-02 
2090	 2.02884104840325E-02 
2091	 2.07393349748345E-02 
2092	 2.06111681657641E-02 
2093	 1.90320762313369E-02 
2094	 1.84246588953938E-02 
2095	 1.80802860634793E-02 
2096	 1.79780127106766E-02 
2097	 0.018253331643777 
2098	 1.85910161015798E-02 
2099	 1.95600861187379E-02 
2100	 1.97089195313428E-02 
2101	 1.87973572481328E-02 
2102	 1.83445769379497E-02 
2103	 1.80166170386636E-02 
2104	 1.77234677690265E-02 
2105	 1.79286879365603E-02 
2106	 1.82038402010712E-02 
2107	 1.90449733789594E-02 
2108	 1.89473935354953E-02 
2109	 0.018472177912945 
2110	 1.89680353083685E-02 
2111	 1.97701901924507E-02 
2112	 2.03650214444383E-02 
2113	 0.019858629066365 
2114	 1.82870287163857E-02 
2115	 1.84678579704751E-02 
2116	 1.86759417185805E-02 
2117	 0.018536839868762 
2118	 2.01662408590965E-02 
2119	 2.07131482595238E-02 
2120	 2.00324909323568E-02 
2121	 1.86470542902056E-02 
2122	 1.84278539033432E-02 
2123	 1.88589197077803E-02 
2124	 1.85628496475809E-02 
2125	 0.01840243747426 
2126	 1.88977547343364E-02 
2127	 1.90568866200831E-02 
2128	 1.93380977309352E-02 
2129	 1.97848998283379E-02 
2130	 1.95983919030206E-02 
2131	 1.91719635577342E-02 
2132	 1.89098560970911E-02 
2133	 1.85718551682071E-02 
2134	 1.84283052387822E-02 
2135	 0.018708456479007 
2136	 1.86772414814258E-02 
2137	 1.83738354011047E-02 
2138	 0.018506153620074 
2139	 1.89244999168234E-02 
2140	 1.91208225741013E-02 
2141	 1.94508974472902E-02 
2142	 1.95273290114765E-02 
2143	 0.019329180390968 
2144	 1.90907065996772E-02 
2145	 1.88446825710265E-02 
2146	 1.90743618783041E-02 
2147	 1.88840464772031E-02 
2148	 1.85101803889596E-02 
2149	 1.84978040729672E-02 
2150	 0.01883074986111 
2151	 0.019093659402997 
2152	 1.92530458704931E-02 
2153	 1.98084267933217E-02 
2154	 1.96215337078559E-02 
2155	 1.91835627470868E-02 
2156	 1.92009713186133E-02 
2157	 1.91910400784968E-02 
2158	 1.92148401853239E-02 
2159	 1.90615434872032E-02 
2160	 1.89824081660648E-02 
2161	 1.89168325760433E-02 
2162	 1.81850418307212E-02 
2163	 1.79314340193797E-02 
2164	 1.87161502759983E-02 
2165	 1.84520200893711E-02 
2166	 1.72173770048076E-02 
2167	 1.71699961775378E-02 
2168	 1.74001814941867E-02 
2169	 1.70459025938381E-02 
2170	 1.63099802373405E-02 
2171	 1.76475199664232E-02 
2172	 0.018287666610446 
2173	 1.86837555686508E-02 
2174	 2.04006965463115E-02 
2175	 2.04945473077016E-02 
2176	 1.89222777693761E-02 
2177	 0.017636596735994 
2178	 1.69551904626152E-02 
2179	 1.62336125690869E-02 
2180	 1.60300539039887E-02 
2181	 1.67846122714184E-02 
2182	 1.70150998397629E-02 
2183	 1.65401325139042E-02 
2184	 1.59296295245376E-02 
2185	 1.54258006343807E-02 
2186	 1.50583978984281E-02 
2187	 0.014253689536951 
2188	 1.45539206588535E-02 
2189	 0.015978638998557 
2190	 1.65967174656673E-02 
2191	 1.74058460156798E-02 
2192	 1.80627067266044E-02 
2193	 1.82449411935211E-02 
2194	 1.86496491360929E-02 
2195	 1.95298657066996E-02 
2196	 1.98854197672086E-02 
2197	 2.04780019985626E-02 
2198	 0.019957300561492 
2199	 0.017997655928453 
2200	 1.66876825429092E-02 
2201	 1.63891548880633E-02 
2202	 0.015915335741593 
2203	 1.66625957545865E-02 
2204	 1.83876985034537E-02 
2205	 1.96715239058296E-02 
2206	 1.97536431836801E-02 
2207	 1.96463198487307E-02 
2208	 2.07718367171955E-02 
2209	 2.06053786739233E-02 
2210	 1.96175382402557E-02 
2211	 1.97837418243212E-02 
2212	 1.84597842432014E-02 
2213	 1.78210758224308E-02 
2214	 1.92840693761566E-02 
2215	 1.83123461917901E-02 
2216	 1.77157829204025E-02 
2217	 1.81342785400096E-02 
2218	 1.85426644596331E-02 
2219	 1.78319991672226E-02 
2220	 1.81763375994194E-02 
2221	 1.80730120748667E-02 
2222	 1.62293917080497E-02 
2223	 1.57599177672734E-02 
2224	 1.66877512014202E-02 
2225	 1.63197928069559E-02 
2226	 1.52711946204536E-02 
2227	 1.50057215802329E-02 
2228	 0.014321313091992 
2229	 1.45410405101188E-02 
2230	 0.016575455496343 
2231	 1.63878593604353E-02 
2232	 1.45793730779331E-02 
2233	 1.45047784710504E-02 
2234	 1.43175603585669E-02 
2235	 1.35441406615513E-02 
2236	 1.57312851843126E-02 
2237	 1.87414646866406E-02 
2238	 1.94323790040793E-02 
2239	 1.96112755690079E-02 
2240	 0.01901911553485 
2241	 1.77734280985626E-02 
2242	 1.69270104221383E-02 
2243	 0.016232039070283 
2244	 1.48051684080839E-02 
2245	 1.48194601174497E-02 
2246	 1.60168864457036E-02 
2247	 1.51930847068957E-02 
2248	 1.31595517760579E-02 
2249	 1.24624651493398E-02 
2250	 1.23309903656347E-02 
2251	 1.19819555822187E-02 
2252	 1.29071155187398E-02 
2253	 1.37912854870795E-02 
2254	 1.45160288765469E-02 
2255	 1.41683598360387E-02 
2256	 1.29308421593282E-02 
2257	 1.33136889451757E-02 
2258	 1.22068827412269E-02 
2259	 1.29015390448332E-02 
2260	 1.37827315216859E-02 
2261	 0.016404796741489 
2262	 1.63719441306531E-02 
2263	 1.43693842857744E-02 
2264	 1.46148364181108E-02 
2265	 1.60575559981062E-02 
2266	 1.65928083942487E-02 
2267	 0.017997036241223 
2268	 1.81046315719798E-02 
2269	 1.65368757643912E-02 
2270	 1.54092216584043E-02 
2271	 1.36474442242149E-02 
2272	 1.40137177480602E-02 
2273	 1.57335257849442E-02 
2274	 1.57592122063255E-02 
2275	 1.61292398189273E-02 
2276	 1.60074244241533E-02 
2277	 1.43733863785768E-02 
2278	 1.34911086555681E-02 
2279	 1.38762435442743E-02 
2280	 1.44077928790185E-02 
2281	 1.54760334247685E-02 
2282	 1.38994135683624E-02 
2283	 1.37376548305669E-02 
2284	 1.29223514942934E-02 
2285	 1.07106071349086E-02 
2286	 1.04409341024393E-02 
2287	 0.012642125477177 
2288	 1.36167063534909E-02 
2289	 1.77888352512258E-02 
2290	 2.10555110062785E-02 
2291	 1.84489081371016E-02 
2292	 1.75540507286226E-02 
2293	 1.43510143030658E-02 
2294	 8.59335072383614E-03 
2295	 1.03386410513219E-02 
2296	 1.29180276791248E-02 
2297	 1.09647788993146E-02 
2298	 1.20035387060141E-02 
2299	 1.52716094769094E-02 
2300	 1.60791019981664E-02 
2301	 1.68663117154187E-02 
2302	 1.87183840814186E-02 
2303	 1.68821714715117E-02 
2304	 1.65275375485717E-02 
2305	 1.91005800447291E-02 
2306	 1.93320604936953E-02 
2307	 1.95020749697489E-02 
2308	 1.69049077789001E-02 
2309	 1.31966165345932E-02 
2310	 1.17929545081269E-02 
2311	 8.62782327779927E-03 
2312	 5.64566610565299E-03 
2313	 2.9339616029084E-03 
2314	 9.74847781555147E-04 
2315	 3.81305484564796E-03 
2316	 5.15842900173787E-03 
2317	 2.60424978596408E-03 
2318	 3.53564526051966E-03 
2319	 8.00957539022318E-03 
2320	 1.19429612122258E-02 
2321	 1.45237143617548E-02 
2322	 1.71625440218864E-02 
2323	 1.34353435371053E-02 
2324	 3.95327347540281E-03 
2325	 3.9323593631738E-03 
2326	 6.96503771341594E-03 
2327	 6.16206304294392E-03 
2328	 8.7429650360579E-03 
2329	 1.25847775172888E-02 
2330	 1.23952509816648E-02 
2331	 1.51773961383578E-02 
2332	 2.13105817483585E-02 
2333	 1.81963036259804E-02 
2334	 1.36807884507231E-02 
2335	 9.6318554908796E-03 
2336	 2.48110148955905E-03 
2337	 8.5088580595233E-04 
2338	 2.61741572712875E-03 
2339	 8.73859971482128E-03 
2340	 1.35815263082368E-02 
2341	 1.19238867044889E-02 
2342	 1.14696254806566E-02 
2343	 8.76957447075968E-03 
2344	 1.88076905824473E-03 
2345	-1.75342689427934E-03 
2346	 6.25805706529109E-04 
2347	-2.1721691984491E-03 
2348	-0.012540880320695 
2349	-0.017248097889989 
2350	-1.63104865879087E-02 
2351	-1.04629144711585E-02 
2352	-1.79705903724867E-03 
2353	 1.83572449271379E-03 
2354	 2.29431978960772E-03 
2355	-1.19913042035935E-03 
2356	-3.96931658231794E-03 
2357	 2.4694120091548E-03 
2358	 8.9455489300715E-03 
2359	 1.55072614748758E-02 
2360	 1.85419631689208E-02 
2361	 1.71303182316194E-02 
2362	 1.52950163153172E-02 
2363	 3.20104728188673E-03 
2364	 3.78073849021112E-03 
2365	 1.54149041910707E-02 
2366	 1.44862056827305E-02 
2367	 1.94812826895698E-02 
2368	 0.016279193176435 
2369	-3.53776198177941E-03 
2370	-1.78566473140932E-02 
2371	-0.027456216665424 
2372	-2.57270556094131E-02 
2373	-2.35074111502721E-02 
2374	-2.68275313021318E-02 
2375	-1.94067540165936E-02 
2376	-1.18846723732325E-02 
2377	-0.009867236005147 
2378	 7.3237669984071E-03 
2379	 2.52192495066866E-02 
2380	 0.014431758290939 
2381	 1.38033890131871E-02 
2382	 1.72299808596842E-02 
2383	-9.28725044263617E-03 
2384	-2.51648370375564E-02 
2385	-1.97406342782637E-02 
2386	-1.95503212813044E-02 
2387	-2.65412486516547E-02 
2388	-2.98233667486742E-02 
2389	-2.91361280384266E-02 
2390	-1.42176521104404E-02 
2391	 1.17119783099555E-02 
2392	 2.49411920282772E-02 
2393	 6.2709838869041E-03 
2394	-1.91183590579883E-02 
2395	-2.86010210756419E-02 
2396	-4.16513088218444E-02 
2397	-3.23323016427341E-02 
2398	-2.11306451670875E-02 
2399	-5.81727528632831E-02 
2400	-9.72435752343433E-02 
2401	-9.31603471019678E-02 
2402	-8.61667817525003E-02 
2403	-8.54285637953821E-02 
2404	-5.93504562557582E-02 
2405	-9.64742400270214E-03 
2406	-1.58398606609568E-02 
2407	-4.67167382429927E-02 
2408	-2.68309325559428E-02 
2409	-7.16629857802579E-02 
2410	-0.14934766143213 
2411	-0.185594604420818 
2412	-0.197591160335752 
2413	-0.199575123701288 
2414	-0.203674727371418 
2415	-0.163883392912754 
2416	-0.14799350410007 
2417	-0.218519734708348 
2418	-0.191280062779955 
2419	-0.119347334588684 
2420	-0.149096164454893 
2421	-8.17674418955278E-02 
2422	-7.78231461751797E-02 
2423	-0.146224252040273 
2424	-0.105866605331487 
2425	-9.95557230075477E-02 
2426	-0.133140245544241 
2427	-0.137248894820301 
2428	-0.155270509740385 
2429	-0.135189292490243 
2430	-0.141953089408691 
2431	-0.180288891984041 
2432	-0.17262412365089 
2433	-0.227834997410596 
2434	-0.180823537234185 
2435	 2.04045004561402E-02 
2436	 1.14004510723993E-02 
2437	-7.30650751739873E-02 
2438	-0.101394457749136 
2439	-0.184186246918309 
2440	-0.168018633224264 
2441	 3.26888067949266E-02 
2442	-2.50966984213172E-02 
2443	-0.268838118502625 
2444	-0.282431968429462 
2445	-0.450206230802295 
2446	-0.740558244801965 
2447	-0.578165654390895 
2448	-0.676242309146232 
2449	-0.764581106775267 
2450	-0.831044138964334 
2451	-1.5582399221449 
2452	-1.63384667306261 
2453	-1.1073550157487 
2454	-0.912033105081009 
2455	-0.697893415729183 
2456	-0.50966599503474 
2457	-0.457119548298237 
2458	-0.35440417128202 
2459	-7.17645400523568E-02 
2460	 7.99606777463685E-02 
2461	-0.254346869749091 
2462	-0.564677509992624 
2463	-0.539266815375301 
2464	-1.20108436681676 
2465	-1.88651193004496 
2466	-2.68032408201962 
2467	-17.1906963421278 
2468	-1.76853897379805 
2469	-1.30348764369709 
2470	-2.98102026593075 
2471	 120.901196544244 
2472	 7.36735158385821 
2473	 4.65027254502262 
2474	 2.5492611766436 
2475	 10.9351539071535 
2476	 3.00822600128424 
2477	 0.847339034304453 
2478	 1.95917624894566 
2479	 5.34893306781052 
2480	 0.766713751158902 
2481	-13.6165922280412 
2482	 3.03327950771238 
2483	 1.92928335656186 
2484	 20.5000664890837 
2485	 84.8913889191845 
2486	 30.6985225486184 
2487	-1.47906236650923 
2488	-4.72918351689028 
2489	 5.99601406658315 
2490	 2.40200260257537 
2491	 1.00468496397948 
2492	 0.589319638306046 
2493	 0.652139751297886 
2494	 1.34914739356276 
2495	 2.00003193529593 
2496	 0.99311130239933 
2497	 1.10380047687542 
2498	 1.06851982577297 
2499	 1.05816657795868 
2500	 2.41942933432839 
