Wavelength	rt0713west_far_sunny200005.asd
350	 6.62886796104375E-02 
351	 6.58481151815089E-02 
352	 6.55605215472298E-02 
353	 6.53334886369117E-02 
354	 6.49466442822832E-02 
355	 6.41462992300261E-02 
356	 6.42689966476235E-02 
357	 6.46350124561604E-02 
358	 6.42905453483692E-02 
359	 6.40062908814082E-02 
360	 6.37828047609393E-02 
361	 6.37008489442332E-02 
362	 6.38185491536403E-02 
363	 6.32844321164344E-02 
364	 6.29426780996916E-02 
365	 6.30703427812391E-02 
366	 6.27935036186059E-02 
367	 6.27020655713832E-02 
368	 6.27108923490265E-02 
369	 6.26574872677828E-02 
370	 6.27744232445651E-02 
371	 6.25406253023488E-02 
372	 6.21795486335143E-02 
373	 6.22497508845394E-02 
374	 6.20865080639745E-02 
375	 6.19880845017682E-02 
376	 6.20898291454832E-02 
377	 6.21756033335763E-02 
378	 6.20316243342891E-02 
379	 6.18159094114814E-02 
380	 6.17397859952208E-02 
381	 0.061865473277545 
382	 6.20057452147519E-02 
383	 6.20388290632531E-02 
384	 6.19593042604096E-02 
385	 6.22601632518516E-02 
386	 6.23193749184111E-02 
387	 6.20929150151032E-02 
388	 0.062233260500077 
389	 0.062099209338308 
390	 6.18395132765181E-02 
391	 6.17616420531032E-02 
392	 6.22222417312597E-02 
393	 6.23807117256251E-02 
394	 6.23283681228842E-02 
395	 6.24242028154967E-02 
396	 6.23498938925942E-02 
397	 6.22759310521533E-02 
398	 6.23337211640659E-02 
399	 0.062572536553187 
400	 6.25658280491101E-02 
401	 6.24772693237699E-02 
402	 6.24693001344951E-02 
403	 6.24662598928034E-02 
404	 6.26664908785015E-02 
405	 6.29056575069396E-02 
406	 6.29466156509821E-02 
407	 6.29835268633901E-02 
408	 6.29504862714324E-02 
409	 6.29115836929741E-02 
410	 6.30538318390445E-02 
411	 6.31937001776684E-02 
412	 6.32769908059713E-02 
413	 6.33023377099018E-02 
414	 0.063301748334208 
415	 6.34969178103447E-02 
416	 6.37146301015223E-02 
417	 6.37054331965215E-02 
418	 6.38292131333512E-02 
419	 6.40268503133385E-02 
420	 6.42254226649615E-02 
421	 6.43737728306502E-02 
422	 6.44774873771398E-02 
423	 6.46557702327811E-02 
424	 0.064962267399186 
425	 6.52185990054502E-02 
426	 6.54407992963322E-02 
427	 6.56615581220382E-02 
428	 6.59258864583666E-02 
429	 6.62781742179433E-02 
430	 0.066624859569893 
431	 6.68964865329318E-02 
432	 6.70722039659599E-02 
433	 6.73633665087445E-02 
434	 6.77155285821899E-02 
435	 6.80289250527728E-02 
436	 6.82558473176133E-02 
437	 6.85268998046029E-02 
438	 6.88640788442324E-02 
439	 6.92180144761482E-02 
440	 6.95200532166588E-02 
441	 6.98325492957289E-02 
442	 7.01614885035145E-02 
443	 7.04073748366452E-02 
444	 7.06762304585935E-02 
445	 7.09757017671434E-02 
446	 7.12718117256168E-02 
447	 7.14785859483643E-02 
448	 7.17549887132166E-02 
449	 7.20787337585412E-02 
450	 7.23010446899167E-02 
451	 7.24967048535364E-02 
452	 0.072691956202699 
453	 7.29044578270205E-02 
454	 7.31539406873513E-02 
455	 0.07333410752759 
456	 7.34662651336696E-02 
457	 7.36230993534462E-02 
458	 7.38722976687621E-02 
459	 7.40300689959656E-02 
460	 7.41247022435911E-02 
461	 7.43903884210223E-02 
462	 7.44949024803053E-02 
463	 7.45729523659836E-02 
464	 0.074743682649623 
465	 0.074814537605774 
466	 7.49232414949298E-02 
467	 0.07511620933498 
468	 7.53647360841591E-02 
469	 7.54492216719521E-02 
470	 7.55986504427442E-02 
471	 7.58628781671136E-02 
472	 7.60011620522012E-02 
473	 0.076054799566624 
474	 7.61864385568912E-02 
475	 7.64922614887616E-02 
476	 7.67183791157449E-02 
477	 7.69216837271596E-02 
478	 7.71549092125052E-02 
479	 7.74519585578341E-02 
480	 7.76705778807326E-02 
481	 7.78682609706339E-02 
482	 7.81180555497517E-02 
483	 7.84717477098861E-02 
484	 7.88168838470034E-02 
485	 7.91520098796352E-02 
486	 7.95007535270904E-02 
487	 7.97684131027464E-02 
488	 8.00964389389709E-02 
489	 8.04583586541618E-02 
490	 8.06732122343354E-02 
491	 8.10436229765818E-02 
492	 8.14890839043765E-02 
493	 8.18919244888333E-02 
494	 8.22506154215066E-02 
495	 8.26255315764996E-02 
496	 8.30737116948762E-02 
497	 0.083616169283758 
498	 0.084026268739654 
499	 8.43229376374513E-02 
500	 8.46062407406206E-02 
501	 0.08505332337594 
502	 8.54834944282797E-02 
503	 8.58887516089486E-02 
504	 8.63109607205741E-02 
505	 8.67630005365538E-02 
506	 8.73020015358873E-02 
507	 8.78634314632341E-02 
508	 8.83045391323864E-02 
509	 8.88414233440834E-02 
510	 8.93583988096776E-02 
511	 8.98080630109154E-02 
512	 0.090438312258935 
513	 9.10570472030466E-02 
514	 9.16294858001555E-02 
515	 9.21860212419546E-02 
516	 9.27460788656186E-02 
517	 9.33624203184748E-02 
518	 9.40162824831835E-02 
519	 9.46054843284999E-02 
520	 9.52392449521692E-02 
521	 9.58259280111466E-02 
522	 9.63257121176884E-02 
523	 9.70278825286178E-02 
524	 9.76715275124083E-02 
525	 9.82398373760052E-02 
526	 9.88877274164665E-02 
527	 9.95508682446238E-02 
528	 0.100203222481697 
529	 0.100824692065159 
530	 0.10138665275006 
531	 0.102031980369361 
532	 0.102722847979714 
533	 0.103362600084956 
534	 0.103973685821748 
535	 0.104623154042861 
536	 0.105299434590287 
537	 0.105898123997688 
538	 0.10654191723908 
539	 0.107178655200362 
540	 0.107760472507476 
541	 0.10839116885398 
542	 0.109043551530738 
543	 0.109698455226594 
544	 0.110345883327122 
545	 0.110992731021207 
546	 0.111615460475293 
547	 0.112222617217841 
548	 0.112897455328462 
549	 0.113538034961194 
550	 0.114148294310171 
551	 0.114768848632779 
552	 0.1154102941352 
553	 0.116007619429801 
554	 0.116580487713014 
555	 0.117240467108699 
556	 0.117827478137054 
557	 0.118382544337035 
558	 0.118962074216255 
559	 0.119537627334277 
560	 0.11999486661645 
561	 0.120408044411422 
562	 0.120944905624008 
563	 0.121379757027444 
564	 0.121763053470784 
565	 0.122127052110841 
566	 0.122395010691959 
567	 0.122649417838739 
568	 0.122920093480806 
569	 0.123210238932306 
570	 0.123506146771042 
571	 0.123738075620118 
572	 0.123912810453776 
573	 0.124119091802369 
574	 0.124324256342194 
575	 0.124516117333855 
576	 0.12467402398292 
577	 0.124740800351874 
578	 0.124810993827001 
579	 0.124858488678128 
580	 0.124797529375869 
581	 0.124756002161368 
582	 0.124654727097299 
583	 0.124441437440202 
584	 0.124158695489213 
585	 0.123797170242527 
586	 0.123316225322567 
587	 0.122693019241168 
588	 0.122105321113824 
589	 0.121623533423508 
590	 0.121267450855052 
591	 0.120970639450804 
592	 0.120618992577421 
593	 0.120145832463735 
594	 0.119535395719761 
595	 0.118834662467753 
596	 0.118087919314344 
597	 0.117301304465644 
598	 0.116462912472276 
599	 0.115559462673475 
600	 0.114834040252466 
601	 0.114366909834405 
602	 0.1139127275311 
603	 0.113564851164606 
604	 0.113338781821438 
605	 0.113214331919363 
606	 0.113095791227484 
607	 0.113003980797593 
608	 0.11293551894843 
609	 0.112859939811735 
610	 0.112869959479311 
611	 0.112850084384794 
612	 0.112727927574969 
613	 0.112692498922871 
614	 0.11258755732883 
615	 0.112485320994501 
616	 0.112539626830589 
617	 0.112399369025532 
618	 0.112278747639868 
619	 0.112267672041681 
620	 0.112159772240448 
621	 0.112066860406802 
622	 0.1120200671325 
623	 0.11199564850206 
624	 0.111832040561896 
625	 0.111659810015122 
626	 0.111523592990418 
627	 0.111377543565564 
628	 0.111260943682212 
629	 0.111231838021886 
630	 0.111273462556521 
631	 0.111180139437626 
632	 0.11103268045772 
633	 0.110933715789281 
634	 0.110955165799074 
635	 0.110829833939041 
636	 0.110686730342378 
637	 0.110581213151947 
638	 0.110406861197187 
639	 0.110190838851844 
640	 0.109942894195413 
641	 0.109682252636345 
642	 0.109470459849749 
643	 0.109206331787322 
644	 0.108800911407294 
645	 0.108205701509948 
646	 0.107792053174253 
647	 0.107529643397854 
648	 0.107319414935776 
649	 0.107108680215446 
650	 0.106795530499047 
651	 0.106459375067877 
652	 0.106216372545364 
653	 0.105823154829917 
654	 0.10526484298396 
655	 0.104598751822348 
656	 0.10404682006719 
657	 0.10354837268378 
658	 0.103091603590256 
659	 0.102668429017292 
660	 0.10230407843539 
661	 0.101948292610684 
662	 0.10162524285278 
663	 0.101399585670596 
664	 0.101176951595868 
665	 0.100916379670403 
666	 0.10064705974502 
667	 0.10052028379856 
668	 0.100322015749606 
669	 0.10011314444984 
670	 0.100009158576873 
671	 9.99038006000414E-02 
672	 9.98194015940874E-02 
673	 9.97388681764041E-02 
674	 9.96135398209036E-02 
675	 9.96001747921378E-02 
676	 9.96221182073678E-02 
677	 9.96122142866616E-02 
678	 9.96467912950035E-02 
679	 9.96890514101811E-02 
680	 9.97185149735501E-02 
681	 9.97353519964064E-02 
682	 9.98334250115242E-02 
683	 9.99286872516637E-02 
684	 9.99356769348548E-02 
685	 9.97781022850821E-02 
686	 9.95596050724682E-02 
687	 9.95334112406082E-02 
688	 9.97678795975259E-02 
689	 9.97099626034715E-02 
690	 0.099468899511758 
691	 9.90987289921497E-02 
692	 9.86271965530852E-02 
693	 9.81313490272256E-02 
694	 9.79124443486354E-02 
695	 9.79360078667601E-02 
696	 9.76602758750981E-02 
697	 0.097003567755723 
698	 9.60496026506955E-02 
699	 9.50535273695872E-02 
700	 9.43208086791933E-02 
701	 9.37293191013595E-02 
702	 0.09311042299445 
703	 9.22816296386979E-02 
704	 9.12515017468755E-02 
705	 0.090192295986226 
706	 8.92007102639408E-02 
707	 0.088074842640758 
708	 8.68677601330145E-02 
709	 0.085563694706016 
710	 8.41294769290143E-02 
711	 8.25623590054134E-02 
712	 8.08445171545322E-02 
713	 7.89563394501583E-02 
714	 7.68201588500286E-02 
715	 7.44904688702574E-02 
716	 7.18978647341599E-02 
717	 6.93017736351456E-02 
718	 6.70260299469091E-02 
719	 6.53915359741395E-02 
720	 6.42633078886778E-02 
721	 6.30469422584118E-02 
722	 0.061307404793674 
723	 5.91755828658221E-02 
724	 5.71114190109727E-02 
725	 5.52414591404187E-02 
726	 5.35598102856585E-02 
727	 5.18023581300614E-02 
728	 4.98274155755059E-02 
729	 4.78681861907018E-02 
730	 4.62136457056103E-02 
731	 4.49599008781563E-02 
732	 4.39341457589105E-02 
733	 4.29051076699719E-02 
734	 4.19083925970207E-02 
735	 4.10510363801752E-02 
736	 0.040490612945058 
737	 4.01548062479639E-02 
738	 3.99316750210059E-02 
739	 3.97503865096885E-02 
740	 3.96715657892095E-02 
741	 3.96793404835915E-02 
742	 3.96862325584192E-02 
743	 3.95960828917656E-02 
744	 3.95490586877446E-02 
745	 3.95268856795128E-02 
746	 3.94956302801352E-02 
747	 3.94226378163882E-02 
748	 3.93614851032248E-02 
749	 3.93456992948959E-02 
750	 3.93699821063719E-02 
751	 3.93305640461114E-02 
752	 3.92759477465214E-02 
753	 3.91932479890812E-02 
754	 3.90613024708071E-02 
755	 3.90793087796371E-02 
756	 3.90611314100519E-02 
757	 3.88684892374915E-02 
758	 3.83683592932538E-02 
759	 3.75768756399435E-02 
760	 3.67428228801618E-02 
761	 3.65800701778951E-02 
762	 3.67075995195702E-02 
763	 3.71088925887555E-02 
764	 3.76278028932494E-02 
765	 3.81300052517826E-02 
766	 3.86687570373485E-02 
767	 3.89554596033222E-02 
768	 3.90517138665133E-02 
769	 0.039324684930991 
770	 3.94737812518271E-02 
771	 3.95315801650398E-02 
772	 3.95966429619275E-02 
773	 3.97676182707592E-02 
774	 3.98705767323884E-02 
775	 3.99420682902029E-02 
776	 4.00859740989969E-02 
777	 4.01832165478815E-02 
778	 4.03309775320127E-02 
779	 4.05244908378927E-02 
780	 4.06519874391061E-02 
781	 4.08296773500824E-02 
782	 4.10121230131341E-02 
783	 4.11633146953305E-02 
784	 4.13447837222758E-02 
785	 4.14160798116318E-02 
786	 0.041443109855132 
787	 4.15502533148324E-02 
788	 0.041711666676522 
789	 4.19113117069428E-02 
790	 4.21869272062482E-02 
791	 4.26013358088478E-02 
792	 4.30028075642448E-02 
793	 4.33099842359808E-02 
794	 4.35006077257549E-02 
795	 4.36081222621932E-02 
796	 0.043807217300295 
797	 4.40578056011184E-02 
798	 4.42812633136892E-02 
799	 4.44884195662427E-02 
800	 4.46313242758142E-02 
801	 4.47720006788945E-02 
802	 4.50069748954213E-02 
803	 4.51698645594555E-02 
804	 4.53877968429713E-02 
805	 4.56119650871356E-02 
806	 4.55929607263814E-02 
807	 4.54980021129368E-02 
808	 4.52768735341194E-02 
809	 4.49166486901099E-02 
810	 4.46131264652869E-02 
811	 4.41166927266346E-02 
812	 0.043463547958698 
813	 4.28304796998621E-02 
814	 4.23062121338206E-02 
815	 4.18748602882381E-02 
816	 4.15732411538494E-02 
817	 4.14418807232129E-02 
818	 4.13519022836067E-02 
819	 4.11349036896122E-02 
820	 4.06997901939442E-02 
821	 4.00269227390695E-02 
822	 3.91463819999907E-02 
823	 3.83279181032573E-02 
824	 3.77115622976125E-02 
825	 3.69985431443534E-02 
826	 3.61108736055208E-02 
827	 3.50996080680836E-02 
828	 3.41534236873084E-02 
829	 3.33361888246632E-02 
830	 3.26657894531214E-02 
831	 3.21003610699287E-02 
832	 3.16001291919458E-02 
833	 3.13432209647877E-02 
834	 3.11904310764093E-02 
835	 3.10234108668122E-02 
836	 3.08124586219728E-02 
837	 3.07998321463645E-02 
838	 3.08728749539116E-02 
839	 3.08757000316011E-02 
840	 3.07448461157984E-02 
841	 0.03065309908275 
842	 3.05635854446782E-02 
843	 3.04311897403919E-02 
844	 3.05904929712807E-02 
845	 3.04634445316239E-02 
846	 0.030140952525431 
847	 3.01327406608796E-02 
848	 3.00750095936844E-02 
849	 2.99759237291122E-02 
850	 2.98707653087764E-02 
851	 2.97780809381696E-02 
852	 2.97229875991404E-02 
853	 2.96170960265261E-02 
854	 2.94467219603827E-02 
855	 2.93934380885685E-02 
856	 2.93664726214166E-02 
857	 2.93182913762616E-02 
858	 0.029234529880778 
859	 2.91654975922224E-02 
860	 2.91569840161943E-02 
861	 2.91430739215953E-02 
862	 2.90399749633017E-02 
863	 2.90309321929735E-02 
864	 2.90441424422491E-02 
865	 2.89708598815204E-02 
866	 2.87233364832964E-02 
867	 2.85323400775038E-02 
868	 2.84865653952641E-02 
869	 2.84992471311074E-02 
870	 2.83132266713398E-02 
871	 2.83070390289826E-02 
872	 2.82394500044781E-02 
873	 0.02795768911099 
874	 2.77953918756234E-02 
875	 0.027737169516681 
876	 2.77162900211814E-02 
877	 2.76386119943226E-02 
878	 2.74012481156318E-02 
879	 2.73008543857532E-02 
880	 2.72242513095184E-02 
881	 2.69615370386825E-02 
882	 2.69705221941232E-02 
883	 2.69314358614481E-02 
884	 2.67855322457424E-02 
885	 2.66965780097728E-02 
886	 2.66513166013859E-02 
887	 2.65741597905742E-02 
888	 2.64245646566988E-02 
889	 2.62092068564761E-02 
890	 2.58475144016025E-02 
891	 2.54064975022353E-02 
892	 2.49632164491091E-02 
893	 2.45628742658346E-02 
894	 2.43698427318873E-02 
895	 2.39035281873168E-02 
896	 2.29995478388932E-02 
897	 2.31097086387806E-02 
898	 2.32561973606407E-02 
899	 2.32846355763429E-02 
900	 0.023256187439457 
901	 2.27787119165458E-02 
902	 2.29801497620561E-02 
903	 2.33571349381577E-02 
904	 2.30343965241198E-02 
905	 2.25810002648821E-02 
906	 2.23547056859798E-02 
907	 2.23246004987616E-02 
908	 2.21451902953903E-02 
909	 2.15894331447484E-02 
910	 2.15019746782124E-02 
911	 2.19142773894518E-02 
912	 2.20219468762897E-02 
913	 0.021457472211709 
914	 2.08880589778383E-02 
915	 2.08740925805664E-02 
916	 2.15006020785123E-02 
917	 2.16718038594604E-02 
918	 2.14210562259851E-02 
919	 2.10706402100126E-02 
920	 2.10220386988347E-02 
921	 2.11533027194658E-02 
922	 2.10044556864796E-02 
923	 2.05353562757987E-02 
924	 2.07427405248354E-02 
925	 1.99166343487352E-02 
926	 1.90408412125789E-02 
927	 1.91203387587194E-02 
928	 1.75177755069083E-02 
929	 1.65417313280265E-02 
930	 1.68226337004236E-02 
931	 1.74973665348068E-02 
932	 1.53950681359927E-02 
933	 0.014922537141443 
934	 1.39684801729518E-02 
935	 9.74169046382343E-03 
936	 0.012290105861562 
937	 1.35708804478405E-02 
938	 1.33337530144759E-02 
939	 1.38461331211336E-02 
940	 1.65283185192906E-02 
941	 1.52761059389608E-02 
942	 1.31282050019753E-02 
943	 1.58723103786438E-02 
944	 1.49170030509106E-02 
945	 0.013440824745759 
946	 1.27097923715577E-02 
947	 1.23151406891015E-02 
948	 1.27665103693013E-02 
949	 1.34651550635712E-02 
950	 0.013878000162758 
951	 1.39631399745843E-02 
952	 1.64107371627247E-02 
953	 1.33253590837906E-02 
954	 9.4886625222475E-03 
955	 1.51950373207321E-02 
956	 0.01690118189475 
957	 1.60926657036868E-02 
958	 1.54551321705782E-02 
959	 1.66470209225424E-02 
960	 1.51551076205145E-02 
961	 1.52549478666363E-02 
962	 1.68364449223361E-02 
963	 1.67681700976478E-02 
964	 0.016203889687956 
965	 0.016444668129253 
966	 0.017593381127021 
967	 1.86924416500033E-02 
968	 0.017488007726455 
969	 1.65563538887908E-02 
970	 1.69063673588121E-02 
971	 0.017711558314684 
972	 1.79366763880809E-02 
973	 1.78381373511368E-02 
974	 1.78462466649287E-02 
975	 1.83244751474081E-02 
976	 1.92152582425784E-02 
977	 1.96530745990416E-02 
978	 1.92312551116329E-02 
979	 1.82529635619514E-02 
980	 1.81225382941841E-02 
981	 1.83474573849099E-02 
982	 1.91646000215748E-02 
983	 2.09114336282752E-02 
984	 1.89786232264638E-02 
985	 0.018814311227504 
986	 2.04063648722233E-02 
987	 0.019553937843463 
988	 1.98499463972798E-02 
989	 2.08670647917088E-02 
990	 0.021287679243182 
991	 2.00303524730767E-02 
992	 1.97435325103037E-02 
993	 2.10835596442382E-02 
994	 2.17116150792101E-02 
995	 1.89493138350072E-02 
996	 1.95762099149782E-02 
997	 2.12715712981552E-02 
998	 2.19337228732609E-02 
999	 2.07569293395356E-02 
1000	 2.00178681617529E-02 
1001	 1.95878531499767E-02 
1002	 1.97290802477562E-02 
1003	 1.98336751127954E-02 
1004	 1.97093281037799E-02 
1005	 1.97474694607313E-02 
1006	 1.99005187530658E-02 
1007	 2.01259036536152E-02 
1008	 2.03055416119258E-02 
1009	 2.03556087303932E-02 
1010	 2.03335074470166E-02 
1011	 2.04748190385927E-02 
1012	 2.03760488006208E-02 
1013	 0.020412509985038 
1014	 2.04973472016232E-02 
1015	 2.06062899921362E-02 
1016	 2.06457792084956E-02 
1017	 2.08133554829302E-02 
1018	 2.08078766925477E-02 
1019	 2.06341405625864E-02 
1020	 2.05693699230738E-02 
1021	 2.04260803520558E-02 
1022	 0.020423461000588 
1023	 0.020475236309265 
1024	 2.05047025693102E-02 
1025	 2.07672898798909E-02 
1026	 2.09470685976985E-02 
1027	 0.020948731583729 
1028	 0.02091135742441 
1029	 2.07661326569006E-02 
1030	 2.02766369033195E-02 
1031	 2.01876610772903E-02 
1032	 2.01776056880338E-02 
1033	 2.03105934315284E-02 
1034	 2.07973226740166E-02 
1035	 2.10106025714578E-02 
1036	 2.13292845560562E-02 
1037	 2.14143475970552E-02 
1038	 2.13479561978828E-02 
1039	 2.10348639252768E-02 
1040	 2.08533283793026E-02 
1041	 0.020614392910264 
1042	 2.05710129863397E-02 
1043	 2.07110917722475E-02 
1044	 2.07495013660058E-02 
1045	 0.020846548723551 
1046	 2.08503134932337E-02 
1047	 2.07240546748623E-02 
1048	 2.07733272621265E-02 
1049	 2.09391538094138E-02 
1050	 2.09966396274545E-02 
1051	 2.11927991852407E-02 
1052	 2.11728589200518E-02 
1053	 2.07495165590134E-02 
1054	 2.06845356389806E-02 
1055	 2.08082793549463E-02 
1056	 2.08245911064629E-02 
1057	 2.08774946983607E-02 
1058	 2.11593517277397E-02 
1059	 2.11792467450156E-02 
1060	 0.020998356769191 
1061	 2.09019135713162E-02 
1062	 2.07536304656579E-02 
1063	 2.07127858561841E-02 
1064	 2.07078623083038E-02 
1065	 2.06778980925883E-02 
1066	 2.07484793418773E-02 
1067	 2.07420050099995E-02 
1068	 2.05773323803825E-02 
1069	 2.05585176226941E-02 
1070	 2.06391786165463E-02 
1071	 2.06784067242069E-02 
1072	 2.07687505377218E-02 
1073	 2.09572925669039E-02 
1074	 2.07850438648353E-02 
1075	 2.03439088914485E-02 
1076	 2.01832685693745E-02 
1077	 1.97399116339158E-02 
1078	 1.98535109352015E-02 
1079	 2.06636657624983E-02 
1080	 2.07832875027363E-02 
1081	 2.08498215102346E-02 
1082	 2.08041647827214E-02 
1083	 2.02243866096143E-02 
1084	 1.99959727909533E-02 
1085	 1.99394828167472E-02 
1086	 1.98878270461837E-02 
1087	 2.00413587997701E-02 
1088	 0.019967640916574 
1089	 0.019696179939182 
1090	 1.96493425474282E-02 
1091	 1.94946023703566E-02 
1092	 1.90901140285838E-02 
1093	 1.89885698274761E-02 
1094	 1.91885101813844E-02 
1095	 1.90704465552304E-02 
1096	 1.88959538078645E-02 
1097	 0.018726188874891 
1098	 1.83957332090564E-02 
1099	 1.81290529226473E-02 
1100	 1.77696668740818E-02 
1101	 1.76233054757726E-02 
1102	 1.77264684059355E-02 
1103	 1.75489911799619E-02 
1104	 1.72334233919931E-02 
1105	 1.73213961301203E-02 
1106	 1.68998952102645E-02 
1107	 1.64094108646105E-02 
1108	 1.66639518621074E-02 
1109	 1.68686226847301E-02 
1110	 1.67655570185981E-02 
1111	 1.66974449077404E-02 
1112	 1.63934113560755E-02 
1113	 1.51628754142822E-02 
1114	 0.014850489925626 
1115	 1.50576234460849E-02 
1116	 1.53306405038403E-02 
1117	 1.73464327730582E-02 
1118	 1.75585746212162E-02 
1119	 1.55452609859397E-02 
1120	 1.52148628544768E-02 
1121	 1.44295203136149E-02 
1122	 1.33770035207501E-02 
1123	 1.43080184709066E-02 
1124	 1.45536533581761E-02 
1125	 1.26815710957733E-02 
1126	 1.19878180135512E-02 
1127	 1.47449270827554E-02 
1128	 1.72537662759075E-02 
1129	 1.76300577268374E-02 
1130	 1.68676595990046E-02 
1131	 1.63474691095728E-02 
1132	 1.52753354298797E-02 
1133	 1.42423399562556E-02 
1134	 1.26718598989394E-02 
1135	 1.29596829522015E-02 
1136	 1.43886870562538E-02 
1137	 1.38217104201169E-02 
1138	 1.32241979603124E-02 
1139	 1.26730870402997E-02 
1140	 1.18197139222895E-02 
1141	 1.17503843605608E-02 
1142	 1.31751337585967E-02 
1143	 1.47602726141707E-02 
1144	 1.41538355495592E-02 
1145	 1.25810865839948E-02 
1146	 1.23021272860493E-02 
1147	 0.012639166726281 
1148	 1.32394101160414E-02 
1149	 0.013929625528786 
1150	 1.38250013426035E-02 
1151	 1.26055148639643E-02 
1152	 0.01248075079332 
1153	 1.26440430657406E-02 
1154	 1.25929915442629E-02 
1155	 1.25194166807483E-02 
1156	 1.29096912209646E-02 
1157	 1.34269784503503E-02 
1158	 1.40552873522779E-02 
1159	 1.50040639278225E-02 
1160	 1.52516267395348E-02 
1161	 1.51733182963482E-02 
1162	 1.55940130886951E-02 
1163	 1.54513268775569E-02 
1164	 1.52492372227882E-02 
1165	 1.56337895861659E-02 
1166	 1.57448477687001E-02 
1167	 1.58087913638989E-02 
1168	 0.016264480055379 
1169	 1.66335120320265E-02 
1170	 1.66946692388804E-02 
1171	 1.66885102018889E-02 
1172	 1.66124826541593E-02 
1173	 1.66262000039146E-02 
1174	 1.65586710297108E-02 
1175	 1.64671846040068E-02 
1176	 1.65310123223248E-02 
1177	 1.68303663018031E-02 
1178	 0.016881596618906 
1179	 0.016671757319617 
1180	 1.65416500953189E-02 
1181	 1.65628798878842E-02 
1182	 1.65900518557836E-02 
1183	 1.65323028304447E-02 
1184	 1.65550258235071E-02 
1185	 1.65769460666723E-02 
1186	 1.64784946731834E-02 
1187	 0.016691185188221 
1188	 1.69782909684945E-02 
1189	 1.67031213221519E-02 
1190	 1.65254976875778E-02 
1191	 1.68134504462077E-02 
1192	 1.69014435146382E-02 
1193	 1.69669169674032E-02 
1194	 1.70864965417599E-02 
1195	 1.71478309116237E-02 
1196	 0.016867881538522 
1197	 1.66627271418582E-02 
1198	 1.68280234704388E-02 
1199	 1.70375858490277E-02 
1200	 1.69259203668561E-02 
1201	 1.68537573122599E-02 
1202	 1.69710610574304E-02 
1203	 0.017062285009263 
1204	 1.71504997421387E-02 
1205	 1.71658048566987E-02 
1206	 1.71053005592041E-02 
1207	 1.70489155718217E-02 
1208	 1.72297586898709E-02 
1209	 1.73213703041325E-02 
1210	 1.71985712458533E-02 
1211	 1.71955058898773E-02 
1212	 1.70863236758689E-02 
1213	 1.71255429341184E-02 
1214	 1.72449434445406E-02 
1215	 1.75852563412271E-02 
1216	 0.017645631154277 
1217	 1.75609395556418E-02 
1218	 1.75495048694963E-02 
1219	 1.76759773866289E-02 
1220	 1.77532605742547E-02 
1221	 1.77826358913279E-02 
1222	 1.80607962736258E-02 
1223	 1.81316478791848E-02 
1224	 1.79291636443728E-02 
1225	 0.018090730854937 
1226	 1.81932658225559E-02 
1227	 1.79385915326145E-02 
1228	 1.78632642677334E-02 
1229	 1.79607408169774E-02 
1230	 1.81030405206477E-02 
1231	 1.82445656259732E-02 
1232	 1.82755083320308E-02 
1233	 1.84027031232023E-02 
1234	 1.83237674822369E-02 
1235	 1.82635398382277E-02 
1236	 0.018331825405642 
1237	 1.84583457366071E-02 
1238	 1.85798849930696E-02 
1239	 1.84162531489927E-02 
1240	 1.86806826028518E-02 
1241	 1.88138632862248E-02 
1242	 1.85286388250227E-02 
1243	 1.85683469081054E-02 
1244	 0.018725485845825 
1245	 1.85337759370347E-02 
1246	 0.01850618724163 
1247	 1.86768134071097E-02 
1248	 1.86110986169824E-02 
1249	 1.84715585290496E-02 
1250	 1.84148239366336E-02 
1251	 1.83345998565735E-02 
1252	 0.01834159648133 
1253	 1.83719185008113E-02 
1254	 1.83147568286986E-02 
1255	 1.83630142866953E-02 
1256	 1.83793388087875E-02 
1257	 1.82702001733831E-02 
1258	 1.82240595409823E-02 
1259	 1.82838728841564E-02 
1260	 1.83176301979745E-02 
1261	 1.83684173631555E-02 
1262	 1.82501575375069E-02 
1263	 1.80314328005461E-02 
1264	 1.79086194768586E-02 
1265	 1.78819148444605E-02 
1266	 1.79596513766563E-02 
1267	 1.79672001753231E-02 
1268	 1.78247139745534E-02 
1269	 0.017631323517215 
1270	 1.75291768129377E-02 
1271	 1.78991490018727E-02 
1272	 1.82398268134164E-02 
1273	 0.018013921429128 
1274	 1.78203299608937E-02 
1275	 1.77778852499438E-02 
1276	 1.77413987497075E-02 
1277	 1.77918043456132E-02 
1278	 1.78818046683371E-02 
1279	 1.80390929526979E-02 
1280	 0.01807634199134 
1281	 1.80512142236732E-02 
1282	 1.81552349169468E-02 
1283	 1.81612289050498E-02 
1284	 1.78398495517234E-02 
1285	 1.77858448510766E-02 
1286	 1.80586767108374E-02 
1287	 1.79765927829899E-02 
1288	 1.75854866004613E-02 
1289	 1.75776126633028E-02 
1290	 0.017690078882417 
1291	 1.76751863855648E-02 
1292	 1.77430521760701E-02 
1293	 1.77206448566446E-02 
1294	 1.74603055731473E-02 
1295	 1.72617916766557E-02 
1296	 1.72589262623776E-02 
1297	 1.73683154097275E-02 
1298	 1.74135709652051E-02 
1299	 1.73975644560314E-02 
1300	 1.73022128222458E-02 
1301	 1.70653790019602E-02 
1302	 1.67690023536655E-02 
1303	 1.65833825316126E-02 
1304	 1.65641391232936E-02 
1305	 1.65407194219602E-02 
1306	 1.64724791573726E-02 
1307	 1.64549009000594E-02 
1308	 1.63840943630373E-02 
1309	 1.61609754474045E-02 
1310	 1.60363680436697E-02 
1311	 1.61189103327519E-02 
1312	 1.59721932652988E-02 
1313	 1.55957172070615E-02 
1314	 1.53478744727484E-02 
1315	 1.51085270669435E-02 
1316	 0.014913980704587 
1317	 1.45383433850062E-02 
1318	 1.45360385072659E-02 
1319	 1.51281508973948E-02 
1320	 1.50993466670116E-02 
1321	 1.45906457547226E-02 
1322	 1.49287913775418E-02 
1323	 1.53728406862495E-02 
1324	 1.45905972473398E-02 
1325	 1.37068020185625E-02 
1326	 0.013934828276078 
1327	 1.40304497312573E-02 
1328	 1.33748594683898E-02 
1329	 1.28570045354923E-02 
1330	 1.26690574639104E-02 
1331	 1.28417718246233E-02 
1332	 1.33247866652301E-02 
1333	 1.32064769030272E-02 
1334	 1.28224978586193E-02 
1335	 1.31739328290601E-02 
1336	 1.29163551885062E-02 
1337	 1.25108175136422E-02 
1338	 1.31085806347281E-02 
1339	 1.35298922548548E-02 
1340	 1.29200598492537E-02 
1341	 1.22616161099294E-02 
1342	 1.21400624399418E-02 
1343	 1.28219833762142E-02 
1344	 1.31277425613381E-02 
1345	 1.25658344334503E-02 
1346	 1.38151185983287E-02 
1347	 1.52142587081183E-02 
1348	 1.21738350940501E-02 
1349	 1.14606129616066E-02 
1350	 2.11192001178823E-02 
1351	 2.62995473328873E-02 
1352	 2.01993398484565E-02 
1353	 2.23618700190477E-02 
1354	 3.27746702102873E-02 
1355	 2.52427520455699E-02 
1356	 4.90624794996797E-02 
1357	 9.73553690337677E-02 
1358	 0.097458282545187 
1359	 5.38941962598907E-02 
1360	 5.77245415116299E-02 
1361	 0.11549015912307 
1362	 0.122427699267473 
1363	 0.174095785418371 
1364	 0.20527140974436 
1365	 0.14662831652559 
1366	 0.222693802256178 
1367	 0.286190669838017 
1368	 0.314248142892967 
1369	 0.312316270734751 
1370	 0.410979195720588 
1371	 0.461053743787774 
1372	 0.423459693208753 
1373	 0.472287989950845 
1374	 0.348126476148363 
1375	 4.26458005881195E-03 
1376	-2.38762752080704E-02 
1377	-4.35060518420319E-04 
1378	 5.74035109042516E-02 
1379	 0.562487276647761 
1380	 0.556227812969051 
1381	 0.31803604347619 
1382	 0.207762127866336 
1383	-0.356285831217018 
1384	-0.358393047440171 
1385	 3.48030027857281E-02 
1386	 7.63264507714683E-02 
1387	 0.106048917507971 
1388	 0.22181790948229 
1389	 0.126068877372082 
1390	 8.20031680970642E-02 
1391	 0.308907139041339 
1392	 0.355430754101829 
1393	 0.246171413581106 
1394	 0.259317162773785 
1395	 0.256870682490704 
1396	 0.325059482702687 
1397	 0.470840112882373 
1398	 0.304177443688554 
1399	 0.181027431652656 
1400	 0.375333867436121 
1401	 0.418913636360344 
1402	 0.414093644290465 
1403	 0.363572533819929 
1404	 0.197570026704661 
1405	 0.190492806473498 
1406	 0.372202150738146 
1407	 0.267309779319834 
1408	 7.90805373264323E-02 
1409	 0.132906330163731 
1410	 0.225342190040724 
1411	 0.176006280770133 
1412	 0.163510951864703 
1413	 0.188916531772995 
1414	 0.173335645908302 
1415	 0.117989787328333 
1416	 0.121719324144642 
1417	 0.128257437154892 
1418	 9.67912704257154E-02 
1419	 6.84612652958816E-02 
1420	 7.57072950823964E-02 
1421	 6.88467038136524E-02 
1422	 4.22855563358616E-02 
1423	 2.28399373945132E-02 
1424	 4.66395144549759E-03 
1425	 3.70798044766904E-03 
1426	 6.72739126387499E-03 
1427	 4.34581638255574E-03 
1428	 3.98776847430228E-03 
1429	 0.01132620351682 
1430	 2.89504247126201E-02 
1431	 2.55315116526775E-02 
1432	 1.18643371628145E-02 
1433	 1.01229961615747E-02 
1434	-4.81732510458267E-03 
1435	-9.77947724352348E-03 
1436	-8.7095613968873E-04 
1437	 1.76505352821068E-02 
1438	 1.98950485458477E-02 
1439	 1.52119668797485E-02 
1440	 1.56189380764918E-02 
1441	 1.89469708709369E-02 
1442	 2.87525564315788E-02 
1443	 3.16210435375902E-02 
1444	 2.40218688697533E-02 
1445	 2.05356020762634E-02 
1446	 1.77015425324589E-02 
1447	 1.46033606208947E-02 
1448	 1.49759258304315E-02 
1449	 1.16712849488809E-02 
1450	 6.63296056526167E-03 
1451	 6.68368684092566E-03 
1452	 9.73814200691079E-03 
1453	 1.16823139752234E-02 
1454	 1.11657074507352E-02 
1455	 1.01799127056632E-02 
1456	 1.03428597250832E-02 
1457	 8.74721606602738E-03 
1458	 9.43813445840795E-03 
1459	 1.25588469458968E-02 
1460	 0.013623475578639 
1461	 1.48829536956008E-02 
1462	 1.39142168933711E-02 
1463	 1.06833252713088E-02 
1464	 0.010393007876175 
1465	 9.75078812497032E-03 
1466	 9.20541096504191E-03 
1467	 1.14410602310107E-02 
1468	 1.20667798343833E-02 
1469	 1.04384828383228E-02 
1470	 9.61405881912814E-03 
1471	 9.6832447302823E-03 
1472	 1.01546863838072E-02 
1473	 1.01916247642092E-02 
1474	 1.01258258770343E-02 
1475	 0.010610465884759 
1476	 1.14389146108827E-02 
1477	 1.28086686001172E-02 
1478	 1.20795524750391E-02 
1479	 1.05700861676806E-02 
1480	 1.06496734300015E-02 
1481	 9.86647367889302E-03 
1482	 9.4185454854879E-03 
1483	 1.02946169112654E-02 
1484	 1.08420261104078E-02 
1485	 1.07317777400802E-02 
1486	 1.07503467190708E-02 
1487	 1.09962217065019E-02 
1488	 1.15900501740259E-02 
1489	 1.21996507353287E-02 
1490	 0.012438019161296 
1491	 1.28787719980682E-02 
1492	 1.32766970303321E-02 
1493	 1.34525953142393E-02 
1494	 1.34222390114605E-02 
1495	 0.013338568884915 
1496	 1.34702166596463E-02 
1497	 1.33055089950779E-02 
1498	 1.34350149038002E-02 
1499	 1.41827810812014E-02 
1500	 1.44943618290689E-02 
1501	 1.46265366151502E-02 
1502	 1.46791212713277E-02 
1503	 1.44025107944249E-02 
1504	 1.44294670455541E-02 
1505	 0.014453237752877 
1506	 1.47716619297539E-02 
1507	 1.50881577081203E-02 
1508	 1.52900204486376E-02 
1509	 1.53661832942278E-02 
1510	 1.52893000235475E-02 
1511	 1.51824554965861E-02 
1512	 1.50890978175252E-02 
1513	 1.50315766038421E-02 
1514	 1.49934770798468E-02 
1515	 1.51232787027009E-02 
1516	 1.53682581126159E-02 
1517	 1.56436778449831E-02 
1518	 1.58081476260601E-02 
1519	 1.56372732774095E-02 
1520	 1.56137119976711E-02 
1521	 1.58103596630588E-02 
1522	 1.58082407102098E-02 
1523	 1.58585438395699E-02 
1524	 1.60398901815155E-02 
1525	 1.62537429432083E-02 
1526	 1.63641823664694E-02 
1527	 1.62061943677303E-02 
1528	 1.61635162772048E-02 
1529	 1.60946349628075E-02 
1530	 1.59722845071465E-02 
1531	 1.61719887054541E-02 
1532	 1.63482045469092E-02 
1533	 0.01641447598773 
1534	 1.63851024873508E-02 
1535	 0.016364709335377 
1536	 1.64863276968414E-02 
1537	 1.64898698668611E-02 
1538	 1.65916885157973E-02 
1539	 1.67571367632657E-02 
1540	 1.66904648744981E-02 
1541	 1.66083128942349E-02 
1542	 1.66327845711602E-02 
1543	 1.66004391053274E-02 
1544	 0.016597199231626 
1545	 1.68690762506243E-02 
1546	 1.70113784489549E-02 
1547	 1.69136378730478E-02 
1548	 1.69777738692837E-02 
1549	 1.69999508905802E-02 
1550	 1.69292393480321E-02 
1551	 1.68533182497578E-02 
1552	 1.68088460692435E-02 
1553	 1.69527337713028E-02 
1554	 1.69740312167767E-02 
1555	 1.68556045138216E-02 
1556	 1.68527697614338E-02 
1557	 1.69313132517596E-02 
1558	 1.70292115247411E-02 
1559	 1.69093174863808E-02 
1560	 1.67535252269373E-02 
1561	 1.66877624820161E-02 
1562	 0.016497762769391 
1563	 1.64888366632416E-02 
1564	 1.66943287783387E-02 
1565	 1.68348803625378E-02 
1566	 1.68000093744247E-02 
1567	 1.66022555671001E-02 
1568	 1.66828250967218E-02 
1569	 0.016919080198989 
1570	 1.67625933517594E-02 
1571	 1.66159295507174E-02 
1572	 1.67165849438493E-02 
1573	 1.67790401425931E-02 
1574	 1.67887427109977E-02 
1575	 1.67768320463092E-02 
1576	 1.67740657556612E-02 
1577	 1.66833599270397E-02 
1578	 1.66516187025897E-02 
1579	 1.68712488579482E-02 
1580	 1.70775630294944E-02 
1581	 1.70398141410122E-02 
1582	 1.67328514771898E-02 
1583	 1.65945324524607E-02 
1584	 1.68828789449846E-02 
1585	 1.70621290437061E-02 
1586	 0.016986996858889 
1587	 1.69984576270249E-02 
1588	 1.69272095122617E-02 
1589	 1.68534333211317E-02 
1590	 1.70556397685055E-02 
1591	 1.70265347352398E-02 
1592	 1.68410923964381E-02 
1593	 1.69492051799215E-02 
1594	 1.71105847929405E-02 
1595	 1.70661187055069E-02 
1596	 1.67827022952498E-02 
1597	 1.66358520718921E-02 
1598	 1.67206532652215E-02 
1599	 0.016603216429985 
1600	 1.64921983066908E-02 
1601	 1.65455923401647E-02 
1602	 1.64042374066039E-02 
1603	 1.63408146333535E-02 
1604	 1.66740311785204E-02 
1605	 1.70075499738226E-02 
1606	 0.016895636917296 
1607	 0.016728126238361 
1608	 1.68854784037808E-02 
1609	 1.69061670177891E-02 
1610	 1.67783590732507E-02 
1611	 1.69518264762664E-02 
1612	 1.72103778043298E-02 
1613	 0.017190348780093 
1614	 1.71015261134908E-02 
1615	 1.70809525540728E-02 
1616	 0.016956078586167 
1617	 1.67338059166386E-02 
1618	 1.67746894043344E-02 
1619	 1.68996748089032E-02 
1620	 1.67681397029603E-02 
1621	 1.67571513296967E-02 
1622	 1.68507953840916E-02 
1623	 1.69430889959479E-02 
1624	 1.70039924447163E-02 
1625	 1.68179186357446E-02 
1626	 1.67141364529669E-02 
1627	 1.67723941353594E-02 
1628	 1.67130533501067E-02 
1629	 1.66913733880861E-02 
1630	 1.67054208973424E-02 
1631	 1.65696859548659E-02 
1632	 1.65304810727072E-02 
1633	 1.66957451980456E-02 
1634	 1.67350128595855E-02 
1635	 0.016632409858198 
1636	 0.016589555718012 
1637	 1.66681476415406E-02 
1638	 1.67755356773159E-02 
1639	 0.016698698174897 
1640	 1.66182281662326E-02 
1641	 1.67048701994997E-02 
1642	 1.67132716386168E-02 
1643	 1.67204211084582E-02 
1644	 1.68049932880583E-02 
1645	 1.68253927084144E-02 
1646	 1.69064999732965E-02 
1647	 1.68235798217701E-02 
1648	 1.66864183110808E-02 
1649	 1.68337338773153E-02 
1650	 1.67159251743785E-02 
1651	 1.65275324978395E-02 
1652	 0.01663343538157 
1653	 0.016632999594575 
1654	 1.66232962864556E-02 
1655	 1.68697156778741E-02 
1656	 1.69166082712435E-02 
1657	 1.66349289739762E-02 
1658	 1.65719202273454E-02 
1659	 1.66903203038547E-02 
1660	 1.66938169119594E-02 
1661	 1.67192297466268E-02 
1662	 1.66729239948054E-02 
1663	 0.016511068911093 
1664	 1.65480587326589E-02 
1665	 1.67074996300219E-02 
1666	 1.65824571309776E-02 
1667	 1.62393914232494E-02 
1668	 1.63895671279985E-02 
1669	 1.66042407104112E-02 
1670	 1.64928176001346E-02 
1671	 1.63682458535456E-02 
1672	 1.62247571215303E-02 
1673	 1.62661105732063E-02 
1674	 1.66391287138039E-02 
1675	 1.67163081642749E-02 
1676	 1.65190941353761E-02 
1677	 0.016480292739472 
1678	 1.63447268075792E-02 
1679	 1.63096093995375E-02 
1680	 1.65766626518173E-02 
1681	 1.65686272171946E-02 
1682	 1.63531176660138E-02 
1683	 1.64663073968068E-02 
1684	 1.69170986926145E-02 
1685	 1.69196934538709E-02 
1686	 1.63714206420859E-02 
1687	 1.62199486723953E-02 
1688	 1.62644246854117E-02 
1689	 0.016192541486227 
1690	 1.64885406523551E-02 
1691	 1.67202568278973E-02 
1692	 1.62368331486544E-02 
1693	 1.59458181544311E-02 
1694	 1.62956679087945E-02 
1695	 1.62643533425813E-02 
1696	 1.62111462855779E-02 
1697	 1.62503683368833E-02 
1698	 1.55896162341918E-02 
1699	 1.54253380185257E-02 
1700	 1.61597495276238E-02 
1701	 1.64151114837113E-02 
1702	 1.62987954328083E-02 
1703	 1.63286819208033E-02 
1704	 1.61230860425184E-02 
1705	 1.60249083712936E-02 
1706	 1.65556950301549E-02 
1707	 1.68117807898548E-02 
1708	 1.62376874594707E-02 
1709	 1.58785165766053E-02 
1710	 1.58247913721267E-02 
1711	 1.57825542042644E-02 
1712	 1.62525104838008E-02 
1713	 1.58143265352179E-02 
1714	 1.56386214702249E-02 
1715	 0.015618702405973 
1716	 1.55530362748553E-02 
1717	 1.60215303547733E-02 
1718	 1.61968755823333E-02 
1719	 1.61360295335416E-02 
1720	 1.63439011424939E-02 
1721	 1.61065265455152E-02 
1722	 1.55733458526831E-02 
1723	 1.53003147135503E-02 
1724	 1.53540790651531E-02 
1725	 1.54579961098659E-02 
1726	 1.55523946496407E-02 
1727	 0.015721920368939 
1728	 1.53389331752469E-02 
1729	 1.50512088147344E-02 
1730	 1.56101396440241E-02 
1731	 1.56167160722168E-02 
1732	 1.53333439947471E-02 
1733	 1.56697641312606E-02 
1734	 1.54850660660178E-02 
1735	 1.51165993128198E-02 
1736	 1.51038091820866E-02 
1737	 1.48023638385118E-02 
1738	 1.47257323024477E-02 
1739	 1.50740093636975E-02 
1740	 1.53117442034727E-02 
1741	 1.54482485263387E-02 
1742	 1.55121543487649E-02 
1743	 1.52866337265253E-02 
1744	 1.50460111176321E-02 
1745	 1.50175058374296E-02 
1746	 1.47242800184191E-02 
1747	 1.45375715269829E-02 
1748	 1.43713724081413E-02 
1749	 1.46044002076363E-02 
1750	 1.53802240845979E-02 
1751	 1.53854585857331E-02 
1752	 0.015428609734124 
1753	 1.53690171103756E-02 
1754	 1.42068412395793E-02 
1755	 1.39841010212985E-02 
1756	 1.46458366728206E-02 
1757	 1.45380726537203E-02 
1758	 1.48894217624663E-02 
1759	 0.014745913219988 
1760	 1.42045536735486E-02 
1761	 0.014266567935875 
1762	 1.45464222580635E-02 
1763	 1.48100754281447E-02 
1764	 1.52833694971037E-02 
1765	 1.50393774026932E-02 
1766	 1.39528829231972E-02 
1767	 1.34409841150262E-02 
1768	 1.35647562100123E-02 
1769	 1.42954796003981E-02 
1770	 1.48017909594551E-02 
1771	 1.45754035601876E-02 
1772	 0.014006751971909 
1773	 1.29315277144846E-02 
1774	 1.28041241996283E-02 
1775	 0.012723566357073 
1776	 1.26156156822766E-02 
1777	 1.25094490789512E-02 
1778	 1.21438530483881E-02 
1779	 1.18876808323171E-02 
1780	 1.17950672567944E-02 
1781	 0.011451757271667 
1782	 1.18882076418464E-02 
1783	 0.013560985063747 
1784	 1.35316460417658E-02 
1785	 1.24296865678014E-02 
1786	 1.26292484104214E-02 
1787	 1.20748300886799E-02 
1788	 1.21451567268477E-02 
1789	 1.48081416390712E-02 
1790	 1.46717276633773E-02 
1791	 1.48028578010611E-02 
1792	 0.015576320164697 
1793	 1.30066304841745E-02 
1794	 1.08893825499235E-02 
1795	 7.01456244798569E-03 
1796	 3.2430654069622E-03 
1797	 8.1618286654181E-03 
1798	 0.017667806290932 
1799	 2.61197168877606E-02 
1800	 2.86278997452064E-02 
1801	 2.94658001919209E-02 
1802	 1.45332586543544E-02 
1803	 0.003687760252401 
1804	-1.31449807135087E-02 
1805	-1.29757724179053E-02 
1806	 1.54077150860035E-02 
1807	 3.37810290976378E-02 
1808	 0.102292479107854 
1809	 0.140116856558704 
1810	 5.76122487151927E-02 
1811	 7.81294682134889E-02 
1812	 0.180588198635574 
1813	 0.24873668367606 
1814	 0.366684698220901 
1815	 0.379904227676916 
1816	 0.213731416669686 
1817	-1.04352111392394E-02 
1818	-0.113255449672656 
1819	-0.123626895296077 
1820	 8.50973266845968E-02 
1821	 1.13465964438554 
1822	 1.4934448760451 
1823	 0.802342509330058 
1824	 0.665094232514088 
1825	 0.217681024861221 
1826	 8.54095558387058E-02 
1827	 0.409516042937188 
1828	 0.535242396956536 
1829	 0.22232566549105 
1830	 2.15542686644978E-02 
1831	 0.560249160139229 
1832	 0.610058862812365 
1833	 1.17882910491352 
1834	 4.83162762517583 
1835	-20.5704529853534 
1836	-40.130244997308 
1837	 2.44447128183188 
1838	 2.47113739771176 
1839	 14.1084814434958 
1840	-1.30819153772902 
1841	-0.235489559374021 
1842	-0.377247677239034 
1843	-0.266829178485639 
1844	-0.311203056971265 
1845	-0.818347955039448 
1846	-1.73702135804285 
1847	-1.94900892828929 
1848	-4.57951672556684 
1849	 1.18056851758801 
1850	 0.24866619496848 
1851	-1.19407391750064 
1852	 0.795070939911738 
1853	 2.34603800001081 
1854	-1.89442579761502 
1855	-9.02088279955701E-02 
1856	 0.145901850525917 
1857	 0.449719318442827 
1858	 0.492675708301609 
1859	 0.82341990759683 
1860	 0.584234149176943 
1861	-1.13623117104686 
1862	-1.2918815046398 
1863	-2.34878562394715 
1864	-1.58193234946139 
1865	-1.13544102907015 
1866	-1.50712654901624 
1867	-1.92725801736198 
1868	-1.16342202110179 
1869	-0.650598457171604 
1870	-0.194640333858283 
1871	 1.96438432842015 
1872	 1.99493086984197 
1873	 2.20297644663995 
1874	 18.6569995792429 
1875	-1.54576847420079 
1876	-0.326444630705709 
1877	-0.820641713726365 
1878	-0.116538848199197 
1879	 1.78955378029962 
1880	 2.70752702139137 
1881	 22.5096870863735 
1882	-43.6252776496468 
1883	-5.94539231042956 
1884	 98.8446472680214 
1885	 1.39664911404994 
1886	 1.43279598045476 
1887	-52.0630437815092 
1888	 134.049652618108 
1889	-8.59965705247558 
1890	-3.32993619249629 
1891	-2.65271463138283 
1892	 0.182929157638053 
1893	 1.30552809994548 
1894	 0.835119282010599 
1895	 0.250873666706972 
1896	-0.907283875681886 
1897	-1.56067181142897 
1898	-3.16798326563329 
1899	-4.22542613438481 
1900	-8.48112724139521 
1901	 0.593509339242718 
1902	-0.326522958980957 
1903	-0.291002604369734 
1904	-0.717243563894835 
1905	-0.454847502152725 
1906	-0.152201323274189 
1907	-0.113396315520821 
1908	-0.23997329930412 
1909	-0.102622111084098 
1910	 0.323257732532068 
1911	 1.02783460163832 
1912	 1.05731416545644 
1913	 1.27403399940845 
1914	 26.0345705463998 
1915	-1.43039827218539 
1916	-0.688536705021576 
1917	-1.63923163653305 
1918	-1.619495946851 
1919	-3.38530465065828 
1920	 14.3204955239756 
1921	 14.618870231625 
1922	 3.64898539040794 
1923	 0.455588837384496 
1924	 0.19000528617921 
1925	-0.0455710720824 
1926	-0.10067239622576 
1927	 0.442662377978699 
1928	 0.219620290740538 
1929	-0.293918762075684 
1930	 0.060940374468208 
1931	 0.195659734490965 
1932	-0.042469904564814 
1933	-0.45013800594527 
1934	-0.842871648773737 
1935	-0.813474729098253 
1936	-0.247672012175508 
1937	 3.20367761336127E-02 
1938	-4.28834527211626E-02 
1939	-6.77981864570874E-02 
1940	-0.175022920317405 
1941	-0.150539703046669 
1942	-0.136005553982768 
1943	-9.87180936793031E-02 
1944	-9.13934368802159E-02 
1945	-0.106222767870556 
1946	-4.59419092676154E-02 
1947	-1.21371280358555E-03 
1948	 1.17876143534689E-02 
1949	 1.95826872584233E-02 
1950	 2.58357948585622E-03 
1951	 7.1109411360829E-03 
1952	 1.56025163320888E-02 
1953	 4.61416347551642E-02 
1954	 4.54145751106238E-02 
1955	 3.79299687037302E-02 
1956	 1.29148908020357E-02 
1957	-1.11355011306022E-02 
1958	 1.34978733516851E-03 
1959	 6.84278463758026E-03 
1960	 4.33240805434038E-03 
1961	 7.53837249470645E-03 
1962	 9.07435102124492E-03 
1963	 5.44953140395457E-03 
1964	-1.17172438254796E-05 
1965	-1.44423932373429E-03 
1966	-4.3815729747135E-04 
1967	-9.57446934304854E-04 
1968	 2.18467696857766E-03 
1969	 8.14722015322411E-03 
1970	 1.07199023787481E-02 
1971	 1.11583341975833E-02 
1972	 9.63861668922595E-03 
1973	 6.8872758038984E-03 
1974	 4.92514478200846E-03 
1975	 4.72734270270086E-03 
1976	 5.26634742877248E-03 
1977	 6.37815355231776E-03 
1978	 7.8875680209581E-03 
1979	 8.56743151913808E-03 
1980	 8.56550076167483E-03 
1981	 8.45415284126213E-03 
1982	 8.56485918202505E-03 
1983	 9.42588243483706E-03 
1984	 9.69069056243755E-03 
1985	 1.02965643607935E-02 
1986	 1.17224032275246E-02 
1987	 1.08051341337867E-02 
1988	 0.010234155039299 
1989	 9.79329387029142E-03 
1990	 7.88626505528967E-03 
1991	 8.14213366529432E-03 
1992	 9.97746712136502E-03 
1993	 0.010055790903008 
1994	 1.02235363021299E-02 
1995	 1.03533480273719E-02 
1996	 0.011378194437624 
1997	 1.17840078304078E-02 
1998	 1.23657160538065E-02 
1999	 1.32464822216113E-02 
2000	 1.30730820169868E-02 
2001	 1.04905553503724E-02 
2002	 7.42271363302414E-03 
2003	 6.86668431832386E-03 
2004	 6.27456329426917E-03 
2005	 5.51509696307152E-03 
2006	 7.37951273306764E-03 
2007	 9.99542064264316E-03 
2008	 8.51659663367226E-03 
2009	 7.49038605249447E-03 
2010	 5.02948893282041E-03 
2011	 4.89637209074989E-03 
2012	 4.63462603331556E-03 
2013	 5.81940294211413E-03 
2014	 9.38004345170539E-03 
2015	 9.66274315544094E-03 
2016	 1.00324733771083E-02 
2017	 1.09873304477812E-02 
2018	 0.010134958841583 
2019	 9.23847570202965E-03 
2020	 7.28983611321523E-03 
2021	 7.16852960421997E-03 
2022	 9.21651705695463E-03 
2023	 1.00742243000981E-02 
2024	 1.04674761148848E-02 
2025	 1.13090072629959E-02 
2026	 1.15778417059343E-02 
2027	 1.07898939788156E-02 
2028	 1.05179749525267E-02 
2029	 1.20056356304897E-02 
2030	 1.20035967955141E-02 
2031	 1.08699824509684E-02 
2032	 1.16158731306703E-02 
2033	 1.21429994329533E-02 
2034	 1.25469294598482E-02 
2035	 1.36143479543722E-02 
2036	 1.34777336188192E-02 
2037	 1.25781465577797E-02 
2038	 1.23312253282141E-02 
2039	 1.21884815257101E-02 
2040	 1.23530862627864E-02 
2041	 1.25351381576965E-02 
2042	 1.29025935743487E-02 
2043	 1.30160676286866E-02 
2044	 1.32500142800984E-02 
2045	 1.33887551109109E-02 
2046	 1.26674776406033E-02 
2047	 1.17655184110821E-02 
2048	 1.04087122848833E-02 
2049	 9.7316442699182E-03 
2050	 1.06607455743358E-02 
2051	 0.011144165587565 
2052	 0.011266391317258 
2053	 1.20561583717123E-02 
2054	 1.15556825129543E-02 
2055	 9.94900089032804E-03 
2056	 9.40229157478737E-03 
2057	 8.9438632167815E-03 
2058	 9.02228643707109E-03 
2059	 1.03869746867779E-02 
2060	 1.14003579156962E-02 
2061	 0.013318420038325 
2062	 1.30746028701739E-02 
2063	 1.20912793372755E-02 
2064	 1.10709119731904E-02 
2065	 1.02832858371949E-02 
2066	 1.08630491308629E-02 
2067	 1.19806587098392E-02 
2068	 1.29571204840333E-02 
2069	 1.30497499650378E-02 
2070	 0.012558115055444 
2071	 1.27196337127594E-02 
2072	 1.23944438090303E-02 
2073	 1.24218174208478E-02 
2074	 0.013042650620789 
2075	 0.013031032318875 
2076	 1.23728188149129E-02 
2077	 1.25353190937333E-02 
2078	 1.29732752426717E-02 
2079	 1.27669082241928E-02 
2080	 0.012504754630559 
2081	 1.27727952167105E-02 
2082	 1.28327680073739E-02 
2083	 0.013191431228783 
2084	 1.33892861437322E-02 
2085	 1.34840166919814E-02 
2086	 1.32128230110337E-02 
2087	 1.21954426087385E-02 
2088	 1.23422036677031E-02 
2089	 1.31669575611028E-02 
2090	 1.33726086515191E-02 
2091	 1.36413532319991E-02 
2092	 1.34577656947292E-02 
2093	 1.22301109264429E-02 
2094	 1.20995764675052E-02 
2095	 1.25953352714217E-02 
2096	 1.27051514033388E-02 
2097	 1.33069101784521E-02 
2098	 1.35615386885412E-02 
2099	 1.39582000771175E-02 
2100	 1.25669935949755E-02 
2101	 1.15467181006032E-02 
2102	 1.17641890993908E-02 
2103	 1.14012306647017E-02 
2104	 1.14900046980609E-02 
2105	 1.27416060826115E-02 
2106	 1.33345615443583E-02 
2107	 1.26963590747881E-02 
2108	 1.27005741401994E-02 
2109	 1.33495457519536E-02 
2110	 1.32041855367503E-02 
2111	 1.30015660249319E-02 
2112	 1.33367641894793E-02 
2113	 1.36589204336135E-02 
2114	 1.33174214344707E-02 
2115	 1.34945424476947E-02 
2116	 1.48513363839701E-02 
2117	 1.48609626210573E-02 
2118	 1.38618975268837E-02 
2119	 1.36909558922958E-02 
2120	 1.31145914228543E-02 
2121	 1.32504906150404E-02 
2122	 1.48778917198487E-02 
2123	 1.52695110778058E-02 
2124	 1.52931115251496E-02 
2125	 1.50894901132613E-02 
2126	 0.013834086436306 
2127	 1.26854462946509E-02 
2128	 1.22634722097599E-02 
2129	 1.23599827079976E-02 
2130	 1.31018950178794E-02 
2131	 0.014386923096684 
2132	 1.50146954897454E-02 
2133	 1.49697934319254E-02 
2134	 1.49407366596822E-02 
2135	 1.41450072136632E-02 
2136	 1.40260421804102E-02 
2137	 1.42012626324436E-02 
2138	 1.43454156278671E-02 
2139	 1.47138168589323E-02 
2140	 1.49191812750437E-02 
2141	 1.52304076853757E-02 
2142	 1.53237046097817E-02 
2143	 1.54225914137365E-02 
2144	 1.50980489925223E-02 
2145	 1.47868335592849E-02 
2146	 1.42653894808238E-02 
2147	 1.43570359714351E-02 
2148	 1.48155021546762E-02 
2149	 1.49810606195757E-02 
2150	 1.49438093190762E-02 
2151	 1.39126447164659E-02 
2152	 1.33120342606741E-02 
2153	 0.013045884741308 
2154	 1.28863162379749E-02 
2155	 1.38422246813439E-02 
2156	 0.014005420561758 
2157	 1.40682894373681E-02 
2158	 1.42209939412594E-02 
2159	 1.35289189215755E-02 
2160	 1.16640336822889E-02 
2161	 0.011383859510132 
2162	 1.10582951852093E-02 
2163	 1.13772716622903E-02 
2164	 1.35673932915475E-02 
2165	 0.014253889876413 
2166	 0.013961730036436 
2167	 1.43601820635413E-02 
2168	 1.51298460945124E-02 
2169	 1.48037433533383E-02 
2170	 1.39072185771528E-02 
2171	 1.38732848365718E-02 
2172	 1.21963824063376E-02 
2173	 1.14744567405412E-02 
2174	 1.31644987701201E-02 
2175	 1.44310825829225E-02 
2176	 1.55024230277534E-02 
2177	 1.57144705625254E-02 
2178	 1.42045298732025E-02 
2179	 1.29878887224252E-02 
2180	 1.25964585962223E-02 
2181	 1.33164901830674E-02 
2182	 1.38257488713424E-02 
2183	 1.27200134474637E-02 
2184	 1.21732295959546E-02 
2185	 1.24583371085335E-02 
2186	 1.24610079501449E-02 
2187	 1.31067500992737E-02 
2188	 1.38676728447281E-02 
2189	 1.46437601757366E-02 
2190	 1.50299712269618E-02 
2191	 1.63003091495443E-02 
2192	 1.62881248438748E-02 
2193	 1.48314826127023E-02 
2194	 0.013715051652032 
2195	 1.12041061614823E-02 
2196	 1.07789378210615E-02 
2197	 1.24063854063818E-02 
2198	 0.012384542250522 
2199	 1.23364016324757E-02 
2200	 1.27257472006129E-02 
2201	 1.28038662056073E-02 
2202	 1.20537517689019E-02 
2203	 1.15874998187581E-02 
2204	 0.012202363801127 
2205	 1.19181907187764E-02 
2206	 1.09063972680075E-02 
2207	 1.24286578458231E-02 
2208	 1.34059207201837E-02 
2209	 1.15070793174506E-02 
2210	 1.11545302503761E-02 
2211	 1.13619924937813E-02 
2212	 1.13328371828927E-02 
2213	 1.37343906361984E-02 
2214	 1.52703930312627E-02 
2215	 1.50274131078494E-02 
2216	 1.43212260709134E-02 
2217	 1.32874337935637E-02 
2218	 0.011018422122725 
2219	 0.010936057899105 
2220	 1.15816544093819E-02 
2221	 1.14298750574123E-02 
2222	 1.26303100620913E-02 
2223	 1.23461161716179E-02 
2224	 9.66803684362894E-03 
2225	 9.6214072839435E-03 
2226	 1.07346037593695E-02 
2227	 1.16602404609478E-02 
2228	 1.41701739878685E-02 
2229	 1.51482980885878E-02 
2230	 0.01557247794956 
2231	 1.57764373428278E-02 
2232	 1.48783798568051E-02 
2233	 1.47976209649487E-02 
2234	 1.53472804970139E-02 
2235	 1.45801746522426E-02 
2236	 1.46903217339882E-02 
2237	 0.014528115321731 
2238	 1.29378862844645E-02 
2239	 1.11670574373059E-02 
2240	 0.010390890923438 
2241	 1.01354797516585E-02 
2242	 1.04247222246501E-02 
2243	 1.05973599652795E-02 
2244	 9.77086487016422E-03 
2245	 8.8274446944708E-03 
2246	 7.57412178398939E-03 
2247	 8.47590671267246E-03 
2248	 9.83226588217303E-03 
2249	 1.00527226563625E-02 
2250	 1.08935643554414E-02 
2251	 0.011216958457243 
2252	 1.15296906755656E-02 
2253	 0.012338247102771 
2254	 1.36684758969333E-02 
2255	 1.39243170235911E-02 
2256	 1.12748475228851E-02 
2257	 9.5520295382659E-03 
2258	 0.010183273343889 
2259	 1.19492827362429E-02 
2260	 1.35479390576269E-02 
2261	 1.84715500655606E-02 
2262	 1.94314790921566E-02 
2263	 1.74912505347047E-02 
2264	 1.67217465764578E-02 
2265	 1.58109525096147E-02 
2266	 1.46014508548588E-02 
2267	 1.24639296507564E-02 
2268	 1.12714595793449E-02 
2269	 1.03443140003827E-02 
2270	 9.57949980783481E-03 
2271	 9.33150506343385E-03 
2272	 9.34969139056333E-03 
2273	 9.49855301703939E-03 
2274	 9.0860438614359E-03 
2275	 8.75674931684191E-03 
2276	 8.66341737337847E-03 
2277	 7.29304156259589E-03 
2278	 8.06883667457923E-03 
2279	 1.24986136862557E-02 
2280	 1.35347688722473E-02 
2281	 1.37182422403554E-02 
2282	 1.32446513008072E-02 
2283	 1.27664833276728E-02 
2284	 1.18762995765279E-02 
2285	 1.19437440310083E-02 
2286	 1.34456553313483E-02 
2287	 1.49579983748034E-02 
2288	 1.37156469741219E-02 
2289	 1.12030395552485E-02 
2290	 1.25279244675591E-02 
2291	 1.24275172440043E-02 
2292	 9.64314593858573E-03 
2293	 1.19404855513942E-02 
2294	 1.24827535416649E-02 
2295	 8.91951687017182E-03 
2296	 7.22463948875807E-03 
2297	 7.45666094353954E-03 
2298	 8.95485287141612E-03 
2299	 1.02022456914135E-02 
2300	 1.06405841350733E-02 
2301	 9.99405559273947E-03 
2302	 7.99437921535618E-03 
2303	 6.76846514816244E-03 
2304	 9.96090886673604E-03 
2305	 1.38045088464038E-02 
2306	 1.44869940571593E-02 
2307	 1.62469206513241E-02 
2308	 1.45199102969026E-02 
2309	 9.11745357859441E-03 
2310	 8.16177967875158E-03 
2311	 6.72154993150316E-03 
2312	 3.10061090887022E-03 
2313	 3.68009447027469E-03 
2314	 5.42730318679086E-03 
2315	 6.85892785300796E-03 
2316	 7.84102852881293E-03 
2317	 5.83682849275571E-03 
2318	 2.58691083051402E-03 
2319	 4.62655524522887E-04 
2320	 1.74730813542187E-03 
2321	 1.65629761910915E-03 
2322	 4.14075340981503E-03 
2323	 7.00474268050717E-03 
2324	 3.12318218558594E-03 
2325	 4.78384580386552E-03 
2326	 7.84391938077674E-03 
2327	 6.88617874043468E-03 
2328	 6.96779443970082E-03 
2329	 8.55733529430344E-03 
2330	 1.01204044724805E-02 
2331	 5.49432924546592E-03 
2332	 2.28804146239726E-03 
2333	 4.97519654755151E-03 
2334	 3.02864316780612E-03 
2335	 1.53740537142917E-03 
2336	 5.28884242297073E-03 
2337	 5.33917476701908E-03 
2338	 1.71157855052231E-03 
2339	 1.16672865655391E-04 
2340	-2.94038370869368E-04 
2341	 5.35166976849055E-04 
2342	 3.74911890573472E-03 
2343	 5.5780487660111E-03 
2344	 4.59089024621223E-03 
2345	-8.4595091042847E-04 
2346	-5.69126716163474E-03 
2347	-3.2159272889025E-03 
2348	-3.32917170804682E-03 
2349	-1.01753802225968E-02 
2350	-1.31665412266474E-02 
2351	-1.03543959369628E-02 
2352	-6.83811019973992E-03 
2353	 2.39280990826004E-03 
2354	 1.15240078015619E-02 
2355	 7.43450380641263E-03 
2356	-4.3603425431835E-04 
2357	 0.001618714891774 
2358	 8.75712162736406E-03 
2359	 6.58372795725904E-03 
2360	 1.25702980662871E-03 
2361	 2.75773463443758E-03 
2362	-9.49895147532802E-04 
2363	-5.4327969647949E-03 
2364	-2.27925906252274E-03 
2365	-5.6506093286973E-03 
2366	-1.02063719225722E-02 
2367	-5.28087137989498E-03 
2368	-4.13748268261593E-03 
2369	-4.93374616893264E-03 
2370	-1.23292477259644E-02 
2371	-2.33862363540431E-02 
2372	-1.64982970479716E-02 
2373	-1.63366687237646E-02 
2374	-9.6826283987261E-03 
2375	 7.44734425530101E-03 
2376	 1.05228432039197E-02 
2377	 2.07312393964984E-02 
2378	 2.60248473414889E-02 
2379	 1.96300101724628E-02 
2380	-1.45344786406164E-03 
2381	-1.82372694683052E-02 
2382	-1.98260896187904E-02 
2383	-4.22435475009767E-02 
2384	-4.73377419337677E-02 
2385	-4.51669713993959E-02 
2386	-6.99707720138743E-02 
2387	-7.02628800905909E-02 
2388	-5.64939399667452E-02 
2389	-4.25386117680697E-02 
2390	-3.34755342867267E-02 
2391	-2.44428718233407E-02 
2392	-7.6285024445117E-03 
2393	-3.62511637675636E-03 
2394	 4.81447893207339E-03 
2395	 8.4559957018778E-03 
2396	-1.68098772425334E-02 
2397	-4.76672006434334E-02 
2398	-6.39614506910387E-02 
2399	-6.87657717758168E-02 
2400	-5.37902888367428E-02 
2401	-2.59228303384984E-02 
2402	-2.44499911439122E-02 
2403	-5.52570760900981E-02 
2404	-9.64520785843531E-02 
2405	-0.142834058727191 
2406	-0.162395245247407 
2407	-0.143857058998969 
2408	-0.142438878268742 
2409	-0.12692567423021 
2410	-9.20926135131836E-02 
2411	-9.79502492282956E-02 
2412	-9.45292720171496E-02 
2413	-0.101901226446667 
2414	-0.143530406130872 
2415	-0.179038866149006 
2416	-0.208505124199852 
2417	-0.152794557152339 
2418	-0.100981595958226 
2419	-9.83973999784161E-02 
2420	-5.46763257059294E-02 
2421	-4.03667628078888E-02 
2422	-0.140404871849795 
2423	-0.196660340752473 
2424	-0.159039796768773 
2425	-0.157058496785318 
2426	-0.10876475084153 
2427	-5.95113513213113E-02 
2428	-0.099055647016619 
2429	-0.116591221585905 
2430	-0.130197637754182 
2431	-0.070814536107681 
2432	 2.59489506857836E-02 
2433	 0.039513393571893 
2434	 1.07661845750173E-03 
2435	-6.56950003596276E-02 
2436	-0.168204148280843 
2437	-0.230530302556319 
2438	-0.133813636592698 
2439	-3.96426020643076E-02 
2440	-5.98641325158227E-02 
2441	-7.64759772892278E-02 
2442	-0.168283678798832 
2443	-0.28674528456773 
2444	-0.286009622977046 
2445	-0.167053766292446 
2446	-5.85009514569281E-02 
2447	-0.116267162393831 
2448	-9.71729959535957E-02 
2449	-0.184855917922446 
2450	-0.321776039000587 
2451	-0.42201149157735 
2452	-0.445531954383871 
2453	-0.341538116535894 
2454	-0.097647308008576 
2455	-0.1123804675376 
2456	-0.213500007564671 
2457	-0.201981856610979 
2458	-0.448533513165548 
2459	-0.528126882616316 
2460	-0.326198770573994 
2461	-0.479034286247537 
2462	-0.487960213010356 
2463	-0.290463497551876 
2464	-0.247176142453814 
2465	-0.346291812676783 
2466	-0.740013854862169 
2467	-0.924719578129452 
2468	-0.59209533134065 
2469	-0.544773207430421 
2470	-0.181668482987964 
2471	-0.240840546797036 
2472	-0.841072563927921 
2473	-1.48187235746716 
2474	-1.68290821626899 
2475	-2.47034215466495 
2476	-7.60745548620354 
2477	 4.92430449525555 
2478	 1.70163986629724 
2479	 0.786403828709443 
2480	 0.311441762057206 
2481	-0.117640373317526 
2482	 0.143017186832771 
2483	 1.34806004128763 
2484	 3.27123070183464 
2485	 1.79213876436181 
2486	 1.5270750822342 
2487	 1.37578014374632 
2488	 0.156799613958658 
2489	 0.797457489537691 
2490	 1.26462913972229 
2491	 1.63112722543919 
2492	-1.31537461653174 
2493	-8.35473726058282 
2494	-2.37834233907164 
2495	-4.62208121379795 
2496	 23.9484278199333 
2497	-3.37879271039863 
2498	 9.42307419961778 
2499	 2.1925259110356 
2500	 2.22902413636414 
