Wavelength	rt0713west_close_sunny_100004.asd
350	 6.22597927137974E-02 
351	 6.15564222503493E-02 
352	 6.18156561466618E-02 
353	 6.23636826942854E-02 
354	 6.24024320024476E-02 
355	 6.16351947157124E-02 
356	 6.09657665254148E-02 
357	 6.06857393140303E-02 
358	 0.060727238149395 
359	 6.05619863314548E-02 
360	 6.04274735108572E-02 
361	 6.03091397048973E-02 
362	 6.00168194407302E-02 
363	 5.94821850912284E-02 
364	 5.94386276937115E-02 
365	 5.98802885739116E-02 
366	 5.95842926890756E-02 
367	 5.94049346135558E-02 
368	 5.93515691637658E-02 
369	 5.92306245821888E-02 
370	 5.88930713852227E-02 
371	 5.88434471167746E-02 
372	 5.88411421862411E-02 
373	 5.83542448475089E-02 
374	 5.84250990277638E-02 
375	 5.84857613208975E-02 
376	 5.82674044829016E-02 
377	 5.81356796273975E-02 
378	 5.83029368249033E-02 
379	 5.82032286342604E-02 
380	 5.76534581571973E-02 
381	 5.82595457676778E-02 
382	 5.84103686182124E-02 
383	 5.80561834089154E-02 
384	 0.057899712325215 
385	 5.79825372409456E-02 
386	 5.80538703318572E-02 
387	 0.058032818165806 
388	 0.058054308105922 
389	 0.0578527591788 
390	 5.77359553847669E-02 
391	 5.79376046906376E-02 
392	 5.83006129493112E-02 
393	 0.058484651188393 
394	 5.84281042901023E-02 
395	 5.82324925534467E-02 
396	 5.80649879880391E-02 
397	 5.81028233464505E-02 
398	 5.81886760130535E-02 
399	 0.057933486988205 
400	 0.057905647597635 
401	 5.80312171949828E-02 
402	 5.81420206739477E-02 
403	 5.80896680803996E-02 
404	 5.81101221109699E-02 
405	 5.81234957598676E-02 
406	 5.79922465800214E-02 
407	 5.79428453224447E-02 
408	 5.80644378226571E-02 
409	 5.81957025363655E-02 
410	 0.057983806816966 
411	 5.80218383163433E-02 
412	 5.81073609278285E-02 
413	 5.80588609386718E-02 
414	 5.80931390774757E-02 
415	 5.81888876840442E-02 
416	 5.83132606421804E-02 
417	 5.84297767303108E-02 
418	 5.85636787625152E-02 
419	 0.058587283570289 
420	 5.85397924839899E-02 
421	 5.86388391353523E-02 
422	 5.87913339744408E-02 
423	 0.058973785448004 
424	 5.91571407279573E-02 
425	 5.92567779673176E-02 
426	 5.93989650234598E-02 
427	 5.95946816305363E-02 
428	 0.059800130313227 
429	 6.00482299728743E-02 
430	 0.060217219739363 
431	 6.03264988376222E-02 
432	 6.05690613987872E-02 
433	 6.07685333970308E-02 
434	 6.09021608930085E-02 
435	 6.10289966414857E-02 
436	 6.13500089018418E-02 
437	 6.16361126308694E-02 
438	 6.18350284137013E-02 
439	 6.19971484989231E-02 
440	 6.21209106328846E-02 
441	 6.23099665281116E-02 
442	 6.25764603894726E-02 
443	 6.27892301474757E-02 
444	 6.29657975070276E-02 
445	 6.31503211849362E-02 
446	 6.33735046552387E-02 
447	 6.35903416457566E-02 
448	 6.36991720845906E-02 
449	 6.37475367109397E-02 
450	 6.38884456318977E-02 
451	 6.41155304108935E-02 
452	 6.42905353949598E-02 
453	 6.43581599582147E-02 
454	 0.06446128414784 
455	 6.46237973963447E-02 
456	 6.47674581926712E-02 
457	 6.48065428917321E-02 
458	 6.48481341941856E-02 
459	 6.49451636335074E-02 
460	 6.50712483773039E-02 
461	 6.51281663294208E-02 
462	 6.51848891077851E-02 
463	 0.065268046357339 
464	 6.53785306472979E-02 
465	 6.54782957793307E-02 
466	 6.55191269750693E-02 
467	 6.55456699033829E-02 
468	 6.56357666076999E-02 
469	 6.57225130723448E-02 
470	 6.57724127685733E-02 
471	 6.58004201013256E-02 
472	 6.58795670033902E-02 
473	 6.59545046458623E-02 
474	 6.60529807863962E-02 
475	 6.62005700938145E-02 
476	 6.63443130279396E-02 
477	 6.64732815062011E-02 
478	 6.66089940238496E-02 
479	 0.066788033130227 
480	 0.066938834898254 
481	 6.71109118633038E-02 
482	 6.73280157832959E-02 
483	 0.067529558471884 
484	 6.77228956726728E-02 
485	 6.79419164572194E-02 
486	 6.82101238333602E-02 
487	 6.84370810465895E-02 
488	 6.86410078780941E-02 
489	 6.88545742451462E-02 
490	 6.91140779688579E-02 
491	 6.93428455583004E-02 
492	 6.95922007202704E-02 
493	 6.98993256654494E-02 
494	 7.02062335689404E-02 
495	 7.04690774347853E-02 
496	 7.07177296923468E-02 
497	 7.10114959373111E-02 
498	 7.12866794747133E-02 
499	 7.15351935570551E-02 
500	 7.17739039780611E-02 
501	 7.20477619261255E-02 
502	 7.23276307210565E-02 
503	 7.26041200184506E-02 
504	 0.072886702329082 
505	 7.32212438121538E-02 
506	 7.36650232226768E-02 
507	 7.41256119614647E-02 
508	 0.074413423134431 
509	 0.074726454754374 
510	 7.51250227159348E-02 
511	 7.55976742643358E-02 
512	 7.60384818541944E-02 
513	 7.64344068947617E-02 
514	 7.68496205380488E-02 
515	 7.73560604757263E-02 
516	 7.77984401016103E-02 
517	 7.82657621008506E-02 
518	 7.87491460432564E-02 
519	 7.90991865987665E-02 
520	 7.95493309631565E-02 
521	 7.99891523061406E-02 
522	 8.03254902204067E-02 
523	 8.07925652147691E-02 
524	 8.13090812719619E-02 
525	 8.18362869442415E-02 
526	 8.23650827342622E-02 
527	 0.082838831650271 
528	 8.32722352686293E-02 
529	 8.37025424983483E-02 
530	 8.41868526909964E-02 
531	 8.47273376650997E-02 
532	 8.52752064933151E-02 
533	 8.57748785619264E-02 
534	 8.62888131731129E-02 
535	 8.67652691448405E-02 
536	 8.72254421337759E-02 
537	 8.77740743586552E-02 
538	 8.82744351202368E-02 
539	 8.87508717458009E-02 
540	 8.92444352352538E-02 
541	 0.089709468009371 
542	 9.02210539472015E-02 
543	 9.07697833023939E-02 
544	 9.12993033782732E-02 
545	 9.18417537163417E-02 
546	 0.09238167057292 
547	 9.29059491397123E-02 
548	 9.34146940615475E-02 
549	 9.39486915987647E-02 
550	 9.44856650539081E-02 
551	 0.094988746643692 
552	 9.54725318267832E-02 
553	 9.59632088668738E-02 
554	 9.64796094400978E-02 
555	 9.70267845549044E-02 
556	 9.74944850772826E-02 
557	 9.79443452065971E-02 
558	 9.84306027915811E-02 
559	 9.88485220068036E-02 
560	 9.92862149075321E-02 
561	 9.97211887608175E-02 
562	 0.100071042452534 
563	 0.10037240068182 
564	 0.100694296702934 
565	 0.101026545311445 
566	 0.101191938254285 
567	 0.101400264847749 
568	 0.101634306403637 
569	 0.101816871680813 
570	 0.102045899891134 
571	 0.102267484470133 
572	 0.102449596169388 
573	 0.102595061091592 
574	 0.102781176326458 
575	 0.102990438424301 
576	 0.103173930265917 
577	 0.103263799039662 
578	 0.103357288461317 
579	 0.103493385571084 
580	 0.103650694134957 
581	 0.103638010017161 
582	 0.10353706617721 
583	 0.103418022105171 
584	 0.103275921841947 
585	 0.102912291852583 
586	 0.102415464888518 
587	 0.101951929956606 
588	 0.101446910970483 
589	 0.101017815603043 
590	 0.100753427777591 
591	 0.100649195651276 
592	 0.100365428686973 
593	 0.100004982008449 
594	 9.96901517316274E-02 
595	 9.92713721422681E-02 
596	 0.098806721217478 
597	 9.83074133915698E-02 
598	 9.77694152559968E-02 
599	 9.72516499091466E-02 
600	 9.67989758068724E-02 
601	 9.64331570662893E-02 
602	 9.61404520017246E-02 
603	 9.59323759348422E-02 
604	 9.57808169208322E-02 
605	 9.56628487539361E-02 
606	 9.56502590662794E-02 
607	 9.56171401934545E-02 
608	 0.095540242595422 
609	 9.55109929200212E-02 
610	 9.55263116314948E-02 
611	 9.55111556931506E-02 
612	 9.54272311486937E-02 
613	 9.53881478936359E-02 
614	 9.53574526891437E-02 
615	 9.53349885772023E-02 
616	 9.53275700024893E-02 
617	 9.52350194137022E-02 
618	 9.51386939169861E-02 
619	 9.50805556703921E-02 
620	 9.50093760774708E-02 
621	 0.094950599181388 
622	 9.48929419566036E-02 
623	 9.48125153767875E-02 
624	 9.46913984724899E-02 
625	 9.44957441345745E-02 
626	 9.42683540763689E-02 
627	 9.41220863587448E-02 
628	 9.40449952826933E-02 
629	 0.094052453393856 
630	 9.41100412111403E-02 
631	 9.40478576664799E-02 
632	 9.40387753597603E-02 
633	 0.094065174086427 
634	 9.40308158438871E-02 
635	 9.40041429242032E-02 
636	 9.39279310370852E-02 
637	 9.37959001593146E-02 
638	 9.36868507375995E-02 
639	 9.35671034633553E-02 
640	 9.34169044260653E-02 
641	 9.32322804720879E-02 
642	 9.30606940939957E-02 
643	 9.28306037012059E-02 
644	 9.24709745403798E-02 
645	 9.19369212596446E-02 
646	 9.15491407328743E-02 
647	 9.13206479733947E-02 
648	 9.11912016735183E-02 
649	 9.10941108788758E-02 
650	 0.090952909764973 
651	 9.07676089740578E-02 
652	 9.05634344435287E-02 
653	 9.02361809522462E-02 
654	 8.98225347790267E-02 
655	 8.93733856306662E-02 
656	 8.90025253828853E-02 
657	 8.87264448464557E-02 
658	 8.84265836388878E-02 
659	 0.088059126968029 
660	 8.79278408769158E-02 
661	 8.76966899888251E-02 
662	 8.74127887765139E-02 
663	 8.73365364599688E-02 
664	 8.72161019238851E-02 
665	 8.70573960173226E-02 
666	 8.68911414103303E-02 
667	 8.67328306144506E-02 
668	 8.66058865525523E-02 
669	 8.65265066778012E-02 
670	 8.64895562094251E-02 
671	 8.64143734887794E-02 
672	 8.63121870638117E-02 
673	 8.62311192860384E-02 
674	 8.62400109052052E-02 
675	 8.62024350192114E-02 
676	 8.61812196747751E-02 
677	 8.62114790514241E-02 
678	 8.61529892521825E-02 
679	 8.61377368067302E-02 
680	 8.61992850824299E-02 
681	 8.63012695389368E-02 
682	 8.62724477427022E-02 
683	 8.62885782781916E-02 
684	 8.63263044151485E-02 
685	 0.08604316049304 
686	 8.57178478552898E-02 
687	 8.55597334888519E-02 
688	 8.56189381833386E-02 
689	 8.55919829855899E-02 
690	 0.085367467298175 
691	 8.49418628894844E-02 
692	 8.44022132628178E-02 
693	 0.084030083528138 
694	 8.39575897503731E-02 
695	 8.40260786572541E-02 
696	 8.37472388902607E-02 
697	 8.31316691267735E-02 
698	 8.23152363411136E-02 
699	 8.15453126304323E-02 
700	 8.09428221767407E-02 
701	 8.04615643322071E-02 
702	 7.99851046678661E-02 
703	 7.93515971322336E-02 
704	 7.85574748199581E-02 
705	 7.77480411884311E-02 
706	 7.69966496293557E-02 
707	 7.61122486902786E-02 
708	 7.51095357308815E-02 
709	 7.40492573984057E-02 
710	 7.29661476069061E-02 
711	 7.16066614974262E-02 
712	 7.01817184992435E-02 
713	 6.86920912439895E-02 
714	 6.68425898712413E-02 
715	 6.46933663558208E-02 
716	 6.23169258471055E-02 
717	 6.01073901900103E-02 
718	 5.82418164002842E-02 
719	 5.70754232835433E-02 
720	 5.62708283359534E-02 
721	 5.51634816109135E-02 
722	 5.35908022515619E-02 
723	 5.16820676152128E-02 
724	 4.98664877997542E-02 
725	 4.82879011742818E-02 
726	 4.68205928979596E-02 
727	 4.52342867966318E-02 
728	 4.34378449088224E-02 
729	 4.16725431588388E-02 
730	 0.040092863080314 
731	 3.89455308992804E-02 
732	 3.82223681054584E-02 
733	 3.71742044582235E-02 
734	 0.036096101986784 
735	 3.52383164287779E-02 
736	 0.034697996393143 
737	 0.034413214289697 
738	 3.42579266275797E-02 
739	 3.41262472174135E-02 
740	 3.39856969555976E-02 
741	 3.39991389738698E-02 
742	 3.40908876117042E-02 
743	 3.40746173526591E-02 
744	 3.39834839708358E-02 
745	 3.38991198460609E-02 
746	 3.38616899384665E-02 
747	 3.38454764073703E-02 
748	 3.39241765613047E-02 
749	 3.39664525199806E-02 
750	 3.38646684592445E-02 
751	 3.37463072913558E-02 
752	 3.37288960337122E-02 
753	 3.37613025864735E-02 
754	 3.37087694780205E-02 
755	 3.36342418281377E-02 
756	 3.35467506872186E-02 
757	 0.033342157980421 
758	 3.25913163857887E-02 
759	 3.16681960976856E-02 
760	 3.08873400208261E-02 
761	 3.07624883203691E-02 
762	 3.09893370961403E-02 
763	 3.14424373880633E-02 
764	 3.20361267530926E-02 
765	 3.26837562129629E-02 
766	 3.30836852203818E-02 
767	 3.33544771528503E-02 
768	 3.35872398477197E-02 
769	 3.38285180753776E-02 
770	 0.033972986622453 
771	 3.40955336720638E-02 
772	 0.034237622197409 
773	 3.42261252576316E-02 
774	 3.43767888112439E-02 
775	 3.46075376741369E-02 
776	 3.47060759715336E-02 
777	 3.48380070272397E-02 
778	 3.50096372246238E-02 
779	 3.51917336448986E-02 
780	 3.53329154600071E-02 
781	 0.035436257953016 
782	 3.55615597877879E-02 
783	 3.57268836955149E-02 
784	 3.58370171854488E-02 
785	 3.59011521113351E-02 
786	 3.59687583345047E-02 
787	 3.60861665098068E-02 
788	 0.036165872042892 
789	 3.63818688895584E-02 
790	 3.67484905071533E-02 
791	 3.71347102578625E-02 
792	 3.74533152061082E-02 
793	 3.77111989198422E-02 
794	 0.037925640846571 
795	 3.80874641059263E-02 
796	 3.83064581761626E-02 
797	 3.85077049258998E-02 
798	 3.86240191071996E-02 
799	 3.87726865637147E-02 
800	 3.89118410901161E-02 
801	 3.90599504438365E-02 
802	 3.92628568402962E-02 
803	 3.95006332223147E-02 
804	 3.97011539943575E-02 
805	 3.98015685575803E-02 
806	 3.97649476769237E-02 
807	 0.039872439197838 
808	 3.97143223459851E-02 
809	 3.90936923474585E-02 
810	 3.87202963526934E-02 
811	 3.83649166026677E-02 
812	 3.78698035229986E-02 
813	 0.03716061107985 
814	 3.66204942922255E-02 
815	 3.62169054277309E-02 
816	 3.58755020675447E-02 
817	 3.55417166939123E-02 
818	 3.55613923413536E-02 
819	 3.54619205472686E-02 
820	 3.49989670036655E-02 
821	 3.42575902733503E-02 
822	 3.35649542856615E-02 
823	 3.28542728370986E-02 
824	 3.20792705578988E-02 
825	 3.14838913740217E-02 
826	 3.05235595305134E-02 
827	 2.93021019925675E-02 
828	 2.82630899622804E-02 
829	 0.027517269968035 
830	 2.69728281577165E-02 
831	 2.65278146256269E-02 
832	 0.02611060440727 
833	 2.56580770924934E-02 
834	 2.53826961990002E-02 
835	 2.53187341819305E-02 
836	 2.52464272647044E-02 
837	 2.50938363569787E-02 
838	 2.49848955810005E-02 
839	 2.49976248599842E-02 
840	 2.49874128102482E-02 
841	 2.48574207020626E-02 
842	 2.47742124510547E-02 
843	 2.48777129673568E-02 
844	 2.46833434541254E-02 
845	 2.45592470048311E-02 
846	 2.45169085770159E-02 
847	 2.43283450739855E-02 
848	 2.41485107317634E-02 
849	 2.40509583017522E-02 
850	 2.40357678203671E-02 
851	 2.40208144462535E-02 
852	 2.40025488882626E-02 
853	 2.39018091636693E-02 
854	 2.37377059452336E-02 
855	 2.37501158857503E-02 
856	 2.36785093782271E-02 
857	 2.35897167423844E-02 
858	 2.35763454942945E-02 
859	 2.34919841583937E-02 
860	 2.33176840521782E-02 
861	 2.32580420061844E-02 
862	 2.34718913178916E-02 
863	 2.31420089731899E-02 
864	 2.29312504698778E-02 
865	 2.29880497681002E-02 
866	 2.29079729524132E-02 
867	 2.27241352541765E-02 
868	 2.27545402306983E-02 
869	 2.28858656891843E-02 
870	 2.24459730951874E-02 
871	 2.23009105785387E-02 
872	 2.22061397722889E-02 
873	 2.19800561637102E-02 
874	 2.21439156853849E-02 
875	 2.20711293632227E-02 
876	 2.18638218527131E-02 
877	 2.17466600339385E-02 
878	 2.14642390325273E-02 
879	 2.14112470834277E-02 
880	 2.14781901871224E-02 
881	 0.021334616846433 
882	 2.09187900024652E-02 
883	 2.08667767723108E-02 
884	 2.10415992198543E-02 
885	 0.020801153392701 
886	 2.07468133213805E-02 
887	 2.07592047188035E-02 
888	 2.06465758332514E-02 
889	 2.02621678679876E-02 
890	 2.00512310192439E-02 
891	 1.97586766536724E-02 
892	 1.92715713102941E-02 
893	 1.89982305309574E-02 
894	 1.83842777866444E-02 
895	 1.78623348262341E-02 
896	 1.78167546141762E-02 
897	 1.74211392681552E-02 
898	 1.74822035949491E-02 
899	 1.75011117136032E-02 
900	 1.69912565071721E-02 
901	 1.70747846214374E-02 
902	 1.72733001692604E-02 
903	 0.017312231894117 
904	 1.70793269318442E-02 
905	 1.67479470210157E-02 
906	 1.66848387806583E-02 
907	 0.016852252779112 
908	 0.01687989492329 
909	 1.66274082040481E-02 
910	 1.61116839459442E-02 
911	 1.55632377007782E-02 
912	 1.53466669248235E-02 
913	 1.56306643132543E-02 
914	 1.58167089972859E-02 
915	 1.57598606531726E-02 
916	 1.58975045402963E-02 
917	 1.56797958917712E-02 
918	 0.015330779972365 
919	 1.52315118503272E-02 
920	 1.57645496226182E-02 
921	 1.60786678788725E-02 
922	 1.58292731139516E-02 
923	 1.51978817215399E-02 
924	 1.52380922129539E-02 
925	 1.48642217549022E-02 
926	 1.42686215451441E-02 
927	 1.39673810697319E-02 
928	 1.40996639702401E-02 
929	 1.34559705917485E-02 
930	 1.29077292589069E-02 
931	 1.41968518452555E-02 
932	 1.36901678435002E-02 
933	 1.42414313268276E-02 
934	 1.33013868830663E-02 
935	 8.37082876976516E-03 
936	 7.45763157337619E-03 
937	 8.26078990458278E-03 
938	 9.71313679421504E-03 
939	 1.13117357043444E-02 
940	 1.25250828447168E-02 
941	 1.09948621213732E-02 
942	 9.2995114641694E-03 
943	 1.12893340951929E-02 
944	 1.17965094216347E-02 
945	 1.04259521274305E-02 
946	 8.58650734612812E-03 
947	 8.39865238457219E-03 
948	 1.04183836327682E-02 
949	 1.19782354648645E-02 
950	 1.11317310395196E-02 
951	 7.95121912022901E-03 
952	 9.30767036653976E-03 
953	 1.19982471769415E-02 
954	 1.24280044021009E-02 
955	 9.1274319607947E-03 
956	 1.01365930209223E-02 
957	 1.24264463484519E-02 
958	 1.31355292553533E-02 
959	 1.11673877445316E-02 
960	 9.88700721494563E-03 
961	 1.03680343655585E-02 
962	 1.21532782051578E-02 
963	 1.37256742530815E-02 
964	 1.27980640424216E-02 
965	 1.25155015108447E-02 
966	 1.29422543344506E-02 
967	 1.21236743354992E-02 
968	 1.21857450320082E-02 
969	 1.33731384926515E-02 
970	 1.45277212101585E-02 
971	 1.38973755494706E-02 
972	 0.013228465639197 
973	 1.37073210947446E-02 
974	 1.46665034667438E-02 
975	 1.41233208037556E-02 
976	 1.42395962299071E-02 
977	 1.37143741476495E-02 
978	 1.34450717492452E-02 
979	 1.55068167097226E-02 
980	 1.41727362731729E-02 
981	 1.37325099027412E-02 
982	 1.50467887961744E-02 
983	 1.56137185242064E-02 
984	 1.59415213760012E-02 
985	 1.61266580890604E-02 
986	 1.62280454840273E-02 
987	 0.01625139007682 
988	 1.60186470950626E-02 
989	 1.56580989975023E-02 
990	 1.52919244101559E-02 
991	 1.51194651923109E-02 
992	 1.61129267709792E-02 
993	 1.67339498043518E-02 
994	 1.66453625350663E-02 
995	 1.65232937682967E-02 
996	 1.64643521831554E-02 
997	 1.67032413634572E-02 
998	 1.70000223674411E-02 
999	 1.69278151878207E-02 
1000	 1.68230853268359E-02 
1001	 1.46886889107949E-02 
1002	 1.44969198585178E-02 
1003	 1.45419774807922E-02 
1004	 1.48831371914464E-02 
1005	 1.49349328327263E-02 
1006	 0.015027303987349 
1007	 1.47720012043338E-02 
1008	 1.47886293677366E-02 
1009	 1.46322145212649E-02 
1010	 1.46137551950868E-02 
1011	 1.48781949771345E-02 
1012	 1.45159728381937E-02 
1013	 1.43638231659234E-02 
1014	 1.42864452921371E-02 
1015	 1.41482489736112E-02 
1016	 1.42186692951463E-02 
1017	 1.45656321377947E-02 
1018	 1.46963583931524E-02 
1019	 1.48931063353737E-02 
1020	 1.50276282551606E-02 
1021	 1.51018288854801E-02 
1022	 1.50967193671215E-02 
1023	 1.51479075073248E-02 
1024	 1.50550009160054E-02 
1025	 1.48366246294163E-02 
1026	 1.49713199852624E-02 
1027	 1.49910327647956E-02 
1028	 1.49194721289099E-02 
1029	 1.51675406302654E-02 
1030	 0.015765013253076 
1031	 1.58832551598561E-02 
1032	 1.60148414489868E-02 
1033	 1.60481383392197E-02 
1034	 1.56393972830976E-02 
1035	 1.54551256187549E-02 
1036	 1.55229306474336E-02 
1037	 1.53923542617884E-02 
1038	 1.49085392447695E-02 
1039	 1.48573770614256E-02 
1040	 1.49515270661359E-02 
1041	 1.50646089358711E-02 
1042	 1.52350164067084E-02 
1043	 1.58005476554028E-02 
1044	 1.58304782859461E-02 
1045	 1.55430449111202E-02 
1046	 1.54546241167058E-02 
1047	 1.52453484527289E-02 
1048	 1.51067776833135E-02 
1049	 1.50057473490244E-02 
1050	 1.49966696036144E-02 
1051	 1.49763548399088E-02 
1052	 1.50349987638331E-02 
1053	 1.53576426907263E-02 
1054	 1.54890311563676E-02 
1055	 1.55175898524362E-02 
1056	 1.55685947639858E-02 
1057	 1.55901522426054E-02 
1058	 1.55722566113158E-02 
1059	 0.01546962460135 
1060	 1.52904843702146E-02 
1061	 1.52152348917352E-02 
1062	 1.50242662632862E-02 
1063	 1.50162997440014E-02 
1064	 1.52133005955504E-02 
1065	 1.53138649207136E-02 
1066	 1.55704424121531E-02 
1067	 1.55579149163628E-02 
1068	 1.52658815154372E-02 
1069	 1.51940648426457E-02 
1070	 1.51251411275497E-02 
1071	 1.49990693175747E-02 
1072	 1.48851525869652E-02 
1073	 1.49462081872032E-02 
1074	 1.49392419897729E-02 
1075	 1.48220620610199E-02 
1076	 1.47498009748271E-02 
1077	 1.47650774282106E-02 
1078	 1.48058405425337E-02 
1079	 1.48514588184696E-02 
1080	 1.47753524294054E-02 
1081	 1.47492991630945E-02 
1082	 1.46652038882299E-02 
1083	 1.42321290230968E-02 
1084	 1.41785960995278E-02 
1085	 1.46452797332402E-02 
1086	 1.46175401322841E-02 
1087	 0.014398885957693 
1088	 1.42615251265564E-02 
1089	 1.38947062483425E-02 
1090	 0.01329402922301 
1091	 1.32884830751412E-02 
1092	 1.39180236585162E-02 
1093	 0.013854449091538 
1094	 1.36826236924196E-02 
1095	 1.35538602564182E-02 
1096	 1.30501438323419E-02 
1097	 1.26370169612706E-02 
1098	 1.24354411754451E-02 
1099	 1.22423312192395E-02 
1100	 1.16376731712421E-02 
1101	 1.15168351842373E-02 
1102	 1.21379875378707E-02 
1103	 1.21468110749615E-02 
1104	 1.19056125257067E-02 
1105	 1.18739588910615E-02 
1106	 1.16992499815213E-02 
1107	 1.13249759459106E-02 
1108	 1.10270861723041E-02 
1109	 0.011193019817068 
1110	 1.10495024433142E-02 
1111	 1.03646258940962E-02 
1112	 1.02731289764417E-02 
1113	 1.08957406715817E-02 
1114	 1.08089453476923E-02 
1115	 1.07672261634963E-02 
1116	 1.03499133417884E-02 
1117	 8.13879240633475E-03 
1118	 6.78647823006547E-03 
1119	 6.29500025945396E-03 
1120	 5.55013845193023E-03 
1121	 6.13651118653378E-03 
1122	 5.33074014044667E-03 
1123	 5.67940449043103E-03 
1124	 4.39996881517907E-03 
1125	 8.33038177715574E-04 
1126	 4.20615167884464E-03 
1127	 9.82512539157555E-03 
1128	 7.0331842771968E-03 
1129	 5.21761221963736E-03 
1130	 2.3092631087894E-03 
1131	 3.14231345594788E-03 
1132	 4.38945830262194E-03 
1133	 4.5494483751157E-03 
1134	 6.12650474958123E-03 
1135	 6.91986271765226E-03 
1136	 5.78292894122902E-03 
1137	 6.0106785709732E-03 
1138	 8.06856728936034E-03 
1139	 8.65340388456974E-03 
1140	 7.86094878264312E-03 
1141	 7.91762587316804E-03 
1142	 7.88763840555233E-03 
1143	 7.10176951815126E-03 
1144	 7.51763636481135E-03 
1145	 7.30675115888427E-03 
1146	 7.00821432352049E-03 
1147	 9.17375119210786E-03 
1148	 9.74375607233031E-03 
1149	 8.71085750100889E-03 
1150	 8.56304573772864E-03 
1151	 7.88685339745577E-03 
1152	 8.02518481244171E-03 
1153	 8.83589933721928E-03 
1154	 9.15188487995519E-03 
1155	 9.58926263761576E-03 
1156	 9.33884722352004E-03 
1157	 9.42353692184472E-03 
1158	 0.010459459965456 
1159	 1.06563432794986E-02 
1160	 1.02714668867297E-02 
1161	 1.03127977829522E-02 
1162	 1.01074648533524E-02 
1163	 9.92233678403446E-03 
1164	 1.04022631723119E-02 
1165	 1.08473327252315E-02 
1166	 1.10569850260079E-02 
1167	 1.12236605975357E-02 
1168	 1.13627492679346E-02 
1169	 1.18471467719062E-02 
1170	 1.22572810009264E-02 
1171	 1.22438927895973E-02 
1172	 1.19858672285981E-02 
1173	 1.20859922491643E-02 
1174	 1.20592251047886E-02 
1175	 1.19548132650907E-02 
1176	 1.20210684894996E-02 
1177	 1.22259848980639E-02 
1178	 0.011998154608539 
1179	 1.16892248339948E-02 
1180	 1.19221470778479E-02 
1181	 1.21003268848584E-02 
1182	 1.20222627032501E-02 
1183	 1.19774234150257E-02 
1184	 1.17676230721499E-02 
1185	 1.16987798544884E-02 
1186	 1.20734362602945E-02 
1187	 1.23623316043456E-02 
1188	 0.012450035368114 
1189	 1.25121678579092E-02 
1190	 0.012307221933615 
1191	 1.20319879976812E-02 
1192	 1.19986827394336E-02 
1193	 1.21128730947603E-02 
1194	 1.22213531081543E-02 
1195	 1.23127128115192E-02 
1196	 1.24445673939946E-02 
1197	 0.012419767598509 
1198	 1.23584412649201E-02 
1199	 1.24454220707253E-02 
1200	 1.25678373472606E-02 
1201	 1.25120078492716E-02 
1202	 1.26224686327016E-02 
1203	 1.28222071247727E-02 
1204	 1.26443124460146E-02 
1205	 1.25077107535996E-02 
1206	 1.27128852058191E-02 
1207	 1.28138548194096E-02 
1208	 1.27036816422602E-02 
1209	 1.28386848265235E-02 
1210	 1.29966603214017E-02 
1211	 1.28635440028599E-02 
1212	 1.29605103616757E-02 
1213	 1.32690105469676E-02 
1214	 1.33470196477055E-02 
1215	 1.31674783785713E-02 
1216	 1.30284007886133E-02 
1217	 1.31967765061678E-02 
1218	 0.013272475916496 
1219	 1.31684482004753E-02 
1220	 1.31309631782492E-02 
1221	 1.31191310220139E-02 
1222	 1.30858673144107E-02 
1223	 1.31613765836327E-02 
1224	 1.33514336291758E-02 
1225	 1.34442739936688E-02 
1226	 1.33245995384332E-02 
1227	 1.32710257077543E-02 
1228	 0.013419202549763 
1229	 1.35674871746112E-02 
1230	 1.37625967416833E-02 
1231	 1.39571256694409E-02 
1232	 1.39013650208789E-02 
1233	 1.37046155499626E-02 
1234	 1.37032801424239E-02 
1235	 1.37626126114476E-02 
1236	 0.01394487378945 
1237	 1.39617426148027E-02 
1238	 1.40227441572822E-02 
1239	 1.40172742540534E-02 
1240	 1.39063205164439E-02 
1241	 1.39522717322466E-02 
1242	 1.40449795375225E-02 
1243	 1.40575653309197E-02 
1244	 1.39980316279387E-02 
1245	 1.38861250425092E-02 
1246	 1.39059658512235E-02 
1247	 0.013978849994164 
1248	 1.40436746250681E-02 
1249	 1.40194472667565E-02 
1250	 1.39426360553004E-02 
1251	 1.38273106293042E-02 
1252	 1.36445989333034E-02 
1253	 1.36586987036586E-02 
1254	 1.37331779186077E-02 
1255	 1.37636255558339E-02 
1256	 1.37353659359365E-02 
1257	 0.013614108915516 
1258	 1.35030797909491E-02 
1259	 0.013288969679214 
1260	 1.32604081332213E-02 
1261	 1.33907014799274E-02 
1262	 1.33500201201852E-02 
1263	 1.32645090391831E-02 
1264	 1.33832059008968E-02 
1265	 1.33325098720464E-02 
1266	 1.30527664164311E-02 
1267	 1.29890596265642E-02 
1268	 1.30735054412638E-02 
1269	 1.31308424430404E-02 
1270	 1.31626799596753E-02 
1271	 1.31736151801815E-02 
1272	 0.013263566046334 
1273	 1.32812932901809E-02 
1274	 0.013331994344137 
1275	 1.34593442037005E-02 
1276	 1.32989391367124E-02 
1277	 1.32124906411891E-02 
1278	 1.34524755453309E-02 
1279	 1.34973471649219E-02 
1280	 1.33424350185285E-02 
1281	 0.013427358368731 
1282	 1.35313678541073E-02 
1283	 1.35053528650548E-02 
1284	 1.35986549803003E-02 
1285	 1.36439809246654E-02 
1286	 1.34583231178945E-02 
1287	 1.32652576847563E-02 
1288	 1.31386717623298E-02 
1289	 1.32033279049864E-02 
1290	 1.34039209671809E-02 
1291	 1.31891224045261E-02 
1292	 1.30718414777686E-02 
1293	 1.29877267795572E-02 
1294	 1.27238272187787E-02 
1295	 1.25237435139945E-02 
1296	 1.24729439290713E-02 
1297	 1.25618850845472E-02 
1298	 1.25558588777001E-02 
1299	 1.24355322956175E-02 
1300	 1.24842941186376E-02 
1301	 1.24976090797212E-02 
1302	 1.23246481034016E-02 
1303	 0.012088804360164 
1304	 1.20206538552178E-02 
1305	 1.20935701941093E-02 
1306	 1.19646100745482E-02 
1307	 1.16903948520981E-02 
1308	 1.15958989340417E-02 
1309	 1.15415678385948E-02 
1310	 1.14208288880049E-02 
1311	 1.13935135298066E-02 
1312	 1.13518145959318E-02 
1313	 1.11454806373203E-02 
1314	 1.09721247827446E-02 
1315	 1.09346674730274E-02 
1316	 1.09095821413725E-02 
1317	 1.09135442423913E-02 
1318	 1.07269422466049E-02 
1319	 1.03292472098959E-02 
1320	 1.02456435113186E-02 
1321	 1.03079985936797E-02 
1322	 1.01748841944771E-02 
1323	 1.01137143538062E-02 
1324	 9.99551773885483E-03 
1325	 9.45741506916227E-03 
1326	 9.20796023864045E-03 
1327	 9.33055765492492E-03 
1328	 9.04457300348923E-03 
1329	 8.32370750121013E-03 
1330	 8.07385673392988E-03 
1331	 8.08025714510433E-03 
1332	 7.78403024892146E-03 
1333	 8.30003988286566E-03 
1334	 8.68734843317432E-03 
1335	 8.75763088317518E-03 
1336	 8.62429110651662E-03 
1337	 8.35306383176398E-03 
1338	 7.6837081483682E-03 
1339	 7.36691791517584E-03 
1340	 6.74418085996955E-03 
1341	 6.89593916700846E-03 
1342	 7.79267888077077E-03 
1343	 8.03268007544114E-03 
1344	 9.1375233546288E-03 
1345	 9.39299204740892E-03 
1346	 7.24942191163555E-03 
1347	 7.04743706799906E-03 
1348	 9.30909575470358E-03 
1349	 0.009668140812169 
1350	 9.51614898006268E-03 
1351	 0.011455972438874 
1352	 1.13078397950093E-02 
1353	 1.01508217824321E-02 
1354	 7.72479778000963E-03 
1355	 2.48523111434014E-02 
1356	 4.69284225777021E-02 
1357	 5.79139350466452E-02 
1358	 4.28417072973017E-02 
1359	 4.12969499309185E-02 
1360	 0.153543868509144 
1361	 0.194060913505422 
1362	-3.99880294418527E-02 
1363	-0.114917954395017 
1364	 6.30557396572261E-02 
1365	 2.16188947668826E-02 
1366	-6.41282730223577E-04 
1367	 0.176401188452313 
1368	 0.289766847659224 
1369	 3.86391144019593E-02 
1370	-5.86000577661883E-02 
1371	 0.207674385860157 
1372	 0.261263425842179 
1373	-4.70484489869458E-04 
1374	-6.21703413394489E-02 
1375	 0.394946314610817 
1376	 0.374571760955487 
1377	-6.74598964165994E-02 
1378	-2.01638438010856E-03 
1379	 0.209594824370439 
1380	 0.138654277522946 
1381	-0.225072600064259 
1382	-9.94651940690317E-02 
1383	 0.449221340113533 
1384	 0.43634985497849 
1385	 0.211670444516169 
1386	 0.303566605998038 
1387	 6.05774399718096E-02 
1388	-0.116073732335105 
1389	 0.230603498683915 
1390	 0.44326160020285 
1391	 0.308350411216362 
1392	 0.254356250640509 
1393	 0.306937972994546 
1394	 0.166050265569276 
1395	-0.153208594979274 
1396	-0.361516989181997 
1397	-0.351685080750949 
1398	 4.31107304202642E-02 
1399	 0.35381602788212 
1400	 8.79867037703813E-02 
1401	-0.266438325488104 
1402	-0.15990433284605 
1403	-0.133107738434736 
1404	-1.15201320938877E-03 
1405	-6.19205902845501E-02 
1406	-0.270430831193332 
1407	-0.132882713199864 
1408	 8.30520854794328E-02 
1409	 2.10568144063208E-02 
1410	-6.05952247131424E-02 
1411	 6.47714855503384E-03 
1412	-2.10437666916606E-02 
1413	-4.10755341303631E-02 
1414	 6.29343477859185E-02 
1415	 0.105943336751917 
1416	 6.97115849732791E-02 
1417	 3.74409139671016E-02 
1418	 5.82865218807952E-02 
1419	 4.44330246848531E-02 
1420	-2.29381058468316E-02 
1421	-2.36893969833134E-02 
1422	 1.51058629483567E-02 
1423	 1.34922452695536E-02 
1424	 5.67855961727449E-04 
1425	 4.06657889084369E-03 
1426	 0.011401683438686 
1427	 6.2968634687892E-03 
1428	-2.95653164827342E-03 
1429	 1.40804662820475E-05 
1430	 8.56561767095414E-03 
1431	 3.73773206020465E-03 
1432	-7.24064809720293E-03 
1433	-6.32276435611793E-03 
1434	-5.38350513554678E-03 
1435	-1.20630907231708E-02 
1436	-2.11250542215014E-02 
1437	-9.02823582159873E-03 
1438	 6.00384321737902E-03 
1439	 3.8428763401134E-04 
1440	-6.98596737577698E-03 
1441	-6.08982461643176E-04 
1442	 4.57392976383379E-03 
1443	 0.002188596132274 
1444	 8.08136336931854E-03 
1445	 1.23339406954011E-02 
1446	 6.40387467956283E-03 
1447	 2.94228734906897E-03 
1448	 0.006980417314522 
1449	 8.7895955421219E-03 
1450	 5.57049577206399E-03 
1451	 6.95393297611174E-03 
1452	 7.01037551031669E-03 
1453	 4.04505193111682E-03 
1454	 3.79563861381176E-03 
1455	 4.50472130594855E-03 
1456	 5.79263133841343E-03 
1457	 7.94038454714056E-03 
1458	 7.96028269231414E-03 
1459	 8.38857856555116E-03 
1460	 8.31239464371347E-03 
1461	 6.13932100287014E-03 
1462	 5.41893889597224E-03 
1463	 6.33107112887491E-03 
1464	 5.50585492024552E-03 
1465	 2.06364334038849E-03 
1466	 2.45336153484953E-03 
1467	 6.12174872079317E-03 
1468	 5.83935259243988E-03 
1469	 4.56091331580847E-03 
1470	 5.37674001988598E-03 
1471	 4.8040807427303E-03 
1472	 4.56360866754026E-03 
1473	 7.12585592965296E-03 
1474	 8.08560389336385E-03 
1475	 7.2190687326748E-03 
1476	 6.39363608127052E-03 
1477	 6.22595970102911E-03 
1478	 5.54693772942864E-03 
1479	 2.90517965133592E-03 
1480	 2.75495244282915E-03 
1481	 3.61980398993516E-03 
1482	 4.64422766315704E-03 
1483	 7.29510939264667E-03 
1484	 7.76424990792951E-03 
1485	 7.06105921076011E-03 
1486	 7.55658848822807E-03 
1487	 8.34929701643403E-03 
1488	 8.0484841632001E-03 
1489	 6.97167672082527E-03 
1490	 7.2832147989875E-03 
1491	 7.93269857960949E-03 
1492	 8.01253044157743E-03 
1493	 8.56835190342498E-03 
1494	 9.12159784927342E-03 
1495	 9.33102361474174E-03 
1496	 9.19966992635309E-03 
1497	 0.008963316830715 
1498	 9.21845775228042E-03 
1499	 9.48121084487486E-03 
1500	 9.4758944368373E-03 
1501	 9.66199240260063E-03 
1502	 9.98850321576366E-03 
1503	 1.02258176883343E-02 
1504	 1.02000315205608E-02 
1505	 0.010200435862565 
1506	 1.03320293084747E-02 
1507	 0.010583081271586 
1508	 1.06105506867985E-02 
1509	 1.06979392715991E-02 
1510	 1.11574464851255E-02 
1511	 0.011222456775309 
1512	 1.09004855487068E-02 
1513	 1.08740871409196E-02 
1514	 0.010966441724728 
1515	 1.08412647718588E-02 
1516	 1.06945522088133E-02 
1517	 1.07362383549658E-02 
1518	 1.09030335321709E-02 
1519	 1.13892496927301E-02 
1520	 0.01167658947848 
1521	 1.15243890864445E-02 
1522	 1.15914643385371E-02 
1523	 1.16718681766811E-02 
1524	 1.15987874174492E-02 
1525	 1.15399217496793E-02 
1526	 0.01159339730847 
1527	 0.011649414204044 
1528	 1.17034565680701E-02 
1529	 1.18765010667064E-02 
1530	 1.18396405513041E-02 
1531	 1.18029366830311E-02 
1532	 1.18442208560336E-02 
1533	 1.18277144468576E-02 
1534	 1.20704168427493E-02 
1535	 1.21102680472281E-02 
1536	 1.17506007087565E-02 
1537	 1.17282127012287E-02 
1538	 1.19849842758256E-02 
1539	 1.21882017309782E-02 
1540	 1.23777834995798E-02 
1541	 1.23274189685567E-02 
1542	 1.21450593901628E-02 
1543	 1.21039853887952E-02 
1544	 1.20964849880508E-02 
1545	 1.21727491757591E-02 
1546	 1.23613894107804E-02 
1547	 1.24770390706539E-02 
1548	 1.25068383749313E-02 
1549	 1.24286405880066E-02 
1550	 1.23484623285573E-02 
1551	 1.24465379048129E-02 
1552	 1.24599331219156E-02 
1553	 1.23175315562514E-02 
1554	 1.24619070426417E-02 
1555	 1.27273290025309E-02 
1556	 1.26211086332214E-02 
1557	 1.25779846921728E-02 
1558	 1.27922761772376E-02 
1559	 1.27357635073769E-02 
1560	 1.25707787206537E-02 
1561	 1.26761356487164E-02 
1562	 1.26299688763157E-02 
1563	 1.23220975438612E-02 
1564	 1.23391515060365E-02 
1565	 1.25270025750308E-02 
1566	 1.24784787639686E-02 
1567	 1.23947201382796E-02 
1568	 1.24465332021219E-02 
1569	 1.24989719702194E-02 
1570	 1.23514285811597E-02 
1571	 1.22910488921893E-02 
1572	 1.24083538439381E-02 
1573	 1.22635159549189E-02 
1574	 1.21356887795524E-02 
1575	 1.23685664417324E-02 
1576	 1.23876273305615E-02 
1577	 1.21277469647898E-02 
1578	 1.22622620137528E-02 
1579	 0.012506451410444 
1580	 1.23335518826752E-02 
1581	 1.23793201165969E-02 
1582	 1.27562192816298E-02 
1583	 1.26556730224202E-02 
1584	 0.012421029367622 
1585	 1.25101766990481E-02 
1586	 1.24491884214074E-02 
1587	 1.22728078131051E-02 
1588	 1.22525997286475E-02 
1589	 1.23708655094283E-02 
1590	 1.25191637533108E-02 
1591	 1.25641886181958E-02 
1592	 1.24679730858012E-02 
1593	 1.22310729860081E-02 
1594	 1.21913800850899E-02 
1595	 1.23330577301839E-02 
1596	 1.22492616920234E-02 
1597	 1.22492464113623E-02 
1598	 1.23617183292567E-02 
1599	 0.012077826107376 
1600	 1.20106403836018E-02 
1601	 1.24176291182502E-02 
1602	 1.22804859600117E-02 
1603	 1.19442513443863E-02 
1604	 1.22224990959146E-02 
1605	 1.24950792701455E-02 
1606	 1.23276632595115E-02 
1607	 1.21085374833127E-02 
1608	 1.20917306770653E-02 
1609	 0.012110151576806 
1610	 1.20298968486038E-02 
1611	 1.21906063340439E-02 
1612	 1.24636697896012E-02 
1613	 1.23875366686466E-02 
1614	 0.012360562534117 
1615	 1.24538971601326E-02 
1616	 1.22673891808113E-02 
1617	 0.012122563972329 
1618	 1.22953221755875E-02 
1619	 1.25260371347082E-02 
1620	 1.27007573241872E-02 
1621	 1.28462878830912E-02 
1622	 1.27699516046339E-02 
1623	 1.25089099514709E-02 
1624	 1.25768157994367E-02 
1625	 1.27798997962538E-02 
1626	 1.25681200945255E-02 
1627	 1.24735293245905E-02 
1628	 1.26213805871339E-02 
1629	 1.25249237277463E-02 
1630	 1.24701121389377E-02 
1631	 1.25157886663022E-02 
1632	 1.23413105084254E-02 
1633	 1.20613399353029E-02 
1634	 1.20535857491416E-02 
1635	 1.21805201777104E-02 
1636	 1.20740685798829E-02 
1637	 1.20045631530213E-02 
1638	 1.18967931715698E-02 
1639	 1.15967594019064E-02 
1640	 1.16962480904378E-02 
1641	 1.20729178076614E-02 
1642	 1.21092767993646E-02 
1643	 1.20289316853891E-02 
1644	 1.20946231351109E-02 
1645	 0.012223229213685 
1646	 1.24119035124199E-02 
1647	 1.25998721682273E-02 
1648	 1.25488186437876E-02 
1649	 1.21983264638291E-02 
1650	 1.21483347299849E-02 
1651	 1.24514479281068E-02 
1652	 1.23601313460557E-02 
1653	 1.20135364976247E-02 
1654	 0.011997515761579 
1655	 1.20679042439414E-02 
1656	 1.21327843087018E-02 
1657	 1.24873893566777E-02 
1658	 1.24453634781241E-02 
1659	 1.18789904375803E-02 
1660	 1.19101491266222E-02 
1661	 1.23265299251686E-02 
1662	 1.22467177414006E-02 
1663	 1.21590460781019E-02 
1664	 1.22633612823967E-02 
1665	 1.21142102408872E-02 
1666	 1.20219100221042E-02 
1667	 1.22242310427537E-02 
1668	 1.20435515232152E-02 
1669	 1.19560298315454E-02 
1670	 1.21195030365889E-02 
1671	 1.22794274558623E-02 
1672	 1.21888008211206E-02 
1673	 1.19756024034083E-02 
1674	 1.18527751092843E-02 
1675	 1.21183083443212E-02 
1676	 1.24257190472193E-02 
1677	 1.24296106674543E-02 
1678	 0.012535404453229 
1679	 1.23450733337376E-02 
1680	 1.18295128944181E-02 
1681	 1.19017815036936E-02 
1682	 1.21452529678122E-02 
1683	 1.20699564325275E-02 
1684	 1.24035532660285E-02 
1685	 1.26534840169183E-02 
1686	 1.21719732550057E-02 
1687	 1.19045387028804E-02 
1688	 1.19392684246505E-02 
1689	 1.18572916636246E-02 
1690	 1.20065304155842E-02 
1691	 1.21426110476753E-02 
1692	 1.19065132246535E-02 
1693	 1.18188979302632E-02 
1694	 1.19387680320992E-02 
1695	 1.18129706482121E-02 
1696	 1.17372518234484E-02 
1697	 0.011788505550024 
1698	 0.01154840037784 
1699	 1.15742619683963E-02 
1700	 0.011996917344135 
1701	 1.17426102670712E-02 
1702	 0.011402827620348 
1703	 1.16735198412475E-02 
1704	 1.13745021135878E-02 
1705	 1.10867030432776E-02 
1706	 1.15004585702266E-02 
1707	 1.12199339298065E-02 
1708	 1.09056524347632E-02 
1709	 1.13854529176692E-02 
1710	 1.15576351387059E-02 
1711	 1.16893822166303E-02 
1712	 1.20889936285928E-02 
1713	 0.01130582164701 
1714	 1.10894091817739E-02 
1715	 0.011259855355598 
1716	 1.16403157942961E-02 
1717	 1.18773601252646E-02 
1718	 1.20105525121911E-02 
1719	 1.14869871250662E-02 
1720	 1.11043867160135E-02 
1721	 1.12529243578928E-02 
1722	 1.13524194772158E-02 
1723	 1.16866043447306E-02 
1724	 1.16277643772126E-02 
1725	 1.10446114792357E-02 
1726	 1.11126962125078E-02 
1727	 1.12477413047499E-02 
1728	 0.010919284353515 
1729	 1.08304165599258E-02 
1730	 1.08953366939365E-02 
1731	 1.08332329460386E-02 
1732	 1.09078814949952E-02 
1733	 1.12184437711202E-02 
1734	 1.11165749169814E-02 
1735	 1.05392630392193E-02 
1736	 1.04137770189841E-02 
1737	 0.010608654056602 
1738	 1.06134982213777E-02 
1739	 1.09396148377664E-02 
1740	 1.11698328577658E-02 
1741	 1.04970861994615E-02 
1742	 1.00768497234135E-02 
1743	 1.01983404373803E-02 
1744	 1.02796370391506E-02 
1745	 1.07851899516229E-02 
1746	 1.04770926053979E-02 
1747	 0.01041642773674 
1748	 1.01319560988323E-02 
1749	 1.01671884318556E-02 
1750	 1.10503918278276E-02 
1751	 1.11677626986418E-02 
1752	 1.06640170580938E-02 
1753	 1.05966766694416E-02 
1754	 1.04702253349881E-02 
1755	 1.02406636332696E-02 
1756	 1.02430550364349E-02 
1757	 1.00996526516763E-02 
1758	 9.85644647441844E-03 
1759	 9.99571207222207E-03 
1760	 9.92840284532468E-03 
1761	 9.68289850572144E-03 
1762	 9.98167493690165E-03 
1763	 1.02449446918157E-02 
1764	 9.71458143634902E-03 
1765	 8.5985110961723E-03 
1766	 7.96566853284362E-03 
1767	 8.46738809698699E-03 
1768	 9.6019753490541E-03 
1769	 1.10187811321247E-02 
1770	 1.10484623745657E-02 
1771	 8.73028438649427E-03 
1772	 7.37413816412478E-03 
1773	 8.84228832541034E-03 
1774	 9.9273378550598E-03 
1775	 1.10221988199067E-02 
1776	 1.15163780595979E-02 
1777	 8.75848145318352E-03 
1778	 7.77941819903496E-03 
1779	 8.84690889356316E-03 
1780	 8.48023692674402E-03 
1781	 7.16272909007575E-03 
1782	 7.11903781921746E-03 
1783	 7.68660777829333E-03 
1784	 7.88842461996746E-03 
1785	 8.75937288622577E-03 
1786	 8.87375560541452E-03 
1787	 7.80177178677269E-03 
1788	 7.44087789109302E-03 
1789	 7.64819827273791E-03 
1790	 5.77875066299837E-03 
1791	 6.74105971606947E-03 
1792	 8.14443715102577E-03 
1793	 6.49269944553451E-03 
1794	 8.89139623444996E-03 
1795	 1.02716858899758E-02 
1796	 1.05940957494514E-02 
1797	 1.45914811063014E-02 
1798	 9.05141926316905E-03 
1799	 7.61483835203375E-04 
1800	-1.32924787546891E-03 
1801	-3.16877885546968E-03 
1802	 1.40150047684991E-02 
1803	 2.54218217864638E-02 
1804	 2.94556886215459E-02 
1805	 2.58912817817798E-02 
1806	 1.36244071098495E-03 
1807	-2.96347694312261E-03 
1808	-7.02167588900847E-03 
1809	-8.12253003191422E-03 
1810	 5.97477190776799E-02 
1811	 3.75102653731305E-02 
1812	-0.135914539607381 
1813	-0.186215910887867 
1814	-0.227664232606464 
1815	-0.193763632062 
1816	 0.266199688215225 
1817	 2.51685888496349E-02 
1818	-0.136917217536698 
1819	-0.20564356312241 
1820	-0.211319550903051 
1821	 8.33327661956912E-02 
1822	 0.189632781832968 
1823	 0.241153691881834 
1824	 0.264465568811283 
1825	 0.073487579585395 
1826	-5.94527600657201E-02 
1827	 2.43083791022097E-02 
1828	-4.90771970831982E-02 
1829	-0.187097163000838 
1830	-0.257074449335645 
1831	-3.24418243468752 
1832	 83.8339226878085 
1833	 4.04061092961024 
1834	 2.95100478653078 
1835	 2.8463436348864 
1836	 6.70134212945903 
1837	-1.71229267715645 
1838	-0.796056163609428 
1839	 0.103644073032218 
1840	 0.251907715438848 
1841	 0.586673692716031 
1842	 2.38938536751419 
1843	 2.46753876924155 
1844	 0.696661586656373 
1845	 0.388234943611642 
1846	-0.19059089143782 
1847	-0.258468996410936 
1848	-0.330432462680237 
1849	-0.449810868028973 
1850	 0.417141929163905 
1851	 1.41205053522407 
1852	 0.42119931362246 
1853	-4.34671246407198E-02 
1854	-9.94883681230336E-02 
1855	-8.27050529486838E-02 
1856	-0.306447878982107 
1857	-0.303830911527754 
1858	-0.38864678646164 
1859	-1.48499648261185 
1860	-1.16554817766154 
1861	 0.251229414743557 
1862	 0.653142752757547 
1863	 0.890804181476774 
1864	 20.4922169098624 
1865	-4.19383493418293 
1866	 0.800146114835353 
1867	 7.35971249668531E-02 
1868	-0.350414821765373 
1869	 2.60544119878146E-03 
1870	 0.156041690724686 
1871	 1.47170275772684 
1872	-1.13271240121052 
1873	-36.1165746397325 
1874	 1.38614342269277 
1875	-0.246671019005657 
1876	-0.778155756843325 
1877	-1.03174899959805 
1878	-1.28582326531685 
1879	 1.19624391304358 
1880	-0.839092088364376 
1881	-1.38180078600094 
1882	-1.38804679084006 
1883	-2.1904110868145 
1884	-1.39751126217116 
1885	 0.112588480847383 
1886	 2.12929606532624 
1887	-3.05877294588321 
1888	-0.172602006739858 
1889	-0.22149878612424 
1890	-0.469837822663126 
1891	-0.140559670659279 
1892	 0.284397421113367 
1893	-0.813367224889475 
1894	-0.27247059278043 
1895	-7.90974489863593E-02 
1896	-0.384223407125383 
1897	-2.53487305208396 
1898	-0.740834512893554 
1899	 21.689524718264 
1900	 2.08459071582245 
1901	-0.353601303190217 
1902	-0.276610869357889 
1903	-9.80886688873907E-02 
1904	-0.225629790779389 
1905	-7.00754738278622E-02 
1906	 0.421650988623772 
1907	 0.385137468897956 
1908	 0.361183706663881 
1909	 1.07704332098165 
1910	 4.27133521704688 
1911	-0.372930082942852 
1912	-1.95953567513549 
1913	-2.387063520325 
1914	 1.04932315073269 
1915	 0.506602349080796 
1916	 0.42158764833658 
1917	-0.396037410559658 
1918	-0.522415959973026 
1919	-0.31112870947008 
1920	-0.390954825011589 
1921	-9.01156284037757E-02 
1922	 8.01264168725063E-02 
1923	 0.160972887650188 
1924	 0.217716158121247 
1925	 0.357432446329405 
1926	 0.500087528399563 
1927	 1.85905577502196 
1928	-7.60445239125038E-02 
1929	 0.236394522361438 
1930	 0.560583127757015 
1931	 0.647045304867861 
1932	 0.962411720081092 
1933	 0.406146930206408 
1934	 0.231521909531018 
1935	 0.602097175494064 
1936	 0.771233092333196 
1937	 0.494590133904682 
1938	 0.360703254097375 
1939	 0.264382188019549 
1940	 8.83518472942783E-02 
1941	-5.50206851642757E-03 
1942	 1.33606712887682E-02 
1943	 1.41280401314857E-02 
1944	-3.64197112958747E-02 
1945	-0.042202536761382 
1946	-1.55916312626577E-02 
1947	-0.028061173163084 
1948	-5.69143397739678E-02 
1949	-5.94948973009379E-02 
1950	-6.91517339240386E-02 
1951	-5.81790082542016E-02 
1952	-4.81732221934645E-02 
1953	-2.37735491932392E-02 
1954	-3.02679880706157E-02 
1955	-3.30100221058857E-02 
1956	-2.05675003688584E-02 
1957	-1.95389909015444E-04 
1958	 0.008554651208455 
1959	 1.18621877271479E-02 
1960	 1.36052313600565E-02 
1961	 7.69349999224051E-03 
1962	 8.13118776665096E-03 
1963	 1.62475695480586E-02 
1964	 1.81327048182153E-02 
1965	 0.017019884699935 
1966	 1.52664939041215E-02 
1967	 0.012634934344481 
1968	 7.54594086132053E-03 
1969	 6.81396833548543E-03 
1970	 6.79785648493818E-03 
1971	 5.50239954485299E-03 
1972	 5.57503618287121E-03 
1973	 5.59288103012214E-03 
1974	 5.97775446780388E-03 
1975	 7.17616763368855E-03 
1976	 7.7133459583112E-03 
1977	 7.16856527614805E-03 
1978	 7.44431711845182E-03 
1979	 7.20926086158851E-03 
1980	 6.98906364164587E-03 
1981	 6.33154929922066E-03 
1982	 5.97064638837661E-03 
1983	 5.55688745357642E-03 
1984	 5.79571071808064E-03 
1985	 5.87789842473602E-03 
1986	 6.51040519189118E-03 
1987	 7.21918680282068E-03 
1988	 6.66005037657485E-03 
1989	 7.37173128960552E-03 
1990	 7.98270784918122E-03 
1991	 8.46998390854305E-03 
1992	 9.39896676829475E-03 
1993	 9.08026946445713E-03 
1994	 8.94845639895049E-03 
1995	 8.77545340753364E-03 
1996	 7.69894617890013E-03 
1997	 6.15101220432055E-03 
1998	 7.07793102821145E-03 
1999	 8.97591157932305E-03 
2000	 8.42175465878896E-03 
2001	 7.38129879504646E-03 
2002	 8.09263566647605E-03 
2003	 8.23041360286615E-03 
2004	 5.74021211744271E-03 
2005	 6.06802765572508E-03 
2006	 9.52920035284343E-03 
2007	 7.66252397445718E-03 
2008	 6.56836919847317E-03 
2009	 6.68153131214055E-03 
2010	 4.92568108090099E-03 
2011	 4.59044035212732E-03 
2012	 5.20382331563158E-03 
2013	 9.74433313369147E-03 
2014	 1.18031160300401E-02 
2015	 1.08045611509691E-02 
2016	 9.31795499827745E-03 
2017	 7.53038864447683E-03 
2018	 5.76333778851961E-03 
2019	 6.0311448096154E-03 
2020	 7.00459518802052E-03 
2021	 8.09488719857487E-03 
2022	 9.5724472272429E-03 
2023	 9.99854772757377E-03 
2024	 1.01396772849512E-02 
2025	 1.00728931075776E-02 
2026	 9.66512389515135E-03 
2027	 8.38709937647902E-03 
2028	 8.32702025633709E-03 
2029	 9.55802538518758E-03 
2030	 9.55064925057537E-03 
2031	 9.25376368416824E-03 
2032	 9.51599713555486E-03 
2033	 8.80153302412325E-03 
2034	 8.17261710021488E-03 
2035	 8.20199813424616E-03 
2036	 8.68757837619812E-03 
2037	 9.11534489095926E-03 
2038	 8.97793552807467E-03 
2039	 8.6799005198793E-03 
2040	 7.91105034947184E-03 
2041	 7.86543186465338E-03 
2042	 7.78170923388883E-03 
2043	 7.96158797129721E-03 
2044	 9.1214976224255E-03 
2045	 9.65033050311969E-03 
2046	 9.13419053268304E-03 
2047	 9.58449378107692E-03 
2048	 1.01760944163025E-02 
2049	 1.05543428220488E-02 
2050	 1.09973302455358E-02 
2051	 0.010573192550936 
2052	 1.00420734775565E-02 
2053	 8.98360307762439E-03 
2054	 8.19737711239759E-03 
2055	 8.56283518179096E-03 
2056	 8.33277488792095E-03 
2057	 7.83814216057441E-03 
2058	 7.60816685696577E-03 
2059	 7.05643144068845E-03 
2060	 7.14240113601845E-03 
2061	 7.49874246526677E-03 
2062	 8.52955553279533E-03 
2063	 9.27346793277768E-03 
2064	 9.37513227378293E-03 
2065	 8.16637845702949E-03 
2066	 7.99353413252666E-03 
2067	 8.83634814693164E-03 
2068	 8.33798913537519E-03 
2069	 8.56029462703772E-03 
2070	 8.77277016963208E-03 
2071	 8.63795711806979E-03 
2072	 8.80506028220308E-03 
2073	 8.49313719921745E-03 
2074	 7.9974681303238E-03 
2075	 7.80133844478763E-03 
2076	 7.25314051977583E-03 
2077	 7.36345242535744E-03 
2078	 7.96557026463769E-03 
2079	 8.26299843015425E-03 
2080	 8.6285808494958E-03 
2081	 8.90877978113005E-03 
2082	 9.22118462164881E-03 
2083	 9.54443184326947E-03 
2084	 9.6133021853732E-03 
2085	 9.56446162202663E-03 
2086	 9.50795870110563E-03 
2087	 0.010203997051205 
2088	 1.04968979688639E-02 
2089	 1.01972705747995E-02 
2090	 1.04538779183153E-02 
2091	 1.04702800296174E-02 
2092	 1.04064095313406E-02 
2093	 0.010829720598903 
2094	 1.05769317146728E-02 
2095	 9.41083954677682E-03 
2096	 9.02272078494787E-03 
2097	 8.64199195094083E-03 
2098	 8.59034777705433E-03 
2099	 8.95944796669915E-03 
2100	 9.48262280972265E-03 
2101	 9.93579328601146E-03 
2102	 1.04307558546535E-02 
2103	 1.02358586495281E-02 
2104	 9.72397089283374E-03 
2105	 9.52934075012849E-03 
2106	 9.38580122514798E-03 
2107	 9.97017938184656E-03 
2108	 1.01990638455132E-02 
2109	 9.90058496169521E-03 
2110	 1.05438328261815E-02 
2111	 1.05994391331472E-02 
2112	 1.02919687114351E-02 
2113	 1.02631350743244E-02 
2114	 1.00074425253034E-02 
2115	 9.72266653854518E-03 
2116	 9.82662048799604E-03 
2117	 9.74380586888672E-03 
2118	 9.34340066354024E-03 
2119	 9.16358659708574E-03 
2120	 8.84713057321048E-03 
2121	 8.89523429426283E-03 
2122	 9.50612713176817E-03 
2123	 1.02915068181512E-02 
2124	 1.07894786915726E-02 
2125	 1.04496540254096E-02 
2126	 1.00446971772445E-02 
2127	 9.78644157553102E-03 
2128	 9.83220994867826E-03 
2129	 1.06568406925881E-02 
2130	 1.11295128651211E-02 
2131	 1.11055790629163E-02 
2132	 1.08200220803274E-02 
2133	 1.02652716544579E-02 
2134	 9.87109209083741E-03 
2135	 9.31261568532485E-03 
2136	 9.00413657499252E-03 
2137	 8.82621563931594E-03 
2138	 8.53677281985992E-03 
2139	 7.9448536479133E-03 
2140	 7.91790338273178E-03 
2141	 8.67396738534452E-03 
2142	 8.83730331280358E-03 
2143	 8.80467001019845E-03 
2144	 9.19001218503902E-03 
2145	 9.63925427024283E-03 
2146	 9.48962186268881E-03 
2147	 1.01649355315473E-02 
2148	 1.02421817919175E-02 
2149	 9.06560584465122E-03 
2150	 8.66306173079624E-03 
2151	 8.95992896251725E-03 
2152	 9.39336773029773E-03 
2153	 1.01014336901252E-02 
2154	 9.56650997321709E-03 
2155	 8.35984763756415E-03 
2156	 7.6090834080228E-03 
2157	 7.22684715988617E-03 
2158	 7.19314633166462E-03 
2159	 7.70783702128652E-03 
2160	 8.88996397608767E-03 
2161	 9.7264569489053E-03 
2162	 1.08951157830385E-02 
2163	 1.14337424376914E-02 
2164	 1.21550662295875E-02 
2165	 1.17167984113247E-02 
2166	 9.64676208408419E-03 
2167	 9.41272786987887E-03 
2168	 9.12001158328981E-03 
2169	 9.14160693190252E-03 
2170	 1.03387472887431E-02 
2171	 1.18518855357716E-02 
2172	 1.21323539018125E-02 
2173	 1.23718886547424E-02 
2174	 1.22175135605198E-02 
2175	 1.10527759704466E-02 
2176	 1.05990112630927E-02 
2177	 9.65469457262529E-03 
2178	 8.5567836568703E-03 
2179	 8.99854579908708E-03 
2180	 8.72495300520624E-03 
2181	 7.85611856757752E-03 
2182	 7.9397661061593E-03 
2183	 8.31883576169646E-03 
2184	 9.00518411980281E-03 
2185	 1.01632609078482E-02 
2186	 0.010740269679331 
2187	 1.12806477996586E-02 
2188	 1.14126048374256E-02 
2189	 1.10286541981454E-02 
2190	 1.06788202459056E-02 
2191	 1.00961043385451E-02 
2192	 9.65754834668365E-03 
2193	 8.85965384441629E-03 
2194	 8.49958551239372E-03 
2195	 8.89318961489802E-03 
2196	 8.43143724388786E-03 
2197	 6.85691454912755E-03 
2198	 6.92982326053064E-03 
2199	 7.56023161938544E-03 
2200	 8.06683782550261E-03 
2201	 9.68170469827029E-03 
2202	 1.13413362347409E-02 
2203	 1.07175120125252E-02 
2204	 1.08240047689074E-02 
2205	 1.26664183490706E-02 
2206	 1.22379258736547E-02 
2207	 1.10646590142682E-02 
2208	 1.00224775334032E-02 
2209	 8.67335127988957E-03 
2210	 8.78658094131788E-03 
2211	 8.95524582571641E-03 
2212	 0.009650859593131 
2213	 1.03451746046924E-02 
2214	 1.00752903494341E-02 
2215	 1.10191625755311E-02 
2216	 1.14533411358672E-02 
2217	 1.08478320174705E-02 
2218	 8.38143207391072E-03 
2219	 7.95033205720299E-03 
2220	 8.04074279351619E-03 
2221	 8.00280602230935E-03 
2222	 8.89192541411757E-03 
2223	 9.67545650332616E-03 
2224	 1.03968655640814E-02 
2225	 1.00858153540275E-02 
2226	 9.39809371817142E-03 
2227	 9.11965486135378E-03 
2228	 7.91520670650192E-03 
2229	 7.57571349607306E-03 
2230	 8.49594239747713E-03 
2231	 8.84333206977239E-03 
2232	 8.9043726283514E-03 
2233	 9.02193277629434E-03 
2234	 9.37570309637169E-03 
2235	 8.87496899615767E-03 
2236	 9.70138224481143E-03 
2237	 1.10862064091206E-02 
2238	 9.94881715207318E-03 
2239	 9.64937458515094E-03 
2240	 1.03170465172532E-02 
2241	 8.55860543111574E-03 
2242	 7.13265590759697E-03 
2243	 7.87286976740192E-03 
2244	 9.86581328283135E-03 
2245	 0.010447044440415 
2246	 1.01558551280332E-02 
2247	 1.15989946052902E-02 
2248	 1.13255476390074E-02 
2249	 1.04668323811159E-02 
2250	 1.09366844868406E-02 
2251	 1.14135766880976E-02 
2252	 1.11402854919099E-02 
2253	 9.86484109475813E-03 
2254	 9.93578605935884E-03 
2255	 1.06912677596224E-02 
2256	 1.08141436005762E-02 
2257	 1.08701266587559E-02 
2258	 1.20497971829661E-02 
2259	 1.18936657339699E-02 
2260	 1.07040159363002E-02 
2261	 8.4229909011581E-03 
2262	 0.007679538311165 
2263	 5.43381735408879E-03 
2264	 5.87708479650281E-03 
2265	 9.81503916538818E-03 
2266	 1.06506071469589E-02 
2267	 0.011461505274768 
2268	 1.07198439583746E-02 
2269	 7.16031308663892E-03 
2270	 5.43250841833957E-03 
2271	 3.69229618861604E-03 
2272	 3.21249816142739E-03 
2273	 3.32266513052605E-03 
2274	 4.09499476401547E-03 
2275	 6.75019548399455E-03 
2276	 7.92840886068622E-03 
2277	 9.48501977280719E-03 
2278	 1.08638139574183E-02 
2279	 1.12869432636739E-02 
2280	 1.01881881282332E-02 
2281	 7.88969567852027E-03 
2282	 6.66305042341843E-03 
2283	 4.84336221744711E-03 
2284	 4.41807899168878E-03 
2285	 5.24258569361775E-03 
2286	 6.90245901910017E-03 
2287	 5.8846391059932E-03 
2288	 4.80435320341471E-03 
2289	 5.32431317059782E-03 
2290	 4.32977875922194E-03 
2291	 5.29982071052328E-03 
2292	 5.92622390187864E-03 
2293	 6.05576980671645E-03 
2294	 7.07463831607539E-03 
2295	 3.8752285104832E-03 
2296	 3.26191392923182E-03 
2297	 5.0421331854629E-03 
2298	 2.64198687488077E-03 
2299	 3.75194957603456E-03 
2300	 6.22978624241264E-03 
2301	 4.78297709679871E-03 
2302	 5.18740504375141E-03 
2303	 6.30296923238761E-03 
2304	 5.5686904909099E-03 
2305	 6.03417323911451E-03 
2306	 5.68024403302587E-03 
2307	 5.27421401187051E-03 
2308	 7.45747905065865E-03 
2309	 8.60169253929742E-03 
2310	 1.10055767020202E-02 
2311	 1.29179406886534E-02 
2312	 1.22738393743251E-02 
2313	 1.16130866402194E-02 
2314	 9.16964840558691E-03 
2315	 8.36202448142994E-03 
2316	 7.53951903495852E-03 
2317	 6.92109236188367E-03 
2318	 7.79919193261729E-03 
2319	 9.32629284688023E-03 
2320	 1.00788874245318E-02 
2321	 8.38960440072636E-03 
2322	 9.12277265737741E-03 
2323	 6.59130156751132E-03 
2324	 3.55892689460471E-03 
2325	 5.20856574500061E-03 
2326	 8.09080468448797E-03 
2327	 9.14627389833571E-03 
2328	 9.57673691984711E-03 
2329	 0.014263292750107 
2330	 1.51756872857186E-02 
2331	 1.40758022819712E-02 
2332	 1.82657274721044E-02 
2333	 1.95568684702666E-02 
2334	 1.34062583790116E-02 
2335	 7.50207239756831E-03 
2336	 6.58374661305505E-03 
2337	 4.19194603510179E-03 
2338	 2.56657369944585E-03 
2339	 9.8065601152548E-03 
2340	 1.11247415366938E-02 
2341	 2.76380449760729E-03 
2342	 1.5742578686243E-03 
2343	 3.48557724084068E-03 
2344	 3.59838967721655E-03 
2345	 3.64020848518449E-03 
2346	 4.76544965495778E-03 
2347	 8.50233556046675E-03 
2348	 5.43263552261878E-03 
2349	-7.70398383622429E-05 
2350	 3.97379883448069E-03 
2351	 5.66725467607987E-03 
2352	 2.40803303394429E-03 
2353	 0.010284135370502 
2354	 1.30608685375421E-02 
2355	-2.4134716724466E-03 
2356	-7.4128059644982E-03 
2357	-1.94485534192095E-03 
2358	-1.1911408022667E-03 
2359	 4.25302793193939E-03 
2360	 3.86923422790821E-03 
2361	 2.6977969276588E-03 
2362	 1.40047788752139E-02 
2363	 1.75984373624852E-02 
2364	 1.67900964292147E-02 
2365	 2.00672272500391E-02 
2366	 7.70586735115323E-03 
2367	-4.46375330696802E-03 
2368	-9.89869933547653E-04 
2369	-2.44884686349747E-03 
2370	-5.07275366946644E-03 
2371	 1.1080669946622E-03 
2372	 1.29438143313085E-02 
2373	 1.13127425928687E-02 
2374	-0.01336864470286 
2375	-3.26370603729902E-02 
2376	-0.031179560201026 
2377	-2.81742408311948E-02 
2378	-1.79741785548824E-02 
2379	 9.67131704601923E-03 
2380	 8.57729106944294E-03 
2381	-2.59087544668557E-02 
2382	-3.39932261442906E-02 
2383	-2.30706047066157E-02 
2384	-3.94167509602007E-02 
2385	-5.01344142845669E-02 
2386	-5.00427067436696E-02 
2387	-6.83955000265471E-02 
2388	-5.41453920187765E-02 
2389	-1.17023191528004E-02 
2390	 5.47557836417317E-04 
2391	 1.13073531574174E-03 
2392	-1.43091125239808E-04 
2393	-3.57992897806193E-02 
2394	-6.36661557941225E-02 
2395	-4.88853483815047E-02 
2396	-3.63828347978336E-02 
2397	-4.07484869853753E-02 
2398	-0.034070601729591 
2399	-2.50546048461844E-02 
2400	-1.93640904199057E-02 
2401	-1.18636273942975E-02 
2402	 2.27958988783912E-03 
2403	 2.87936294379892E-02 
2404	 1.06294278387136E-02 
2405	-2.65803629721969E-02 
2406	-8.81722611174685E-03 
2407	-3.79448334234861E-02 
2408	-9.06241370754084E-02 
2409	-3.30367702089846E-02 
2410	-0.017329322700533 
2411	-7.33485860248001E-02 
2412	-6.30222634746218E-02 
2413	 1.74130303847645E-03 
2414	 2.83214624032689E-02 
2415	 9.07729394651424E-03 
2416	 5.40788751793674E-02 
2417	 0.11099822850883 
2418	 0.103997309202443 
2419	 0.18115727602632 
2420	 0.139474095353131 
2421	-4.01307303639548E-02 
2422	-0.124521026841872 
2423	-0.100977036290335 
2424	-5.64478974084393E-02 
2425	-4.82149822964971E-02 
2426	-2.78850276272043E-02 
2427	-3.90081389130712E-02 
2428	-2.85843930157772E-02 
2429	 1.43970486937671E-02 
2430	-0.084305537117535 
2431	-0.143034861169015 
2432	-0.133064694344291 
2433	-0.125994307276199 
2434	-3.20146377643756E-02 
2435	 4.15764572663032E-02 
2436	 5.37527622314605E-02 
2437	-6.47018013571973E-02 
2438	-0.123679086728021 
2439	-8.53159794871361E-03 
2440	-8.56206879821331E-02 
2441	-8.30422356924362E-02 
2442	 4.71696516336266E-02 
2443	 5.67884663711866E-03 
2444	-2.98075021321127E-02 
2445	-0.278652611898988 
2446	-0.64592099386553 
2447	-0.797734259331261 
2448	-0.721609424053872 
2449	 0.389935216947951 
2450	 0.73604995821472 
2451	 0.112794143631029 
2452	-0.575937964812105 
2453	-0.424724834746942 
2454	-7.9914021153799E-03 
2455	-5.44950588072573E-02 
2456	-0.28121570003813 
2457	-0.353494374198815 
2458	-0.666063139915122 
2459	-0.755123222161675 
2460	-0.394518682611759 
2461	-0.588476031212523 
2462	-0.682051582683992 
2463	-0.457462357231314 
2464	-0.245836050447636 
2465	 0.153109136094009 
2466	 1.88043848986325 
2467	 2.40588953551976 
2468	-1.23756518966731 
2469	-0.886638870578503 
2470	-1.31324424670612 
2471	 59.0875880776519 
2472	 1.69342868939563 
2473	 1.1425081924626 
2474	 1.3406304710582 
2475	 4.49682926662606 
2476	 0.62053298799551 
2477	-0.326821614212343 
2478	-0.429943969161909 
2479	 2.66610575751956E-02 
2480	 0.46957826335985 
2481	-11.3401273147631 
2482	 0.466515283067177 
2483	-0.562411814063039 
2484	-12.1511030916671 
2485	-35.0188200512526 
2486	-2.78932837409621 
2487	-1.24774232944903 
2488	-5.57105106324001 
2489	 3.27089066897748 
2490	 0.244972297922692 
2491	-0.385205238860444 
2492	-0.431950204806864 
2493	 9.91607880661508E-03 
2494	 1.55700424844982E-02 
2495	-0.640842809867447 
2496	-0.466749220930189 
2497	-0.24378287216283 
2498	-0.375883552829618 
2499	-0.617598083765122 
2500	-1.43731668353296 
