Wavelength	rt0713west_far_sunny00009.asd
350	 5.62751635767732E-02 
351	 5.58591221154055E-02 
352	 0.055297326768251 
353	 0.05517166011794 
354	 0.055425767403393 
355	 5.48015658853118E-02 
356	 5.45893216939245E-02 
357	 5.46845586525958E-02 
358	 5.46141421429775E-02 
359	 5.43445730392428E-02 
360	 5.39593747821288E-02 
361	 5.37780219777287E-02 
362	 5.41354418544573E-02 
363	 5.40251539668922E-02 
364	 5.37471334987832E-02 
365	 5.35103865685614E-02 
366	 5.31143745184291E-02 
367	 0.053109105438711 
368	 5.32139688010292E-02 
369	 5.30791608520843E-02 
370	 5.29164633612936E-02 
371	 5.29518379946681E-02 
372	 5.30047705966946E-02 
373	 5.27354585360015E-02 
374	 5.26662803464041E-02 
375	 5.25695597438528E-02 
376	 5.24690969587738E-02 
377	 5.28110825439531E-02 
378	 5.25971810534362E-02 
379	 0.052422826881679 
380	 5.27367889463366E-02 
381	 5.23150571478813E-02 
382	 5.20727540408106E-02 
383	 5.22431855160767E-02 
384	 5.26671599419561E-02 
385	 5.31307336769511E-02 
386	 5.31136971278373E-02 
387	 5.27486542546301E-02 
388	 5.28513676483518E-02 
389	 5.28486591274838E-02 
390	 5.28055349402911E-02 
391	 5.28360864990645E-02 
392	 5.28694983214502E-02 
393	 5.29733808001564E-02 
394	 5.31141636738744E-02 
395	 5.32177664465635E-02 
396	 5.32190816268926E-02 
397	 5.31559301830463E-02 
398	 5.31349465973193E-02 
399	 5.32908287116347E-02 
400	 5.33235719305259E-02 
401	 0.053258170771611 
402	 5.32001662144176E-02 
403	 5.33087824280038E-02 
404	 0.053468179842096 
405	 0.053585276437253 
406	 5.36064858033609E-02 
407	 5.36421408546359E-02 
408	 5.37021811592971E-02 
409	 5.37464326039545E-02 
410	 5.37059659666316E-02 
411	 5.38503627499092E-02 
412	 5.39896706034019E-02 
413	 5.39999385381132E-02 
414	 5.41158279121785E-02 
415	 5.42070501452302E-02 
416	 5.42862762566324E-02 
417	 5.44148236462698E-02 
418	 5.45764195961355E-02 
419	 5.48221421983029E-02 
420	 5.50609417872342E-02 
421	 5.50639081397648E-02 
422	 5.51926743888956E-02 
423	 0.055401635701888 
424	 5.55993722535965E-02 
425	 5.58278340725451E-02 
426	 0.056012537018578 
427	 0.056213578177704 
428	 0.056523286268569 
429	 0.056763009954553 
430	 5.70671929190256E-02 
431	 5.74180609411274E-02 
432	 0.057595915821382 
433	 5.78251263284321E-02 
434	 5.81481303770036E-02 
435	 5.85042888845834E-02 
436	 5.86472214657579E-02 
437	 5.88873015898537E-02 
438	 5.92545924030153E-02 
439	 5.96070959816347E-02 
440	 5.98055886907421E-02 
441	 6.00242622155705E-02 
442	 6.03389718107489E-02 
443	 6.06315301831771E-02 
444	 6.09192171355512E-02 
445	 6.11690501286651E-02 
446	 6.13648303294657E-02 
447	 6.15853057538754E-02 
448	 6.18691325792719E-02 
449	 0.062155477704866 
450	 6.23269188323099E-02 
451	 6.25095675721476E-02 
452	 6.26899502626615E-02 
453	 6.28617874632187E-02 
454	 6.30777793118997E-02 
455	 6.32778562102178E-02 
456	 6.34128056641313E-02 
457	 6.34786803911889E-02 
458	 6.36742625492687E-02 
459	 6.38301137902904E-02 
460	 6.39449464462501E-02 
461	 6.41881200677642E-02 
462	 6.42443917648052E-02 
463	 6.42820360826524E-02 
464	 0.064450058637782 
465	 6.45729678619905E-02 
466	 6.46994165142669E-02 
467	 6.48618284392049E-02 
468	 6.50655749429421E-02 
469	 6.51558679590885E-02 
470	 6.52761663691396E-02 
471	 6.54567805257731E-02 
472	 6.55418875731641E-02 
473	 6.56431990082963E-02 
474	 6.57739651475188E-02 
475	 6.59469769156243E-02 
476	 6.62895661216933E-02 
477	 6.64822276587509E-02 
478	 6.65981379304741E-02 
479	 6.69398979146693E-02 
480	 6.70946296782567E-02 
481	 6.72516486981673E-02 
482	 6.75486066066228E-02 
483	 6.78615044078821E-02 
484	 6.81470175437348E-02 
485	 6.83893620834421E-02 
486	 6.86168689227648E-02 
487	 0.068978279757665 
488	 6.93304620169923E-02 
489	 6.95993155157177E-02 
490	 6.98037395411773E-02 
491	 7.01234257208185E-02 
492	 7.05099677010029E-02 
493	 7.08709027651608E-02 
494	 7.11293937140333E-02 
495	 7.14069291722172E-02 
496	 7.17871986059187E-02 
497	 7.22945737215844E-02 
498	 7.26702287381041E-02 
499	 0.072951149174309 
500	 7.32192137722694E-02 
501	 7.35694610976874E-02 
502	 7.39286929032983E-02 
503	 7.43099362267343E-02 
504	 7.47283582584218E-02 
505	 7.51008525202207E-02 
506	 7.55307984130028E-02 
507	 7.60113329446647E-02 
508	 7.64512661701142E-02 
509	 7.69272247009406E-02 
510	 7.74240872582469E-02 
511	 7.79141361845589E-02 
512	 7.83752960573302E-02 
513	 0.078837245397534 
514	 7.93192882628866E-02 
515	 7.98268338588345E-02 
516	 8.03241476678339E-02 
517	 8.08711766708504E-02 
518	 8.14426334151095E-02 
519	 8.19056833205725E-02 
520	 8.24899621312887E-02 
521	 8.30460272971826E-02 
522	 8.34706931570696E-02 
523	 8.41338656944927E-02 
524	 8.46609470012956E-02 
525	 8.50801051165857E-02 
526	 8.56907061211753E-02 
527	 8.63265704002711E-02 
528	 8.69266129598513E-02 
529	 8.74664957975383E-02 
530	 8.79534023326772E-02 
531	 8.84882670208012E-02 
532	 8.90845872609687E-02 
533	 0.08970872255719 
534	 9.03030480424342E-02 
535	 9.08900481493093E-02 
536	 9.14746290671033E-02 
537	 9.20320109016128E-02 
538	 9.25747022425463E-02 
539	 9.31304758369732E-02 
540	 9.37156997827277E-02 
541	 9.42997142152458E-02 
542	 9.48948175127261E-02 
543	 9.54801590641904E-02 
544	 9.60242388041606E-02 
545	 9.65786455595946E-02 
546	 9.71654373380825E-02 
547	 9.77784418418743E-02 
548	 9.83710367731688E-02 
549	 9.89523699471493E-02 
550	 9.95323774235884E-02 
551	 0.100118295783362 
552	 0.100686662134158 
553	 0.101224115174616 
554	 0.101760706776495 
555	 0.102366998227164 
556	 0.102884827616771 
557	 0.103393321821159 
558	 0.103967015595516 
559	 0.104493837531513 
560	 0.10496054820842 
561	 0.10539447638495 
562	 0.105845792619137 
563	 0.106270010197215 
564	 0.106657900968457 
565	 0.107001844605353 
566	 0.107284223815292 
567	 0.107592684468288 
568	 0.107898319729598 
569	 0.108153871530851 
570	 0.108496921686456 
571	 0.108760630985074 
572	 0.108919265409373 
573	 0.109114793534244 
574	 0.109363864149122 
575	 0.109570520674743 
576	 0.109675840599485 
577	 0.109842707461656 
578	 0.109961558149767 
579	 0.110007284495212 
580	 0.110014807039276 
581	 0.110051113759873 
582	 0.110037032866994 
583	 0.109910772372345 
584	 0.109669184104364 
585	 0.109409280190109 
586	 0.109052809065612 
587	 0.108508234024022 
588	 0.108039807549599 
589	 0.10768054943462 
590	 0.107429883742333 
591	 0.107237977579312 
592	 0.106980796796796 
593	 0.106618125312507 
594	 0.106156052458833 
595	 0.105642815653481 
596	 0.105059439816458 
597	 0.104420853875424 
598	 0.103760891784053 
599	 0.103045890398209 
600	 0.102447819102359 
601	 0.102047847720096 
602	 0.101736734250821 
603	 0.101486307881816 
604	 0.101304434318103 
605	 0.101204025810198 
606	 0.101133419941622 
607	 0.101066005469663 
608	 0.101018752127162 
609	 0.101047079141365 
610	 0.101036499751044 
611	 0.10099746423119 
612	 0.100958209529824 
613	 0.100918713816476 
614	 0.100812313957005 
615	 0.100723220175202 
616	 0.100787767468576 
617	 0.100771978755677 
618	 0.10074794368425 
619	 0.100735441862973 
620	 0.100609709653708 
621	 0.100522135177833 
622	 0.100520911823747 
623	 0.100572327715281 
624	 0.100448308726324 
625	 0.100274728228298 
626	 0.100131920223312 
627	 0.100041179225626 
628	 0.100014819454254 
629	 0.100010143203899 
630	 9.99809453227165E-02 
631	 9.98948514431136E-02 
632	 9.98539329134008E-02 
633	 9.98668723462494E-02 
634	 9.98862833998136E-02 
635	 9.98450637492649E-02 
636	 9.97567911691579E-02 
637	 9.96398655365165E-02 
638	 9.95034984424965E-02 
639	 9.93399845157625E-02 
640	 9.91689159529609E-02 
641	 9.90092623931276E-02 
642	 9.88426999009758E-02 
643	 9.86561590538405E-02 
644	 0.098384460527398 
645	 9.79367058544639E-02 
646	 9.75070235334945E-02 
647	 9.72819350423397E-02 
648	 9.72743575405913E-02 
649	 9.71341726356255E-02 
650	 9.68366595011706E-02 
651	 9.65324354899412E-02 
652	 9.63905586180539E-02 
653	 0.096075373071982 
654	 9.56021617068782E-02 
655	 9.50276461946451E-02 
656	 9.45128564234337E-02 
657	 9.41718020125078E-02 
658	 9.38382601397987E-02 
659	 9.34023093043563E-02 
660	 9.31293192176827E-02 
661	 9.28485215507314E-02 
662	 9.25643313656561E-02 
663	 9.23789067569538E-02 
664	 9.21477867172412E-02 
665	 9.19296214120657E-02 
666	 9.17714730966287E-02 
667	 9.16610485069889E-02 
668	 9.15559751212982E-02 
669	 9.14473363091614E-02 
670	 9.13439713476216E-02 
671	 9.12643607296035E-02 
672	 9.12467308216374E-02 
673	 9.12245751125616E-02 
674	 9.10527497735792E-02 
675	 9.10010325940737E-02 
676	 9.10466309237982E-02 
677	 9.11115887182316E-02 
678	 9.11327575870804E-02 
679	 9.11709256415156E-02 
680	 9.11905478365554E-02 
681	 9.11449019836675E-02 
682	 9.12271753803848E-02 
683	 9.13056458731744E-02 
684	 9.12927731771279E-02 
685	 9.11900309747446E-02 
686	 9.10397099431912E-02 
687	 9.09147066446254E-02 
688	 9.08719045044971E-02 
689	 9.08974804998788E-02 
690	 9.07626002786644E-02 
691	 0.090420188310125 
692	 8.99421064631407E-02 
693	 8.94449418856459E-02 
694	 8.91899893864439E-02 
695	 8.91666945986898E-02 
696	 8.89648620057859E-02 
697	 8.84110566006609E-02 
698	 8.75719414994649E-02 
699	 8.66914045635258E-02 
700	 8.60355682383192E-02 
701	 0.085560901075995 
702	 0.085060849376596 
703	 8.42451437252998E-02 
704	 8.33634826286284E-02 
705	 8.24810889423417E-02 
706	 8.16148685800705E-02 
707	 8.06778905773299E-02 
708	 0.079629144489145 
709	 7.84899678330697E-02 
710	 7.72760400890374E-02 
711	 7.58038542309686E-02 
712	 7.42897601165297E-02 
713	 7.27321066067863E-02 
714	 7.08327073389105E-02 
715	 6.87869562938607E-02 
716	 6.64832115350679E-02 
717	 0.064101217644294 
718	 6.21277755536742E-02 
719	 6.06614111335119E-02 
720	 5.96165559873314E-02 
721	 5.85453498763429E-02 
722	 5.69296923601691E-02 
723	 5.49227211081109E-02 
724	 5.30197524499432E-02 
725	 5.14273620428266E-02 
726	 4.99181042988899E-02 
727	 4.82673294435918E-02 
728	 4.63947041168014E-02 
729	 4.44932224966452E-02 
730	 4.27860334411772E-02 
731	 4.14788393715093E-02 
732	 4.05365444948032E-02 
733	 3.96250865966254E-02 
734	 3.86607876455973E-02 
735	 3.77340837354591E-02 
736	 3.71245054488464E-02 
737	 3.68447475121658E-02 
738	 3.66631077136824E-02 
739	 3.64209063985961E-02 
740	 3.63499696798611E-02 
741	 3.63199588903107E-02 
742	 3.62848436403684E-02 
743	 3.62458387820013E-02 
744	 3.61909260015226E-02 
745	 3.62089565767695E-02 
746	 3.62500565854325E-02 
747	 3.60704205065926E-02 
748	 3.60346673051039E-02 
749	 3.60716514423466E-02 
750	 3.60504090911722E-02 
751	 3.60400003968187E-02 
752	 3.60136222175393E-02 
753	 3.59717843383744E-02 
754	 3.59268572479983E-02 
755	 3.58491106577431E-02 
756	 3.58539847532798E-02 
757	 3.58440917872269E-02 
758	 3.52593485232632E-02 
759	 3.46042493975637E-02 
760	 3.41329994905444E-02 
761	 3.40280220846838E-02 
762	 3.39645659936368E-02 
763	 3.42518457102355E-02 
764	 3.47694968176938E-02 
765	 3.52703843011228E-02 
766	 3.56264726924102E-02 
767	 3.58604250306768E-02 
768	 3.60269234238907E-02 
769	 3.61959964523545E-02 
770	 0.036321106904809 
771	 3.64066883805521E-02 
772	 3.64959077922775E-02 
773	 3.67155229048631E-02 
774	 3.69092964427621E-02 
775	 3.70062002077589E-02 
776	 0.037020097486157 
777	 3.71853851309072E-02 
778	 3.73551431045642E-02 
779	 3.74665006339842E-02 
780	 3.75769988641574E-02 
781	 3.77968046168901E-02 
782	 3.80429168984898E-02 
783	 3.82396872430945E-02 
784	 3.84182398957792E-02 
785	 3.85574251069648E-02 
786	 3.86425042163716E-02 
787	 3.86932910496874E-02 
788	 3.88661327751965E-02 
789	 3.91545674932743E-02 
790	 0.039490753486702 
791	 3.97838285582384E-02 
792	 0.040149905686621 
793	 4.04426460662808E-02 
794	 4.06099798379498E-02 
795	 4.07933689919101E-02 
796	 4.10053886884209E-02 
797	 4.12276390040243E-02 
798	 0.041435947549203 
799	 4.16001821577705E-02 
800	 4.17919629333342E-02 
801	 4.20141913052808E-02 
802	 4.22317470229693E-02 
803	 4.24586273249463E-02 
804	 4.26309338793662E-02 
805	 4.27230350772093E-02 
806	 4.27572330513928E-02 
807	 4.27642099571701E-02 
808	 4.26145238167755E-02 
809	 4.22543559824123E-02 
810	 0.041896553193513 
811	 4.15662636492322E-02 
812	 4.10967226127961E-02 
813	 4.03477298010033E-02 
814	 3.99447367377444E-02 
815	 3.96015398233531E-02 
816	 3.92353716787129E-02 
817	 3.89716296399486E-02 
818	 3.88095675587892E-02 
819	 3.86427830650119E-02 
820	 3.83198660238358E-02 
821	 3.76319176340302E-02 
822	 3.67230034370069E-02 
823	 3.59381657326748E-02 
824	 3.54088300013598E-02 
825	 3.46984395367183E-02 
826	 3.36607215329927E-02 
827	 3.25362536349511E-02 
828	 0.031721391969784 
829	 3.08449613006656E-02 
830	 3.02221787084051E-02 
831	 0.029732182217658 
832	 2.90270287089499E-02 
833	 2.87976755781464E-02 
834	 2.86617929081693E-02 
835	 2.84238037123219E-02 
836	 2.82983332355566E-02 
837	 2.82251570323692E-02 
838	 2.81914738664701E-02 
839	 2.81817267800476E-02 
840	 0.028169092717812 
841	 2.80433037358214E-02 
842	 2.78031461075104E-02 
843	 2.75710215565746E-02 
844	 2.77968789318083E-02 
845	 0.027813501949768 
846	 0.027582923909479 
847	 2.75059595160525E-02 
848	 2.74529653325407E-02 
849	 2.74048084626948E-02 
850	 2.73206489339276E-02 
851	 2.71367254882415E-02 
852	 2.71379740250695E-02 
853	 2.70658408763021E-02 
854	 2.68142957976864E-02 
855	 2.68306554718284E-02 
856	 2.68734233101947E-02 
857	 2.68170877290235E-02 
858	 0.02663164917286 
859	 2.64797224557309E-02 
860	 0.026442029627081 
861	 2.64725899212723E-02 
862	 2.64384376022765E-02 
863	 2.61334517498807E-02 
864	 2.60391989631635E-02 
865	 0.026190200712141 
866	 2.61623812996811E-02 
867	 2.57705017447493E-02 
868	 2.56046665640555E-02 
869	 2.57590984204906E-02 
870	 2.55811945332128E-02 
871	 2.55364789037977E-02 
872	 2.54974291511877E-02 
873	 2.53418774450268E-02 
874	 2.52338329116631E-02 
875	 2.51192111969636E-02 
876	 2.50512637888488E-02 
877	 2.50397415496702E-02 
878	 2.48270065904437E-02 
879	 2.47385549535559E-02 
880	 2.47285105815183E-02 
881	 2.46096440224789E-02 
882	 2.45357068139792E-02 
883	 2.44088273385981E-02 
884	 2.42339166497801E-02 
885	 2.41052071679659E-02 
886	 2.40821270158051E-02 
887	 2.41269999010242E-02 
888	 0.024008927779573 
889	 2.33826039476407E-02 
890	 2.33333517532484E-02 
891	 2.33520460247833E-02 
892	 2.29706059303485E-02 
893	 0.022380250614666 
894	 2.21369266169347E-02 
895	 2.18946237538944E-02 
896	 2.13102947006961E-02 
897	 2.10423994206613E-02 
898	 2.10238600678476E-02 
899	 2.11666986938011E-02 
900	 2.12131390157463E-02 
901	 2.03925484754199E-02 
902	 2.08637044925673E-02 
903	 2.15772064170854E-02 
904	 2.08875857978137E-02 
905	 2.06522529440869E-02 
906	 2.05353355429073E-02 
907	 2.05239037886115E-02 
908	 2.06801996836915E-02 
909	 1.96229971571742E-02 
910	 1.93633060960608E-02 
911	 2.00551064808124E-02 
912	 2.00371539629965E-02 
913	 0.020466366124253 
914	 1.97792784132236E-02 
915	 1.84676080163476E-02 
916	 1.92577207200081E-02 
917	 1.99833558445473E-02 
918	 2.00742387616597E-02 
919	 1.96365320200863E-02 
920	 1.92699945204311E-02 
921	 1.93433720039912E-02 
922	 0.019383046901003 
923	 1.90682566432215E-02 
924	 1.87757195921338E-02 
925	 1.86190684329287E-02 
926	 0.018483645673426 
927	 1.80599976327012E-02 
928	 1.66380254690256E-02 
929	 0.016106544916357 
930	 1.65417219088477E-02 
931	 1.66472757796141E-02 
932	 0.015592588754663 
933	 1.49204197172525E-02 
934	 1.38525452504916E-02 
935	 1.14765541292917E-02 
936	 1.15135134218207E-02 
937	 1.33620323995109E-02 
938	 1.46674274330404E-02 
939	 0.013946595655234 
940	 1.38322626551938E-02 
941	 1.23973370807149E-02 
942	 1.19823257393913E-02 
943	 1.54472633024978E-02 
944	 1.48238740162766E-02 
945	 1.34738132538289E-02 
946	 1.29194671674388E-02 
947	 1.28722917238687E-02 
948	 1.31242612534897E-02 
949	 1.43849102909515E-02 
950	 1.54912367772957E-02 
951	 1.49432190579836E-02 
952	 1.67713820710999E-02 
953	 1.46676562017969E-02 
954	 1.16057192839422E-02 
955	 1.50450768718338E-02 
956	 1.67944494681654E-02 
957	 1.58073510120315E-02 
958	 1.45180620135379E-02 
959	 1.61063463527053E-02 
960	 1.53275268181781E-02 
961	 1.62726703646434E-02 
962	 1.78470947645475E-02 
963	 1.62135317123444E-02 
964	 0.016733560280268 
965	 1.68670358947577E-02 
966	 1.66857281732663E-02 
967	 1.79086763033529E-02 
968	 1.67735492213781E-02 
969	 1.54005315646292E-02 
970	 0.015604892851403 
971	 1.78133043078495E-02 
972	 1.73734235502351E-02 
973	 1.70423133292056E-02 
974	 0.01769954878143 
975	 1.76362306497601E-02 
976	 1.66983160157851E-02 
977	 0.01734320526039 
978	 1.84632743796941E-02 
979	 1.67322941519488E-02 
980	 1.73413862703074E-02 
981	 1.77592995716477E-02 
982	 1.78134492408141E-02 
983	 1.92399782437449E-02 
984	 1.86365626105239E-02 
985	 1.85693984495268E-02 
986	 1.90886201208532E-02 
987	 1.83701541068099E-02 
988	 1.92757400285643E-02 
989	 0.019894778045994 
990	 1.93293446002139E-02 
991	 1.81780832235995E-02 
992	 1.87645597672626E-02 
993	 1.93636930497739E-02 
994	 1.94490443526754E-02 
995	 1.94884802075404E-02 
996	 1.85647147277339E-02 
997	 1.97327999970985E-02 
998	 2.13645269854401E-02 
999	 1.99963561040772E-02 
1000	 1.98527881145417E-02 
1001	 1.93649875271419E-02 
1002	 0.019230008014616 
1003	 1.91273187364766E-02 
1004	 1.91400248411637E-02 
1005	 1.91888092302017E-02 
1006	 1.91795814385544E-02 
1007	 1.91846702992889E-02 
1008	 1.95606156150273E-02 
1009	 1.98565574189432E-02 
1010	 1.97380126571298E-02 
1011	 1.96487025852007E-02 
1012	 1.94330670846516E-02 
1013	 0.019133664397986 
1014	 1.89980319154279E-02 
1015	 1.90473045684684E-02 
1016	 1.89942097779403E-02 
1017	 1.88376268137362E-02 
1018	 1.88574623743186E-02 
1019	 1.89477931400405E-02 
1020	 1.91335051330068E-02 
1021	 1.94290327597091E-02 
1022	 0.019846265265139 
1023	 2.02286460884849E-02 
1024	 2.04262815984677E-02 
1025	 2.03165861130158E-02 
1026	 0.020106157964019 
1027	 2.00243921006109E-02 
1028	 1.97275714136956E-02 
1029	 1.97811850157342E-02 
1030	 2.01757836666926E-02 
1031	 0.0203231046136 
1032	 2.04682902586918E-02 
1033	 2.05770829520287E-02 
1034	 2.06120027348684E-02 
1035	 2.06445829921308E-02 
1036	 2.08736821417623E-02 
1037	 2.07979317336342E-02 
1038	 2.03543572938045E-02 
1039	 0.020099368725179 
1040	 2.00440570574773E-02 
1041	 1.98857322381603E-02 
1042	 1.99737241122029E-02 
1043	 2.05268222968523E-02 
1044	 2.05652795958537E-02 
1045	 0.02036843808612 
1046	 2.03618801846844E-02 
1047	 2.02732797177917E-02 
1048	 2.02755250238233E-02 
1049	 2.04632474769587E-02 
1050	 2.04858025965156E-02 
1051	 2.03952843011241E-02 
1052	 2.03463537016664E-02 
1053	 2.02467453260012E-02 
1054	 0.020197389430798 
1055	 2.01279420802814E-02 
1056	 0.020149207830005 
1057	 2.02254979322897E-02 
1058	 0.020434274565894 
1059	 2.04192099962339E-02 
1060	 2.03891844269082E-02 
1061	 2.03175397024314E-02 
1062	 1.99537887205964E-02 
1063	 1.99556848221696E-02 
1064	 2.02652827386587E-02 
1065	 0.020305278922996 
1066	 2.03737002079878E-02 
1067	 2.03950867511826E-02 
1068	 2.01855588874935E-02 
1069	 2.01115095878966E-02 
1070	 0.020228327976433 
1071	 2.01950457744939E-02 
1072	 1.99987023091119E-02 
1073	 1.99332308378348E-02 
1074	 1.99173881579315E-02 
1075	 1.98929978001637E-02 
1076	 1.98970073585436E-02 
1077	 1.99893790949093E-02 
1078	 2.00706441686479E-02 
1079	 2.01558603702802E-02 
1080	 2.02109638592668E-02 
1081	 0.020429252129863 
1082	 2.03922737049456E-02 
1083	 2.01466457473497E-02 
1084	 1.99324280659676E-02 
1085	 1.93088487141317E-02 
1086	 1.92031922235042E-02 
1087	 1.96512874963067E-02 
1088	 1.96979641833955E-02 
1089	 1.98615213286038E-02 
1090	 2.00019185170101E-02 
1091	 1.97437709211008E-02 
1092	 1.87178752142577E-02 
1093	 1.85576802439667E-02 
1094	 1.87485303786583E-02 
1095	 1.86819911517775E-02 
1096	 0.019023822938723 
1097	 0.018905725485088 
1098	 0.018038274328792 
1099	 1.77912635858658E-02 
1100	 1.78873574201045E-02 
1101	 1.77911674883003E-02 
1102	 1.79882212119938E-02 
1103	 1.79903704828378E-02 
1104	 1.78975922065519E-02 
1105	 1.72081902411661E-02 
1106	 1.73172686152958E-02 
1107	 1.78426725782631E-02 
1108	 1.74322012292563E-02 
1109	 1.76717967679281E-02 
1110	 1.74571987930281E-02 
1111	 1.60947797104099E-02 
1112	 1.55269246023202E-02 
1113	 1.58101781271905E-02 
1114	 1.56106637190197E-02 
1115	 1.51357540588408E-02 
1116	 1.50773437637361E-02 
1117	 1.52619795231124E-02 
1118	 1.49928441299095E-02 
1119	 1.54406762273926E-02 
1120	 1.53285795647846E-02 
1121	 1.39966133662573E-02 
1122	 1.18378308721844E-02 
1123	 1.18849681210514E-02 
1124	 1.47954343745886E-02 
1125	 1.55822753631682E-02 
1126	 1.39985388141376E-02 
1127	 1.52917077500175E-02 
1128	 1.64792083341105E-02 
1129	 1.44094318752783E-02 
1130	 1.17445566021412E-02 
1131	 1.24309247960333E-02 
1132	 0.011401824027896 
1133	 0.011164001529645 
1134	 1.49243707772275E-02 
1135	 1.54875591094741E-02 
1136	 1.23930211577992E-02 
1137	 1.24212439031335E-02 
1138	 1.40614998293791E-02 
1139	 1.48384537819127E-02 
1140	 1.43017478468932E-02 
1141	 1.45007337973491E-02 
1142	 1.38556750291904E-02 
1143	 1.32435777310092E-02 
1144	 1.45565182677091E-02 
1145	 1.43520167612174E-02 
1146	 1.20856985168412E-02 
1147	 1.15585099240112E-02 
1148	 1.21524845045908E-02 
1149	 1.23221379601878E-02 
1150	 0.012678315736292 
1151	 1.40276026229442E-02 
1152	 1.40381415298374E-02 
1153	 1.29358532514732E-02 
1154	 1.32124402556424E-02 
1155	 1.37390612873107E-02 
1156	 1.42893429192382E-02 
1157	 1.51081518913263E-02 
1158	 1.53416154904406E-02 
1159	 1.49961727516866E-02 
1160	 1.51132360430212E-02 
1161	 0.015618336811856 
1162	 1.60345736177146E-02 
1163	 1.61167390473048E-02 
1164	 1.59137396581561E-02 
1165	 1.57183755858366E-02 
1166	 1.60230463620206E-02 
1167	 1.68086777353119E-02 
1168	 1.71551989526809E-02 
1169	 1.71522784274424E-02 
1170	 1.69314430748214E-02 
1171	 1.68615096966143E-02 
1172	 0.016818326409491 
1173	 0.016961465698075 
1174	 1.73469752070223E-02 
1175	 1.72769070388184E-02 
1176	 1.73953474954576E-02 
1177	 1.72431227573014E-02 
1178	 1.68177539331976E-02 
1179	 1.69923988992794E-02 
1180	 1.71529260786159E-02 
1181	 1.68800647309757E-02 
1182	 1.69900056465321E-02 
1183	 1.70013551294325E-02 
1184	 1.67077968697833E-02 
1185	 1.69229625679141E-02 
1186	 1.72617377431196E-02 
1187	 1.72835861493134E-02 
1188	 1.72920241172974E-02 
1189	 1.73168974263599E-02 
1190	 1.73058554382695E-02 
1191	 1.72236425685377E-02 
1192	 1.71735817084222E-02 
1193	 1.71522855190086E-02 
1194	 1.73064941694653E-02 
1195	 1.74697819313811E-02 
1196	 1.74877660107612E-02 
1197	 1.76011757197931E-02 
1198	 0.017659857500709 
1199	 1.74731561044772E-02 
1200	 1.75716976511393E-02 
1201	 1.78521440495707E-02 
1202	 1.77009916687336E-02 
1203	 0.017533041175019 
1204	 1.76142051938026E-02 
1205	 1.76443687769623E-02 
1206	 1.76788729865679E-02 
1207	 1.78178303525048E-02 
1208	 1.78271379103408E-02 
1209	 1.75620191011862E-02 
1210	 1.75293818929447E-02 
1211	 1.77904090456803E-02 
1212	 1.77852079057937E-02 
1213	 1.77700525327905E-02 
1214	 1.79175710616515E-02 
1215	 1.82345552840089E-02 
1216	 1.82125840643175E-02 
1217	 1.79723707564182E-02 
1218	 1.79961445920013E-02 
1219	 1.81143893069319E-02 
1220	 1.81029660200665E-02 
1221	 1.81768357075606E-02 
1222	 1.83977004716704E-02 
1223	 1.84360922165671E-02 
1224	 0.018248675977704 
1225	 1.84522725743777E-02 
1226	 1.87866044075076E-02 
1227	 1.86387419910238E-02 
1228	 1.85077849932957E-02 
1229	 1.85533823528404E-02 
1230	 1.84604400402731E-02 
1231	 1.84681786508523E-02 
1232	 1.86783389642073E-02 
1233	 1.86703693208297E-02 
1234	 0.018588035569467 
1235	 1.86423708136204E-02 
1236	 1.88219253643214E-02 
1237	 1.88115662288845E-02 
1238	 1.87452282049916E-02 
1239	 1.88311680181039E-02 
1240	 1.88668850990216E-02 
1241	 1.88118132001448E-02 
1242	 1.88291818537359E-02 
1243	 1.89122530083877E-02 
1244	 1.88756789019959E-02 
1245	 1.88152037848539E-02 
1246	 0.018831382940083 
1247	 1.87914279136577E-02 
1248	 1.87926990684424E-02 
1249	 1.88612219910084E-02 
1250	 1.88267956416204E-02 
1251	 1.87602418219363E-02 
1252	 1.88394678423559E-02 
1253	 1.88994523529346E-02 
1254	 1.87691209591007E-02 
1255	 1.87378980898591E-02 
1256	 1.87600788528712E-02 
1257	 1.86353076474039E-02 
1258	 1.84815450173402E-02 
1259	 1.83925378245737E-02 
1260	 1.84282111783904E-02 
1261	 1.85667311113669E-02 
1262	 1.84752837425407E-02 
1263	 1.84204670299945E-02 
1264	 1.82812369748883E-02 
1265	 1.82574373380752E-02 
1266	 1.80650956460456E-02 
1267	 1.80548709524738E-02 
1268	 0.018400214642846 
1269	 1.83292659642375E-02 
1270	 1.80834888753584E-02 
1271	 0.018317608432377 
1272	 1.86292870603534E-02 
1273	 1.85757944477975E-02 
1274	 1.83777186204967E-02 
1275	 1.84528044373669E-02 
1276	 1.86217959467437E-02 
1277	 1.85316999998099E-02 
1278	 1.84444647341228E-02 
1279	 1.85166374547959E-02 
1280	 1.84739890717582E-02 
1281	 1.83838997863583E-02 
1282	 1.85683171360629E-02 
1283	 1.86723150204663E-02 
1284	 1.84909344869724E-02 
1285	 1.84131872196755E-02 
1286	 1.86252527477051E-02 
1287	 1.86677666855981E-02 
1288	 1.84243341836992E-02 
1289	 1.83381387113959E-02 
1290	 1.83956784515317E-02 
1291	 1.83376458042607E-02 
1292	 1.80701876391403E-02 
1293	 0.018003597689738 
1294	 1.81002354273047E-02 
1295	 1.81963444738999E-02 
1296	 1.83112615599711E-02 
1297	 1.80616736028267E-02 
1298	 1.76125293725481E-02 
1299	 1.76280923625555E-02 
1300	 0.01758363780108 
1301	 0.017403416551317 
1302	 1.76063244864035E-02 
1303	 1.75950438688439E-02 
1304	 1.73287459765946E-02 
1305	 1.74564497554073E-02 
1306	 1.74835174486284E-02 
1307	 1.72811587482049E-02 
1308	 1.70089063224738E-02 
1309	 1.67521775981893E-02 
1310	 1.67679075825604E-02 
1311	 1.68519657830538E-02 
1312	 0.016617496146839 
1313	 1.64458603603328E-02 
1314	 1.64889182086452E-02 
1315	 1.62804166488178E-02 
1316	 1.60451827212829E-02 
1317	 1.62669297883836E-02 
1318	 0.016235632811028 
1319	 1.55947811977279E-02 
1320	 1.54070023758664E-02 
1321	 1.56700463980181E-02 
1322	 1.57123819280181E-02 
1323	 1.55142664295317E-02 
1324	 1.55087469748368E-02 
1325	 1.57265614999813E-02 
1326	 1.55500856741703E-02 
1327	 1.53665988607809E-02 
1328	 1.54174831789589E-02 
1329	 1.52118232938844E-02 
1330	 0.015131194229442 
1331	 0.014738834036788 
1332	 1.43876204174984E-02 
1333	 1.41556975850185E-02 
1334	 1.30785641412756E-02 
1335	 1.25533051207693E-02 
1336	 1.24764464589351E-02 
1337	 1.26204414191881E-02 
1338	 1.32129560526573E-02 
1339	 1.34070067569611E-02 
1340	 0.013843406906203 
1341	 1.39812950290962E-02 
1342	 1.30368923801275E-02 
1343	 1.32116251003605E-02 
1344	 1.52639722138194E-02 
1345	 1.58257765957102E-02 
1346	 1.55171017668378E-02 
1347	 1.55809512989486E-02 
1348	 1.30707524662717E-02 
1349	 1.21193518668442E-02 
1350	 1.43033999519736E-02 
1351	 1.69858394623105E-02 
1352	 2.58936084054375E-02 
1353	 3.47402609376597E-02 
1354	 0.04966590989975 
1355	 5.62264712792982E-02 
1356	 4.28038936033637E-02 
1357	 1.33107738458616E-02 
1358	-5.69651076703534E-03 
1359	 2.88442848010091E-02 
1360	 5.65419938575055E-02 
1361	 3.22807778748723E-02 
1362	 7.74572749926797E-02 
1363	 9.67589141666195E-02 
1364	 2.95934292829251E-02 
1365	 0.197775968372206 
1366	 0.40315721810228 
1367	 0.398446050033946 
1368	 0.443957458731382 
1369	 0.829832756588944 
1370	 0.91728066319374 
1371	 0.132275778563194 
1372	 0.161914615981877 
1373	 0.713853244565812 
1374	 0.645435019127194 
1375	 0.313867010390723 
1376	 0.383685197589112 
1377	 0.529091916160696 
1378	 0.37867911145591 
1379	 4.77243480018479E-02 
1380	 0.22642577734915 
1381	 0.244551984187204 
1382	 0.116416862696761 
1383	 0.384484921346443 
1384	 0.538873108344053 
1385	 0.272562039300976 
1386	 0.208613838155186 
1387	 0.591759414955716 
1388	 0.635921110734792 
1389	 0.423966338523576 
1390	 0.467872170822858 
1391	 0.562709456579123 
1392	 0.732197939650011 
1393	 0.542770178188737 
1394	 0.253654273880692 
1395	 0.380282769875248 
1396	 0.410480172611763 
1397	 0.317997476008526 
1398	 0.438411915270907 
1399	 0.441831238923774 
1400	 0.316564638804418 
1401	 0.365152153374653 
1402	 0.480139767682055 
1403	 0.53254203422854 
1404	 0.476307129410633 
1405	 0.397073878146998 
1406	 0.610585025944247 
1407	 0.649391595582537 
1408	 0.422081968597569 
1409	 0.234243525440409 
1410	 0.102516802660144 
1411	 9.59713322850101E-02 
1412	 3.51532023094394E-02 
1413	 2.00696123954469E-02 
1414	 0.162183619616287 
1415	 0.154509905659582 
1416	 0.050289371323974 
1417	 2.06571566143362E-02 
1418	 1.13850174730247E-02 
1419	 1.15871246253465E-02 
1420	-1.56921697709037E-02 
1421	-1.27296438814135E-03 
1422	 7.43518294481214E-02 
1423	 7.16178244382358E-02 
1424	 3.31640740398691E-02 
1425	 3.37463796110536E-02 
1426	 4.14097585013262E-02 
1427	 2.71825254738645E-02 
1428	 5.68916368081286E-03 
1429	 1.24045041375212E-02 
1430	 2.37875614237456E-02 
1431	 1.86901628807822E-02 
1432	 0.024110218726382 
1433	 3.35667305670643E-02 
1434	 3.16599356020678E-02 
1435	 2.38750754635826E-02 
1436	 1.39742176002586E-02 
1437	 2.44857643034006E-02 
1438	 2.74019810013069E-02 
1439	 2.07089408415167E-02 
1440	 2.28169130763453E-02 
1441	 2.10464841134569E-02 
1442	 2.25738660308736E-02 
1443	 2.24654717906871E-02 
1444	 8.05436064080189E-03 
1445	 3.75040531026337E-03 
1446	 9.36566588303497E-03 
1447	 8.75837524588955E-03 
1448	 1.03769244768081E-02 
1449	 1.60881697351045E-02 
1450	 1.65543508473018E-02 
1451	 1.38729595922569E-02 
1452	 0.012693814908657 
1453	 1.27629546174579E-02 
1454	 1.33634863369924E-02 
1455	 1.19661582485854E-02 
1456	 1.13219953249066E-02 
1457	 1.31009840337176E-02 
1458	 1.29553274007533E-02 
1459	 1.06003651555508E-02 
1460	 9.88785786097454E-03 
1461	 9.84652476848768E-03 
1462	 1.01053512558977E-02 
1463	 1.04610998099901E-02 
1464	 0.011062475878194 
1465	 0.013180413757314 
1466	 1.34521078530935E-02 
1467	 1.28579478254413E-02 
1468	 1.18034579521944E-02 
1469	 8.19202047754357E-03 
1470	 8.2110356600752E-03 
1471	 1.06646264163506E-02 
1472	 1.10532752935826E-02 
1473	 1.25748175336371E-02 
1474	 1.22137809836706E-02 
1475	 9.19064157453403E-03 
1476	 8.63348516651203E-03 
1477	 8.82900218197275E-03 
1478	 9.06376602896381E-03 
1479	 1.01800632080541E-02 
1480	 1.06471375485476E-02 
1481	 1.07076615927877E-02 
1482	 1.10487193799465E-02 
1483	 1.13910593351496E-02 
1484	 1.18734326282205E-02 
1485	 1.26690311445078E-02 
1486	 1.26013783224685E-02 
1487	 1.17078256993723E-02 
1488	 1.20723142199628E-02 
1489	 1.30832475997598E-02 
1490	 1.31431563755007E-02 
1491	 1.32142435074676E-02 
1492	 1.35143582627617E-02 
1493	 1.32630062423781E-02 
1494	 1.32075340386858E-02 
1495	 1.38400574951574E-02 
1496	 1.39960425761705E-02 
1497	 1.35334463260991E-02 
1498	 1.34898978451745E-02 
1499	 1.37315166904671E-02 
1500	 1.38143022889655E-02 
1501	 1.37015589600305E-02 
1502	 1.38817162877795E-02 
1503	 1.45349390631064E-02 
1504	 1.45700909800561E-02 
1505	 1.42462770386358E-02 
1506	 0.014285584596278 
1507	 1.44118155565716E-02 
1508	 1.44225869806402E-02 
1509	 1.46658989567848E-02 
1510	 1.48592855798971E-02 
1511	 1.49853750774619E-02 
1512	 1.50397781774708E-02 
1513	 0.014930423034603 
1514	 1.51250814153226E-02 
1515	 1.53699173067006E-02 
1516	 1.52280019562461E-02 
1517	 1.53107616640844E-02 
1518	 1.56419422572878E-02 
1519	 0.015647995775108 
1520	 0.015465702414443 
1521	 1.53195824668895E-02 
1522	 1.53283562554423E-02 
1523	 1.55676795894773E-02 
1524	 1.56938364524299E-02 
1525	 1.56585201248428E-02 
1526	 1.57199762977356E-02 
1527	 0.015835929716211 
1528	 1.58275569187031E-02 
1529	 1.59165793554955E-02 
1530	 1.61749659749969E-02 
1531	 0.016153417285706 
1532	 1.60149031433613E-02 
1533	 1.60092359286408E-02 
1534	 1.60711637148415E-02 
1535	 1.60973696222544E-02 
1536	 1.61154867384101E-02 
1537	 0.016270104075758 
1538	 1.63816292525953E-02 
1539	 1.64396479030008E-02 
1540	 0.016473522672859 
1541	 1.65108025157214E-02 
1542	 1.66071645752707E-02 
1543	 1.66326878814714E-02 
1544	 1.66409669516905E-02 
1545	 1.67102254384388E-02 
1546	 1.66167251822555E-02 
1547	 0.016467855709428 
1548	 0.016619571980558 
1549	 1.68224562848016E-02 
1550	 1.69293504412641E-02 
1551	 1.71849731801484E-02 
1552	 1.73678578776322E-02 
1553	 1.70840047973579E-02 
1554	 1.68213155717316E-02 
1555	 1.70793140189178E-02 
1556	 1.72201184958325E-02 
1557	 1.69727826115209E-02 
1558	 0.016932850390036 
1559	 1.70431273570217E-02 
1560	 1.69573066279346E-02 
1561	 1.68956678320198E-02 
1562	 1.69972850981514E-02 
1563	 1.70618452512501E-02 
1564	 1.69268066312222E-02 
1565	 1.69135608217409E-02 
1566	 1.72159954154348E-02 
1567	 1.73619967895719E-02 
1568	 0.017154159454413 
1569	 1.70540044695329E-02 
1570	 1.73167661370914E-02 
1571	 1.74189741864302E-02 
1572	 1.73099285451256E-02 
1573	 1.74491931308338E-02 
1574	 1.74994965499926E-02 
1575	 1.72170857884773E-02 
1576	 1.70647521567516E-02 
1577	 1.72360825753277E-02 
1578	 1.72690571485749E-02 
1579	 1.71274287489549E-02 
1580	 1.73199321217768E-02 
1581	 1.76301115830305E-02 
1582	 1.75981867595058E-02 
1583	 1.73534081775229E-02 
1584	 1.72893066743765E-02 
1585	 1.73997536064169E-02 
1586	 1.74213033687464E-02 
1587	 1.75300770056496E-02 
1588	 1.76346476718062E-02 
1589	 0.017569516985631 
1590	 1.75336888548563E-02 
1591	 1.74638018911455E-02 
1592	 1.74759517301021E-02 
1593	 1.74139874729934E-02 
1594	 1.72063659670619E-02 
1595	 1.73985249858971E-02 
1596	 1.75384465993062E-02 
1597	 1.72456100633425E-02 
1598	 1.72505735360746E-02 
1599	 1.74568244831301E-02 
1600	 1.73608765720218E-02 
1601	 1.72219036296026E-02 
1602	 1.72141482928654E-02 
1603	 1.73224290087904E-02 
1604	 1.75433098239936E-02 
1605	 1.77724787565972E-02 
1606	 1.76774509850099E-02 
1607	 1.73265876371668E-02 
1608	 1.74327515174328E-02 
1609	 1.77881142021774E-02 
1610	 1.77848828081224E-02 
1611	 1.77275236796622E-02 
1612	 1.77490429805295E-02 
1613	 1.75715924631326E-02 
1614	 1.74653385499742E-02 
1615	 1.75786167803865E-02 
1616	 1.76517708440661E-02 
1617	 1.76749062948739E-02 
1618	 1.77583667290412E-02 
1619	 1.78109782720613E-02 
1620	 1.76872418076872E-02 
1621	 1.75941300209224E-02 
1622	 1.75873508667348E-02 
1623	 1.77543012821396E-02 
1624	 1.80094165405063E-02 
1625	 1.79035634188075E-02 
1626	 0.017827605386631 
1627	 1.79704019800314E-02 
1628	 1.78486687435308E-02 
1629	 1.75720647809167E-02 
1630	 1.76959220559159E-02 
1631	 1.80595076030967E-02 
1632	 1.79395706524589E-02 
1633	 1.77357484402746E-02 
1634	 1.79385802629389E-02 
1635	 1.80859670224812E-02 
1636	 1.79773752429974E-02 
1637	 1.79345987968366E-02 
1638	 1.81519032424917E-02 
1639	 1.80556663174552E-02 
1640	 1.76674201259938E-02 
1641	 0.017732604171541 
1642	 1.77828272572459E-02 
1643	 0.017589805415177 
1644	 1.78311178158334E-02 
1645	 1.80890102423903E-02 
1646	 1.79256550595342E-02 
1647	 1.78287130645203E-02 
1648	 1.76992948975789E-02 
1649	 1.75328245076719E-02 
1650	 1.76775254850081E-02 
1651	 1.77712665897853E-02 
1652	 1.77375595358323E-02 
1653	 1.78406822126205E-02 
1654	 1.78664461875645E-02 
1655	 1.78362838333819E-02 
1656	 1.77631483953423E-02 
1657	 1.75578358121666E-02 
1658	 1.77546710193979E-02 
1659	 1.82383134305428E-02 
1660	 1.83177322358409E-02 
1661	 1.84949915261576E-02 
1662	 1.83452465691492E-02 
1663	 1.76065249332747E-02 
1664	 1.74864418268554E-02 
1665	 1.76040578769859E-02 
1666	 1.76523929776248E-02 
1667	 1.79606066133897E-02 
1668	 1.80400070889018E-02 
1669	 1.80395168205598E-02 
1670	 1.80167630549375E-02 
1671	 0.017907145930113 
1672	 1.80537058350127E-02 
1673	 1.81293136920839E-02 
1674	 1.80573751067579E-02 
1675	 1.81299393226661E-02 
1676	 1.79267511480746E-02 
1677	 1.78605325772484E-02 
1678	 1.81326649276671E-02 
1679	 1.81438450611656E-02 
1680	 0.018062351711216 
1681	 1.80466527452493E-02 
1682	 1.79302270278599E-02 
1683	 0.01792694378899 
1684	 1.80503062616985E-02 
1685	 1.79384942177611E-02 
1686	 1.76429753850672E-02 
1687	 1.76828768614332E-02 
1688	 0.017832472875343 
1689	 1.76630959977055E-02 
1690	 1.76207031088501E-02 
1691	 1.77415891931401E-02 
1692	 1.76459480710591E-02 
1693	 1.75692060866876E-02 
1694	 1.77356748246794E-02 
1695	 0.017649513234088 
1696	 1.74002572897043E-02 
1697	 1.74402568414695E-02 
1698	 1.76604920605246E-02 
1699	 1.76981364257363E-02 
1700	 0.017568241429951 
1701	 1.78162402907796E-02 
1702	 0.017598065315294 
1703	 1.69708458069796E-02 
1704	 1.72685044971958E-02 
1705	 1.77720241910757E-02 
1706	 1.77423070790669E-02 
1707	 1.76194002360101E-02 
1708	 1.76235961932495E-02 
1709	 1.72312740872895E-02 
1710	 1.66909008954365E-02 
1711	 1.71571412889334E-02 
1712	 1.75471961352204E-02 
1713	 1.70989797988983E-02 
1714	 1.72613858951114E-02 
1715	 1.77216691754078E-02 
1716	 1.75088929677496E-02 
1717	 1.75436803986466E-02 
1718	 1.76763609011619E-02 
1719	 1.72724607619432E-02 
1720	 1.70283179806334E-02 
1721	 1.74418886887335E-02 
1722	 1.76958286561496E-02 
1723	 1.76704246584032E-02 
1724	 1.74715585719117E-02 
1725	 1.69434255371285E-02 
1726	 1.68150806671731E-02 
1727	 1.71680702995445E-02 
1728	 1.72281425444729E-02 
1729	 0.016964403606789 
1730	 1.67254098611543E-02 
1731	 1.63459452991235E-02 
1732	 0.016206953385433 
1733	 1.68466278546803E-02 
1734	 1.67181743719123E-02 
1735	 1.62619517166548E-02 
1736	 1.64580555017168E-02 
1737	 1.60793061623768E-02 
1738	 1.61561436233321E-02 
1739	 1.66927394044225E-02 
1740	 1.63105321090315E-02 
1741	 1.59492934716024E-02 
1742	 1.61537741401227E-02 
1743	 1.62457981615846E-02 
1744	 1.64911272497275E-02 
1745	 1.69549942605727E-02 
1746	 1.59457569348992E-02 
1747	 1.56878332215219E-02 
1748	 1.57057116265959E-02 
1749	 1.57620007772364E-02 
1750	 1.64068876600072E-02 
1751	 1.65639831950514E-02 
1752	 1.63982588864419E-02 
1753	 1.62675723804881E-02 
1754	 1.58429655346305E-02 
1755	 1.58484976755213E-02 
1756	 1.61920974253367E-02 
1757	 1.56612737788464E-02 
1758	 1.58170711933962E-02 
1759	 1.58741359396171E-02 
1760	 1.52395379478883E-02 
1761	 1.55601948534015E-02 
1762	 1.62017744240737E-02 
1763	 1.56768646107155E-02 
1764	 1.52868426157405E-02 
1765	 1.56553830168269E-02 
1766	 1.51317444492479E-02 
1767	 1.49046466876609E-02 
1768	 0.015907732554705 
1769	 0.015714899143498 
1770	 1.50935088102946E-02 
1771	 1.50867299587482E-02 
1772	 1.41933342158336E-02 
1773	 1.36160085855111E-02 
1774	 0.014275952936056 
1775	 1.45681285411864E-02 
1776	 1.45155290339986E-02 
1777	 1.34488887891267E-02 
1778	 1.33846895586484E-02 
1779	 1.46629485527209E-02 
1780	 1.46130693127283E-02 
1781	 1.44154909850534E-02 
1782	 1.41267330163176E-02 
1783	 1.16726676141945E-02 
1784	 1.20058343085418E-02 
1785	 1.56144738364837E-02 
1786	 1.52870094788017E-02 
1787	 1.36008959939062E-02 
1788	 1.31029515358392E-02 
1789	 9.33435060423657E-03 
1790	 1.33764826902304E-02 
1791	 1.80377949385155E-02 
1792	 1.76097072035496E-02 
1793	 1.72914739095774E-02 
1794	 1.22556741607187E-02 
1795	 3.37257297812446E-03 
1796	 2.4407234097633E-03 
1797	 3.26540968217971E-03 
1798	 6.28151746818001E-03 
1799	 1.10883687086458E-02 
1800	 6.95617187104376E-03 
1801	 6.76724477926845E-03 
1802	 9.41201472068907E-03 
1803	 9.72067397580263E-03 
1804	 1.17762812712812E-02 
1805	 1.60195018821197E-02 
1806	 1.91691718659678E-02 
1807	 2.49373984127973E-02 
1808	 5.00350197243902E-02 
1809	 5.62374854051869E-02 
1810	 1.08937361588093E-02 
1811	 1.90791966216512E-03 
1812	-1.21247642915065E-02 
1813	 6.2776192949939E-03 
1814	 0.147496939698234 
1815	 0.120102579444113 
1816	-6.61047833998689E-02 
1817	-2.30028645398357E-02 
1818	-0.095790168579726 
1819	 0.164937261600006 
1820	 1.07115567682173E-02 
1821	-0.527629228076281 
1822	-0.654586835062604 
1823	-0.219790646548002 
1824	 0.018932782891824 
1825	 0.541397649736266 
1826	 0.64117628189978 
1827	 0.547544901314217 
1828	 0.654262686459595 
1829	 0.629679565694643 
1830	 1.57060985139239 
1831	 1.14103061432973 
1832	 1.72017810994504 
1833	 8.21697392854321 
1834	 16.372760793232 
1835	-15.6720227027934 
1836	-17.9270983301834 
1837	-0.585968985301177 
1838	-1.29106297632751 
1839	-8.57170072699359 
1840	 2.45959409725604 
1841	 1.59267120026434 
1842	 0.92505686551306 
1843	 0.492854973311454 
1844	 4.02657585156799E-02 
1845	-0.236029283030324 
1846	-0.387681339316498 
1847	-0.984952361443063 
1848	-3.57086610976203 
1849	 1.0870825685099 
1850	 3.79880368797388 
1851	 9.3523955656942 
1852	 1.66648340719359 
1853	 2.67195309452416 
1854	-2.3171303698272 
1855	-0.971607337864771 
1856	-0.520039878461758 
1857	-0.183476879683272 
1858	-0.184118995146529 
1859	-0.490703815220222 
1860	 0.850627365474485 
1861	 0.12307409426477 
1862	-0.161322170699355 
1863	 1.72337133889483 
1864	 2.26192795221571 
1865	 1.90703499713831 
1866	 3.6818081786949 
1867	 6.132749576271 
1868	 0.633844037098438 
1869	 0.317486096768715 
1870	 0.69134239457554 
1871	 0.701561475858835 
1872	 1.45701600836584 
1873	 1.66930745750867 
1874	 6.12391538022767 
1875	-5.01958038745837 
1876	-5.30273047820868 
1877	 1.10206815118894 
1878	-4.10283198574406E-02 
1879	-0.183491774385894 
1880	-0.564136520036588 
1881	-8.95845746788359 
1882	 16.9434794122444 
1883	-0.577332177684507 
1884	 38.5402260807323 
1885	-0.309191947386786 
1886	 0.470039712525499 
1887	 18.2448017536635 
1888	-31.4878587018288 
1889	 1.94232906093547 
1890	 1.47411982498336 
1891	 1.93373205014377 
1892	 1.99506644535842 
1893	 1.84048265284451 
1894	 1.57478192734963 
1895	 2.22184234137909 
1896	 1.09810286905843 
1897	 0.525420473842864 
1898	 0.757732140246716 
1899	 2.35212267459071 
1900	 5.08169482747682 
1901	-2.04303841776843 
1902	-2.76363526724101 
1903	 1.58790905561855 
1904	 0.199468109368846 
1905	 5.46518960764631E-02 
1906	 2.01612918105497E-02 
1907	 0.12537655321285 
1908	 7.84943968917299E-02 
1909	 0.481661142427325 
1910	 0.253228921019957 
1911	 0.323563992314467 
1912	 0.616390193865547 
1913	 0.571121958688674 
1914	-15.8005324325411 
1915	 1.32563935519447 
1916	 0.390896715554441 
1917	 1.42152741841497 
1918	 0.82787057840486 
1919	-0.683925798368993 
1920	 5.73342754889205 
1921	 14.4563919794811 
1922	 9.16346377930037 
1923	 2.38692361158489 
1924	 2.19481624034025 
1925	 1.49910906203362 
1926	 0.966515286585559 
1927	 0.328430641086158 
1928	-9.55868610504157E-02 
1929	-3.98211314332309 
1930	 1.05637485141268 
1931	 0.457353706324917 
1932	 0.125816501173647 
1933	-0.375709800555409 
1934	-1.12143113786115 
1935	-1.03063221773116 
1936	-0.391340406070851 
1937	-0.155472813279889 
1938	 2.69813048269756E-03 
1939	 5.17255329284461E-02 
1940	 5.70283750852422E-02 
1941	 0.110163406315224 
1942	 0.135782114376198 
1943	 6.97244608025423E-02 
1944	 5.05370084054732E-02 
1945	 3.52060823862466E-02 
1946	-4.67288931747282E-03 
1947	-4.12185280324385E-02 
1948	-6.34477364644463E-02 
1949	-0.044620775379736 
1950	-3.10568358780193E-02 
1951	-2.23458084550955E-02 
1952	-1.51760600078427E-02 
1953	-4.78928293212399E-03 
1954	-0.010111833920744 
1955	-6.48092538883906E-03 
1956	-7.68803779360472E-04 
1957	-3.43017059240028E-03 
1958	-5.16075374757918E-03 
1959	-8.92574874488164E-03 
1960	-1.00126132818103E-02 
1961	-2.14740100441863E-03 
1962	 3.44729361119983E-03 
1963	 5.61172680989915E-03 
1964	 7.80355624205295E-03 
1965	 1.14374212916664E-02 
1966	 1.21110965330538E-02 
1967	 0.011408303200273 
1968	 9.55200926784664E-03 
1969	 1.02869210573351E-02 
1970	 8.97777051514364E-03 
1971	 8.75295764997442E-03 
1972	 1.08690787741102E-02 
1973	 0.010646994797973 
1974	 1.02281027178745E-02 
1975	 9.96792816407678E-03 
1976	 9.25679899876714E-03 
1977	 8.50143355354092E-03 
1978	 8.35765316936707E-03 
1979	 8.65130560006646E-03 
1980	 9.67166381089496E-03 
1981	 9.30249885922058E-03 
1982	 8.36730493388163E-03 
1983	 8.74948524188209E-03 
1984	 8.77990443425482E-03 
1985	 8.32646993631693E-03 
1986	 9.23555155035432E-03 
1987	 9.52284989895456E-03 
1988	 8.48355323038455E-03 
1989	 8.30698026469886E-03 
1990	 8.32816899382373E-03 
1991	 7.81254257071839E-03 
1992	 7.23772417244021E-03 
1993	 7.13527307696741E-03 
1994	 7.56270700318972E-03 
1995	 8.79114189688735E-03 
1996	 9.67095798157539E-03 
1997	 9.52117572720982E-03 
1998	 9.15417111100829E-03 
1999	 8.21665262260895E-03 
2000	 6.60317321810335E-03 
2001	 5.63844965282674E-03 
2002	 6.07027950327724E-03 
2003	 5.85887432145965E-03 
2004	 5.59864937706482E-03 
2005	 8.01766940987903E-03 
2006	 1.13589091318725E-02 
2007	 1.22301779866752E-02 
2008	 1.07974970329088E-02 
2009	 1.10535173950613E-02 
2010	 1.27998315380967E-02 
2011	 1.15125837671266E-02 
2012	 7.82727102921567E-03 
2013	 8.75662253259113E-03 
2014	 9.27469289897858E-03 
2015	 6.24907168917474E-03 
2016	 8.94822312254534E-03 
2017	 1.02867739439138E-02 
2018	 7.73587051178114E-03 
2019	 1.04023296763991E-02 
2020	 1.21811514763599E-02 
2021	 1.10255644143475E-02 
2022	 1.18915616639786E-02 
2023	 1.18453322414821E-02 
2024	 0.011603829605234 
2025	 1.11952931419112E-02 
2026	 0.011071691857343 
2027	 1.10006482517307E-02 
2028	 1.03591959897854E-02 
2029	 1.02875643093288E-02 
2030	 1.09001204463111E-02 
2031	 1.18578493961299E-02 
2032	 1.24955878329959E-02 
2033	 1.21891488577703E-02 
2034	 1.21609145543262E-02 
2035	 1.23687391886298E-02 
2036	 1.19850743911164E-02 
2037	 0.012235175638372 
2038	 1.26825325223507E-02 
2039	 1.26629675836946E-02 
2040	 1.19792177299655E-02 
2041	 1.22917885720015E-02 
2042	 1.30536793537047E-02 
2043	 1.29650505475278E-02 
2044	 1.29250344274881E-02 
2045	 1.29015849154983E-02 
2046	 1.19374172606721E-02 
2047	 1.17094326097646E-02 
2048	 1.15428766217569E-02 
2049	 1.13025615731993E-02 
2050	 0.010777336720118 
2051	 1.04255022533916E-02 
2052	 1.09642215220691E-02 
2053	 1.08847924268731E-02 
2054	 1.06315660956904E-02 
2055	 1.04361082148874E-02 
2056	 1.04191500452182E-02 
2057	 1.02132718447029E-02 
2058	 1.04925072615624E-02 
2059	 1.12616869597064E-02 
2060	 1.19853572474308E-02 
2061	 1.31937830727249E-02 
2062	 1.32273820557834E-02 
2063	 0.013396481926694 
2064	 1.38555458885017E-02 
2065	 1.31739540526484E-02 
2066	 1.32355695873816E-02 
2067	 1.31696479489007E-02 
2068	 1.26693906897128E-02 
2069	 1.26038427588584E-02 
2070	 1.21951824472443E-02 
2071	 1.22621900930564E-02 
2072	 1.25247476214474E-02 
2073	 0.012257927246459 
2074	 1.11402445297826E-02 
2075	 1.14876523783446E-02 
2076	 1.26695906020378E-02 
2077	 1.28057525380669E-02 
2078	 1.33513448566084E-02 
2079	 1.37925118629258E-02 
2080	 1.35925590657517E-02 
2081	 0.013043490410257 
2082	 1.36675029095101E-02 
2083	 1.38850129344528E-02 
2084	 1.37482587521278E-02 
2085	 1.40173330170806E-02 
2086	 1.39317553447575E-02 
2087	 1.33889836034006E-02 
2088	 1.30361510384777E-02 
2089	 1.29002196749616E-02 
2090	 1.31502398350095E-02 
2091	 1.38625968379311E-02 
2092	 1.38181348062862E-02 
2093	 1.29547051428269E-02 
2094	 1.28435218198951E-02 
2095	 1.29569030592953E-02 
2096	 1.29717259530821E-02 
2097	 0.013611492809909 
2098	 1.38520067878417E-02 
2099	 1.38453382625157E-02 
2100	 1.30162924169207E-02 
2101	 1.31757087214996E-02 
2102	 1.33396511980668E-02 
2103	 1.30685848856143E-02 
2104	 1.29762123258612E-02 
2105	 1.23169885272648E-02 
2106	 1.20600192596496E-02 
2107	 1.26530247469362E-02 
2108	 1.29959860405958E-02 
2109	 1.35533651932245E-02 
2110	 1.40110637148256E-02 
2111	 1.37548697346772E-02 
2112	 0.013648930671491 
2113	 1.33527302989453E-02 
2114	 1.21907556282118E-02 
2115	 1.23497920659195E-02 
2116	 1.38349700801246E-02 
2117	 1.38451822719108E-02 
2118	 0.013362106727886 
2119	 0.013627292842658 
2120	 1.37818229080004E-02 
2121	 1.30519676665383E-02 
2122	 1.34013053949831E-02 
2123	 1.48998520494326E-02 
2124	 1.42336493755993E-02 
2125	 1.31180432039596E-02 
2126	 1.33841860542927E-02 
2127	 1.33654882793939E-02 
2128	 1.33593778120565E-02 
2129	 1.40448148476114E-02 
2130	 1.47557849377514E-02 
2131	 1.44770580837354E-02 
2132	 1.37523336658874E-02 
2133	 1.41949906483218E-02 
2134	 1.44509440036311E-02 
2135	 1.43891779912589E-02 
2136	 1.43959633504698E-02 
2137	 1.49846188932672E-02 
2138	 1.49828200208358E-02 
2139	 1.46114645672245E-02 
2140	 1.42322796828648E-02 
2141	 1.32743277510717E-02 
2142	 1.30954418008018E-02 
2143	 1.28705462133799E-02 
2144	 1.33357190120518E-02 
2145	 1.44726832759331E-02 
2146	 0.015515206430129 
2147	 1.47300844503671E-02 
2148	 1.35670187408501E-02 
2149	 1.36953220030527E-02 
2150	 1.36418778978356E-02 
2151	 1.44696339119938E-02 
2152	 1.56356419677506E-02 
2153	 1.58300028837774E-02 
2154	 1.54057181868629E-02 
2155	 1.45397917528706E-02 
2156	 1.42216126299827E-02 
2157	 1.38853860079369E-02 
2158	 1.29655112951414E-02 
2159	 1.26873393224506E-02 
2160	 1.30265543858394E-02 
2161	 1.33566932622638E-02 
2162	 0.01426596400404 
2163	 1.42024666014209E-02 
2164	 1.35416816467644E-02 
2165	 1.34129765105527E-02 
2166	 1.27812448902908E-02 
2167	 0.01251856776093 
2168	 1.32893861261249E-02 
2169	 1.35299952169638E-02 
2170	 1.34058032203787E-02 
2171	 1.29103931905451E-02 
2172	 1.31150725866691E-02 
2173	 1.36871386271979E-02 
2174	 0.014396793032844 
2175	 1.46229955077916E-02 
2176	 1.48648387978276E-02 
2177	 1.48683881289614E-02 
2178	 1.38330364886922E-02 
2179	 1.38700330773009E-02 
2180	 1.37242134792933E-02 
2181	 1.37334722654286E-02 
2182	 1.48512705758836E-02 
2183	 0.014231721082759 
2184	 0.013905908597982 
2185	 1.45880293268315E-02 
2186	 1.46287374639136E-02 
2187	 1.49603609348229E-02 
2188	 1.45561007967622E-02 
2189	 1.27818007045662E-02 
2190	 1.27097018241834E-02 
2191	 0.01331393776564 
2192	 1.35413371767413E-02 
2193	 1.49238993604407E-02 
2194	 1.53955081193908E-02 
2195	 1.53107473194105E-02 
2196	 1.47837335686257E-02 
2197	 1.30222098466462E-02 
2198	 1.25411045380422E-02 
2199	 1.19911343690756E-02 
2200	 1.19663719223713E-02 
2201	 1.24005505477882E-02 
2202	 1.23086874904348E-02 
2203	 0.012022092471711 
2204	 1.21561782812833E-02 
2205	 0.012061465190338 
2206	 1.25747248235261E-02 
2207	 1.34787371083229E-02 
2208	 0.012507689427194 
2209	 0.011411298378113 
2210	 1.25805265222873E-02 
2211	 1.35666167515879E-02 
2212	 1.31301375576832E-02 
2213	 1.28428949103144E-02 
2214	 1.31091299151979E-02 
2215	 1.16159424588299E-02 
2216	 1.05973986676134E-02 
2217	 1.16415789923253E-02 
2218	 1.54214925385767E-02 
2219	 1.57174027067556E-02 
2220	 1.51412669530102E-02 
2221	 1.55616924487058E-02 
2222	 1.49096107297175E-02 
2223	 1.43902424871086E-02 
2224	 1.53917034806928E-02 
2225	 1.54823522937436E-02 
2226	 0.013765071622952 
2227	 0.012759531359597 
2228	 1.22349361198141E-02 
2229	 1.23039674761586E-02 
2230	 1.24089905693661E-02 
2231	 1.22864025369121E-02 
2232	 1.30709743636843E-02 
2233	 1.34297003194233E-02 
2234	 1.34386383856161E-02 
2235	 1.32461758333009E-02 
2236	 1.27726608898986E-02 
2237	 1.25042541069724E-02 
2238	 0.013277027874338 
2239	 1.36729260033316E-02 
2240	 1.51187834550942E-02 
2241	 1.75449550513299E-02 
2242	 1.73174196551345E-02 
2243	 0.015774559083745 
2244	 1.42645948202027E-02 
2245	 1.23748268152152E-02 
2246	 1.27898931424772E-02 
2247	 1.46681246336292E-02 
2248	 0.015692723692557 
2249	 1.71766056484183E-02 
2250	 1.76601123012233E-02 
2251	 1.58613913217048E-02 
2252	 1.39635603457418E-02 
2253	 0.014286718940173 
2254	 0.01466641671255 
2255	 1.33077549424652E-02 
2256	 1.38188432369098E-02 
2257	 1.32167040179393E-02 
2258	 1.00786894732308E-02 
2259	 1.08988611567907E-02 
2260	 0.011520552479247 
2261	 1.19402763289816E-02 
2262	 1.20722769695217E-02 
2263	 1.39619256566758E-02 
2264	 1.39191832088747E-02 
2265	 1.20379186934247E-02 
2266	 1.19247227463488E-02 
2267	 1.22285992748981E-02 
2268	 0.012453504413168 
2269	 1.33370537151123E-02 
2270	 0.014254588029428 
2271	 1.49811493165069E-02 
2272	 1.51826588241843E-02 
2273	 1.56105686717042E-02 
2274	 1.57136755155165E-02 
2275	 1.52385070630313E-02 
2276	 1.54751847251517E-02 
2277	 1.58249776214392E-02 
2278	 1.58157197790061E-02 
2279	 1.55448755668889E-02 
2280	 1.54785212064769E-02 
2281	 1.54931336063739E-02 
2282	 1.61520997345855E-02 
2283	 1.56646705344743E-02 
2284	 1.53833884074409E-02 
2285	 1.45074367284284E-02 
2286	 1.25679368216196E-02 
2287	 1.03646246222849E-02 
2288	 8.65640884952678E-03 
2289	 7.04979562306501E-03 
2290	 6.87037239159902E-03 
2291	 8.80609888077056E-03 
2292	 1.07547654042194E-02 
2293	 1.18523235610938E-02 
2294	 1.30020311292565E-02 
2295	 0.013741198190468 
2296	 1.18759250351346E-02 
2297	 1.10162875585478E-02 
2298	 1.42332412915497E-02 
2299	 1.77148160205598E-02 
2300	 2.05108457660385E-02 
2301	 2.25515656454451E-02 
2302	 1.88881057776368E-02 
2303	 1.40724008997634E-02 
2304	 1.39151710502999E-02 
2305	 1.15499904847256E-02 
2306	 0.011241038195355 
2307	 1.53055439877733E-02 
2308	 1.33001871200939E-02 
2309	 1.11341482454574E-02 
2310	 1.28525553684517E-02 
2311	 1.16531124946437E-02 
2312	 1.02762725741141E-02 
2313	 1.10468978080727E-02 
2314	 9.86305250368044E-03 
2315	 6.0727590783135E-03 
2316	 5.14002157647879E-03 
2317	 6.6760176752856E-03 
2318	 6.11877585262654E-03 
2319	 5.29211511469246E-03 
2320	 5.79826403238355E-03 
2321	 8.37664685566995E-03 
2322	 1.16122079593536E-02 
2323	 1.22632448452635E-02 
2324	 1.20249282236798E-02 
2325	 8.78082547839665E-03 
2326	 2.44183179731365E-03 
2327	 1.59634725415539E-03 
2328	 8.19293270747174E-03 
2329	 1.55238083948332E-02 
2330	 1.98824872079531E-02 
2331	 1.91321456448613E-02 
2332	 1.32172161719428E-02 
2333	 9.42741894759264E-03 
2334	 7.42891264884997E-03 
2335	 6.64487474094046E-03 
2336	 9.31969542101889E-03 
2337	 1.05684603960512E-02 
2338	 9.66820254991428E-03 
2339	 7.69357583878189E-03 
2340	 1.20064017621966E-02 
2341	 1.52308017579003E-02 
2342	 1.22525310905165E-02 
2343	 2.08539062196187E-02 
2344	 2.31378187068047E-02 
2345	 1.61918642076692E-02 
2346	 1.68205347919062E-02 
2347	 1.18132155716252E-02 
2348	 6.05700247240705E-03 
2349	 1.07722637021494E-02 
2350	 1.73325815095644E-02 
2351	 1.62600295786173E-02 
2352	 9.40548257288055E-03 
2353	-2.1568968115012E-03 
2354	-8.39010452974553E-03 
2355	-2.90009763556347E-04 
2356	 3.11522670338223E-03 
2357	-2.01313466332044E-03 
2358	-1.64423019029766E-03 
2359	 2.73116871902746E-03 
2360	 9.14898740905876E-03 
2361	 1.71538129325481E-02 
2362	 1.81050592541917E-02 
2363	 1.27676813309197E-02 
2364	 5.47005211422435E-03 
2365	 5.94985709826306E-03 
2366	 6.37055966251643E-03 
2367	 1.17166206933013E-03 
2368	 3.87576121982631E-03 
2369	-6.55890851438912E-03 
2370	-5.74251056521938E-03 
2371	 0.007363214100408 
2372	 4.5488571972868E-04 
2373	 1.93352825374125E-02 
2374	 0.029015992125895 
2375	 1.45191270224824E-02 
2376	 2.75343073662391E-02 
2377	 3.50768980027649E-02 
2378	 3.80085247368815E-02 
2379	 4.39973506324278E-02 
2380	 3.08659586300156E-02 
2381	 2.01458688300233E-02 
2382	 1.43641049866094E-02 
2383	-0.015268395388209 
2384	-4.13101924204327E-02 
2385	-4.57677900522585E-02 
2386	-6.53379851274794E-02 
2387	-6.03667891351034E-02 
2388	-3.79397120046406E-02 
2389	-2.78880254840531E-02 
2390	-8.10912929678055E-03 
2391	 3.13820804460248E-03 
2392	-5.28260014128466E-03 
2393	-0.020389593836207 
2394	-0.020932832509259 
2395	-7.97280570005259E-03 
2396	 1.58601355850217E-02 
2397	 5.45144026179032E-02 
2398	 5.66806801702654E-02 
2399	 3.15114166270461E-02 
2400	 3.44893159319752E-02 
2401	 1.95565052607993E-02 
2402	-5.12561308543601E-03 
2403	-1.09635026788788E-02 
2404	-2.26541709675558E-02 
2405	-1.78169479162724E-02 
2406	-1.10818385177678E-02 
2407	-8.47965788738468E-04 
2408	-2.16176163343584E-03 
2409	-0.107108604377068 
2410	-0.184348434501484 
2411	-0.153524484806946 
2412	-0.14140076216987 
2413	-6.75157160899067E-02 
2414	 2.07616892786876E-02 
2415	 6.03719110225181E-02 
2416	 8.50410492732928E-02 
2417	 0.109713953954039 
2418	 0.156913268704445 
2419	 7.87774367828956E-02 
2420	 2.67898864361185E-03 
2421	-5.04861145904866E-02 
2422	-5.91522253073224E-02 
2423	 0.008390689663697 
2424	 3.33996505904023E-02 
2425	 5.04760666396037E-02 
2426	 6.02205924762527E-03 
2427	-3.17603960861913E-02 
2428	-1.54314819912663E-03 
2429	-1.89190001844744E-02 
2430	 7.15903520175408E-04 
2431	 1.85934125759933E-02 
2432	-1.59670748431668E-02 
2433	-0.018982265103304 
2434	-1.94570430844454E-02 
2435	-0.119234181278389 
2436	-0.230539538060515 
2437	-0.207195256423115 
2438	-0.217834142216744 
2439	-0.194694404503456 
2440	-0.069168140115594 
2441	-0.134501052942912 
2442	-0.244965995673465 
2443	-0.245625740317004 
2444	-0.270149450199728 
2445	-0.261680439627613 
2446	-0.14584657818148 
2447	 9.71149282779448E-02 
2448	 0.111237062067542 
2449	-0.113148126324674 
2450	-0.193131800312568 
2451	-0.504908732029967 
2452	-0.189141483885728 
2453	 4.57381721869335E-02 
2454	 0.240583273347545 
2455	 0.545177332516415 
2456	 0.669973619712957 
2457	 0.170584198800617 
2458	-9.97569772841891E-04 
2459	-6.20964616697255E-02 
2460	-0.211171979366901 
2461	-7.41395217545487E-02 
2462	 0.11916060882067 
2463	 0.289210041529915 
2464	 0.687900662702763 
2465	 0.624551140512348 
2466	 0.495826105839629 
2467	 0.499868557564468 
2468	 1.37923676157136E-02 
2469	-0.270645233368268 
2470	-0.427195213424223 
2471	-0.572627245806081 
2472	-1.11793501605464 
2473	-1.51992759566975 
2474	-0.785706496171353 
2475	-0.560628857620146 
2476	-0.966701406683171 
2477	-1.11894467391725 
2478	-0.709818809171434 
2479	-0.189059039109214 
2480	-0.113114554931644 
2481	-0.210379113352078 
2482	 5.93244112502769E-02 
2483	-0.192700241801141 
2484	-0.86870926968253 
2485	-0.640066930079901 
2486	-0.412378976958839 
2487	 0.151401604810609 
2488	 0.365763554228606 
2489	 0.796822225363849 
2490	 0.508357908696843 
2491	 0.671551035735266 
2492	-1.13975872369779 
2493	-4.74204390879002 
2494	-1.66013743268142 
2495	-1.78597536262238 
2496	 5.02799219642793 
2497	-1.5206298384051 
2498	 4.12567462327725 
2499	 7.41386639096474E-02 
2500	-0.809300750106019 
