Wavelength	rt0713west_far_sunny_300008.asd
350	 8.21328981993759E-02 
351	 8.12305358203615E-02 
352	 8.08081176767071E-02 
353	 8.10143393684085E-02 
354	 8.13737273876358E-02 
355	 8.06678450355005E-02 
356	 0.080186399882505 
357	 8.00370232176401E-02 
358	 7.99485423227524E-02 
359	 7.97879049886699E-02 
360	 7.95841088002485E-02 
361	 7.94092356589253E-02 
362	 7.93321532371453E-02 
363	 0.07911373242394 
364	 7.91067277913822E-02 
365	 7.92853893055128E-02 
366	 7.89569853941782E-02 
367	 7.88818384092853E-02 
368	 7.87412238305193E-02 
369	 7.82347501371174E-02 
370	 7.80952802397805E-02 
371	 7.82999446365666E-02 
372	 7.84235925092868E-02 
373	 7.79855701149925E-02 
374	 7.81829584940218E-02 
375	 7.82803599896549E-02 
376	 7.79582182406321E-02 
377	 7.77322786337202E-02 
378	 7.76105442899587E-02 
379	 7.75295747642237E-02 
380	 0.077506609917236 
381	 0.077937806230553 
382	 7.81508467982078E-02 
383	 7.80694774434848E-02 
384	 7.79188109455535E-02 
385	 7.76666086700323E-02 
386	 7.75148740139736E-02 
387	 7.75695957923405E-02 
388	 7.77962391929738E-02 
389	 7.77388614330522E-02 
390	 7.77325063333752E-02 
391	 7.80402337925373E-02 
392	 7.84194467209088E-02 
393	 7.85024093869298E-02 
394	 7.82866869980528E-02 
395	 0.077975435927452 
396	 7.78581354954304E-02 
397	 7.79597488093114E-02 
398	 7.81136568430393E-02 
399	 7.80403850959718E-02 
400	 7.79524244432246E-02 
401	 7.79695396670057E-02 
402	 7.81092660838347E-02 
403	 0.078232840647524 
404	 7.82481966469106E-02 
405	 7.81985357734562E-02 
406	 7.81801805974132E-02 
407	 7.82217005336246E-02 
408	 7.83394819469642E-02 
409	 0.078451553667578 
410	 7.84004873128864E-02 
411	 7.83943495072882E-02 
412	 7.84542150849183E-02 
413	 7.85283439230853E-02 
414	 7.84569311048893E-02 
415	 7.85826791827808E-02 
416	 7.88387607896269E-02 
417	 0.07900975842362 
418	 7.91267723201678E-02 
419	 7.92001945546381E-02 
420	 7.92342120861348E-02 
421	 7.92305400251745E-02 
422	 7.94379507636799E-02 
423	 7.97331071431766E-02 
424	 7.99594404898484E-02 
425	 8.00893094914111E-02 
426	 8.03170431069844E-02 
427	 8.06036360466203E-02 
428	 0.080819978262242 
429	 0.081124851344147 
430	 8.13281720997869E-02 
431	 0.081456772906744 
432	 8.18165527935933E-02 
433	 8.20696830332447E-02 
434	 8.22543069786785E-02 
435	 8.24853103743357E-02 
436	 8.28534388640065E-02 
437	 8.31817731308981E-02 
438	 8.34402437871957E-02 
439	 8.36796453202754E-02 
440	 8.38659219717806E-02 
441	 8.41163716176078E-02 
442	 8.44447157781712E-02 
443	 8.46941248053592E-02 
444	 8.49593699499192E-02 
445	 8.52237276707314E-02 
446	 8.54637144951139E-02 
447	 8.57531700740729E-02 
448	 8.59928021754894E-02 
449	 8.61737923431185E-02 
450	 8.63605661884585E-02 
451	 8.66028703638327E-02 
452	 0.086818686825105 
453	 8.69638077509993E-02 
454	 8.71010896864797E-02 
455	 8.73150144242183E-02 
456	 0.087511119608201 
457	 0.08757971798872 
458	 8.77195628983443E-02 
459	 8.78550706952551E-02 
460	 8.79667973192424E-02 
461	 8.81013990960191E-02 
462	 8.81953460079223E-02 
463	 8.82961460330956E-02 
464	 8.84412369050503E-02 
465	 8.85819594960443E-02 
466	 8.87208518873474E-02 
467	 8.88278604421062E-02 
468	 8.88823777567423E-02 
469	 8.90348872173617E-02 
470	 0.08916637711362 
471	 0.089248591013577 
472	 8.94059734640816E-02 
473	 8.94953441611969E-02 
474	 8.96283823216229E-02 
475	 8.98982991873893E-02 
476	 0.090102148510702 
477	 9.02709435545201E-02 
478	 9.04665045727606E-02 
479	 9.07523747833134E-02 
480	 9.09531850683243E-02 
481	 9.11814218708061E-02 
482	 9.14914096313076E-02 
483	 0.091740877318736 
484	 9.19797731135652E-02 
485	 9.22425322593226E-02 
486	 9.25453900615386E-02 
487	 9.28185324676632E-02 
488	 9.31189688702196E-02 
489	 9.34339381556708E-02 
490	 9.36859337831721E-02 
491	 9.40018999341722E-02 
492	 9.43664353549182E-02 
493	 9.47392692066437E-02 
494	 9.51047219705181E-02 
495	 9.54448686552025E-02 
496	 9.57646343184815E-02 
497	 9.60845041556252E-02 
498	 9.64289460818765E-02 
499	 9.67579617476194E-02 
500	 9.70693935693906E-02 
501	 9.74289500693564E-02 
502	 9.77921608518724E-02 
503	 9.81429247713752E-02 
504	 9.84857877063478E-02 
505	 9.88562182066545E-02 
506	 9.93166233641372E-02 
507	 9.98242850830192E-02 
508	 0.100262111405667 
509	 0.100713856986803 
510	 0.101203139317368 
511	 0.101711086456184 
512	 0.102136052479467 
513	 0.102647151057419 
514	 0.103205778928142 
515	 0.103700463565396 
516	 0.104242688195372 
517	 0.104795510030703 
518	 0.105334378184846 
519	 0.105868494702189 
520	 0.106430883363999 
521	 0.106948687654921 
522	 0.107389092210394 
523	 0.107921961088462 
524	 0.108468979434185 
525	 0.109019108768932 
526	 0.109611003931338 
527	 0.110252262438095 
528	 0.110845781713566 
529	 0.111348187904849 
530	 0.111829438736319 
531	 0.112433338995815 
532	 0.113117139091205 
533	 0.11376294179853 
534	 0.114340572367385 
535	 0.114883521538719 
536	 0.115435534289876 
537	 0.116039556059983 
538	 0.116595692751814 
539	 0.117108165610978 
540	 0.117632747495431 
541	 0.118306114171306 
542	 0.118953372912626 
543	 0.119526924219415 
544	 0.120078066404861 
545	 0.12074420367266 
546	 0.121376315762418 
547	 0.121914105350701 
548	 0.12254105980409 
549	 0.123167300221218 
550	 0.123757329269898 
551	 0.124311128081282 
552	 0.124920193490254 
553	 0.125506487591877 
554	 0.126058752159467 
555	 0.126647395377431 
556	 0.127222665268271 
557	 0.127772388940322 
558	 0.128301952107223 
559	 0.128869642246488 
560	 0.129388306952604 
561	 0.129831280969285 
562	 0.130217434012459 
563	 0.130562282031443 
564	 0.130924449658583 
565	 0.131292936369996 
566	 0.131510990739605 
567	 0.131738596513334 
568	 0.131983985172615 
569	 0.132219371823903 
570	 0.132554016812172 
571	 0.132848411413775 
572	 0.133045779390335 
573	 0.133195982753997 
574	 0.133401422239037 
575	 0.133633040489901 
576	 0.133822038858937 
577	 0.133888109375239 
578	 0.133959563014013 
579	 0.134075310768446 
580	 0.134197289505644 
581	 0.134168078801652 
582	 0.134029021030971 
583	 0.133810808763317 
584	 0.133477052393916 
585	 0.132984186608397 
586	 0.132341166063881 
587	 0.131594192360964 
588	 0.130879557508409 
589	 0.130317390670585 
590	 0.129969753317972 
591	 0.12978217104114 
592	 0.129414653213803 
593	 0.128922049196139 
594	 0.128408781827068 
595	 0.127809455806024 
596	 0.127153271197892 
597	 0.126431865881243 
598	 0.125639341895028 
599	 0.124935679949451 
600	 0.124317264002669 
601	 0.123787044922369 
602	 0.123398569508427 
603	 0.123070568781473 
604	 0.122832925949591 
605	 0.122722162375187 
606	 0.122607259440724 
607	 0.122520269817769 
608	 0.122465404796173 
609	 0.12241290544505 
610	 0.122431118303192 
611	 0.122410816305438 
612	 0.122302019300222 
613	 0.122348775078875 
614	 0.122301069956352 
615	 0.122173930167564 
616	 0.122122411651093 
617	 0.122076445488654 
618	 0.122025452756538 
619	 0.121959782011729 
620	 0.121863777468461 
621	 0.121717871827569 
622	 0.12161608780281 
623	 0.121611316757864 
624	 0.121385265742193 
625	 0.121086674432312 
626	 0.120836474194563 
627	 0.12070668381008 
628	 0.120685755909093 
629	 0.120688801958128 
630	 0.120657918810355 
631	 0.120649332619565 
632	 0.120615699124691 
633	 0.12055630376282 
634	 0.12049539185478 
635	 0.120463462558526 
636	 0.120413105798971 
637	 0.120309086996623 
638	 0.120140325605203 
639	 0.120030203568877 
640	 0.119877513586555 
641	 0.119588711268359 
642	 0.119390728139732 
643	 0.119094655560537 
644	 0.118614201602952 
645	 0.1179722077071 
646	 0.117388455551399 
647	 0.117068512543138 
648	 0.117031144991243 
649	 0.116918324024679 
650	 0.116662141612719 
651	 0.116365075742537 
652	 0.116156129017614 
653	 0.115698984677234 
654	 0.115115332760968 
655	 0.114524861282686 
656	 0.114071770393295 
657	 0.113581879951656 
658	 0.113150143424441 
659	 0.112843682836468 
660	 0.112528165346293 
661	 0.112228733274441 
662	 0.111944192976763 
663	 0.111674197759155 
664	 0.111526102086121 
665	 0.111392420636792 
666	 0.111209854771694 
667	 0.111046930701883 
668	 0.110875490880102 
669	 0.110698900481804 
670	 0.110540675439542 
671	 0.110468285078562 
672	 0.11041055467348 
673	 0.110333300196769 
674	 0.11024641879464 
675	 0.11017575516801 
676	 0.110164175786712 
677	 0.110194777702354 
678	 0.110093117560459 
679	 0.109991725920441 
680	 0.109995792814725 
681	 0.110140563471473 
682	 0.110083290707274 
683	 0.110053541022187 
684	 0.110034992663535 
685	 0.109593061908929 
686	 0.109065981965388 
687	 0.108760446982824 
688	 0.108779613553985 
689	 0.108696068192995 
690	 0.108355772519641 
691	 0.107738592041982 
692	 0.106940717199238 
693	 0.106365380535793 
694	 0.106125936439603 
695	 0.106059885301043 
696	 0.105737561542593 
697	 0.104857679509205 
698	 0.103701673274712 
699	 0.102754530201687 
700	 0.10188917386998 
701	 0.101231149252175 
702	 0.100643440585712 
703	 9.97866169979538E-02 
704	 9.87492123285797E-02 
705	 9.77034081510281E-02 
706	 9.67303309662148E-02 
707	 9.56052995880654E-02 
708	 9.43693031412974E-02 
709	 9.30492362552474E-02 
710	 9.16542287534671E-02 
711	 9.00833855932545E-02 
712	 8.83670119619167E-02 
713	 8.64519961609472E-02 
714	 8.41310658759055E-02 
715	 8.15577796881792E-02 
716	 7.86715305143011E-02 
717	 7.58107177406886E-02 
718	 7.34869373708211E-02 
719	 0.072159612634321 
720	 0.071405928269409 
721	 7.03631754994756E-02 
722	 6.84441938866409E-02 
723	 6.60624097382163E-02 
724	 6.39529564864195E-02 
725	 6.23378159409235E-02 
726	 6.06422978489883E-02 
727	 5.88384990276181E-02 
728	 5.70323939792122E-02 
729	 5.51769302143404E-02 
730	 5.36141073080174E-02 
731	 5.25616449283891E-02 
732	 5.18997890542654E-02 
733	 5.09075677878345E-02 
734	 4.98863584048718E-02 
735	 4.90884496879282E-02 
736	 4.86084500191624E-02 
737	 4.83079558895886E-02 
738	 0.048148245118834 
739	 4.81033184526616E-02 
740	 4.80996781681316E-02 
741	 4.81136879006587E-02 
742	 4.81381451421165E-02 
743	 4.81695955808737E-02 
744	 0.048148433045569 
745	 4.80599617370482E-02 
746	 4.79684332405181E-02 
747	 4.80314387043087E-02 
748	 4.80546871779582E-02 
749	 4.80031340578742E-02 
750	 4.79135098242261E-02 
751	 4.79065401534752E-02 
752	 4.78882506367774E-02 
753	 4.78416948429578E-02 
754	 4.77934863548151E-02 
755	 4.77596206620328E-02 
756	 4.76314538156578E-02 
757	 4.72966420581573E-02 
758	 4.64711933954137E-02 
759	 4.51320867394042E-02 
760	 4.39213754495224E-02 
761	 0.044043766422014 
762	 4.42159622486478E-02 
763	 4.46423023771383E-02 
764	 4.53672247632232E-02 
765	 4.62827532832512E-02 
766	 4.68568365173903E-02 
767	 4.72199230134634E-02 
768	 4.75044311887511E-02 
769	 4.78105281438077E-02 
770	 0.047922214229994 
771	 4.80076405010116E-02 
772	 4.81879058967536E-02 
773	 4.82307042059538E-02 
774	 4.83412604176301E-02 
775	 4.85239871843431E-02 
776	 4.86941258733493E-02 
777	 4.88060989086931E-02 
778	 4.89412183949089E-02 
779	 4.90993102903913E-02 
780	 4.91961913787828E-02 
781	 4.93243813727422E-02 
782	 4.94467216810331E-02 
783	 4.95428293958671E-02 
784	 4.96970883169588E-02 
785	 4.97112312882817E-02 
786	 4.96441642082682E-02 
787	 4.96361102508631E-02 
788	 4.96622652110089E-02 
789	 4.98461748439626E-02 
790	 5.02232031829469E-02 
791	 5.07316305437007E-02 
792	 5.12237054041109E-02 
793	 5.14559571878624E-02 
794	 5.14462062529471E-02 
795	 5.16230060410833E-02 
796	 5.18464762705198E-02 
797	 5.20209469978596E-02 
798	 5.21192477153279E-02 
799	 5.22984608918912E-02 
800	 5.24524966804514E-02 
801	 0.052559916590032 
802	 0.052679084348659 
803	 5.30288568757008E-02 
804	 0.053292152424175 
805	 0.053361198784736 
806	 5.34059199161467E-02 
807	 5.34992242256281E-02 
808	 5.32420150827738E-02 
809	 5.24867390949478E-02 
810	 5.19668323826209E-02 
811	 5.15335623218283E-02 
812	 5.09252657463501E-02 
813	 4.99437978365914E-02 
814	 4.92978890967148E-02 
815	 0.048853118736957 
816	 4.85463173501573E-02 
817	 4.84051091986303E-02 
818	 4.85786149521602E-02 
819	 4.85295306759964E-02 
820	 4.79956219399058E-02 
821	 4.70516669816172E-02 
822	 4.62784402777845E-02 
823	 4.57357385244693E-02 
824	 4.52344621276845E-02 
825	 4.44868287872313E-02 
826	 4.32866314592106E-02 
827	 4.20484363507118E-02 
828	 4.13807041072713E-02 
829	 4.07068070587518E-02 
830	 4.01548132198252E-02 
831	 3.97564591679299E-02 
832	 0.039447858785807 
833	 3.89781570947923E-02 
834	 3.88012945119317E-02 
835	 3.89666155868693E-02 
836	 3.89306039579115E-02 
837	 3.87745817162529E-02 
838	 3.86901535342499E-02 
839	 3.87991856475951E-02 
840	 3.90205961003896E-02 
841	 3.88490356122245E-02 
842	 3.85588154743866E-02 
843	 3.85804924509314E-02 
844	 3.85263530335219E-02 
845	 3.85138525520529E-02 
846	 3.84960780856962E-02 
847	 3.83346691619288E-02 
848	 3.82050148762142E-02 
849	 3.81600658775443E-02 
850	 3.81393583758464E-02 
851	 3.79736032276131E-02 
852	 3.78684069743428E-02 
853	 3.78390466234504E-02 
854	 3.78421444938061E-02 
855	 3.78065877181566E-02 
856	 3.77432646423342E-02 
857	 3.77234169979432E-02 
858	 3.77861992036172E-02 
859	 3.78384080701723E-02 
860	 3.75428803657925E-02 
861	 3.72178125253547E-02 
862	 3.73479214235648E-02 
863	 3.72244326562863E-02 
864	 3.70729191997198E-02 
865	 3.70259093152907E-02 
866	 3.70502515905085E-02 
867	 0.036930597531373 
868	 3.69302955199164E-02 
869	 3.70015496292095E-02 
870	 3.66437076002453E-02 
871	 3.64674699752611E-02 
872	 3.63905163575735E-02 
873	 3.62800906570123E-02 
874	 3.62359432632136E-02 
875	 3.62960869178169E-02 
876	 0.036240091013207 
877	 3.59373512432135E-02 
878	 3.58616418472936E-02 
879	 3.57404912145905E-02 
880	 3.55844168199233E-02 
881	 3.55037817461331E-02 
882	 3.53328667126301E-02 
883	 3.52700659021719E-02 
884	 3.52001703055347E-02 
885	 3.48530867220098E-02 
886	 3.48368230587756E-02 
887	 3.48834811037801E-02 
888	 3.47707244816381E-02 
889	 3.44666839804384E-02 
890	 3.42286539204602E-02 
891	 3.37741496202895E-02 
892	 3.30560087230136E-02 
893	 3.26669375258574E-02 
894	 3.20548045381913E-02 
895	 3.13631274348332E-02 
896	 3.08633700321702E-02 
897	 3.04740276770334E-02 
898	 3.04227823532685E-02 
899	 3.04468789547116E-02 
900	 3.03026291522947E-02 
901	 3.04293625400766E-02 
902	 3.06642712541203E-02 
903	 3.07493887672025E-02 
904	 3.05120491549633E-02 
905	 3.03256079400024E-02 
906	 3.01176801754875E-02 
907	 2.98583061140701E-02 
908	 0.02952643776559 
909	 2.87791645159461E-02 
910	 2.86906528231747E-02 
911	 2.89844018629254E-02 
912	 2.83202048011184E-02 
913	 2.84467214139758E-02 
914	 2.85793060666011E-02 
915	 0.028389960757615 
916	 2.84243553458683E-02 
917	 2.87424214589931E-02 
918	 2.88956053906037E-02 
919	 2.88840927544799E-02 
920	 2.93190130381871E-02 
921	 2.91454254555217E-02 
922	 0.028544672749716 
923	 2.80469244684306E-02 
924	 2.84183632175977E-02 
925	 2.77307621691127E-02 
926	 2.66400549034094E-02 
927	 2.62133882328688E-02 
928	 2.55465908236889E-02 
929	 2.45986191102506E-02 
930	 2.42395080643755E-02 
931	 2.53093645381404E-02 
932	 2.32337924276713E-02 
933	 2.28159226820471E-02 
934	 2.27479228640874E-02 
935	 2.01508982350928E-02 
936	 2.21625746718505E-02 
937	 0.022626356544945 
938	 2.32716365159071E-02 
939	 2.58203788278134E-02 
940	 2.19659577551607E-02 
941	 0.019315036236402 
942	 0.019792728335138 
943	 2.18347816958623E-02 
944	 2.26114762323621E-02 
945	 2.06692912907211E-02 
946	 1.93884486838697E-02 
947	 2.27670869955234E-02 
948	 2.30385190821498E-02 
949	 2.28786138053776E-02 
950	 2.14726680045838E-02 
951	 1.74923808972872E-02 
952	 2.19550654937092E-02 
953	 2.43808065249809E-02 
954	 2.28035822971954E-02 
955	 2.20456727555143E-02 
956	 2.26416571795178E-02 
957	 2.45148544384201E-02 
958	 2.57113138244996E-02 
959	 0.024164505040112 
960	 2.42159045997558E-02 
961	 0.023826769222662 
962	 2.37730645505997E-02 
963	 2.60467762723525E-02 
964	 2.53954389915328E-02 
965	 2.53567783050882E-02 
966	 2.63710350653995E-02 
967	 2.64002126819461E-02 
968	 0.025652726571467 
969	 0.026646625287852 
970	 2.82951182474971E-02 
971	 2.70285887347009E-02 
972	 0.025838477985126 
973	 2.63304058592018E-02 
974	 2.77050357159179E-02 
975	 2.73493821326821E-02 
976	 2.66119008159758E-02 
977	 2.64164679196967E-02 
978	 2.69282264904454E-02 
979	 2.75117816645125E-02 
980	 2.65925128656559E-02 
981	 2.66431832658143E-02 
982	 2.81538436708751E-02 
983	 2.95981826276598E-02 
984	 2.97685314536848E-02 
985	 2.98785744496769E-02 
986	 3.02807056860075E-02 
987	 0.030401749266008 
988	 2.97445836435106E-02 
989	 2.95032629654725E-02 
990	 2.98088614137003E-02 
991	 0.029858428457489 
992	 0.02924028328253 
993	 2.95299442168869E-02 
994	 3.04813381276951E-02 
995	 3.06330128504537E-02 
996	 3.01415742955942E-02 
997	 3.07762076319325E-02 
998	 3.16971722431563E-02 
999	 3.11400816369206E-02 
1000	 3.24244872853215E-02 
1001	 2.70156855604243E-02 
1002	 2.74072913554516E-02 
1003	 2.75269160193963E-02 
1004	 2.75002058754765E-02 
1005	 2.74213039434032E-02 
1006	 2.71764543274147E-02 
1007	 2.70552903582658E-02 
1008	 2.68972787424133E-02 
1009	 0.026605526162257 
1010	 2.63494599432664E-02 
1011	 2.64690720153467E-02 
1012	 2.68026622496024E-02 
1013	 2.69870087063788E-02 
1014	 2.71171261712768E-02 
1015	 2.72962881332588E-02 
1016	 0.027364432617838 
1017	 2.74050352117562E-02 
1018	 2.72339024532332E-02 
1019	 2.68616585286448E-02 
1020	 2.66509049341325E-02 
1021	 2.61908616054585E-02 
1022	 2.59569574292578E-02 
1023	 0.026139029529769 
1024	 2.63185443183739E-02 
1025	 2.67662828242337E-02 
1026	 2.70790380723599E-02 
1027	 2.72010474341292E-02 
1028	 2.72994304954465E-02 
1029	 2.72577929407488E-02 
1030	 2.68308527239488E-02 
1031	 2.67979116662025E-02 
1032	 2.69024711083305E-02 
1033	 2.69718324623442E-02 
1034	 2.72226577904324E-02 
1035	 2.73255447386789E-02 
1036	 2.73596690202669E-02 
1037	 2.73433965976454E-02 
1038	 0.027200513614442 
1039	 2.72386184901375E-02 
1040	 2.69053346006764E-02 
1041	 2.68576696241475E-02 
1042	 2.70131160166027E-02 
1043	 2.74231595326174E-02 
1044	 2.74580353479597E-02 
1045	 2.76502704662803E-02 
1046	 2.76071019369956E-02 
1047	 2.71113228876887E-02 
1048	 2.69379409653202E-02 
1049	 2.68298200693846E-02 
1050	 2.68136872268906E-02 
1051	 2.68580639552027E-02 
1052	 2.69534356202491E-02 
1053	 2.73512649345415E-02 
1054	 2.74956644386317E-02 
1055	 2.76513843759339E-02 
1056	 2.75927929024032E-02 
1057	 2.73684391823904E-02 
1058	 2.67772771265141E-02 
1059	 2.66439162100653E-02 
1060	 2.64821568157855E-02 
1061	 2.65022702976744E-02 
1062	 2.69833456735795E-02 
1063	 2.70289888801426E-02 
1064	 2.68678185487067E-02 
1065	 2.68179225052243E-02 
1066	 2.66155600871878E-02 
1067	 2.65554209274839E-02 
1068	 2.67258441628544E-02 
1069	 2.67059506784366E-02 
1070	 2.65869439712712E-02 
1071	 2.65101484368137E-02 
1072	 2.64495832398395E-02 
1073	 2.61529357872379E-02 
1074	 2.61580476495489E-02 
1075	 2.64053347108251E-02 
1076	 2.63202689472011E-02 
1077	 0.026225447343932 
1078	 2.60634191619479E-02 
1079	 2.55002082199173E-02 
1080	 2.53961727145866E-02 
1081	 2.56615985336942E-02 
1082	 2.56201984622966E-02 
1083	 2.56146367168036E-02 
1084	 2.55742246331983E-02 
1085	 2.52376949154825E-02 
1086	 0.025128516683241 
1087	 2.52764320035779E-02 
1088	 0.025304431413034 
1089	 2.54648308320781E-02 
1090	 2.53577843999835E-02 
1091	 2.52453147667834E-02 
1092	 2.50739648028194E-02 
1093	 2.48822679325361E-02 
1094	 2.44970562405213E-02 
1095	 2.42902275933975E-02 
1096	 2.40861507167687E-02 
1097	 2.39174624383681E-02 
1098	 2.39608986434801E-02 
1099	 2.38402204553003E-02 
1100	 2.36786783354179E-02 
1101	 2.34452508852497E-02 
1102	 2.30279092653929E-02 
1103	 2.26398371572298E-02 
1104	 2.21193144062751E-02 
1105	 2.18110139350513E-02 
1106	 2.12850501350739E-02 
1107	 2.10754041983049E-02 
1108	 2.15436141225158E-02 
1109	 2.15152101565932E-02 
1110	 2.13776236325748E-02 
1111	 2.14711583168279E-02 
1112	 2.10206012286357E-02 
1113	 1.91581492150793E-02 
1114	 0.018588113806493 
1115	 1.90251495006335E-02 
1116	 1.84645023596024E-02 
1117	 1.82905330443743E-02 
1118	 1.79889143714288E-02 
1119	 1.48280226789743E-02 
1120	 1.32832336238271E-02 
1121	 1.39393744810642E-02 
1122	 1.70449802135195E-02 
1123	 1.49444273812062E-02 
1124	 1.57846253780407E-02 
1125	 0.017802009212115 
1126	 1.14343528886419E-02 
1127	 9.29008407476417E-03 
1128	 1.42880717877793E-02 
1129	 0.013421024473864 
1130	 8.8713316573095E-03 
1131	 1.00775052806388E-02 
1132	 1.19795431336329E-02 
1133	 1.29217381775082E-02 
1134	 1.72729832473191E-02 
1135	 1.76129122116175E-02 
1136	 0.014821985277245 
1137	 1.45219972596713E-02 
1138	 1.43122786353479E-02 
1139	 1.35854295477349E-02 
1140	 1.50726021124569E-02 
1141	 1.73030452150813E-02 
1142	 0.016976131761078 
1143	 1.54505952502441E-02 
1144	 1.60913821880871E-02 
1145	 1.61654831790238E-02 
1146	 1.38527360286097E-02 
1147	 1.39871296970104E-02 
1148	 1.48456877465597E-02 
1149	 1.43707098592021E-02 
1150	 1.48866806943796E-02 
1151	 1.77983388235395E-02 
1152	 1.82811849579185E-02 
1153	 1.65623719292498E-02 
1154	 1.71651919008572E-02 
1155	 1.83114456169618E-02 
1156	 1.92264030568339E-02 
1157	 1.94582328190279E-02 
1158	 1.96435182951033E-02 
1159	 1.96394839924861E-02 
1160	 1.97150795711577E-02 
1161	 2.07404447218182E-02 
1162	 2.18283469568827E-02 
1163	 2.18415094229334E-02 
1164	 2.16813395466024E-02 
1165	 0.021663599061606 
1166	 2.18301762316319E-02 
1167	 2.23028240411726E-02 
1168	 2.23979776332692E-02 
1169	 2.23887604805176E-02 
1170	 2.25626527796037E-02 
1171	 2.28023047125347E-02 
1172	 2.33512510603455E-02 
1173	 2.34906804803703E-02 
1174	 2.36092105060085E-02 
1175	 2.34262817410388E-02 
1176	 2.32717530869021E-02 
1177	 2.32006549738559E-02 
1178	 2.32052289455307E-02 
1179	 2.33324676270201E-02 
1180	 2.32759054996332E-02 
1181	 2.31108569656285E-02 
1182	 2.33946740147194E-02 
1183	 2.36493649348916E-02 
1184	 2.34527880969904E-02 
1185	 0.023309305519459 
1186	 2.32838923530764E-02 
1187	 0.023296301535577 
1188	 2.36232520024862E-02 
1189	 2.39310739746989E-02 
1190	 2.39071783764704E-02 
1191	 2.38607378673594E-02 
1192	 2.38653311481834E-02 
1193	 2.37701871501695E-02 
1194	 2.38152591252626E-02 
1195	 2.42093932863349E-02 
1196	 2.44704196396801E-02 
1197	 0.024433651564049 
1198	 2.43099034910154E-02 
1199	 2.41355804683388E-02 
1200	 2.40579457220411E-02 
1201	 2.41770389258823E-02 
1202	 2.44011911323519E-02 
1203	 2.43923142791645E-02 
1204	 2.41923996246721E-02 
1205	 2.41947146563179E-02 
1206	 2.42019195715489E-02 
1207	 2.43153222035422E-02 
1208	 2.44958046951558E-02 
1209	 2.41490320635141E-02 
1210	 2.39833861037319E-02 
1211	 2.43728398799053E-02 
1212	 2.45064889615497E-02 
1213	 2.45929555568955E-02 
1214	 2.47027390769625E-02 
1215	 2.48354131064986E-02 
1216	 2.45783004495731E-02 
1217	 2.46276482627248E-02 
1218	 2.49236800243124E-02 
1219	 2.50381379990372E-02 
1220	 2.51505871141604E-02 
1221	 2.52792530851899E-02 
1222	 2.53619638146063E-02 
1223	 2.54248350116717E-02 
1224	 2.54035872547915E-02 
1225	 2.52228012628132E-02 
1226	 2.50604060433154E-02 
1227	 2.52558406398493E-02 
1228	 2.56178722524841E-02 
1229	 2.57209168661202E-02 
1230	 2.57347928287866E-02 
1231	 2.58123646069154E-02 
1232	 2.58599930355407E-02 
1233	 2.58593686467137E-02 
1234	 2.57924162776981E-02 
1235	 2.58249602726271E-02 
1236	 2.57948077709701E-02 
1237	 2.58070529508174E-02 
1238	 2.59119936101136E-02 
1239	 2.60690009744907E-02 
1240	 2.59984318449393E-02 
1241	 2.58393236741003E-02 
1242	 2.58004432168999E-02 
1243	 2.59058309710869E-02 
1244	 2.60721029819797E-02 
1245	 2.61833928272555E-02 
1246	 2.61558795009045E-02 
1247	 2.60264684911519E-02 
1248	 2.60202090240388E-02 
1249	 2.61429846505228E-02 
1250	 0.02612779921698 
1251	 2.58712957304592E-02 
1252	 2.57195251677066E-02 
1253	 2.57260632894626E-02 
1254	 2.56256017063706E-02 
1255	 2.57289703027671E-02 
1256	 2.57278603188457E-02 
1257	 2.55189313080657E-02 
1258	 2.53915365123217E-02 
1259	 0.025398294670849 
1260	 2.53680334711871E-02 
1261	 2.52865655640236E-02 
1262	 2.52613701129636E-02 
1263	 2.52923859255366E-02 
1264	 2.52104386182805E-02 
1265	 2.51506899789213E-02 
1266	 2.52298039523108E-02 
1267	 2.50603398345114E-02 
1268	 2.48527871412557E-02 
1269	 0.024894062152698 
1270	 2.50348192154688E-02 
1271	 2.51203965009683E-02 
1272	 0.025094939855123 
1273	 0.02508857093825 
1274	 2.51426884844608E-02 
1275	 2.51626979055837E-02 
1276	 2.53463220989564E-02 
1277	 2.56645678526681E-02 
1278	 2.55219053058095E-02 
1279	 2.51791811695676E-02 
1280	 2.52927132256924E-02 
1281	 2.53990538642398E-02 
1282	 2.54917554576349E-02 
1283	 2.54002507665714E-02 
1284	 2.53747946502873E-02 
1285	 2.54048900117415E-02 
1286	 2.53326624816122E-02 
1287	 2.50825626363431E-02 
1288	 2.47484341812017E-02 
1289	 2.47130532237015E-02 
1290	 2.45137495419479E-02 
1291	 2.45189125426703E-02 
1292	 2.47736959587476E-02 
1293	 2.48570744747491E-02 
1294	 2.46098764359724E-02 
1295	 2.43280081933254E-02 
1296	 2.43537725141911E-02 
1297	 0.024522934322801 
1298	 2.44091810356559E-02 
1299	 2.40389346335091E-02 
1300	 2.37630202493104E-02 
1301	 2.37837326518158E-02 
1302	 2.38427815800443E-02 
1303	 0.023618123436306 
1304	 2.33704995098042E-02 
1305	 2.33972051036477E-02 
1306	 2.31998455408434E-02 
1307	 2.27825432736097E-02 
1308	 2.26267875643065E-02 
1309	 2.26460903041085E-02 
1310	 2.24059602866662E-02 
1311	 2.21177058623038E-02 
1312	 2.20258575842677E-02 
1313	 2.18481473397573E-02 
1314	 2.16078951332089E-02 
1315	 2.15797600287438E-02 
1316	 2.14893901885504E-02 
1317	 2.11745916760962E-02 
1318	 2.09735565605423E-02 
1319	 2.11106729927834E-02 
1320	 2.09825087169563E-02 
1321	 2.07673020957499E-02 
1322	 2.01569069552303E-02 
1323	 1.99903711236776E-02 
1324	 1.97499836086643E-02 
1325	 2.00162240365036E-02 
1326	 2.02063422597309E-02 
1327	 1.90135689117511E-02 
1328	 1.83436401787884E-02 
1329	 1.86506870832793E-02 
1330	 0.018109796305016 
1331	 1.74827992917376E-02 
1332	 1.75489392604712E-02 
1333	 1.71713588459083E-02 
1334	 1.67573805080937E-02 
1335	 1.66485827346414E-02 
1336	 1.81042226704058E-02 
1337	 1.83083644687947E-02 
1338	 1.72440778276004E-02 
1339	 0.016978438049975 
1340	 1.75532018386318E-02 
1341	 1.73752361735665E-02 
1342	 1.58831845894856E-02 
1343	 1.55307407860286E-02 
1344	 1.67287142836463E-02 
1345	 1.66388825269336E-02 
1346	 1.49981271627838E-02 
1347	 1.51764186140134E-02 
1348	 1.73208371330352E-02 
1349	 1.62973939984587E-02 
1350	 1.35083557943043E-02 
1351	 1.42736285179403E-02 
1352	 0.012751677812727 
1353	 5.8453752477349E-03 
1354	-1.05555688288888E-02 
1355	 1.24247994633659E-02 
1356	 0.02065548138145 
1357	-2.08984893290433E-02 
1358	-1.09032306976715E-02 
1359	 0.041461110128328 
1360	 1.56202464520116E-02 
1361	-8.46689760444075E-02 
1362	-0.214176893776894 
1363	-0.218604540664565 
1364	-0.121788697065896 
1365	-8.10843959653779E-02 
1366	-3.91066159870388E-02 
1367	 5.61886390993745E-02 
1368	 6.22105966246586E-02 
1369	 2.5745674178935E-03 
1370	 7.85170980082545E-02 
1371	 0.185942405592725 
1372	 7.94978693303569E-02 
1373	-0.221958769818474 
1374	-0.246398786342576 
1375	-0.234955928270215 
1376	-0.347054358414981 
1377	-0.211818563184112 
1378	 0.197251593730262 
1379	 8.80973844344881E-02 
1380	 6.86742294349939E-03 
1381	-0.133786583970163 
1382	-0.112689034461687 
1383	-0.155381355659515 
1384	-0.307031836571474 
1385	-0.343723590632051 
1386	-9.34367730598985E-02 
1387	 0.502794973674546 
1388	 0.532169684500168 
1389	-2.42824270942081E-02 
1390	 8.32452613080464E-02 
1391	 0.231515355229406 
1392	-0.196739512871559 
1393	-0.445667996448842 
1394	 0.298270591603855 
1395	 0.385070892742768 
1396	 0.269126027760497 
1397	 0.830764112471331 
1398	 0.875008430302086 
1399	 0.505710270015 
1400	 0.332939568823406 
1401	 0.382725598624478 
1402	 0.443658133643284 
1403	 0.327569257922053 
1404	 6.45755974813236E-02 
1405	 0.112784783528665 
1406	 0.177116669740469 
1407	 2.94445724943021E-02 
1408	-5.80657271174056E-02 
1409	 8.88895981964176E-03 
1410	 7.11363448789844E-02 
1411	 2.26330011571991E-02 
1412	 4.19345443643544E-02 
1413	 0.100307907814942 
1414	 7.90170525203593E-02 
1415	 1.10971131305752E-02 
1416	-3.11539444326565E-03 
1417	 6.10476297538255E-02 
1418	 9.74543075108449E-02 
1419	 4.87153354321419E-02 
1420	 1.67699005677088E-02 
1421	 3.65181033636474E-02 
1422	 2.74894215244667E-02 
1423	 8.63094277381854E-03 
1424	 2.31134692447675E-02 
1425	 3.23391111574186E-02 
1426	 1.20683149719005E-02 
1427	 6.38999528122927E-03 
1428	 3.00723300278353E-02 
1429	 3.42216920244356E-02 
1430	 1.73317810501157E-02 
1431	 9.62969898223919E-03 
1432	 3.22835320867536E-04 
1433	-3.37258037384193E-04 
1434	 1.35722081521142E-02 
1435	 1.57630197236406E-02 
1436	 1.56670469747122E-02 
1437	 1.33803158149888E-02 
1438	 1.82285266245359E-02 
1439	 1.34148593437562E-02 
1440	 1.32434927179314E-02 
1441	 1.73686853404292E-02 
1442	 7.90730219138572E-03 
1443	 1.60129776395052E-03 
1444	 3.73809150770435E-03 
1445	 5.90334025154975E-03 
1446	 1.38673028286663E-02 
1447	 1.46857909290132E-02 
1448	 1.06077752034602E-02 
1449	 1.30627006703754E-02 
1450	 1.17881902985768E-02 
1451	 1.16369405612833E-02 
1452	 1.59515662559303E-02 
1453	 1.62416385877878E-02 
1454	 1.54571562406514E-02 
1455	 1.35806370964167E-02 
1456	 1.36373921598203E-02 
1457	 1.32316855885043E-02 
1458	 1.27751404837014E-02 
1459	 1.32406275416022E-02 
1460	 1.44062717397451E-02 
1461	 1.54957961259403E-02 
1462	 1.51891348781846E-02 
1463	 1.51610781106028E-02 
1464	 1.56002825910598E-02 
1465	 1.44566439980102E-02 
1466	 1.41540465485937E-02 
1467	 1.61363794887114E-02 
1468	 1.69697872521206E-02 
1469	 1.66566324692366E-02 
1470	 1.58299619866537E-02 
1471	 1.48509715222848E-02 
1472	 1.49498528713281E-02 
1473	 1.42664726932927E-02 
1474	 1.36711389968902E-02 
1475	 1.44503624987803E-02 
1476	 1.48258355383014E-02 
1477	 1.43835553885654E-02 
1478	 1.43009893745624E-02 
1479	 1.46018597692209E-02 
1480	 1.49026443575454E-02 
1481	 1.50630335427143E-02 
1482	 1.50040040695873E-02 
1483	 1.49016973754148E-02 
1484	 1.55227307801411E-02 
1485	 1.62248545621938E-02 
1486	 1.65719542741964E-02 
1487	 1.67616697067717E-02 
1488	 1.75168861005777E-02 
1489	 1.88370815206063E-02 
1490	 1.89746663498105E-02 
1491	 1.83967857762222E-02 
1492	 1.89896192535487E-02 
1493	 1.99815046994352E-02 
1494	 1.99173188927806E-02 
1495	 1.97549963618718E-02 
1496	 0.02022606881621 
1497	 0.020308759155005 
1498	 2.02942475478608E-02 
1499	 0.020897008638719 
1500	 2.13529450253802E-02 
1501	 2.14713155253393E-02 
1502	 2.14947613169984E-02 
1503	 0.021528828828902 
1504	 2.17994289445628E-02 
1505	 2.20237586836641E-02 
1506	 2.20159265346425E-02 
1507	 2.24357463027956E-02 
1508	 2.29559556304735E-02 
1509	 2.28324093946505E-02 
1510	 2.27821825456868E-02 
1511	 2.29253974902435E-02 
1512	 0.022878969594423 
1513	 2.28627710010116E-02 
1514	 2.30413229447787E-02 
1515	 2.34107472689597E-02 
1516	 2.37123033075432E-02 
1517	 2.38090320869893E-02 
1518	 2.37176375070509E-02 
1519	 2.33568924632843E-02 
1520	 2.32298675902437E-02 
1521	 2.35844582283814E-02 
1522	 2.38899982943848E-02 
1523	 2.39986322698408E-02 
1524	 2.40491454438163E-02 
1525	 2.40856129826512E-02 
1526	 2.42151892436384E-02 
1527	 2.41553050658656E-02 
1528	 2.40573890173435E-02 
1529	 2.43272299788674E-02 
1530	 2.44879671742356E-02 
1531	 2.44948312950537E-02 
1532	 2.46892585940533E-02 
1533	 2.49705714890361E-02 
1534	 2.49934479138925E-02 
1535	 2.47644181474179E-02 
1536	 2.48434692406559E-02 
1537	 2.50296241598326E-02 
1538	 2.48878592787336E-02 
1539	 2.48247855525151E-02 
1540	 2.50930696259859E-02 
1541	 2.53802771232207E-02 
1542	 2.54578953312042E-02 
1543	 2.54831226953936E-02 
1544	 2.55633787361961E-02 
1545	 2.54873589825315E-02 
1546	 2.52127618396156E-02 
1547	 2.51248366154663E-02 
1548	 0.025277057106506 
1549	 2.53316101440677E-02 
1550	 2.53204484840009E-02 
1551	 2.53625827241856E-02 
1552	 2.54205698397941E-02 
1553	 2.53443064862696E-02 
1554	 2.52169738392406E-02 
1555	 2.53856939587379E-02 
1556	 2.56280087951963E-02 
1557	 2.55432139222743E-02 
1558	 2.54823625782402E-02 
1559	 2.56341353502514E-02 
1560	 2.55508848679814E-02 
1561	 2.53214259166624E-02 
1562	 2.52904130590801E-02 
1563	 2.53695004759858E-02 
1564	 2.53931285906375E-02 
1565	 2.55037107243924E-02 
1566	 2.56913901059834E-02 
1567	 2.55556862543462E-02 
1568	 2.52379020206878E-02 
1569	 2.51579400228566E-02 
1570	 2.53707199532701E-02 
1571	 0.025669303718872 
1572	 2.57767408101821E-02 
1573	 2.57237683175601E-02 
1574	 2.55278025239069E-02 
1575	 2.52358789430347E-02 
1576	 2.52184636817162E-02 
1577	 2.53512468529891E-02 
1578	 2.52652495546623E-02 
1579	 2.52176298408228E-02 
1580	 2.53025072878287E-02 
1581	 2.54360949752571E-02 
1582	 2.57079074132245E-02 
1583	 2.56847563691789E-02 
1584	 2.55521952406849E-02 
1585	 2.58257764641603E-02 
1586	 2.59740590432623E-02 
1587	 2.58801209452265E-02 
1588	 2.59227896127024E-02 
1589	 2.60547198804578E-02 
1590	 2.59831993561549E-02 
1591	 2.58143822480616E-02 
1592	 2.58375591885857E-02 
1593	 2.56749123943022E-02 
1594	 2.52840856637617E-02 
1595	 2.53424899294497E-02 
1596	 2.58052598226258E-02 
1597	 2.57356834544969E-02 
1598	 2.53991357182124E-02 
1599	 2.55206187022202E-02 
1600	 2.54501298143872E-02 
1601	 2.53135703240655E-02 
1602	 2.55479922292285E-02 
1603	 2.56533344454267E-02 
1604	 2.56248128190241E-02 
1605	 2.55776045878175E-02 
1606	 2.56369398484758E-02 
1607	 2.57183633367241E-02 
1608	 2.56695763298711E-02 
1609	 2.56813620399479E-02 
1610	 2.56791397160888E-02 
1611	 2.57506605126984E-02 
1612	 2.57514078577509E-02 
1613	 2.56892246798265E-02 
1614	 2.57740994146295E-02 
1615	 2.56808908408048E-02 
1616	 2.56259905824892E-02 
1617	 0.025839258033055 
1618	 2.59282260149406E-02 
1619	 2.61125795249952E-02 
1620	 2.62205237957132E-02 
1621	 2.58119359351097E-02 
1622	 2.57742717602727E-02 
1623	 2.59616629871818E-02 
1624	 2.57537448225695E-02 
1625	 2.57814659975797E-02 
1626	 2.58287030157716E-02 
1627	 0.025609473985557 
1628	 2.55799638499145E-02 
1629	 2.56061477080429E-02 
1630	 2.55537065391221E-02 
1631	 2.55961356373926E-02 
1632	 2.57043097155939E-02 
1633	 2.58232259154497E-02 
1634	 2.58872061742567E-02 
1635	 2.58755063487391E-02 
1636	 2.58023821529668E-02 
1637	 2.56819864634534E-02 
1638	 2.56279991975137E-02 
1639	 2.57287508928808E-02 
1640	 2.56330485768649E-02 
1641	 2.52910654485425E-02 
1642	 2.52313844482436E-02 
1643	 2.53015358728864E-02 
1644	 2.51853824428814E-02 
1645	 2.50574729701057E-02 
1646	 2.52730095006096E-02 
1647	 2.56215531608347E-02 
1648	 2.55663912765903E-02 
1649	 2.55999053963413E-02 
1650	 2.57480892425293E-02 
1651	 2.53614958741068E-02 
1652	 2.50760334065982E-02 
1653	 2.57120359608356E-02 
1654	 0.025766157899594 
1655	 2.52887794101398E-02 
1656	 2.52990685806201E-02 
1657	 2.55664878468457E-02 
1658	 2.54434624324698E-02 
1659	 0.025256562357525 
1660	 2.53486958394633E-02 
1661	 2.53941175398266E-02 
1662	 0.02529941222774 
1663	 2.53631043617652E-02 
1664	 2.54109126717172E-02 
1665	 2.51118243861811E-02 
1666	 2.49823211003688E-02 
1667	 2.51973245554159E-02 
1668	 2.55190533312782E-02 
1669	 2.54571537885827E-02 
1670	 2.52438742585194E-02 
1671	 2.53685390954512E-02 
1672	 2.53393375279039E-02 
1673	 2.53054849747783E-02 
1674	 2.56316096141781E-02 
1675	 2.57203589447899E-02 
1676	 2.56101519832558E-02 
1677	 2.54483423849952E-02 
1678	 2.52332317027342E-02 
1679	 2.53072971701264E-02 
1680	 2.52336557763758E-02 
1681	 2.51165231880625E-02 
1682	 2.56470840772154E-02 
1683	 2.59826633310651E-02 
1684	 2.55588998803748E-02 
1685	 2.52658428231328E-02 
1686	 0.025090830084224 
1687	 0.024915465282811 
1688	 0.025321995678521 
1689	 0.025692950727779 
1690	 2.55439742780363E-02 
1691	 2.52171800517484E-02 
1692	 2.48720224021178E-02 
1693	 2.47260176470096E-02 
1694	 2.48117972802032E-02 
1695	 2.50415601202648E-02 
1696	 2.52144750705939E-02 
1697	 2.49778271328074E-02 
1698	 2.47849093684214E-02 
1699	 2.51607269837282E-02 
1700	 2.52359382584943E-02 
1701	 2.49527662894586E-02 
1702	 2.53335298177517E-02 
1703	 2.52866079922242E-02 
1704	 2.46237470896015E-02 
1705	 2.49371018949869E-02 
1706	 2.52081467953021E-02 
1707	 2.46487073081951E-02 
1708	 2.45117857485912E-02 
1709	 2.48264718525642E-02 
1710	 2.48644772909456E-02 
1711	 2.49664212136076E-02 
1712	 2.51286701847876E-02 
1713	 2.49914888881364E-02 
1714	 2.49894226594965E-02 
1715	 2.45126894123001E-02 
1716	 2.45247765157638E-02 
1717	 2.45844935426871E-02 
1718	 2.44502347170634E-02 
1719	 2.46963286412445E-02 
1720	 2.48742511496078E-02 
1721	 2.49659009632038E-02 
1722	 2.47959731102157E-02 
1723	 2.40698264174486E-02 
1724	 2.38239454200005E-02 
1725	 2.39134765583854E-02 
1726	 2.40183345673306E-02 
1727	 2.43240632787583E-02 
1728	 2.42650045949952E-02 
1729	 0.024147633748576 
1730	 2.42697055402366E-02 
1731	 2.42710623200071E-02 
1732	 2.42330103732291E-02 
1733	 2.43652045860426E-02 
1734	 2.41643610839925E-02 
1735	 2.36413377726631E-02 
1736	 2.37536047470485E-02 
1737	 2.40255008428297E-02 
1738	 2.39025732754153E-02 
1739	 2.41693130101362E-02 
1740	 2.42986405804857E-02 
1741	 2.35590301117048E-02 
1742	 2.32399112307093E-02 
1743	 2.34818380659959E-02 
1744	 2.35343355610327E-02 
1745	 2.37999682882108E-02 
1746	 2.37992254527847E-02 
1747	 0.023749748564968 
1748	 2.34172976444566E-02 
1749	 2.31148154805247E-02 
1750	 2.29803354474928E-02 
1751	 2.31172461751583E-02 
1752	 2.33727151389568E-02 
1753	 2.33331751398734E-02 
1754	 2.32764685933517E-02 
1755	 0.023027693028349 
1756	 2.23554756003877E-02 
1757	 2.27415462813175E-02 
1758	 2.27857828692668E-02 
1759	 0.022392231870987 
1760	 2.23257296632502E-02 
1761	 2.20301823301138E-02 
1762	 2.21128478106369E-02 
1763	 2.29615117859852E-02 
1764	 2.30506839532294E-02 
1765	 2.21431264843192E-02 
1766	 2.13302763614557E-02 
1767	 2.13790202311349E-02 
1768	 2.16976722749898E-02 
1769	 2.15873090325122E-02 
1770	 2.19031881317547E-02 
1771	 2.17714470828997E-02 
1772	 2.05716230392296E-02 
1773	 2.06231971150003E-02 
1774	 2.11010148275056E-02 
1775	 0.020545485810253 
1776	 2.05131358274563E-02 
1777	 2.11647462883886E-02 
1778	 2.06981704324172E-02 
1779	 1.95545220683709E-02 
1780	 1.89711181030312E-02 
1781	 1.75976232649163E-02 
1782	 1.77981463444659E-02 
1783	 1.93392735376814E-02 
1784	 1.98378247183204E-02 
1785	 2.09364666938895E-02 
1786	 2.18197786585568E-02 
1787	 2.32371662625666E-02 
1788	 2.27554007522798E-02 
1789	 2.03940637379302E-02 
1790	 1.81612044307658E-02 
1791	 1.52525310006109E-02 
1792	 1.67471410280052E-02 
1793	 1.81331976595546E-02 
1794	 1.60189192692165E-02 
1795	 1.71888219471959E-02 
1796	 1.51556642644332E-02 
1797	 1.38087854227758E-02 
1798	 1.67324350915319E-02 
1799	 1.49974251196231E-02 
1800	 2.08709176478581E-02 
1801	 2.13235777259066E-02 
1802	 1.20461543958039E-02 
1803	 1.71420166719186E-02 
1804	 3.53600957013674E-02 
1805	 4.03514331404391E-02 
1806	 0.068756097440328 
1807	 7.22730287709049E-02 
1808	-3.17222751099016E-02 
1809	-0.066297179517919 
1810	-1.59883996863473E-02 
1811	-1.79059498399322E-02 
1812	 6.29918012028697E-02 
1813	 4.58178479495738E-02 
1814	-0.250989986817618 
1815	-0.384053700712595 
1816	-0.41592903891697 
1817	-0.368046565915024 
1818	-0.21067042602084 
1819	-0.244420428623909 
1820	-0.282825812513128 
1821	-0.140705956811729 
1822	-0.113956635258639 
1823	-0.299316579670531 
1824	-0.168981943293534 
1825	 0.677537770531823 
1826	 1.0158178183723 
1827	 0.646315855443422 
1828	 0.617933454431293 
1829	 0.320742328885195 
1830	 0.208890158431393 
1831	-1.27314649128002 
1832	 18.3039164691867 
1833	-0.727479152145829 
1834	-0.623983493340106 
1835	-0.038738312759426 
1836	 0.50063683217089 
1837	-0.48560052297466 
1838	-0.378279818529188 
1839	-0.12438163563915 
1840	-0.125076727895933 
1841	-0.231279477815806 
1842	 0.839456927293993 
1843	 0.8165225203815 
1844	-6.94179228772761E-02 
1845	-0.078718509368251 
1846	-0.107247927605348 
1847	-0.125646652470518 
1848	-6.87301683243267E-02 
1849	 0.456089098346696 
1850	 0.394675982416221 
1851	 0.803795465988401 
1852	 0.628075939405278 
1853	 0.261617903068818 
1854	 0.285015860407696 
1855	 0.613317505107884 
1856	 0.675914144005228 
1857	-4.69610434984602 
1858	-2.45095842907842 
1859	 0.631087228494529 
1860	-1.18553775505332 
1861	-0.796975152451179 
1862	-0.173496072209518 
1863	-4.70787438944943E-02 
1864	 8.63094973937139 
1865	-3.01950692288739 
1866	 1.24161094841097 
1867	 0.925504637731665 
1868	 8.33199934898842 
1869	 23.7994163821789 
1870	 4.11096507060956 
1871	 4.69645120407177 
1872	-1.01272361114038 
1873	-15.9911386784779 
1874	 0.277444050957397 
1875	-0.569052413580391 
1876	-1.00927467450194 
1877	-1.15714465737304 
1878	-1.47044812845038 
1879	 6.01187307657961 
1880	 0.686348096516656 
1881	-0.874644023702633 
1882	-1.10865524423145 
1883	-2.6948013589867 
1884	-2.62411133423851 
1885	-0.65245368853257 
1886	-1.07228084442836 
1887	 2.54894204616412 
1888	 0.337632223879335 
1889	 9.32149542248601E-02 
1890	 6.31777757029675E-02 
1891	 0.161592661576172 
1892	 0.344860546236005 
1893	 0.689701345226746 
1894	 0.231126157983213 
1895	 0.200133577521424 
1896	 0.46598858922842 
1897	-3.7966717196425 
1898	 0.186178708250633 
1899	 4.87130784249967 
1900	 1.4746085663453 
1901	 0.778500735694643 
1902	 0.55237245648223 
1903	 0.274883509933546 
1904	 0.23043564240259 
1905	 0.31298300706883 
1906	-0.168309622651612 
1907	-9.60672365792985E-02 
1908	-1.17836568737441E-02 
1909	-0.390685664071208 
1910	-2.00440496654459 
1911	 0.586825300169527 
1912	 1.05472951794272 
1913	 1.0820362290215 
1914	-0.404220244301991 
1915	-7.62281168732484E-03 
1916	 0.368548712111676 
1917	 0.823749917365468 
1918	 0.938386450699118 
1919	 0.785433845588965 
1920	 0.688141944376916 
1921	 0.697182211234813 
1922	 0.834095725860231 
1923	 0.890233298877637 
1924	 0.523086546993106 
1925	 0.703555291616859 
1926	 1.05180047078034 
1927	 0.555738175372282 
1928	 0.196502427484956 
1929	-0.628060783041573 
1930	-0.746107281921454 
1931	-0.613011646506546 
1932	-0.970039682856096 
1933	-0.561495596778244 
1934	-0.186328117863028 
1935	-0.351259963886836 
1936	-0.782665985827526 
1937	-0.745714233473924 
1938	-0.586415077517841 
1939	-0.432628807107397 
1940	-0.225405844177341 
1941	-0.127720680321545 
1942	-0.113579136247361 
1943	-7.73674812242996E-02 
1944	-3.73716057388623E-02 
1945	-2.38429486301428E-02 
1946	-2.01170561395387E-02 
1947	-7.86865432471407E-02 
1948	-0.116743346216344 
1949	-7.38320585940243E-02 
1950	-5.96681245685121E-02 
1951	-4.36504167272572E-02 
1952	-0.027547010310164 
1953	-2.36012986466355E-02 
1954	-4.44705596526751E-02 
1955	-8.64849457602298E-03 
1956	 1.18212511647551E-02 
1957	 3.80437669009741E-03 
1958	 5.62684159522397E-03 
1959	 5.81196754048872E-03 
1960	 7.02782356028344E-03 
1961	 1.14689293536293E-02 
1962	 1.17915319370021E-02 
1963	 8.46674293174275E-03 
1964	 8.60753189921307E-03 
1965	 9.01258954226196E-03 
1966	 9.08768558236574E-03 
1967	 9.45545080630325E-03 
1968	 1.04945454787034E-02 
1969	 0.010857372642791 
1970	 1.16709066653435E-02 
1971	 1.32896680381091E-02 
1972	 1.28939388680693E-02 
1973	 1.15584830295647E-02 
1974	 1.10714514139702E-02 
1975	 1.02839408481084E-02 
1976	 1.08717458448808E-02 
1977	 1.29787296976716E-02 
1978	 1.46701513611833E-02 
1979	 1.52083541569621E-02 
1980	 1.56106840281779E-02 
1981	 1.55356433254459E-02 
1982	 1.49210222528525E-02 
1983	 0.01434789902804 
1984	 1.50011365636529E-02 
1985	 1.55751899940083E-02 
1986	 1.52015140934979E-02 
1987	 1.55354949915594E-02 
1988	 1.63502877199735E-02 
1989	 1.71391491994752E-02 
1990	 1.80727515241166E-02 
1991	 1.77880305409171E-02 
1992	 1.66833900170113E-02 
1993	 1.58687537756758E-02 
1994	 1.55767213958586E-02 
1995	 1.58257110051131E-02 
1996	 1.61089248195073E-02 
1997	 1.58297205804117E-02 
1998	 1.54740145436392E-02 
1999	 1.42599441949029E-02 
2000	 1.42983705399193E-02 
2001	 1.59734432111976E-02 
2002	 1.73479926709035E-02 
2003	 1.57527367776125E-02 
2004	 0.012781840874294 
2005	 1.09026979496871E-02 
2006	 9.60369393231349E-03 
2007	 1.25209960619157E-02 
2008	 1.55852670317332E-02 
2009	 1.59528342894906E-02 
2010	 1.33631759516126E-02 
2011	 1.31897599597396E-02 
2012	 1.25426324455868E-02 
2013	 1.25331537005781E-02 
2014	 1.24019191170034E-02 
2015	 1.22652467717937E-02 
2016	 1.13487937287246E-02 
2017	 1.25549559996493E-02 
2018	 1.32300937636095E-02 
2019	 1.48028781500515E-02 
2020	 1.67777068203629E-02 
2021	 1.59544924425944E-02 
2022	 1.67656688564382E-02 
2023	 1.84331095704647E-02 
2024	 0.018832872270778 
2025	 1.85950889713689E-02 
2026	 1.88038186143143E-02 
2027	 1.90877921558726E-02 
2028	 1.82792371327945E-02 
2029	 1.81832064217474E-02 
2030	 1.88831180459827E-02 
2031	 1.89628258442407E-02 
2032	 1.95428746279194E-02 
2033	 1.97617088171412E-02 
2034	 1.88853109455779E-02 
2035	 1.82973250302921E-02 
2036	 1.83535691472357E-02 
2037	 1.90578197682645E-02 
2038	 1.93816498119664E-02 
2039	 1.94991273030115E-02 
2040	 1.93910079361756E-02 
2041	 1.95067084315347E-02 
2042	 1.95890191609568E-02 
2043	 1.97393594808108E-02 
2044	 2.02986823945648E-02 
2045	 2.00256777874272E-02 
2046	 0.020028078102315 
2047	 1.99722192575915E-02 
2048	 1.98337672437218E-02 
2049	 2.02915910822743E-02 
2050	 2.04908402547207E-02 
2051	 2.02439608401384E-02 
2052	 2.00032440254752E-02 
2053	 1.93921728197102E-02 
2054	 1.88930162738188E-02 
2055	 1.92809157377193E-02 
2056	 1.94275719913069E-02 
2057	 2.04180634613605E-02 
2058	 2.02639834980206E-02 
2059	 1.90930478960275E-02 
2060	 1.87227676179586E-02 
2061	 1.83771968561494E-02 
2062	 1.77116012837975E-02 
2063	 0.018078616907759 
2064	 1.85606304874982E-02 
2065	 1.75575727006381E-02 
2066	 1.74447597612133E-02 
2067	 1.82973658456168E-02 
2068	 1.84455847966682E-02 
2069	 1.90786590937892E-02 
2070	 0.020366278789068 
2071	 2.03598078291226E-02 
2072	 0.018792149990476 
2073	 0.018658401810027 
2074	 1.91974168841979E-02 
2075	 1.91987152392451E-02 
2076	 1.97207475617967E-02 
2077	 1.98708466981212E-02 
2078	 1.85440744142093E-02 
2079	 1.83434296234475E-02 
2080	 0.018676106992235 
2081	 1.96420099476509E-02 
2082	 1.98358629293193E-02 
2083	 2.02643005927936E-02 
2084	 2.04681490023598E-02 
2085	 2.02719982477214E-02 
2086	 1.99214619629365E-02 
2087	 2.01272844468552E-02 
2088	 2.05721589632296E-02 
2089	 2.02881105990455E-02 
2090	 0.020204067037513 
2091	 0.020887489769483 
2092	 2.12672698485671E-02 
2093	 0.021322794586645 
2094	 2.12246304660113E-02 
2095	 2.15074571748282E-02 
2096	 2.13510343502002E-02 
2097	 2.00037440866164E-02 
2098	 0.020046873205979 
2099	 2.09129918987174E-02 
2100	 0.021485864068793 
2101	 2.18230347948092E-02 
2102	 2.22985124313753E-02 
2103	 2.20863084399086E-02 
2104	 0.021222676780778 
2105	 0.020901160342231 
2106	 2.09292075916847E-02 
2107	 2.04700532813546E-02 
2108	 1.97353265682902E-02 
2109	 1.95827097066242E-02 
2110	 2.01384130857245E-02 
2111	 2.04811815156321E-02 
2112	 2.07955561376532E-02 
2113	 2.10521336443758E-02 
2114	 0.020573125321747 
2115	 2.04006123675926E-02 
2116	 2.09521813732245E-02 
2117	 2.09429898604856E-02 
2118	 2.00708269204094E-02 
2119	 2.02103815639646E-02 
2120	 2.07675201141861E-02 
2121	 2.12712746203252E-02 
2122	 2.16847433001391E-02 
2123	 2.22924695945997E-02 
2124	 2.23952344867697E-02 
2125	 2.13706758473219E-02 
2126	 2.11003859311543E-02 
2127	 2.10233125610157E-02 
2128	 2.09887784906536E-02 
2129	 2.20232727454812E-02 
2130	 2.23438131644088E-02 
2131	 2.17688524532389E-02 
2132	 0.022147815816448 
2133	 2.22772673401984E-02 
2134	 2.19590364765655E-02 
2135	 2.18800663346978E-02 
2136	 2.18074692907582E-02 
2137	 2.07020039252741E-02 
2138	 2.05701718530446E-02 
2139	 2.13171892453094E-02 
2140	 2.11823835478436E-02 
2141	 2.07021605373516E-02 
2142	 2.08356961797392E-02 
2143	 2.08407503649245E-02 
2144	 2.15990339730117E-02 
2145	 2.13655270134123E-02 
2146	 2.04306091440747E-02 
2147	 2.00426207489405E-02 
2148	 0.020190919720158 
2149	 2.15005979183288E-02 
2150	 2.28882837856051E-02 
2151	 2.27778766550001E-02 
2152	 2.22110113566128E-02 
2153	 2.17825599376099E-02 
2154	 2.08797378002145E-02 
2155	 2.01337434942701E-02 
2156	 1.98529697930536E-02 
2157	 1.96599160312161E-02 
2158	 1.97318781561329E-02 
2159	 2.01563947216227E-02 
2160	 2.12668016760857E-02 
2161	 2.10364887835669E-02 
2162	 2.00617774881426E-02 
2163	 1.97541827782078E-02 
2164	 1.85143367848023E-02 
2165	 0.018847779153634 
2166	 2.10771110064402E-02 
2167	 0.02226742194651 
2168	 2.42736104727136E-02 
2169	 2.46804218555469E-02 
2170	 2.37674601582743E-02 
2171	 2.27643363546241E-02 
2172	 2.21309754527737E-02 
2173	 2.10719305439664E-02 
2174	 2.11147994647235E-02 
2175	 2.15765254017223E-02 
2176	 2.10379152165745E-02 
2177	 2.10054857944424E-02 
2178	 2.12112538942833E-02 
2179	 2.03828536424176E-02 
2180	 2.02935499815715E-02 
2181	 2.06997103218107E-02 
2182	 2.04735654397003E-02 
2183	 2.07359712593557E-02 
2184	 1.92796581762513E-02 
2185	 1.71885290001693E-02 
2186	 1.68694565589421E-02 
2187	 1.70493147089483E-02 
2188	 1.69913477730044E-02 
2189	 0.018875209628287 
2190	 0.019704610097189 
2191	 1.93547167288419E-02 
2192	 1.92592446473726E-02 
2193	 1.94033775666607E-02 
2194	 1.92727379134201E-02 
2195	 1.83043031241568E-02 
2196	 1.84037005482378E-02 
2197	 1.94480370031647E-02 
2198	 1.98603016964764E-02 
2199	 2.03040194316244E-02 
2200	 2.05445941721706E-02 
2201	 2.11141387585004E-02 
2202	 2.18376721543963E-02 
2203	 2.18286492562451E-02 
2204	 2.18128669776336E-02 
2205	 2.16509581127905E-02 
2206	 2.01539840427997E-02 
2207	 1.86873648148673E-02 
2208	 1.87567602199198E-02 
2209	 1.84879066176366E-02 
2210	 1.88095427591446E-02 
2211	 1.96133163785773E-02 
2212	 1.95785776821043E-02 
2213	 2.01115589445783E-02 
2214	 2.04150766626089E-02 
2215	 2.13556763450655E-02 
2216	 2.19015037112832E-02 
2217	 0.021473491886067 
2218	 1.99897000400623E-02 
2219	 1.94347425926406E-02 
2220	 1.81020224946397E-02 
2221	 1.79834660024099E-02 
2222	 1.93556950949626E-02 
2223	 1.91955895664128E-02 
2224	 1.82760777019778E-02 
2225	 1.83427033605237E-02 
2226	 1.84078709919624E-02 
2227	 1.84482604501565E-02 
2228	 1.91249180948097E-02 
2229	 2.00322567934112E-02 
2230	 2.09826713847369E-02 
2231	 2.11207530954498E-02 
2232	 2.15310711256785E-02 
2233	 2.15905710703194E-02 
2234	 2.05131860932555E-02 
2235	 1.99728833552972E-02 
2236	 1.97479379615399E-02 
2237	 1.92172434203278E-02 
2238	 1.91365191365407E-02 
2239	 1.98919676136077E-02 
2240	 2.06279123547155E-02 
2241	 2.08423447434127E-02 
2242	 2.14587376800224E-02 
2243	 2.06630828909907E-02 
2244	 1.87463715423918E-02 
2245	 1.76874024147855E-02 
2246	 1.79747352761632E-02 
2247	 1.92467790429116E-02 
2248	 1.94696634349542E-02 
2249	 1.97316159727445E-02 
2250	 1.99025810049392E-02 
2251	 1.92834905194492E-02 
2252	 1.97014154053018E-02 
2253	 2.00546528356317E-02 
2254	 1.87704498843122E-02 
2255	 0.017504429619031 
2256	 1.82000216191534E-02 
2257	 0.019452691915573 
2258	 2.05226882237074E-02 
2259	 2.18576780787937E-02 
2260	 0.022369827067941 
2261	 2.18760721111717E-02 
2262	 2.17292756870275E-02 
2263	 2.10262073399764E-02 
2264	 2.13222602806143E-02 
2265	 0.021915240546731 
2266	 2.17463277815778E-02 
2267	 2.28433795445935E-02 
2268	 2.28132209991639E-02 
2269	 2.11222395417994E-02 
2270	 2.05762188980409E-02 
2271	 1.98858366487573E-02 
2272	 1.96491013004218E-02 
2273	 1.95095156535625E-02 
2274	 1.95603729968576E-02 
2275	 2.17430939760614E-02 
2276	 2.18323521132114E-02 
2277	 2.03310365224758E-02 
2278	 1.99078224404105E-02 
2279	 1.76903091745101E-02 
2280	 1.63762708915539E-02 
2281	 1.57316551868142E-02 
2282	 1.66474628704958E-02 
2283	 0.016619982834631 
2284	 1.81114987389212E-02 
2285	 1.79663217216671E-02 
2286	 1.53859107339092E-02 
2287	 1.31310701370765E-02 
2288	 1.34079669282573E-02 
2289	 1.50451229324858E-02 
2290	 1.65933728630536E-02 
2291	 1.77736937048367E-02 
2292	 1.91190961575228E-02 
2293	 1.82780156907161E-02 
2294	 1.67901364253063E-02 
2295	 1.85051603902386E-02 
2296	 1.76789719386333E-02 
2297	 1.68972567354774E-02 
2298	 0.020532077871652 
2299	 2.15192768229359E-02 
2300	 2.06382299589409E-02 
2301	 2.20058885380489E-02 
2302	 2.08936940307215E-02 
2303	 1.83414163312276E-02 
2304	 1.68623634562391E-02 
2305	 1.43454835831602E-02 
2306	 1.22899632213123E-02 
2307	 1.03905650020652E-02 
2308	 1.02179766651921E-02 
2309	 1.22342019680139E-02 
2310	 1.40022523694099E-02 
2311	 1.73894631274589E-02 
2312	 2.00577617832202E-02 
2313	 1.93887569427539E-02 
2314	 1.88645359505821E-02 
2315	 1.70239252268907E-02 
2316	 1.51459982028552E-02 
2317	 1.62628438192718E-02 
2318	 1.59053461537214E-02 
2319	 1.87283787314641E-02 
2320	 2.55215217810739E-02 
2321	 2.60643865003931E-02 
2322	 2.31867955794609E-02 
2323	 0.018573513971079 
2324	 1.21877737553516E-02 
2325	 7.55371394931237E-03 
2326	 5.24407919551963E-03 
2327	 5.16905616643076E-03 
2328	 3.57383512715642E-03 
2329	 3.53114370063846E-03 
2330	 6.83384333414035E-03 
2331	 0.013356673925576 
2332	 1.66656762784627E-02 
2333	 1.69071086463503E-02 
2334	 2.04415432695253E-02 
2335	 1.87634207285746E-02 
2336	 1.47235747404399E-02 
2337	 1.23313105323176E-02 
2338	 1.20969481028024E-02 
2339	 1.58482957164503E-02 
2340	 1.75621329465105E-02 
2341	 1.98791318233445E-02 
2342	 2.66902432545604E-02 
2343	 2.94626804983273E-02 
2344	 2.99974986980079E-02 
2345	 2.76043980048104E-02 
2346	 1.22670095741828E-02 
2347	 3.27856303214552E-03 
2348	 6.66913253252113E-03 
2349	 8.06029796340124E-03 
2350	 0.012312814099324 
2351	 1.56771490107362E-02 
2352	 1.23572426326895E-02 
2353	 9.54195005953911E-03 
2354	 1.16865540522143E-02 
2355	 1.70467428668277E-02 
2356	 0.016282363655087 
2357	 1.38334161110683E-02 
2358	 1.97162196430761E-02 
2359	 1.46865618347637E-02 
2360	 8.09365729439785E-03 
2361	 1.64290019025533E-02 
2362	 0.022327140968784 
2363	 2.67516172003343E-02 
2364	 0.02736057208267 
2365	 1.75891063221119E-02 
2366	 7.22310315548009E-03 
2367	-3.5796303931223E-03 
2368	-7.81817187823594E-03 
2369	 6.40686473872732E-03 
2370	 2.36292683779152E-02 
2371	 2.31409582027918E-02 
2372	 1.90405219530778E-02 
2373	 1.19777346019547E-02 
2374	-6.27570610489416E-03 
2375	-0.014894037038322 
2376	-1.18553453980254E-02 
2377	 3.65136646167316E-04 
2378	-3.9896759630598E-03 
2379	-2.14175306073074E-02 
2380	-1.45714066975262E-02 
2381	-2.12716357694919E-02 
2382	-3.84718881376789E-02 
2383	-3.54941523648967E-02 
2384	-2.30908229617426E-02 
2385	-3.75304550092378E-03 
2386	 5.81006940017145E-04 
2387	 9.50089128956165E-03 
2388	 0.010917125393652 
2389	 5.0565280668535E-03 
2390	 0.026758614341536 
2391	 0.025750863291287 
2392	 1.00073576191867E-02 
2393	 8.82826545592349E-04 
2394	-4.43189076736812E-03 
2395	 2.42796409435642E-02 
2396	 4.44285437969705E-02 
2397	 1.66542214899339E-02 
2398	-1.25541899913088E-02 
2399	-0.030887089561551 
2400	-6.00332278458709E-02 
2401	-8.07771944268487E-02 
2402	-7.26500469067379E-02 
2403	-5.52443771862376E-02 
2404	-5.90268544386732E-02 
2405	-6.01597026428645E-02 
2406	-3.88573026582494E-02 
2407	-0.03793733683321 
2408	-4.83738716258186E-02 
2409	-3.0863657148424E-03 
2410	 4.62351539730117E-02 
2411	 3.65979202158568E-02 
2412	 2.56155640491546E-02 
2413	 7.30263342074065E-03 
2414	-6.34777734931716E-02 
2415	-7.61607962276001E-02 
2416	-4.92927616128487E-02 
2417	 5.43445765565373E-02 
2418	 9.77675521545471E-02 
2419	 0.011184294077324 
2420	 3.89144696481563E-02 
2421	-3.14740653787027E-04 
2422	-5.12403587442719E-02 
2423	-2.47657563659305E-02 
2424	-6.08073680806739E-02 
2425	-0.153238303688453 
2426	-0.178692470710197 
2427	-0.165257657041851 
2428	-0.156214140531019 
2429	-0.120250444935747 
2430	-0.082283391853927 
2431	-4.62789644471484E-02 
2432	-7.97913855134762E-02 
2433	-0.123404182553272 
2434	-0.125863007246594 
2435	-0.162962556656027 
2436	-0.182429288642729 
2437	-0.15410336765715 
2438	-2.85150945769768E-02 
2439	 2.04064554496384E-02 
2440	 0.040757267836471 
2441	 0.187840631736465 
2442	 0.16019624045738 
2443	-4.31405100961304E-02 
2444	-0.146640308453742 
2445	-0.261008035816183 
2446	-0.538788816650345 
2447	-0.38593484335377 
2448	-0.404402066646098 
2449	-0.748992579717319 
2450	-1.11819729690891 
2451	-2.05311220188251 
2452	-2.98999083284848 
2453	-2.00874979127394 
2454	-1.19370371321368 
2455	-0.824254291268327 
2456	-0.632541833567302 
2457	-0.512244062521786 
2458	-0.849628937672817 
2459	-1.22863542048563 
2460	-0.906285440657031 
2461	-0.395994995570904 
2462	-4.42573909481895E-02 
2463	 7.79367384409576E-02 
2464	 0.456988553617109 
2465	 0.563412000055141 
2466	 0.290235408575061 
2467	 10.0238088727514 
2468	 1.00246309381346 
2469	-0.223972853172634 
2470	-0.439712136554317 
2471	 45.4610415467908 
2472	 5.24056559440412 
2473	 2.83461130746031 
2474	 1.32543591476887 
2475	 4.55098067610438 
2476	-6.35900142708079E-04 
2477	-0.554424327784312 
2478	-0.985634483029538 
2479	-4.17149342190312 
2480	-1.81456292153777 
2481	 8.86800936232044 
2482	-0.740429274671488 
2483	-0.667524136310981 
2484	-2.74392493235345 
2485	 9.71382828263082 
2486	 16.1647845914079 
2487	-2.29889878348998 
2488	-3.55731920906467 
2489	-0.39031287000378 
2490	-0.849084109699984 
2491	-0.462279793821548 
2492	-0.247482608912127 
2493	-0.114522387267199 
2494	-0.8630204003225 
2495	-0.016136227519378 
2496	 5.77830408310368E-02 
2497	 0.120332152957185 
2498	 0.739243066872178 
2499	 0.834012023513489 
2500	 1.62322921347486 
