Wavelength	rt0713east_close200005.asd
350	 8.02079573260233E-02 
351	 8.01802212368107E-02 
352	 7.93908224215433E-02 
353	 7.88402627150306E-02 
354	 7.89558077303026E-02 
355	 7.88007857572855E-02 
356	 0.078283175021192 
357	 7.81338968889069E-02 
358	 7.88180080719902E-02 
359	 7.85751016301519E-02 
360	 7.82351863940484E-02 
361	 7.80688694435768E-02 
362	 7.79106937296226E-02 
363	 7.79449476364386E-02 
364	 7.78493815507213E-02 
365	 7.76303030160846E-02 
366	 7.78788999736054E-02 
367	 7.76891643522562E-02 
368	 7.76515898772995E-02 
369	 0.078236351516298 
370	 7.80587730185035E-02 
371	 7.80069847816924E-02 
372	 7.82333764167918E-02 
373	 7.83681897124634E-02 
374	 7.76468622938124E-02 
375	 7.76231776273334E-02 
376	 7.84335622530175E-02 
377	 0.078025002809709 
378	 7.84869273390978E-02 
379	 7.86470144464867E-02 
380	 7.76420447336617E-02 
381	 7.79360358741358E-02 
382	 7.81121154278157E-02 
383	 7.82666401311436E-02 
384	 7.89721685880095E-02 
385	 7.87551471926882E-02 
386	 7.88440779231272E-02 
387	 7.91821774992283E-02 
388	 7.81855089835915E-02 
389	 7.87617776378262E-02 
390	 7.95676381146494E-02 
391	 7.93715371057964E-02 
392	 7.92790464786277E-02 
393	 7.91571599281089E-02 
394	 7.94132671741014E-02 
395	 8.02004119805832E-02 
396	 7.94944976657964E-02 
397	 7.92354664853872E-02 
398	 7.97041087582277E-02 
399	 7.96371412442725E-02 
400	 7.97459284162537E-02 
401	 7.98690664899345E-02 
402	 7.98525958123184E-02 
403	 7.98186063942103E-02 
404	 7.99702036710702E-02 
405	 8.01107831567377E-02 
406	 8.00229330507954E-02 
407	 8.03266685973261E-02 
408	 8.05362794298922E-02 
409	 8.05105505255621E-02 
410	 8.05140809541157E-02 
411	 8.07526782030156E-02 
412	 8.08978690978972E-02 
413	 8.08071375878466E-02 
414	 0.081017469889885 
415	 8.12451785235449E-02 
416	 8.13799329562521E-02 
417	 8.14162540767672E-02 
418	 0.081515687913621 
419	 0.081798312236089 
420	 8.21397869874434E-02 
421	 8.21848655327963E-02 
422	 8.24491300869398E-02 
423	 8.26590804398726E-02 
424	 8.26597349611223E-02 
425	 8.31126142244624E-02 
426	 8.34193167043942E-02 
427	 8.35749551766944E-02 
428	 0.083854656149898 
429	 0.084283266284482 
430	 0.084687542066677 
431	 0.084948824889089 
432	 8.50450505640026E-02 
433	 8.53560157809744E-02 
434	 8.57546043800364E-02 
435	 8.60638521500906E-02 
436	 8.63286886574296E-02 
437	 8.65736201030276E-02 
438	 8.68503029494258E-02 
439	 8.71998923404041E-02 
440	 0.087460479162371 
441	 8.77262768536373E-02 
442	 8.80646973145594E-02 
443	 0.088469573756489 
444	 8.86982944923772E-02 
445	 8.89058048040604E-02 
446	 8.92641200565028E-02 
447	 8.95471171296376E-02 
448	 8.98625646122219E-02 
449	 9.01594973701723E-02 
450	 9.02963693543522E-02 
451	 9.05644853901039E-02 
452	 9.08527540660957E-02 
453	 9.10640984163133E-02 
454	 9.12364174328263E-02 
455	 9.15894194303527E-02 
456	 9.18825646896915E-02 
457	 9.18560096033099E-02 
458	 9.21207335905641E-02 
459	 9.23624714011325E-02 
460	 9.24634840542716E-02 
461	 9.25576606820983E-02 
462	 0.092876610142866 
463	 9.31875417562072E-02 
464	 9.32967137980919E-02 
465	 9.33672333055392E-02 
466	 9.35697298899758E-02 
467	 9.38048971499457E-02 
468	 9.38938464788701E-02 
469	 9.42322257190014E-02 
470	 9.44874803756065E-02 
471	 9.45613508884124E-02 
472	 9.47525248208656E-02 
473	 9.48477301758519E-02 
474	 9.50336187697077E-02 
475	 9.54403846452614E-02 
476	 9.56570369445299E-02 
477	 0.095747970809817 
478	 9.59392849911832E-02 
479	 9.64817821687804E-02 
480	 9.66167072732956E-02 
481	 9.67212975572025E-02 
482	 9.70634460879874E-02 
483	 9.73799833929919E-02 
484	 9.76185747728046E-02 
485	 9.78663344622974E-02 
486	 9.82499481663957E-02 
487	 9.87679838648743E-02 
488	 9.90682070357086E-02 
489	 9.91928639105674E-02 
490	 9.95588833720992E-02 
491	 9.99148935305637E-02 
492	 0.100289530069231 
493	 0.100689874351487 
494	 0.100917976448097 
495	 0.101189321185545 
496	 0.101598589212399 
497	 0.102124420850083 
498	 0.102335392809711 
499	 0.102723702045739 
500	 0.103373193218942 
501	 0.10359738799441 
502	 0.103905077114756 
503	 0.104298614777307 
504	 0.104671360220258 
505	 0.105070597803528 
506	 0.105553650158753 
507	 0.106109935198443 
508	 0.106664386978506 
509	 0.107010013829815 
510	 0.107389087574173 
511	 0.107949932644987 
512	 0.108462421401971 
513	 0.108954269466346 
514	 0.109438778686193 
515	 0.109941740887586 
516	 0.110601350605911 
517	 0.111093840004473 
518	 0.111401229805217 
519	 0.11192192219716 
520	 0.112520380680237 
521	 0.113090915522508 
522	 0.11356486514612 
523	 0.113942373935074 
524	 0.114504663345092 
525	 0.115180892776026 
526	 0.115674488252966 
527	 0.116197769936958 
528	 0.116769693610205 
529	 0.117367714108033 
530	 0.117949192141805 
531	 0.118531344403888 
532	 0.119146847537727 
533	 0.119794707255391 
534	 0.120237319299317 
535	 0.120763964722984 
536	 0.121440241896279 
537	 0.122041244030778 
538	 0.122562468558163 
539	 0.123124697702936 
540	 0.123790246123233 
541	 0.124315339844207 
542	 0.12486039530836 
543	 0.125455511733771 
544	 0.126048592991551 
545	 0.126619554715183 
546	 0.127261828343625 
547	 0.127964391974567 
548	 0.128483421749484 
549	 0.129051428801587 
550	 0.129637234764171 
551	 0.130163690177728 
552	 0.13084909129242 
553	 0.131488903500623 
554	 0.131994037679022 
555	 0.13243242695529 
556	 0.133002512819133 
557	 0.1336617802881 
558	 0.134297683033423 
559	 0.13483743063909 
560	 0.135238319220346 
561	 0.135623447798995 
562	 0.136186053626959 
563	 0.136644722183782 
564	 0.137158747083641 
565	 0.137722382229837 
566	 0.137882200010782 
567	 0.138115653970942 
568	 0.138449334321198 
569	 0.138774483045403 
570	 0.139241860726601 
571	 0.13962541170313 
572	 0.139876085838952 
573	 0.140153164888727 
574	 0.14035804095494 
575	 0.140580025408608 
576	 0.140901663219774 
577	 0.141270483950567 
578	 0.141562801601774 
579	 0.14177665004101 
580	 0.141994321226021 
581	 0.142273915851759 
582	 0.142536410489609 
583	 0.142671469047548 
584	 0.142525219497583 
585	 0.142407492412138 
586	 0.142236295379451 
587	 0.14186235626401 
588	 0.141683474567663 
589	 0.141549711485193 
590	 0.141427553151895 
591	 0.141433113869874 
592	 0.141510429428619 
593	 0.141519909487528 
594	 0.141399265775242 
595	 0.141371117958468 
596	 0.141280112990015 
597	 0.141156361494012 
598	 0.141111120910449 
599	 0.140951414843116 
600	 0.140850055773484 
601	 0.140861546368705 
602	 0.140767024269603 
603	 0.140620015963939 
604	 0.140571739059712 
605	 0.140717378455297 
606	 0.140666329399479 
607	 0.140731517748333 
608	 0.140898248074214 
609	 0.140797298038953 
610	 0.140750617304383 
611	 0.140818271836443 
612	 0.140955270478528 
613	 0.140986111902055 
614	 0.140999952081844 
615	 0.141007159302943 
616	 0.14099607301635 
617	 0.141160488904902 
618	 0.141218745250623 
619	 0.141133626713358 
620	 0.141354305553119 
621	 0.141267269669575 
622	 0.141061181894597 
623	 0.141110203994036 
624	 0.141335484181538 
625	 0.141338791033151 
626	 0.141103121761259 
627	 0.140988747340935 
628	 0.141076586185054 
629	 0.141268825257858 
630	 0.141436382849194 
631	 0.141494420505338 
632	 0.141491812447572 
633	 0.141426063544817 
634	 0.141323748018431 
635	 0.141615934521846 
636	 0.141766354099345 
637	 0.141638725310323 
638	 0.141795090873173 
639	 0.141908588844986 
640	 0.141901911980645 
641	 0.141798469861255 
642	 0.141746770446428 
643	 0.141590041340718 
644	 0.14125392497718 
645	 0.140766259056587 
646	 0.140596183171419 
647	 0.140457120516773 
648	 0.140222196689984 
649	 0.140546069897594 
650	 0.140448810658179 
651	 0.140132328973004 
652	 0.140142957186757 
653	 0.139964539886791 
654	 0.139652196848299 
655	 0.139274917922278 
656	 0.13892685324531 
657	 0.138761614473611 
658	 0.13861541272819 
659	 0.138362339801634 
660	 0.138200064587352 
661	 0.13796522059142 
662	 0.137692881150682 
663	 0.1375232497669 
664	 0.137228748739819 
665	 0.137071445219344 
666	 0.137125279550522 
667	 0.137040025926506 
668	 0.136777278753078 
669	 0.136597770018497 
670	 0.136735907584646 
671	 0.136711550078019 
672	 0.13672414147557 
673	 0.136797888225291 
674	 0.136779934383779 
675	 0.136911838037761 
676	 0.136989877984436 
677	 0.136947294036428 
678	 0.137296461328442 
679	 0.137563965073464 
680	 0.137689084912356 
681	 0.137811482176546 
682	 0.138033301236168 
683	 0.138249496862585 
684	 0.138302374887666 
685	 0.137970067667518 
686	 0.137777258826918 
687	 0.137840580672823 
688	 0.138061717478788 
689	 0.138369035598644 
690	 0.1383607657754 
691	 0.138015034502612 
692	 0.137574263943958 
693	 0.13741771518945 
694	 0.137572291444256 
695	 0.137872896066211 
696	 0.13808450534046 
697	 0.137797136371561 
698	 0.137150415782199 
699	 0.136543775420816 
700	 0.136375179877021 
701	 0.136256249480859 
702	 0.136082418968222 
703	 0.135984432500086 
704	 0.135544658168709 
705	 0.135044612583467 
706	 0.134652760140292 
707	 0.134004094775852 
708	 0.133444120818058 
709	 0.132839379848111 
710	 0.131957426586411 
711	 0.131059300164821 
712	 0.130048244269532 
713	 0.128838700295412 
714	 0.127328420260979 
715	 0.125294744632561 
716	 0.122780527826497 
717	 0.12037235430769 
718	 0.118919853735584 
719	 0.118322546271068 
720	 0.117877265149148 
721	 0.116891807276871 
722	 0.115387970016727 
723	 0.113265197929016 
724	 0.111145715829816 
725	 0.109956011733745 
726	 0.108429336760039 
727	 0.10666429567593 
728	 0.104925763196839 
729	 0.102902099277237 
730	 0.101032131291847 
731	 9.96656428969591E-02 
732	 9.87319705922954E-02 
733	 9.72636925784846E-02 
734	 9.58604587588022E-02 
735	 9.48250728722249E-02 
736	 9.39496073373709E-02 
737	 9.35417130428776E-02 
738	 9.32659313660842E-02 
739	 9.28574848126497E-02 
740	 9.26644601288343E-02 
741	 9.27564216982647E-02 
742	 9.28502745487401E-02 
743	 9.25817672699065E-02 
744	 9.25022471497893E-02 
745	 9.25153365022828E-02 
746	 9.25710023898051E-02 
747	 9.27701141272268E-02 
748	 9.26885588614931E-02 
749	 9.25463117890209E-02 
750	 9.25905723501863E-02 
751	 9.25817139558582E-02 
752	 9.24454179630142E-02 
753	 9.23044210870311E-02 
754	 9.23638112440617E-02 
755	 9.25504126782495E-02 
756	 9.24431730180909E-02 
757	 9.19444596339972E-02 
758	 9.13273569509593E-02 
759	 9.04615857079704E-02 
760	 8.96469301634658E-02 
761	 0.089607108359178 
762	 8.97879782314783E-02 
763	 9.05677446959769E-02 
764	 9.15304499852997E-02 
765	 9.21780644935204E-02 
766	 0.092466057216492 
767	 9.27244348578423E-02 
768	 9.30494598979512E-02 
769	 9.33244508239962E-02 
770	 9.34952273182677E-02 
771	 9.36491980158088E-02 
772	 9.38690961726983E-02 
773	 9.41482011295387E-02 
774	 9.43817358180911E-02 
775	 9.45490288908862E-02 
776	 9.47003911959321E-02 
777	 9.50072471846762E-02 
778	 9.53208488322542E-02 
779	 9.56064143289953E-02 
780	 9.59585237439009E-02 
781	 9.61481445195611E-02 
782	 0.096395252242699 
783	 9.68155418228454E-02 
784	 9.71179452253147E-02 
785	 9.72753038629709E-02 
786	 9.73633852078814E-02 
787	 9.75276677898753E-02 
788	 0.09796458962625 
789	 9.83967787804064E-02 
790	 9.87741543489434E-02 
791	 9.92672841646951E-02 
792	 0.100038225106104 
793	 0.100385142350218 
794	 0.100230635013971 
795	 0.100668975692147 
796	 0.10100411827144 
797	 0.101301209607335 
798	 0.101750632235656 
799	 0.102250454409355 
800	 0.102269833285332 
801	 0.102211963174073 
802	 0.10283381323219 
803	 0.103149409969345 
804	 0.103361684752324 
805	 0.10360287334327 
806	 0.103800999373859 
807	 0.103603755061177 
808	 0.103204639844555 
809	 0.102811564159042 
810	 0.102362047278569 
811	 0.101602773097775 
812	 0.100672302486481 
813	 9.99007126480799E-02 
814	 9.92835891141892E-02 
815	 9.88753103659143E-02 
816	 9.84739810444783E-02 
817	 9.78343238070363E-02 
818	 9.80527987084758E-02 
819	 9.80431299683516E-02 
820	 9.72595238591896E-02 
821	 9.59448946781863E-02 
822	 9.49524794779838E-02 
823	 9.39855805700519E-02 
824	 9.27018769038749E-02 
825	 9.13469338050811E-02 
826	 8.97966849015243E-02 
827	 8.81987880673082E-02 
828	 8.67919369009913E-02 
829	 8.49451829404988E-02 
830	 8.30419896995579E-02 
831	 8.17084472092412E-02 
832	 8.15036056071672E-02 
833	 0.080812421200999 
834	 0.079964765617721 
835	 7.93023197791942E-02 
836	 7.88589696241234E-02 
837	 7.87117767414992E-02 
838	 7.85835959757746E-02 
839	 7.82891436305355E-02 
840	 7.80749427916725E-02 
841	 7.77483951504196E-02 
842	 7.72940215074327E-02 
843	 7.68646878077675E-02 
844	 7.70794806490439E-02 
845	 7.67575877466791E-02 
846	 7.61868362775399E-02 
847	 7.64809243270325E-02 
848	 0.076117563774309 
849	 7.56237280928346E-02 
850	 7.53398865420333E-02 
851	 7.50627830773638E-02 
852	 7.49600216869791E-02 
853	 7.47570805843613E-02 
854	 7.43676819351377E-02 
855	 7.42718135065445E-02 
856	 7.40834572162823E-02 
857	 7.37633175792455E-02 
858	 7.34797321773024E-02 
859	 7.38285043972505E-02 
860	 7.36805080763302E-02 
861	 0.073055803312252 
862	 7.25940161093157E-02 
863	 7.25808072949437E-02 
864	 7.25514437098264E-02 
865	 7.22381764426128E-02 
866	 7.17222610689263E-02 
867	 7.20332659088074E-02 
868	 7.18166814072002E-02 
869	 7.09109224700134E-02 
870	 0.071030330145126 
871	 7.07820850163014E-02 
872	 7.03186659159398E-02 
873	 6.99453436146377E-02 
874	 6.95423951865601E-02 
875	 6.94065823072139E-02 
876	 6.92225760897455E-02 
877	 6.86711658800954E-02 
878	 6.80890366837099E-02 
879	 6.79765081692237E-02 
880	 0.068042061288852 
881	 6.76921337934682E-02 
882	 6.70992033852221E-02 
883	 6.65795723504407E-02 
884	 6.61978855569513E-02 
885	 6.58353231474818E-02 
886	 6.56852623977956E-02 
887	 6.55329426349487E-02 
888	 6.52055886220474E-02 
889	 6.46527707998588E-02 
890	 6.40606416354892E-02 
891	 6.36656613672398E-02 
892	 6.35471291053454E-02 
893	 6.34577639299778E-02 
894	 6.25463357347893E-02 
895	 6.14584659091949E-02 
896	 0.061035756443082 
897	 6.09042624303585E-02 
898	 0.060222881166272 
899	 5.95717909242972E-02 
900	 5.96679237140626E-02 
901	 5.97722363416599E-02 
902	 5.97080479447511E-02 
903	 0.059417990944868 
904	 5.88744074128739E-02 
905	 5.77058240712941E-02 
906	 5.79622756901747E-02 
907	 0.05886434845826 
908	 5.78085339924672E-02 
909	 5.68995401299462E-02 
910	 5.65640860317045E-02 
911	 5.67294831963023E-02 
912	 5.69794024491893E-02 
913	 0.057143013072524 
914	 0.05645098182071 
915	 5.53799747842331E-02 
916	 5.54815295959921E-02 
917	 5.35123404759968E-02 
918	 5.28312665868668E-02 
919	 5.39354245429456E-02 
920	 0.052807936077308 
921	 0.053164151834712 
922	 5.29124638851787E-02 
923	 5.11648191059095E-02 
924	 5.19505716407295E-02 
925	 5.17861278852896E-02 
926	 5.15050861002646E-02 
927	 5.19515534178099E-02 
928	 4.80697918331474E-02 
929	 4.95471038259559E-02 
930	 5.24693573632306E-02 
931	 4.58111699781545E-02 
932	 4.53960751811743E-02 
933	 5.11461453301467E-02 
934	 5.41265883157233E-02 
935	 4.79412276579085E-02 
936	 5.09778553902679E-02 
937	 4.91741635808626E-02 
938	 4.58915360054326E-02 
939	 4.69071862886395E-02 
940	 4.68735847032383E-02 
941	 4.43917620707368E-02 
942	 4.04015268023548E-02 
943	 3.77799141338556E-02 
944	 4.21869725958191E-02 
945	 4.44278318277934E-02 
946	 4.11674899775292E-02 
947	 3.62021290421982E-02 
948	 4.29503817857097E-02 
949	 4.66045129737381E-02 
950	 4.36832875445539E-02 
951	 3.97516869777264E-02 
952	 3.85129481131814E-02 
953	 3.90572666940284E-02 
954	 3.85552680837955E-02 
955	 0.035396113743081 
956	 4.22329673306472E-02 
957	 3.91761577617644E-02 
958	 3.34333668388498E-02 
959	 4.50568304165454E-02 
960	 4.19855355373615E-02 
961	 4.11029868306907E-02 
962	 4.44336008903146E-02 
963	 0.042629669476616 
964	 4.14186911926432E-02 
965	 4.20449621530615E-02 
966	 4.36959998022929E-02 
967	 4.46436312792693E-02 
968	 4.51410744205985E-02 
969	 4.34041290526388E-02 
970	 4.21716868236461E-02 
971	 4.63727766775928E-02 
972	 4.55175614407792E-02 
973	 4.15746875093931E-02 
974	 4.01029602103857E-02 
975	 4.61299222182198E-02 
976	 4.41243952408771E-02 
977	 4.22868438349151E-02 
978	 4.28455688010118E-02 
979	 4.13642264855831E-02 
980	 4.38348873510488E-02 
981	 4.41309632652468E-02 
982	 4.29458027112357E-02 
983	 4.57575240777328E-02 
984	 0.045259571388377 
985	 4.40910785759948E-02 
986	 4.38973470297273E-02 
987	 4.44669412199382E-02 
988	 4.41394835282516E-02 
989	 4.41103844039505E-02 
990	 4.47516423446067E-02 
991	 4.52641050236654E-02 
992	 4.26316859061582E-02 
993	 4.45675952235325E-02 
994	 0.047678596956366 
995	 0.043243675518866 
996	 4.24085845801035E-02 
997	 0.045512687522165 
998	 4.81831185402045E-02 
999	 4.56244188619989E-02 
1000	 0.0436542947204 
1001	 3.77882129294134E-02 
1002	 3.84165084861347E-02 
1003	 3.85126022388212E-02 
1004	 3.86344716444155E-02 
1005	 3.86324028773654E-02 
1006	 3.82846658720658E-02 
1007	 3.80882022088647E-02 
1008	 3.85896171110491E-02 
1009	 3.90399941459661E-02 
1010	 3.92506627727708E-02 
1011	 3.95895826422726E-02 
1012	 3.96337626454689E-02 
1013	 3.97339372687696E-02 
1014	 3.94710878434906E-02 
1015	 3.89896420237305E-02 
1016	 3.88053869038767E-02 
1017	 3.82157629189337E-02 
1018	 3.79817997574625E-02 
1019	 3.83515237536231E-02 
1020	 3.85533201538929E-02 
1021	 3.85829490893704E-02 
1022	 3.88304444522566E-02 
1023	 3.94362057398581E-02 
1024	 0.040019950526796 
1025	 4.05039624971658E-02 
1026	 4.06708410656438E-02 
1027	 0.040565335635661 
1028	 3.98268507986256E-02 
1029	 3.95861616593553E-02 
1030	 3.92139323245177E-02 
1031	 3.93036303551493E-02 
1032	 0.039905139110261 
1033	 4.01915036772133E-02 
1034	 4.07263810740443E-02 
1035	 4.08527251892278E-02 
1036	 4.04490850166962E-02 
1037	 4.04366314822081E-02 
1038	 4.04584671932649E-02 
1039	 4.04782061046298E-02 
1040	 4.08382580112347E-02 
1041	 4.10706933975929E-02 
1042	 4.13957151639155E-02 
1043	 4.18329473389766E-02 
1044	 4.20249708809008E-02 
1045	 0.042184534245904 
1046	 4.22832502804854E-02 
1047	 0.042183868444032 
1048	 4.21175320879914E-02 
1049	 4.21339860341679E-02 
1050	 4.20498904310314E-02 
1051	 4.15664135966705E-02 
1052	 4.15522026788247E-02 
1053	 4.18945956403946E-02 
1054	 0.042018760022426 
1055	 4.20701499060364E-02 
1056	 0.042464721656144 
1057	 0.042969871244572 
1058	 0.043720379690067 
1059	 4.36572078076963E-02 
1060	 0.043493091045669 
1061	 0.04337068400898 
1062	 4.23325414697133E-02 
1063	 4.21696316783098E-02 
1064	 4.29345779085011E-02 
1065	 4.30167162841335E-02 
1066	 4.27321033148941E-02 
1067	 0.042806461383164 
1068	 4.30079216915098E-02 
1069	 4.30113127915688E-02 
1070	 4.34020210556723E-02 
1071	 4.32946538413065E-02 
1072	 4.21510778303603E-02 
1073	 0.041716108466865 
1074	 4.19593671450981E-02 
1075	 4.26421405649004E-02 
1076	 4.30242801431906E-02 
1077	 4.44740026799718E-02 
1078	 4.44556707770788E-02 
1079	 4.32808099619172E-02 
1080	 4.26782667520522E-02 
1081	 0.041512994633974 
1082	 0.041216080993977 
1083	 0.041389387966974 
1084	 4.14590823494047E-02 
1085	 4.25678879947205E-02 
1086	 0.042535143281288 
1087	 4.13656678280298E-02 
1088	 4.09785679532208E-02 
1089	 4.04561168547192E-02 
1090	 0.039865138683057 
1091	 0.039635862586638 
1092	 4.03103124221562E-02 
1093	 4.01954166697148E-02 
1094	 3.93103850314028E-02 
1095	 3.94059791717201E-02 
1096	 4.03985592527629E-02 
1097	 4.01908660557265E-02 
1098	 3.99223276701693E-02 
1099	 3.93133167038152E-02 
1100	 3.64516177953667E-02 
1101	 3.59284919351321E-02 
1102	 3.80666127512766E-02 
1103	 0.038424024507695 
1104	 3.95070517137023E-02 
1105	 3.86266042714318E-02 
1106	 3.82745687236042E-02 
1107	 3.73259548479924E-02 
1108	 3.59644810416372E-02 
1109	 3.74644918829738E-02 
1110	 3.80304661732075E-02 
1111	 3.73206261624362E-02 
1112	 3.81426266621407E-02 
1113	 4.21783075183241E-02 
1114	 4.30341853169359E-02 
1115	 4.22461986605513E-02 
1116	 4.18731845657436E-02 
1117	 3.77209141783426E-02 
1118	 3.64968268266796E-02 
1119	 3.62429397890332E-02 
1120	 3.72943540712707E-02 
1121	 4.31035106867683E-02 
1122	 5.32596155222199E-02 
1123	 5.23926542100621E-02 
1124	 5.03142379467505E-02 
1125	 4.37832598903866E-02 
1126	 3.17558986087141E-02 
1127	 2.96572751466025E-02 
1128	 3.53276173577119E-02 
1129	 3.81043050792788E-02 
1130	 4.58772143249582E-02 
1131	 0.042716986571032 
1132	 0.030731147976366 
1133	 3.12360434658209E-02 
1134	 3.45431206237454E-02 
1135	 3.36140028445878E-02 
1136	 3.68481935722785E-02 
1137	 0.039111561578297 
1138	 3.94163293873731E-02 
1139	 3.50736808922415E-02 
1140	 3.71068096524215E-02 
1141	 3.83440193271234E-02 
1142	 3.68901274091397E-02 
1143	 3.87260756883948E-02 
1144	 4.03571419582654E-02 
1145	 3.68117929491824E-02 
1146	 3.39478565780986E-02 
1147	 3.62878208697398E-02 
1148	 3.54838156284088E-02 
1149	 3.55618868600292E-02 
1150	 3.65797970751453E-02 
1151	 3.81729043896976E-02 
1152	 3.66927120622741E-02 
1153	 3.52295309099704E-02 
1154	 3.52624141744087E-02 
1155	 3.46909199993427E-02 
1156	 3.39280366072927E-02 
1157	 3.64461236921114E-02 
1158	 3.63239542481956E-02 
1159	 3.36639190675981E-02 
1160	 3.31032588072265E-02 
1161	 3.35806071089135E-02 
1162	 3.40515732047204E-02 
1163	 3.56543758466911E-02 
1164	 3.66974269704777E-02 
1165	 0.035543245742379 
1166	 3.45695522347845E-02 
1167	 3.46181799179941E-02 
1168	 3.43014389915517E-02 
1169	 3.43045443093633E-02 
1170	 3.49178267582671E-02 
1171	 3.53678064660434E-02 
1172	 3.59337951613744E-02 
1173	 3.61880254533481E-02 
1174	 3.65177766080533E-02 
1175	 3.64949847226455E-02 
1176	 3.63637467832493E-02 
1177	 3.66674146948035E-02 
1178	 3.74023947108642E-02 
1179	 3.77454346310575E-02 
1180	 3.76936535288866E-02 
1181	 3.75375394689643E-02 
1182	 3.66489341913814E-02 
1183	 3.60097666233679E-02 
1184	 0.036325704066129 
1185	 3.65458748900594E-02 
1186	 3.62422022302645E-02 
1187	 3.60191574101754E-02 
1188	 3.57987590854601E-02 
1189	 3.55005459270709E-02 
1190	 3.59112665655384E-02 
1191	 3.64382550224751E-02 
1192	 3.67735229236162E-02 
1193	 3.68518557088646E-02 
1194	 3.70541646893426E-02 
1195	 3.72082867646119E-02 
1196	 3.72757537767214E-02 
1197	 3.73898241417891E-02 
1198	 3.70922818166676E-02 
1199	 3.69828241872441E-02 
1200	 3.74181342528182E-02 
1201	 3.70377526262964E-02 
1202	 3.62912954055086E-02 
1203	 3.62439718425487E-02 
1204	 3.66052165360699E-02 
1205	 3.70362117147802E-02 
1206	 3.71807922771146E-02 
1207	 3.72222097993674E-02 
1208	 0.037031632286862 
1209	 3.68174234581526E-02 
1210	 3.72154454571564E-02 
1211	 3.73487343316702E-02 
1212	 3.67735716675122E-02 
1213	 3.66370916446474E-02 
1214	 3.67700805081364E-02 
1215	 3.73101763911476E-02 
1216	 3.75516756197298E-02 
1217	 3.73739069613906E-02 
1218	 3.71967421628069E-02 
1219	 3.72416908564875E-02 
1220	 3.71089161981076E-02 
1221	 3.73285119392186E-02 
1222	 0.03780052723702 
1223	 3.75805895820728E-02 
1224	 3.71556079099804E-02 
1225	 3.71498742104359E-02 
1226	 3.72559194981019E-02 
1227	 0.036807635008842 
1228	 3.67394414657105E-02 
1229	 3.75311079216347E-02 
1230	 3.79254184925893E-02 
1231	 3.78776102157386E-02 
1232	 3.78490427929955E-02 
1233	 0.037980697184712 
1234	 3.77821399257582E-02 
1235	 3.75224344501027E-02 
1236	 3.74828970786686E-02 
1237	 3.77059611468733E-02 
1238	 3.78142241501263E-02 
1239	 3.77230500460562E-02 
1240	 3.81131022025554E-02 
1241	 3.81905406935747E-02 
1242	 3.80139802806728E-02 
1243	 0.037975097823459 
1244	 3.78316500623287E-02 
1245	 3.77212618920695E-02 
1246	 3.75921052672642E-02 
1247	 3.75537126640247E-02 
1248	 3.77834043434251E-02 
1249	 3.78609820069623E-02 
1250	 3.76133474083431E-02 
1251	 3.72275943883999E-02 
1252	 3.72790998251484E-02 
1253	 0.037835422127707 
1254	 3.81059742943688E-02 
1255	 3.79004497921241E-02 
1256	 3.77803978016857E-02 
1257	 3.72004720039418E-02 
1258	 0.036867976960952 
1259	 3.66935815288185E-02 
1260	 3.69107119751519E-02 
1261	 3.73768185608844E-02 
1262	 3.74711482081434E-02 
1263	 3.78124624934754E-02 
1264	 3.77874965921095E-02 
1265	 3.73390754244831E-02 
1266	 3.74095500951841E-02 
1267	 3.75099480522639E-02 
1268	 3.72374076525957E-02 
1269	 3.73038538717526E-02 
1270	 3.77119735524956E-02 
1271	 3.76961454721723E-02 
1272	 0.037702331201245 
1273	 3.81422226782173E-02 
1274	 3.77864569459399E-02 
1275	 3.71759654553796E-02 
1276	 3.76303624685628E-02 
1277	 3.78876539336953E-02 
1278	 3.74716157246802E-02 
1279	 3.77611616003807E-02 
1280	 3.83227093370598E-02 
1281	 3.83660994044928E-02 
1282	 3.79328988237672E-02 
1283	 3.78192931121131E-02 
1284	 3.74753772258877E-02 
1285	 3.74741128793561E-02 
1286	 3.80260120827823E-02 
1287	 3.79949188630565E-02 
1288	 3.75336342605479E-02 
1289	 3.76665397838265E-02 
1290	 3.79266983673042E-02 
1291	 3.80194726339192E-02 
1292	 3.77601245637526E-02 
1293	 3.73564421887697E-02 
1294	 3.69874974483926E-02 
1295	 3.65517319935663E-02 
1296	 3.68608564947001E-02 
1297	 3.74381147649085E-02 
1298	 3.69982034036969E-02 
1299	 3.68655007826222E-02 
1300	 3.72287295400709E-02 
1301	 3.71592164532348E-02 
1302	 3.70491417574464E-02 
1303	 3.68316471872484E-02 
1304	 3.70664020153624E-02 
1305	 3.75239578912876E-02 
1306	 3.72072104530345E-02 
1307	 0.036254836719327 
1308	 3.63406326283104E-02 
1309	 3.65764527140488E-02 
1310	 3.60955302752443E-02 
1311	 3.58107670622466E-02 
1312	 3.61001198920737E-02 
1313	 3.61071501061502E-02 
1314	 3.55257654170626E-02 
1315	 0.035208964497138 
1316	 3.57309216231256E-02 
1317	 3.58476723549012E-02 
1318	 3.54783363963848E-02 
1319	 3.69338348833865E-02 
1320	 3.72017477807543E-02 
1321	 3.50151119525946E-02 
1322	 3.34349785839143E-02 
1323	 0.035147808774945 
1324	 3.61731680774662E-02 
1325	 3.56470482403592E-02 
1326	 0.035686412512112 
1327	 3.64409979717145E-02 
1328	 3.62533480556351E-02 
1329	 3.61145242885517E-02 
1330	 3.67855855488049E-02 
1331	 3.50842321844248E-02 
1332	 3.28735149144747E-02 
1333	 3.31406730801646E-02 
1334	 3.39226239697812E-02 
1335	 3.52266413272873E-02 
1336	 3.80269474524121E-02 
1337	 0.038257107566687 
1338	 3.71803098483288E-02 
1339	 3.75171927325739E-02 
1340	 3.65943567688209E-02 
1341	 3.65690738125608E-02 
1342	 3.87187294830117E-02 
1343	 4.06972102824744E-02 
1344	 4.35815605191188E-02 
1345	 4.40099235778015E-02 
1346	 0.042083015909279 
1347	 4.50377424569053E-02 
1348	 4.68621309473592E-02 
1349	 4.82839695572176E-02 
1350	 6.69016052816411E-02 
1351	 8.57320091778824E-02 
1352	 8.71635135280443E-02 
1353	 9.66698666087364E-02 
1354	 0.111662353371351 
1355	 0.133171285870869 
1356	 0.115319786434027 
1357	 0.16177398159326 
1358	 0.309074817406246 
1359	 0.533247727654916 
1360	 0.567300715060644 
1361	 0.472579984925077 
1362	 0.592136369766653 
1363	 0.544185636284891 
1364	 0.340894858824836 
1365	 0.541735705448116 
1366	 1.56502871113687 
1367	 1.44516246576919 
1368	 1.48505481056343 
1369	 2.20877646257911 
1370	 2.12697676684274 
1371	 0.930441691064423 
1372	 0.921535302569918 
1373	 2.56469484692261 
1374	 1.98263487538397 
1375	 0.738599934318695 
1376	 0.779550568194429 
1377	 1.12598529427892 
1378	 0.929943860523404 
1379	 0.959714804515496 
1380	 1.08537005197576 
1381	 0.564992657348718 
1382	 0.358597888531787 
1383	 0.927307424635424 
1384	 1.75232672359351 
1385	 2.26434158923652 
1386	 1.46581323356436 
1387	 0.514961047095316 
1388	 0.459351757728163 
1389	 0.326202071561597 
1390	 0.424815219726031 
1391	 2.86358253575868 
1392	 5.39613886002884 
1393	 7.08955812540601 
1394	 13.1924645641118 
1395	 1.65027556115167 
1396	 1.76286969381075 
1397	 3.25946804691449 
1398	 0.976455627955763 
1399	 0.924176232204153 
1400	 1.13986039073637 
1401	 1.14616325772718 
1402	 1.46742240424848 
1403	 2.02698915634456 
1404	 3.35370012537935 
1405	 4.10393720354596 
1406	 1.57725609222224 
1407	 0.874150126152885 
1408	 0.432279183028337 
1409	 0.46618411858217 
1410	 0.543529607301157 
1411	 0.757088219637396 
1412	 2.99457098574218 
1413	 2.7943677135361 
1414	 0.993841507905102 
1415	 0.638494989609455 
1416	 0.341715157568197 
1417	 0.253606852544604 
1418	 0.451240208552011 
1419	 0.474056230830017 
1420	 0.399856824498257 
1421	 0.321181527216313 
1422	 0.19844254692329 
1423	 0.1672465213703 
1424	 0.137476035281166 
1425	 0.130688691094689 
1426	 0.197960091913235 
1427	 0.213009381531764 
1428	 0.201692431423722 
1429	 0.176559651329053 
1430	 0.118727354476554 
1431	 0.107373943341633 
1432	 0.110919530422109 
1433	 0.108509783985151 
1434	 0.136243056262305 
1435	 0.137709724715096 
1436	 0.125782110731711 
1437	 0.104774834562222 
1438	 5.72705475781148E-02 
1439	 5.84079568699908E-02 
1440	 8.11369379657427E-02 
1441	 7.59940203147978E-02 
1442	 5.32163028835825E-02 
1443	 6.76843846168241E-02 
1444	 8.60999343454929E-02 
1445	 5.87694634049405E-02 
1446	 0.050227281459515 
1447	 6.37561034963408E-02 
1448	 5.74499319482166E-02 
1449	 5.63639109581699E-02 
1450	 6.65286448276412E-02 
1451	 5.43962950644193E-02 
1452	 3.73167256417376E-02 
1453	 3.17573831954685E-02 
1454	 3.13725527475157E-02 
1455	 2.92316105050866E-02 
1456	 2.86045978849368E-02 
1457	 3.48168756139428E-02 
1458	 3.76717814687611E-02 
1459	 3.77106916059922E-02 
1460	 3.59484765981871E-02 
1461	 3.47224621806397E-02 
1462	 3.63814973007356E-02 
1463	 3.61915501636094E-02 
1464	 3.44487402713865E-02 
1465	 3.72856602588907E-02 
1466	 3.87881032634669E-02 
1467	 3.33990964051962E-02 
1468	 3.06114020693858E-02 
1469	 3.23367891915135E-02 
1470	 0.034451745733047 
1471	 3.45692655280602E-02 
1472	 3.36451422536123E-02 
1473	 3.45736004177603E-02 
1474	 0.03683260653252 
1475	 4.04380371935965E-02 
1476	 3.84426303207565E-02 
1477	 3.42927352275136E-02 
1478	 3.50531584504546E-02 
1479	 3.34211834798254E-02 
1480	 3.18871002509151E-02 
1481	 0.034133923515831 
1482	 3.62127260468978E-02 
1483	 0.035879332094498 
1484	 3.60382284550744E-02 
1485	 4.11522056539598E-02 
1486	 3.99886374448663E-02 
1487	 3.23930277116319E-02 
1488	 3.17480217821058E-02 
1489	 3.25323683749069E-02 
1490	 3.24679876389572E-02 
1491	 3.50460313614512E-02 
1492	 3.61388855869851E-02 
1493	 0.035852823244321 
1494	 3.58075554508858E-02 
1495	 0.035779278363196 
1496	 3.58631171054325E-02 
1497	 3.56027256428405E-02 
1498	 3.55322076516616E-02 
1499	 0.036494282136697 
1500	 3.61946655709016E-02 
1501	 3.38700126068253E-02 
1502	 3.40117015142845E-02 
1503	 3.58465989724093E-02 
1504	 3.59682461577941E-02 
1505	 3.60424723019204E-02 
1506	 3.69662555384006E-02 
1507	 3.69484283335469E-02 
1508	 3.60779182394144E-02 
1509	 3.59197621808214E-02 
1510	 3.61588194319089E-02 
1511	 3.63328975976594E-02 
1512	 3.63070199669398E-02 
1513	 3.63779619685718E-02 
1514	 3.63610070414858E-02 
1515	 3.64955102520098E-02 
1516	 3.73112437316773E-02 
1517	 3.74670340521275E-02 
1518	 3.72548629034634E-02 
1519	 0.036804822813571 
1520	 3.56195802449372E-02 
1521	 3.55311143116233E-02 
1522	 3.62214295967665E-02 
1523	 3.66804655314426E-02 
1524	 3.72539689058946E-02 
1525	 3.73520117555382E-02 
1526	 3.76857347112035E-02 
1527	 0.038354373133605 
1528	 3.82539772004995E-02 
1529	 3.80719312496474E-02 
1530	 3.79497134162986E-02 
1531	 3.79329545315206E-02 
1532	 3.82668130322583E-02 
1533	 0.038189150368727 
1534	 0.038367680171445 
1535	 3.90044345018346E-02 
1536	 3.86032375700445E-02 
1537	 3.78175430013385E-02 
1538	 0.037992603208301 
1539	 3.81448553910643E-02 
1540	 3.78618578702448E-02 
1541	 3.79215140259358E-02 
1542	 3.81545010337243E-02 
1543	 3.81807223614364E-02 
1544	 3.78984020220411E-02 
1545	 3.78698071378203E-02 
1546	 3.81700219281058E-02 
1547	 3.78914629192977E-02 
1548	 3.76946092621276E-02 
1549	 0.037996484332195 
1550	 3.81461878629838E-02 
1551	 0.038211488493621 
1552	 3.85122971324863E-02 
1553	 3.86769042131072E-02 
1554	 3.80280444789304E-02 
1555	 0.037745922911717 
1556	 3.81041627876446E-02 
1557	 3.81493354079646E-02 
1558	 3.84463885462841E-02 
1559	 3.89079455121184E-02 
1560	 3.87625530946531E-02 
1561	 3.83136447556161E-02 
1562	 3.84771643268622E-02 
1563	 3.90361777693896E-02 
1564	 3.89956427657782E-02 
1565	 3.83053639144311E-02 
1566	 3.81886285952614E-02 
1567	 3.88729778424304E-02 
1568	 3.87710805195722E-02 
1569	 3.83610768875838E-02 
1570	 3.88906748638871E-02 
1571	 3.93045219909693E-02 
1572	 3.89670577291637E-02 
1573	 0.038813351309797 
1574	 3.91078477293783E-02 
1575	 3.87398921557964E-02 
1576	 3.81638364287091E-02 
1577	 3.86839121153853E-02 
1578	 3.92622639859206E-02 
1579	 3.91391696613519E-02 
1580	 3.87402065062654E-02 
1581	 3.82540300895226E-02 
1582	 3.82342800702397E-02 
1583	 0.03856935098062 
1584	 3.86976813775222E-02 
1585	 3.86365303368981E-02 
1586	 3.84305463056724E-02 
1587	 3.80004540696463E-02 
1588	 3.80280746847097E-02 
1589	 3.87208373260889E-02 
1590	 3.86929062648067E-02 
1591	 3.85507650458804E-02 
1592	 3.92194199601464E-02 
1593	 3.91846892316412E-02 
1594	 3.90059833878601E-02 
1595	 3.94314451711668E-02 
1596	 3.89427985507359E-02 
1597	 3.84191502977618E-02 
1598	 3.87122554810768E-02 
1599	 3.82945613401381E-02 
1600	 3.75957520790621E-02 
1601	 3.79181276494223E-02 
1602	 3.80503702762102E-02 
1603	 3.76998242367685E-02 
1604	 3.83680969749816E-02 
1605	 3.92316283115129E-02 
1606	 3.88230036334068E-02 
1607	 3.76869977300817E-02 
1608	 3.74416358597889E-02 
1609	 0.03812608131707 
1610	 3.82627442820932E-02 
1611	 3.84804830099835E-02 
1612	 3.89621304318111E-02 
1613	 3.81728625660505E-02 
1614	 3.78894248457019E-02 
1615	 3.92753858667125E-02 
1616	 0.039349539029409 
1617	 3.81097219589078E-02 
1618	 0.038069797213904 
1619	 3.84875353933684E-02 
1620	 3.88994191675253E-02 
1621	 3.97964493633112E-02 
1622	 3.98402820148766E-02 
1623	 3.92212597356332E-02 
1624	 3.91648569419033E-02 
1625	 3.88843174109904E-02 
1626	 3.81857186748922E-02 
1627	 3.81455375005497E-02 
1628	 3.80953616573201E-02 
1629	 3.84735901959353E-02 
1630	 3.97473060648993E-02 
1631	 4.00491624021619E-02 
1632	 4.00834867332718E-02 
1633	 4.00000697417947E-02 
1634	 3.91057205542287E-02 
1635	 3.90035510997854E-02 
1636	 3.91993421931274E-02 
1637	 3.87695508745025E-02 
1638	 3.88442357381949E-02 
1639	 3.92081591133799E-02 
1640	 3.88727148699103E-02 
1641	 3.90462200181436E-02 
1642	 3.95405213368323E-02 
1643	 3.86161690100887E-02 
1644	 3.81318140618207E-02 
1645	 3.84772508914483E-02 
1646	 3.80621163631105E-02 
1647	 0.038504214866061 
1648	 3.89806556672318E-02 
1649	 3.83948512804529E-02 
1650	 3.86912078648839E-02 
1651	 0.038903594692067 
1652	 3.86714080526295E-02 
1653	 3.92847226789782E-02 
1654	 3.92885625357345E-02 
1655	 3.89980579257264E-02 
1656	 3.92887568358075E-02 
1657	 0.039840541419926 
1658	 3.95330764794696E-02 
1659	 3.89061062275412E-02 
1660	 3.92671893041704E-02 
1661	 3.96024173953851E-02 
1662	 3.92195980187715E-02 
1663	 3.94218825912291E-02 
1664	 3.97359695694691E-02 
1665	 3.88869379389588E-02 
1666	 3.86924382009467E-02 
1667	 3.98048229957858E-02 
1668	 3.99180481382525E-02 
1669	 3.98756447875561E-02 
1670	 3.99598452937732E-02 
1671	 3.96779502970608E-02 
1672	 3.94005737791368E-02 
1673	 3.92210865405826E-02 
1674	 3.89525922702481E-02 
1675	 3.91839823971457E-02 
1676	 3.98658992742126E-02 
1677	 0.04025874651379 
1678	 4.03489160196611E-02 
1679	 4.03975679285056E-02 
1680	 4.00806938162483E-02 
1681	 3.92309650582822E-02 
1682	 3.93746497870585E-02 
1683	 3.99815248242323E-02 
1684	 3.98298670450681E-02 
1685	 4.01804789159162E-02 
1686	 4.01799205137194E-02 
1687	 3.96970945940427E-02 
1688	 3.94068043408108E-02 
1689	 3.86342328623415E-02 
1690	 3.83077351918647E-02 
1691	 3.84533390291874E-02 
1692	 3.83386405614585E-02 
1693	 3.85518680932049E-02 
1694	 3.86654998084168E-02 
1695	 3.89498266144117E-02 
1696	 3.97482558859125E-02 
1697	 3.98038827643104E-02 
1698	 3.95624034490976E-02 
1699	 0.03920590599293 
1700	 3.89695047267342E-02 
1701	 3.97215187957028E-02 
1702	 4.02589446597657E-02 
1703	 3.98403277965135E-02 
1704	 3.90264783041098E-02 
1705	 3.88578887945158E-02 
1706	 3.95805038477057E-02 
1707	 4.06950767746022E-02 
1708	 4.15902383767464E-02 
1709	 4.09898962371211E-02 
1710	 3.99185045019336E-02 
1711	 3.91698362497244E-02 
1712	 3.87228517408205E-02 
1713	 3.94796355147572E-02 
1714	 3.98610474064491E-02 
1715	 4.11246861808474E-02 
1716	 4.12122196965627E-02 
1717	 4.04365974789162E-02 
1718	 3.98372184931772E-02 
1719	 3.93202797648584E-02 
1720	 3.94026323401501E-02 
1721	 4.06043151357814E-02 
1722	 4.12287855614191E-02 
1723	 4.06881630480796E-02 
1724	 4.03542975256441E-02 
1725	 3.98418492290704E-02 
1726	 3.92811659595326E-02 
1727	 0.039420935896317 
1728	 3.95680339486792E-02 
1729	 3.91079190105864E-02 
1730	 3.89067778720961E-02 
1731	 3.93972300972035E-02 
1732	 3.98983667486394E-02 
1733	 3.99424456928214E-02 
1734	 3.95505675190739E-02 
1735	 0.039497900187942 
1736	 3.90755857533132E-02 
1737	 3.88116973505564E-02 
1738	 3.93703753344356E-02 
1739	 3.86967170575009E-02 
1740	 3.79275964260095E-02 
1741	 3.86522710379332E-02 
1742	 3.96682025498864E-02 
1743	 4.05913862867932E-02 
1744	 4.06137150722437E-02 
1745	 3.97382202340158E-02 
1746	 3.95873915066525E-02 
1747	 3.89687212921175E-02 
1748	 3.88609498828979E-02 
1749	 3.89358706811921E-02 
1750	 3.80124277543116E-02 
1751	 3.81946891979023E-02 
1752	 3.97519712300052E-02 
1753	 3.96939388168617E-02 
1754	 3.85154255901053E-02 
1755	 3.93789654331692E-02 
1756	 4.16873700298199E-02 
1757	 4.20431909756719E-02 
1758	 4.16765617373985E-02 
1759	 4.08558103469298E-02 
1760	 3.86196745679928E-02 
1761	 3.93122877276029E-02 
1762	 4.22037435117727E-02 
1763	 4.14898722856117E-02 
1764	 4.08204681658748E-02 
1765	 4.12605266504042E-02 
1766	 3.86786666430869E-02 
1767	 3.78706832569858E-02 
1768	 3.93276080509231E-02 
1769	 3.84451698631656E-02 
1770	 3.89735970976015E-02 
1771	 4.04486195326939E-02 
1772	 0.040054405627402 
1773	 4.05168902572501E-02 
1774	 4.00486030553366E-02 
1775	 4.04125116286444E-02 
1776	 4.08272030474389E-02 
1777	 4.30901297812881E-02 
1778	 4.30519523674315E-02 
1779	 3.85618933737581E-02 
1780	 3.85121248162597E-02 
1781	 4.05895829175663E-02 
1782	 4.05069085029336E-02 
1783	 4.41100349616321E-02 
1784	 4.54632818426482E-02 
1785	 4.28904148499883E-02 
1786	 4.20856910985484E-02 
1787	 3.97740347763579E-02 
1788	 4.12941820799145E-02 
1789	 4.37620407493801E-02 
1790	 5.05428523021871E-02 
1791	 6.40919194274588E-02 
1792	 6.15812604097199E-02 
1793	 5.45232132860136E-02 
1794	 4.29132466245961E-02 
1795	 2.35967524959993E-02 
1796	 3.02341602002751E-02 
1797	 4.73108218558809E-02 
1798	 5.96063996204059E-02 
1799	 8.61798108739166E-02 
1800	 8.32122316263763E-02 
1801	 7.82842228467932E-02 
1802	 4.98059116494107E-02 
1803	 4.24184125961427E-02 
1804	 0.029360439425452 
1805	 4.84499910801045E-02 
1806	 0.23259421894759 
1807	 0.412090108775036 
1808	 0.73207143945607 
1809	 0.817333954407657 
1810	 0.225025468765886 
1811	 0.190108527432344 
1812	 0.214293270482957 
1813	 0.29663658388402 
1814	-4.14420175729322 
1815	-1.96347522767285 
1816	 69.1270466340285 
1817	 1.56632599463267 
1818	 0.741209165082206 
1819	 2.73799277358658 
1820	 8.12137199498424 
1821	-0.346095763206968 
1822	-4.54647297256379E-02 
1823	-7.43921907010802E-02 
1824	 2.72381803535638E-02 
1825	 0.671987720037681 
1826	 0.839962759658725 
1827	-32.5283533567551 
1828	-4.50875431886514 
1829	 3.91091870525057 
1830	 2.24793953925162 
1831	 4.1565202620931 
1832	 3.72442567571183 
1833	 2.51922587395695 
1834	 2.44611170316825 
1835	 3.65849613868544 
1836	 7.89438441071202 
1837	 1.07901129472002 
1838	 7.88416967033106 
1839	-0.913661166771323 
1840	-0.20589385165621 
1841	 0.209874883235205 
1842	 0.573676842091899 
1843	 0.728475343377022 
1844	 3.05448863188122 
1845	 9.78656764330124 
1846	-0.176156493400088 
1847	-1.6329505368625 
1848	-2.31986596972912 
1849	-1.41521558236588 
1850	-0.808519976320476 
1851	-0.307577943817244 
1852	 0.38072679908784 
1853	 3.55655614913373 
1854	-4.02258200297797 
1855	 0.609308841483892 
1856	 0.612802770110569 
1857	-1.79186344416181E-02 
1858	 0.112276461163275 
1859	 0.686512468604547 
1860	 1.24415326941217 
1861	 0.313533666209509 
1862	-0.996541296251405 
1863	-1.64027393310219 
1864	-5.4893918743438 
1865	-2.21037492490381 
1866	-0.656351366704574 
1867	-0.7556901929203 
1868	-2.55433760899639 
1869	 5.7454487119859 
1870	 0.78165044087248 
1871	 0.85671171835261 
1872	 1.4067663956862 
1873	 1.37993695621466 
1874	 0.725447418376435 
1875	 0.448674900447901 
1876	 0.388526973956674 
1877	 0.565469571521892 
1878	 0.544081128750643 
1879	 0.451966975932269 
1880	 0.201356603680837 
1881	 4.23579266979531E-02 
1882	-4.61104277123019E-03 
1883	-0.130699673709005 
1884	-0.172268796361628 
1885	-1.66035063893042 
1886	 1.21128287236883 
1887	 0.414821281087403 
1888	 3.00541662339978 
1889	 4.00710433272406 
1890	 4.53251393134408 
1891	 3.67265101096404 
1892	 8.4768111840204 
1893	 1.56605734066294 
1894	-0.107904120367722 
1895	-0.288234139765436 
1896	-0.82230292405695 
1897	-1.50168925519483 
1898	-2.01488283919054 
1899	 1.13722963323337 
1900	 1.11987190671365 
1901	 0.190733126072071 
1902	-2.80086210511824E-02 
1903	-0.871796299094192 
1904	-0.590963133480514 
1905	-0.381346276820747 
1906	-0.150543905896557 
1907	 0.282433185472749 
1908	 0.965829355331584 
1909	 3.87780288606363 
1910	-6.63139749954192 
1911	 4.39346540769169E-03 
1912	-1.13399050370834 
1913	-1.43693355268816 
1914	-0.581861804612551 
1915	-0.273965279408824 
1916	 0.957381764459427 
1917	 0.332558441855788 
1918	 0.342915396837285 
1919	 0.462621282583451 
1920	-0.157041902186935 
1921	-0.380900865214565 
1922	-0.668131748436869 
1923	-0.573134675562936 
1924	-9.21781781109468E-02 
1925	 1.10358671747795 
1926	 2.95096588433306 
1927	 8.02679918219832 
1928	-19.6162637459657 
1929	 8.65685788480661 
1930	 0.13905173707178 
1931	 2.79560291233786E-02 
1932	-0.566576828146663 
1933	-1.12251458145539 
1934	 1.89565539031855 
1935	 7.03978556009852 
1936	 3.03724786312231 
1937	 1.24559904139556 
1938	 2.95036658450064 
1939	 4.45964077693627 
1940	-204.824668947115 
1941	 4.38225912083099 
1942	 5.77246422828785 
1943	-5.16686249393289 
1944	 1.00810520281596 
1945	 0.900444195027603 
1946	 7.79426269450999E-02 
1947	-0.190012580403306 
1948	-0.367480761332513 
1949	-0.284942407786649 
1950	-0.11471946278474 
1951	-4.90514728984035E-02 
1952	-1.65075958194142E-02 
1953	-0.024382986040741 
1954	-0.043595098578276 
1955	-9.23695783356716E-02 
1956	-0.110521862029151 
1957	-8.26668762746793E-02 
1958	-0.10898524652747 
1959	-0.116313351662047 
1960	-5.92692204395355E-02 
1961	-8.16732494616772E-03 
1962	-4.6989466110273E-03 
1963	 0.013124863633352 
1964	 2.93401429741558E-02 
1965	 1.47736009829897E-02 
1966	 5.33310853259339E-03 
1967	-6.94770757005446E-06 
1968	-7.36602385475823E-03 
1969	-7.37496771251142E-03 
1970	-2.99834094024186E-05 
1971	 7.33499070339762E-03 
1972	 2.03295710153443E-02 
1973	 0.018896172782717 
1974	 1.38522410912086E-02 
1975	 1.90224051365329E-02 
1976	 2.22550882531881E-02 
1977	 3.15788655432608E-02 
1978	 4.01724240735349E-02 
1979	 4.01270119954329E-02 
1980	 0.033200269064233 
1981	 3.26060402627728E-02 
1982	 3.35857125514769E-02 
1983	 3.34323574869729E-02 
1984	 3.62207832416795E-02 
1985	 0.031861343457134 
1986	 2.14665938260305E-02 
1987	 1.56456681842314E-02 
1988	 1.89164649160562E-02 
1989	 2.56696111715595E-02 
1990	 3.62850645066758E-02 
1991	 4.14698432656529E-02 
1992	 3.54201415301869E-02 
1993	 3.04743122945131E-02 
1994	 2.70016492305161E-02 
1995	 2.02258859002053E-02 
1996	 1.41887956913913E-02 
1997	 1.52431895742862E-02 
1998	 0.014962478863775 
1999	 1.24808637230473E-02 
2000	 1.43669011901074E-02 
2001	 1.67556767186531E-02 
2002	 2.15343114674249E-02 
2003	 2.35485286009067E-02 
2004	 1.85152232814119E-02 
2005	 0.028634395085302 
2006	 3.00946171945664E-02 
2007	 6.54472482258813E-03 
2008	 2.89475520239797E-03 
2009	-4.65352022571329E-04 
2010	-2.14509518044542E-02 
2011	-2.23935314149284E-02 
2012	 1.8020050243237E-03 
2013	 8.43269520231185E-03 
2014	 7.47411420628948E-04 
2015	 9.01879561159694E-03 
2016	 1.87841069043836E-02 
2017	 2.20114533178195E-02 
2018	 3.10096847544166E-02 
2019	 3.64983219636841E-02 
2020	 3.15036813662135E-02 
2021	 0.027343831016287 
2022	 2.78277352406031E-02 
2023	 2.94036652655501E-02 
2024	 2.91297497365748E-02 
2025	 2.99857672571694E-02 
2026	 3.02137871197517E-02 
2027	 2.82413053993808E-02 
2028	 2.79641802589696E-02 
2029	 3.30579128096892E-02 
2030	 3.41630326092199E-02 
2031	 3.49053850454449E-02 
2032	 3.50838164468801E-02 
2033	 3.09808880104986E-02 
2034	 2.96695966183703E-02 
2035	 2.96535665447804E-02 
2036	 2.81445544692154E-02 
2037	 0.027163978798429 
2038	 2.79949249189145E-02 
2039	 2.93002381553661E-02 
2040	 3.23764991210545E-02 
2041	 3.35928986344294E-02 
2042	 3.42104622793167E-02 
2043	 3.54384701977527E-02 
2044	 3.57107239873924E-02 
2045	 3.82457193485333E-02 
2046	 4.01357687347505E-02 
2047	 4.21683934442274E-02 
2048	 4.15592850151014E-02 
2049	 3.83225907937817E-02 
2050	 3.84653277449243E-02 
2051	 3.79371306562051E-02 
2052	 3.49821264577632E-02 
2053	 3.38833726154072E-02 
2054	 3.22669844127867E-02 
2055	 3.00077743554493E-02 
2056	 2.91497350198428E-02 
2057	 3.12429192222084E-02 
2058	 3.06300721942672E-02 
2059	 2.81987132482963E-02 
2060	 0.028618499109291 
2061	 0.029086214789681 
2062	 0.03156298556354 
2063	 0.035219785544516 
2064	 0.035039907967867 
2065	 3.48080830000515E-02 
2066	 3.55119002268902E-02 
2067	 3.49220459815366E-02 
2068	 3.38853655685425E-02 
2069	 3.24548494402949E-02 
2070	 3.12163365320627E-02 
2071	 3.07002472574515E-02 
2072	 3.21527878087533E-02 
2073	 0.032389240661214 
2074	 3.15013879584301E-02 
2075	 3.18710120280678E-02 
2076	 3.32701642066869E-02 
2077	 3.33755624997231E-02 
2078	 0.033586807114614 
2079	 3.38393942120604E-02 
2080	 3.31903573807723E-02 
2081	 3.31600645335916E-02 
2082	 3.27564865641217E-02 
2083	 3.24486069564518E-02 
2084	 3.43506240803798E-02 
2085	 3.51066798581691E-02 
2086	 3.49224703951731E-02 
2087	 3.55359726499133E-02 
2088	 3.44341163114291E-02 
2089	 3.14941109505704E-02 
2090	 3.19089483211024E-02 
2091	 3.44944178329298E-02 
2092	 3.51275755419823E-02 
2093	 3.60773543047873E-02 
2094	 3.62423499930271E-02 
2095	 3.45150329928205E-02 
2096	 3.38029913108968E-02 
2097	 3.42580964325021E-02 
2098	 3.35053691907208E-02 
2099	 3.18175188570183E-02 
2100	 3.07402720642552E-02 
2101	 2.99034984895546E-02 
2102	 2.99275390579377E-02 
2103	 3.27656957194872E-02 
2104	 0.032983644340068 
2105	 3.29921976000548E-02 
2106	 3.30903451251625E-02 
2107	 3.12562687932101E-02 
2108	 2.98951517769308E-02 
2109	 0.030867051388657 
2110	 3.31387656224297E-02 
2111	 3.35928843745858E-02 
2112	 3.54983289531945E-02 
2113	 3.62273424956747E-02 
2114	 3.49577298489794E-02 
2115	 3.35862431136825E-02 
2116	 3.17135509484068E-02 
2117	 3.14414499547514E-02 
2118	 3.08775519102046E-02 
2119	 0.031764704250068 
2120	 3.52084181663394E-02 
2121	 3.69864350977872E-02 
2122	 3.75414674402517E-02 
2123	 3.65700311435326E-02 
2124	 3.52760857005103E-02 
2125	 0.034483732986855 
2126	 3.47073707955392E-02 
2127	 3.39132692929257E-02 
2128	 3.43520573946346E-02 
2129	 3.56656645545023E-02 
2130	 3.45779021620541E-02 
2131	 3.50166442077023E-02 
2132	 3.40766060031459E-02 
2133	 3.25783388290236E-02 
2134	 3.24315583921941E-02 
2135	 3.31967776815953E-02 
2136	 3.40011161962092E-02 
2137	 3.59700956373943E-02 
2138	 3.65055480546886E-02 
2139	 3.59696089532363E-02 
2140	 3.60837282682047E-02 
2141	 3.70970007374899E-02 
2142	 3.72687291257672E-02 
2143	 3.67878351960544E-02 
2144	 3.75285049752793E-02 
2145	 3.72723260241562E-02 
2146	 3.24549860766813E-02 
2147	 3.01523865391034E-02 
2148	 3.28475400858645E-02 
2149	 3.49648200796673E-02 
2150	 3.65598823425824E-02 
2151	 3.63914138316118E-02 
2152	 3.36598105215188E-02 
2153	 3.43301080360604E-02 
2154	 0.035521315749722 
2155	 0.035741853441465 
2156	 3.57304250395142E-02 
2157	 3.58832604615833E-02 
2158	 3.49531190004094E-02 
2159	 3.41596838500347E-02 
2160	 3.31301798386246E-02 
2161	 3.34650158953895E-02 
2162	 3.37176956713761E-02 
2163	 3.30401512292696E-02 
2164	 3.47017295325711E-02 
2165	 3.48993872988321E-02 
2166	 3.15983910609118E-02 
2167	 0.030453330981021 
2168	 3.02358534320293E-02 
2169	 3.07597351733462E-02 
2170	 3.17883718681336E-02 
2171	 3.43017789807704E-02 
2172	 0.037421026258687 
2173	 3.68413088603116E-02 
2174	 3.78396258177997E-02 
2175	 3.72106039904378E-02 
2176	 3.55852908642739E-02 
2177	 3.82449184755521E-02 
2178	 3.90182137791807E-02 
2179	 3.98543121763151E-02 
2180	 4.18513699599843E-02 
2181	 4.43998365827235E-02 
2182	 4.67377665055342E-02 
2183	 4.53878671776833E-02 
2184	 4.27156124345014E-02 
2185	 3.83170017862339E-02 
2186	 3.60415443466014E-02 
2187	 3.36200834565373E-02 
2188	 0.035031088688879 
2189	 4.19291213450639E-02 
2190	 4.17123387496178E-02 
2191	 3.81425926924835E-02 
2192	 3.63970912682427E-02 
2193	 3.15619788513002E-02 
2194	 2.95762705455603E-02 
2195	 3.18304011484964E-02 
2196	 3.22202383203445E-02 
2197	 3.13491453107105E-02 
2198	 3.16424836674095E-02 
2199	 3.39707148714029E-02 
2200	 0.03244190039198 
2201	 3.19489891984905E-02 
2202	 2.71770149454774E-02 
2203	 2.49596078885403E-02 
2204	 2.85944925556861E-02 
2205	 3.16202788503484E-02 
2206	 0.029246813188374 
2207	 2.23072185827393E-02 
2208	 2.12120992228625E-02 
2209	 2.00137750686817E-02 
2210	 2.06112979833733E-02 
2211	 2.50404992604332E-02 
2212	 2.25381192536614E-02 
2213	 2.60234634080584E-02 
2214	 3.20320409950095E-02 
2215	 3.18805179607525E-02 
2216	 3.32532355341447E-02 
2217	 3.26397732558285E-02 
2218	 2.48654807803792E-02 
2219	 2.60541401067889E-02 
2220	 0.034279969735158 
2221	 3.52881546582472E-02 
2222	 3.70287239617487E-02 
2223	 3.58881801205937E-02 
2224	 2.68946128527114E-02 
2225	 2.55177569815057E-02 
2226	 3.01712013622802E-02 
2227	 2.96510844745234E-02 
2228	 2.70638544817051E-02 
2229	 2.62476541980834E-02 
2230	 2.10483761214601E-02 
2231	 2.15354935890387E-02 
2232	 3.20459968728085E-02 
2233	 3.68933585152165E-02 
2234	 4.28227034974082E-02 
2235	 0.042694784314566 
2236	 3.65982843539881E-02 
2237	 2.84918613175141E-02 
2238	 2.14874462995792E-02 
2239	 1.97776183730864E-02 
2240	 3.01842041852554E-02 
2241	 3.39185563654882E-02 
2242	 2.96545976447935E-02 
2243	 2.97230600599871E-02 
2244	 2.72826107461083E-02 
2245	 2.74095697566667E-02 
2246	 3.11427525799897E-02 
2247	 3.49481086385919E-02 
2248	 0.038857314533153 
2249	 3.40610604121894E-02 
2250	 0.029829974204757 
2251	 2.93614343671908E-02 
2252	 2.44971379283629E-02 
2253	 2.56944128904435E-02 
2254	 2.60786695445086E-02 
2255	 2.04651658736102E-02 
2256	 2.21912425909275E-02 
2257	 2.38121505730215E-02 
2258	 2.53642496453119E-02 
2259	 3.10250286397746E-02 
2260	 3.35531419207374E-02 
2261	 3.04908302955728E-02 
2262	 3.18361973223309E-02 
2263	 3.61796894576468E-02 
2264	 4.01656995879575E-02 
2265	 4.54468306790791E-02 
2266	 4.67654572986009E-02 
2267	 4.83972263171868E-02 
2268	 4.51413012002087E-02 
2269	 3.38426418566492E-02 
2270	 2.91211379593885E-02 
2271	 2.48811330399801E-02 
2272	 2.42049850105725E-02 
2273	 2.97907534311882E-02 
2274	 3.25486024692014E-02 
2275	 3.05972506727701E-02 
2276	 3.45291000781928E-02 
2277	 4.88165036230769E-02 
2278	 5.11686646871647E-02 
2279	 5.04354949144292E-02 
2280	 4.96196422729327E-02 
2281	 3.97633811283299E-02 
2282	 3.04678349601605E-02 
2283	 3.43674311424967E-02 
2284	 3.80161159519606E-02 
2285	 4.42564115349793E-02 
2286	 4.63724920748307E-02 
2287	 4.15413160815676E-02 
2288	 4.12449973482493E-02 
2289	 3.00216878439864E-02 
2290	 0.017352748077763 
2291	 1.34468763090413E-02 
2292	 1.00199436976384E-02 
2293	 1.69715394220282E-02 
2294	 2.54816621345325E-02 
2295	 2.88024126404533E-02 
2296	 3.84705505686839E-02 
2297	 4.75888785676006E-02 
2298	 5.30480984858901E-02 
2299	 5.38628689694596E-02 
2300	 5.07835681659184E-02 
2301	 4.94252286371809E-02 
2302	 0.045537730419449 
2303	 4.57515411184197E-02 
2304	 4.39226848685223E-02 
2305	 3.72768327927888E-02 
2306	 3.80644674684201E-02 
2307	 0.035337053057798 
2308	 3.65586825957686E-02 
2309	 3.34676205813616E-02 
2310	 1.66233056518273E-02 
2311	 1.65822356726901E-02 
2312	 0.024137938744327 
2313	 3.15499714750778E-02 
2314	 5.19160477498331E-02 
2315	 6.25231461814744E-02 
2316	 6.09311902304437E-02 
2317	 5.67530634998601E-02 
2318	 4.40113386301014E-02 
2319	 4.25379924470737E-02 
2320	 3.59361813410235E-02 
2321	 2.82016349737409E-02 
2322	 2.55918324391604E-02 
2323	 6.46023338355413E-03 
2324	 5.58585878415722E-03 
2325	 1.15697061802429E-02 
2326	 2.38507318111986E-02 
2327	 4.78069138193791E-02 
2328	 4.90786004211659E-02 
2329	 4.79897585183015E-02 
2330	 4.06060177985233E-02 
2331	 0.026361487307004 
2332	 2.75012820351875E-02 
2333	 2.88823320739888E-02 
2334	 2.86237996286127E-02 
2335	 2.48186696639989E-02 
2336	 1.74381961579936E-02 
2337	 9.85530294289684E-03 
2338	 1.11900850300646E-02 
2339	 4.30187814792808E-02 
2340	 6.63869150242623E-02 
2341	 6.49423425479363E-02 
2342	 6.47731661952402E-02 
2343	 4.04908662519445E-02 
2344	-5.88674360573587E-03 
2345	-3.70512941142059E-02 
2346	-4.18494048972377E-02 
2347	-3.72776657961462E-02 
2348	-2.96695505877235E-02 
2349	 2.62545942900956E-05 
2350	 2.79187722418526E-04 
2351	-4.82516173782189E-02 
2352	-6.31861807627059E-02 
2353	-3.73721718849597E-02 
2354	-5.01714126748613E-02 
2355	-6.01894818717876E-02 
2356	-0.021305991495741 
2357	-7.04747058384163E-03 
2358	-3.55972805464282E-02 
2359	-2.57679918202124E-02 
2360	-1.08341925651336E-02 
2361	-4.79683741771406E-02 
2362	-1.46332543665596E-02 
2363	 2.80966760723078E-02 
2364	-1.31007063770246E-02 
2365	-2.06965906811361E-02 
2366	-3.89064826731096E-02 
2367	-4.08995601351925E-02 
2368	 4.70314227652552E-02 
2369	 0.105212844788989 
2370	 0.107859874028312 
2371	 6.78469537274793E-02 
2372	 3.94569819604636E-02 
2373	 5.69704586344856E-02 
2374	 9.02901435096427E-02 
2375	 0.059086700817662 
2376	-1.60947385600132E-02 
2377	-2.33308144528583E-02 
2378	-8.23436062464329E-02 
2379	-0.137807396177978 
2380	-0.075177507755626 
2381	-0.166951129107671 
2382	-0.215957191102501 
2383	-0.166963038001154 
2384	-0.232804402824333 
2385	-0.219239276577527 
2386	-0.167619831493659 
2387	-0.191038149114535 
2388	-0.122882136111821 
2389	-0.250776912630559 
2390	-0.410411791125286 
2391	-0.425285422647458 
2392	-0.483958376338523 
2393	-0.365124174498466 
2394	-0.191879824745994 
2395	-0.201803854553872 
2396	-4.54730769309747E-02 
2397	 6.75499060450714E-02 
2398	 6.46305885778648E-02 
2399	 4.60680793916754E-02 
2400	-8.27101328515592E-02 
2401	-0.306062907636936 
2402	-0.229428031329171 
2403	 8.51043279284322E-02 
2404	 0.213065144934728 
2405	 0.216119604264928 
2406	 0.165219062468337 
2407	-7.02191168505119E-02 
2408	-0.257471900098205 
2409	-0.219474461996054 
2410	-0.251580676004482 
2411	-0.217873803729568 
2412	-0.151118307192316 
2413	-0.357583921313364 
2414	-0.359990424178135 
2415	-0.696002256811026 
2416	-0.765826717290281 
2417	-0.324960050147254 
2418	-0.144648094582582 
2419	-0.045916050938218 
2420	 0.134967133278479 
2421	-0.261687671564153 
2422	-0.638145243190113 
2423	-0.810217411594611 
2424	 7.43559630133746E-02 
2425	 1.42312237705272 
2426	 4.52436562993491 
2427	 1.49388914660409 
2428	 1.11577226188326 
2429	 0.749576614251934 
2430	 0.472994468283839 
2431	 0.424607734584091 
2432	 0.543168624410284 
2433	 0.482742460947703 
2434	 0.166774164484552 
2435	 2.38978217986706E-02 
2436	-0.658858796029618 
2437	-246.031936132893 
2438	 1.57819198476948 
2439	 4.18377603718022 
2440	-44.0195634994871 
2441	-10.5172247627832 
2442	 0.168106059706216 
2443	-0.210126699097747 
2444	 1.81113100570416 
2445	 0.708419890981699 
2446	 0.898690104705054 
2447	 0.648707367583414 
2448	 0.650888534737826 
2449	 0.323480534346422 
2450	 0.109905739316795 
2451	-6.15598158426141E-03 
2452	-0.295440138115326 
2453	-0.102086941752006 
2454	 0.464753997288506 
2455	 0.520648716039283 
2456	 0.758745703709038 
2457	 1.03661240072571 
2458	 1.03462404917516 
2459	 0.964351518213738 
2460	-6.41915659595873E-02 
2461	-1.07074131393525 
2462	-0.67698850335795 
2463	-0.283997546656863 
2464	-0.22029028986084 
2465	-3.31584536111433E-02 
2466	 0.366161037561522 
2467	 1.21022698198087 
2468	 1.7382131601977 
2469	 1.65588425178102 
2470	 1.84163945466978 
2471	 6.60098149496105 
2472	 3.30736676941952 
2473	 1.18094396809024 
2474	 0.786079807168044 
2475	 0.258606976085104 
2476	-1.46883223760273E-02 
2477	-1.6743801244683 
2478	 0.196346515064809 
2479	-0.531957650272791 
2480	-0.334031080768969 
2481	-0.715347012412572 
2482	-0.223903802918769 
2483	 0.548998328301301 
2484	 1.02027283163123 
2485	 0.887291853643165 
2486	 1.40643166259078 
2487	 2.10872345452539 
2488	 0.135625345934469 
2489	-0.11609212475883 
2490	-0.327571121064608 
2491	-0.121133670526317 
2492	 0.211397375769922 
2493	 0.922395824910877 
2494	 1.05085376034343 
2495	 2.5421480558268 
2496	-17.8772129736391 
2497	-5.39615287551707 
2498	-8.9857572741228 
2499	-7.63092759123752 
2500	-4.57797953527693 
