Wavelength	rt0713east_far00000.asd
350	 7.74848531407113E-02 
351	 7.68620389202856E-02 
352	 7.61860067414946E-02 
353	 7.63133949108995E-02 
354	 7.69785198457455E-02 
355	 7.58797503693187E-02 
356	 0.0757396784169 
357	 7.61643536121958E-02 
358	 7.60852985132607E-02 
359	 7.60780944921438E-02 
360	 7.59708626682135E-02 
361	 7.57410857463418E-02 
362	 7.55134445852313E-02 
363	 7.57260476872322E-02 
364	 7.56638912930342E-02 
365	 7.53354867219397E-02 
366	 7.60639334716781E-02 
367	 0.075561326523066 
368	 7.53714858845255E-02 
369	 7.67221853609072E-02 
370	 0.075998855124369 
371	 7.59476125101899E-02 
372	 0.076554045086989 
373	 7.62890261288369E-02 
374	 7.59786520186722E-02 
375	 7.60230052881109E-02 
376	 7.64098801452738E-02 
377	 7.66341534009717E-02 
378	 7.69359340503363E-02 
379	 7.70138275000395E-02 
380	 7.67229300381819E-02 
381	 7.67063258189697E-02 
382	 7.69413971792024E-02 
383	 7.71983771747405E-02 
384	 7.72272169002196E-02 
385	 7.74134735675499E-02 
386	 7.80051350340961E-02 
387	 7.85919408637111E-02 
388	 7.81545866685132E-02 
389	 7.81335337628456E-02 
390	 7.80926781283399E-02 
391	 7.78592845821417E-02 
392	 7.89305329372772E-02 
393	 7.93227020516235E-02 
394	 7.91130286268999E-02 
395	 0.079113583215317 
396	 7.93659340581839E-02 
397	 7.94279724399679E-02 
398	 7.94060937957422E-02 
399	 7.98425264633894E-02 
400	 8.00069454754032E-02 
401	 8.00243955059529E-02 
402	 0.080059916715694 
403	 8.00138993678509E-02 
404	 8.02052626388307E-02 
405	 8.05037015826216E-02 
406	 8.06475633838154E-02 
407	 8.07213468523052E-02 
408	 8.06609119231414E-02 
409	 8.06825901438144E-02 
410	 8.12216085899229E-02 
411	 8.13045546022886E-02 
412	 8.12868308512104E-02 
413	 0.081502536381533 
414	 0.081609004726973 
415	 8.19109399139466E-02 
416	 8.22919652230697E-02 
417	 8.25076564531066E-02 
418	 8.26680325723682E-02 
419	 8.27782705582335E-02 
420	 8.29324574552686E-02 
421	 8.33156424934633E-02 
422	 8.38616498685754E-02 
423	 8.41324669265867E-02 
424	 8.40208399065991E-02 
425	 8.45474046357986E-02 
426	 8.48837352291966E-02 
427	 8.51560548726536E-02 
428	 8.58112144075516E-02 
429	 0.086060299324016 
430	 8.63567034177689E-02 
431	 8.68299197741438E-02 
432	 8.71025387524747E-02 
433	 8.75158910227587E-02 
434	 8.80197034909944E-02 
435	 8.84702417769648E-02 
436	 8.86914260592222E-02 
437	 8.90386784728304E-02 
438	 8.94830024043435E-02 
439	 8.98034597510949E-02 
440	 9.01367622556534E-02 
441	 9.06168665064049E-02 
442	 9.11743749204215E-02 
443	 9.14449127801358E-02 
444	 9.18308598745674E-02 
445	 9.22325865410879E-02 
446	 9.24987344480333E-02 
447	 0.092828839480585 
448	 9.32445856758235E-02 
449	 9.36739693112363E-02 
450	 9.39888816669791E-02 
451	 9.42367622648147E-02 
452	 9.44932620789612E-02 
453	 9.47880388817235E-02 
454	 9.50420445739082E-02 
455	 9.53622299505349E-02 
456	 9.56653899667968E-02 
457	 9.58695723233023E-02 
458	 9.63153300661695E-02 
459	 9.65240181796624E-02 
460	 9.65551954565273E-02 
461	 9.70087895873814E-02 
462	 9.72402770500662E-02 
463	 9.73589373532573E-02 
464	 0.097555840709725 
465	 9.78274980246708E-02 
466	 9.80205110288233E-02 
467	 9.82176053761887E-02 
468	 9.85757765788353E-02 
469	 9.88476209924303E-02 
470	 9.90514691516812E-02 
471	 9.92215865637218E-02 
472	 9.93759953496881E-02 
473	 9.95935454262167E-02 
474	 9.99626164876622E-02 
475	 0.100454112728369 
476	 0.100651822953466 
477	 0.100798883908689 
478	 0.101061337652166 
479	 0.101507591767179 
480	 0.101827006938809 
481	 0.102065355341854 
482	 0.102332356243895 
483	 0.102771639046143 
484	 0.103106356527349 
485	 0.103392861811933 
486	 0.103798129346913 
487	 0.104334316220328 
488	 0.10484967260061 
489	 0.105257573035025 
490	 0.105555696762283 
491	 0.105907242364146 
492	 0.106323400565792 
493	 0.106758201050871 
494	 0.107099369049843 
495	 0.107570354798765 
496	 0.108127229468688 
497	 0.108599378308873 
498	 0.108998611378846 
499	 0.109544572380153 
500	 0.110195224122918 
501	 0.110477283684039 
502	 0.110851688737263 
503	 0.111362949268028 
504	 0.111922477400443 
505	 0.112425829905631 
506	 0.113008190595627 
507	 0.113619191700719 
508	 0.114076141275757 
509	 0.114581641364609 
510	 0.115113904586507 
511	 0.115668414204765 
512	 0.116405658314212 
513	 0.116956318714094 
514	 0.117430875260281 
515	 0.1181070315948 
516	 0.118797480967938 
517	 0.119474461437712 
518	 0.120078373054187 
519	 0.120502981268898 
520	 0.12113517104961 
521	 0.121920404603007 
522	 0.122680283304901 
523	 0.123183943047824 
524	 0.123739203196371 
525	 0.124405407331775 
526	 0.125062498034106 
527	 0.125724672474407 
528	 0.126361229486034 
529	 0.126991102955927 
530	 0.127745975018045 
531	 0.128561006610779 
532	 0.129292661272807 
533	 0.129834695051882 
534	 0.130504002799719 
535	 0.131147025141032 
536	 0.13177109853085 
537	 0.132591243111805 
538	 0.133271796124146 
539	 0.133928984020741 
540	 0.1346974490107 
541	 0.135406330942214 
542	 0.136045702409678 
543	 0.136669896635945 
544	 0.137363753204928 
545	 0.138024357945551 
546	 0.13877081939573 
547	 0.139594018799134 
548	 0.140179614712954 
549	 0.140815278070044 
550	 0.141535450411582 
551	 0.142290767378645 
552	 0.143111617620005 
553	 0.143803029456419 
554	 0.144346958871775 
555	 0.144931838153334 
556	 0.145614482545577 
557	 0.146339549935418 
558	 0.147021772494444 
559	 0.147634395411883 
560	 0.148135209045276 
561	 0.148648642446744 
562	 0.149358936607558 
563	 0.149878439395287 
564	 0.150388753743219 
565	 0.150946755020987 
566	 0.151203517999805 
567	 0.151562467615973 
568	 0.152041567504552 
569	 0.152523184734886 
570	 0.153033996981001 
571	 0.153421112289863 
572	 0.153724006560992 
573	 0.154185259021794 
574	 0.154509262419476 
575	 0.154798090717303 
576	 0.155178918346414 
577	 0.155584115768797 
578	 0.155799301672547 
579	 0.15596874986853 
580	 0.15640883015342 
581	 0.156742875081962 
582	 0.156984868154276 
583	 0.157138603245822 
584	 0.15708197527495 
585	 0.15702238306016 
586	 0.156963285128118 
587	 0.156829408937734 
588	 0.156559430184948 
589	 0.156433486437697 
590	 0.156517940293326 
591	 0.156609203637417 
592	 0.156495912282035 
593	 0.156324951377147 
594	 0.156245312342684 
595	 0.156169573318398 
596	 0.155926493554811 
597	 0.155638061644547 
598	 0.155544573611198 
599	 0.155241104944317 
600	 0.154970365459196 
601	 0.154864064840902 
602	 0.154731177007092 
603	 0.154632806245079 
604	 0.154600314716714 
605	 0.154631126651133 
606	 0.154567590795146 
607	 0.15463516480299 
608	 0.154802901455922 
609	 0.154768366944928 
610	 0.154720924733772 
611	 0.154779078735294 
612	 0.154954261117217 
613	 0.154993533030194 
614	 0.155033800601381 
615	 0.155103666638446 
616	 0.155174017627644 
617	 0.155273997837186 
618	 0.155322085794299 
619	 0.155300196253621 
620	 0.155302300087269 
621	 0.155369903476605 
622	 0.155410924398774 
623	 0.155354827832778 
624	 0.155486273208678 
625	 0.155527254875933 
626	 0.15546558241145 
627	 0.155549328412983 
628	 0.155567337145001 
629	 0.155633968421765 
630	 0.155809997560407 
631	 0.155870171457053 
632	 0.155783048572726 
633	 0.155761121104215 
634	 0.156049029575352 
635	 0.156130982682413 
636	 0.156093120850886 
637	 0.156107524843462 
638	 0.156389207351043 
639	 0.156364416296188 
640	 0.156195867181118 
641	 0.156199749760251 
642	 0.156368331468378 
643	 0.156225276729128 
644	 0.155787319158771 
645	 0.155485113678699 
646	 0.155329759806843 
647	 0.155213449747849 
648	 0.155099868780387 
649	 0.155241708872918 
650	 0.155031252931451 
651	 0.154679914338681 
652	 0.154615641179277 
653	 0.154324689363023 
654	 0.15391491862229 
655	 0.153476106708028 
656	 0.153076098097235 
657	 0.15263577996683 
658	 0.152288750786646 
659	 0.152093025918865 
660	 0.151800014167797 
661	 0.151504653023151 
662	 0.15122211933534 
663	 0.150925197207535 
664	 0.150590545806729 
665	 0.150382882799475 
666	 0.150327248363364 
667	 0.15017211499635 
668	 0.149969826330185 
669	 0.14985953719061 
670	 0.149934898538561 
671	 0.149879795370379 
672	 0.149886508740121 
673	 0.149972825607061 
674	 0.14998220069867 
675	 0.150050230373592 
676	 0.150102681439872 
677	 0.150128322010571 
678	 0.150380686487768 
679	 0.15064246418065 
680	 0.150851576717779 
681	 0.151034122001842 
682	 0.151305512615582 
683	 0.151505981554741 
684	 0.151575880311128 
685	 0.151623043533176 
686	 0.151634407016864 
687	 0.151635521775085 
688	 0.15169577304994 
689	 0.152012619422583 
690	 0.152157922685381 
691	 0.151986670640839 
692	 0.151574718951549 
693	 0.151528721998315 
694	 0.151583598071632 
695	 0.151584637198718 
696	 0.151834332820906 
697	 0.151487647334351 
698	 0.150810820675019 
699	 0.150367988308627 
700	 0.150030695582645 
701	 0.14965749991512 
702	 0.149268576901789 
703	 0.148982172011783 
704	 0.148580897328544 
705	 0.147995601119293 
706	 0.147274303111802 
707	 0.146615009458876 
708	 0.14585411122301 
709	 0.144980721672982 
710	 0.144036009548231 
711	 0.143034417075645 
712	 0.141842306226897 
713	 0.140468503269603 
714	 0.139027695934478 
715	 0.137201136076841 
716	 0.135049509461115 
717	 0.132980641056072 
718	 0.131021230864917 
719	 0.129874284619599 
720	 0.129098880650464 
721	 0.127846604067102 
722	 0.126340348946353 
723	 0.124347789775645 
724	 0.12223235572757 
725	 0.120571124673333 
726	 0.11879737908618 
727	 0.116927461978452 
728	 0.114980671736102 
729	 0.112448692200855 
730	 0.110206752210368 
731	 0.108514602558982 
732	 0.107049520786403 
733	 0.105281089938558 
734	 0.103772722445182 
735	 0.10270642519224 
736	 0.101661734419844 
737	 0.10093108984256 
738	 0.100438816845094 
739	 0.100077151671675 
740	 9.98576208289783E-02 
741	 9.98801098750024E-02 
742	 9.99039532948755E-02 
743	 9.95985380134399E-02 
744	 9.93663474493249E-02 
745	 9.94571728538278E-02 
746	 9.97276976497808E-02 
747	 9.95490024575642E-02 
748	 0.099432552218052 
749	 9.93667775052167E-02 
750	 9.92834657423498E-02 
751	 9.93933749239862E-02 
752	 9.92833187102396E-02 
753	 0.099099622866393 
754	 0.099231593557613 
755	 9.92855493060016E-02 
756	 9.93079367455773E-02 
757	 0.09927625707966 
758	 9.89184068865334E-02 
759	 9.83225452977245E-02 
760	 9.76164251431149E-02 
761	 9.74269114172281E-02 
762	 9.79545931174183E-02 
763	 9.83202675190147E-02 
764	 9.86128629812572E-02 
765	 9.91337495091675E-02 
766	 9.93672626007092E-02 
767	 9.96760714433769E-02 
768	 0.10011487185581 
769	 0.100425162486735 
770	 0.100438883085092 
771	 0.100526019633828 
772	 0.100890801115087 
773	 0.100964792008988 
774	 0.101208033435147 
775	 0.101512482562612 
776	 0.101619079206176 
777	 0.101925838473399 
778	 0.102281201962995 
779	 0.102630131116833 
780	 0.103042441471672 
781	 0.103250311906293 
782	 0.103541396053504 
783	 0.104046901991895 
784	 0.104323967538171 
785	 0.104473169114919 
786	 0.104647631542279 
787	 0.104993093649336 
788	 0.105411806148333 
789	 0.105952974569041 
790	 0.106471888759685 
791	 0.106753958876673 
792	 0.107524337401104 
793	 0.107981574396128 
794	 0.107918308782183 
795	 0.108396422934805 
796	 0.108926142091804 
797	 0.109344292473972 
798	 0.109652011583711 
799	 0.110052825805169 
800	 0.110287797952184 
801	 0.110427446142298 
802	 0.110719720662594 
803	 0.111122535875537 
804	 0.11149423659646 
805	 0.111743107309424 
806	 0.1118419381726 
807	 0.111585800963839 
808	 0.111263083649891 
809	 0.111109351528267 
810	 0.110971920804088 
811	 0.110462084231961 
812	 0.109694405283482 
813	 0.109034761156375 
814	 0.108551282407002 
815	 0.108038891015406 
816	 0.10738527810528 
817	 0.106687136395576 
818	 0.10681105341705 
819	 0.106541519208325 
820	 0.105583515457966 
821	 0.104920085737915 
822	 0.103512203354599 
823	 0.102034338884982 
824	 0.100977215358462 
825	 9.92335701683381E-02 
826	 9.74510107393998E-02 
827	 9.57537111206132E-02 
828	 9.41308950310336E-02 
829	 9.21030367791189E-02 
830	 9.02776470941677E-02 
831	 8.89159247047661E-02 
832	 8.79930454616024E-02 
833	 8.74009042887284E-02 
834	 8.67153958241739E-02 
835	 8.58410765706523E-02 
836	 8.51343366766075E-02 
837	 8.48150281676152E-02 
838	 8.47823921538388E-02 
839	 8.47254227890176E-02 
840	 0.083963666098145 
841	 0.083657721232611 
842	 8.35473461559588E-02 
843	 8.30616308475674E-02 
844	 8.28854821986768E-02 
845	 8.23747750897417E-02 
846	 8.18734096955769E-02 
847	 8.21910598123835E-02 
848	 8.16548619975645E-02 
849	 8.10916330542077E-02 
850	 8.09381367948579E-02 
851	 8.07488079182727E-02 
852	 8.03604991188499E-02 
853	 8.01038533855926E-02 
854	 8.00971000271147E-02 
855	 7.97722953512421E-02 
856	 7.94751606573683E-02 
857	 7.92028410183376E-02 
858	 7.89153917702662E-02 
859	 7.88419135028627E-02 
860	 7.83481957024024E-02 
861	 7.78600816298235E-02 
862	 7.80921807739414E-02 
863	 7.79669233129426E-02 
864	 7.77822148721826E-02 
865	 7.74675278261198E-02 
866	 7.67055830143998E-02 
867	 7.69483794969776E-02 
868	 0.076851482090916 
869	 7.60678807360274E-02 
870	 7.59895716149682E-02 
871	 7.60191028306193E-02 
872	 7.58501953005811E-02 
873	 0.075399313158376 
874	 7.49649554102788E-02 
875	 7.43627371151762E-02 
876	 0.073929199365552 
877	 0.073834203971684 
878	 7.30508389591279E-02 
879	 0.072928511080795 
880	 7.29603487844877E-02 
881	 7.21105431693401E-02 
882	 0.071862745829764 
883	 7.14940370959173E-02 
884	 7.09259184938504E-02 
885	 7.06127336833513E-02 
886	 7.04139236049026E-02 
887	 7.00417325663522E-02 
888	 6.95774740408018E-02 
889	 6.94562271435569E-02 
890	 6.84563991408182E-02 
891	 6.80024206708499E-02 
892	 6.86311399407998E-02 
893	 6.82050365793245E-02 
894	 6.75484079570692E-02 
895	 0.066844190254311 
896	 6.62250333972083E-02 
897	 6.60975594300871E-02 
898	 6.53073684710103E-02 
899	 6.47481848187532E-02 
900	 6.52488171590892E-02 
901	 6.49131232391992E-02 
902	 6.45808890605357E-02 
903	 6.42926927919183E-02 
904	 6.38697256852511E-02 
905	 6.35825351565568E-02 
906	 6.39982133977312E-02 
907	 6.41998540897005E-02 
908	 6.26029375975012E-02 
909	 6.17338435323935E-02 
910	 6.20457638093879E-02 
911	 6.24992198771985E-02 
912	 6.13147866751428E-02 
913	 6.06195669806867E-02 
914	 5.98108844284655E-02 
915	 5.92555489329439E-02 
916	 0.060272754220553 
917	 5.82536948983402E-02 
918	 5.70010471678221E-02 
919	 5.77773542420576E-02 
920	 5.72520917900384E-02 
921	 5.71339648428516E-02 
922	 5.64561829957071E-02 
923	 5.49784737556497E-02 
924	 5.50232440346101E-02 
925	 5.61357636853377E-02 
926	 5.58772754729262E-02 
927	 5.26810587345502E-02 
928	 5.16913385148674E-02 
929	 5.26222950725773E-02 
930	 5.20788062452541E-02 
931	 4.63340432673347E-02 
932	 5.06746800205451E-02 
933	 5.26521431326394E-02 
934	 5.07339397279932E-02 
935	 5.06755068083056E-02 
936	 4.91082818598085E-02 
937	 5.00216352664955E-02 
938	 4.76543768262458E-02 
939	 3.90646543667362E-02 
940	 4.24719887264573E-02 
941	 4.50899110781685E-02 
942	 4.27566492619878E-02 
943	 3.81514070355365E-02 
944	 4.43509034526933E-02 
945	 4.53047905035936E-02 
946	 3.95922216305803E-02 
947	 3.69587997817415E-02 
948	 4.60192990521381E-02 
949	 4.41707088606558E-02 
950	 3.71199929071141E-02 
951	 4.40814961234666E-02 
952	 4.64501420831547E-02 
953	 4.48699683925471E-02 
954	 4.07070583261021E-02 
955	 3.62946511413132E-02 
956	 4.15887256488232E-02 
957	 4.14919732119628E-02 
958	 0.037903632574188 
959	 4.24848922430879E-02 
960	 4.24352940447832E-02 
961	 4.09740605505436E-02 
962	 4.03008805861545E-02 
963	 4.02816232740914E-02 
964	 3.77710342304158E-02 
965	 4.00140865473824E-02 
966	 4.49803478979778E-02 
967	 4.52415182542326E-02 
968	 4.58151875339604E-02 
969	 4.33840958150119E-02 
970	 0.040987941418695 
971	 4.54920687222634E-02 
972	 4.47002665466373E-02 
973	 4.18234149978602E-02 
974	 4.16615135427501E-02 
975	 4.66557656495983E-02 
976	 4.27127438122819E-02 
977	 3.96365452204802E-02 
978	 4.17837177676852E-02 
979	 4.51646407849629E-02 
980	 4.18455998805089E-02 
981	 4.10172571099032E-02 
982	 4.41256073990096E-02 
983	 4.54208799278834E-02 
984	 4.49106293909554E-02 
985	 4.40404298121667E-02 
986	 4.31527845960133E-02 
987	 4.18964161743723E-02 
988	 4.25379354751813E-02 
989	 4.42446858800535E-02 
990	 4.53060660939472E-02 
991	 4.41331801952421E-02 
992	 0.041583568091738 
993	 4.41300574889863E-02 
994	 4.67191168544108E-02 
995	 4.01162930050181E-02 
996	 4.10753111934388E-02 
997	 4.46510795897409E-02 
998	 4.59086284346434E-02 
999	 4.31251110153951E-02 
1000	 4.46548340532993E-02 
1001	 4.23687246137115E-02 
1002	 4.25666704369403E-02 
1003	 4.27937738033574E-02 
1004	 4.27916211592732E-02 
1005	 4.29046432652893E-02 
1006	 4.34835387290866E-02 
1007	 0.043515050246333 
1008	 4.30779815074625E-02 
1009	 0.042942084409391 
1010	 4.26540987459801E-02 
1011	 4.28557450039975E-02 
1012	 4.39575375080285E-02 
1013	 4.42328836808489E-02 
1014	 4.43925077311402E-02 
1015	 4.48091656435092E-02 
1016	 0.044529815148607 
1017	 4.32160890191318E-02 
1018	 4.28853459833038E-02 
1019	 0.042641839992381 
1020	 4.24978471020332E-02 
1021	 4.28702287448292E-02 
1022	 4.28518096380609E-02 
1023	 4.29321022989952E-02 
1024	 4.29491147943143E-02 
1025	 4.31565683277512E-02 
1026	 4.39800308722001E-02 
1027	 4.45552737328809E-02 
1028	 4.53763754279942E-02 
1029	 4.59175799489205E-02 
1030	 4.64586664438839E-02 
1031	 4.66161910067666E-02 
1032	 4.64588353835683E-02 
1033	 0.046520194502973 
1034	 4.62932030898478E-02 
1035	 4.62844848398399E-02 
1036	 0.0465009142766 
1037	 4.67266618995239E-02 
1038	 4.71489657495219E-02 
1039	 4.73296694255421E-02 
1040	 4.76814568795903E-02 
1041	 4.71916840411944E-02 
1042	 4.68937656691551E-02 
1043	 4.61083913617963E-02 
1044	 4.59710914408043E-02 
1045	 4.59982834170931E-02 
1046	 4.61369183435952E-02 
1047	 4.65497130655691E-02 
1048	 4.69029740789121E-02 
1049	 4.74512783725697E-02 
1050	 4.77757679467209E-02 
1051	 4.80485396241997E-02 
1052	 4.83585358543785E-02 
1053	 4.85987949533372E-02 
1054	 4.87340989473065E-02 
1055	 4.91159998648654E-02 
1056	 4.90778811621806E-02 
1057	 4.87947571593957E-02 
1058	 0.047886460359307 
1059	 4.79652957704575E-02 
1060	 0.048124391721883 
1061	 4.85230639791688E-02 
1062	 4.99462710214954E-02 
1063	 0.050332820684631 
1064	 5.03619524291376E-02 
1065	 5.02158167910347E-02 
1066	 4.93729409214133E-02 
1067	 4.90509677151805E-02 
1068	 4.89089402978384E-02 
1069	 4.86019823055165E-02 
1070	 4.81338159584701E-02 
1071	 4.80935972175577E-02 
1072	 0.048317638333087 
1073	 4.83008613243812E-02 
1074	 4.83820852968978E-02 
1075	 4.90781387640949E-02 
1076	 4.89317568249904E-02 
1077	 4.79762367820957E-02 
1078	 4.77923352721038E-02 
1079	 4.76611468985561E-02 
1080	 4.75933743041364E-02 
1081	 4.82261171369849E-02 
1082	 4.80506754328944E-02 
1083	 4.70376648961214E-02 
1084	 4.68414413822037E-02 
1085	 0.046742825826915 
1086	 4.66612468817301E-02 
1087	 4.73633885712802E-02 
1088	 4.74443982141628E-02 
1089	 4.69456808322607E-02 
1090	 4.66003697161074E-02 
1091	 4.62433797937385E-02 
1092	 4.57844334586509E-02 
1093	 4.55410306482306E-02 
1094	 4.51065981122836E-02 
1095	 0.045285495833575 
1096	 4.62998880644677E-02 
1097	 4.63792336000704E-02 
1098	 4.64671453492761E-02 
1099	 4.63840127781182E-02 
1100	 4.53772321920717E-02 
1101	 4.47991489626865E-02 
1102	 4.42209529158064E-02 
1103	 4.42565568136782E-02 
1104	 0.045487889795589 
1105	 4.51580003032762E-02 
1106	 4.42783976070442E-02 
1107	 4.40731702196307E-02 
1108	 4.25294627480375E-02 
1109	 4.06915137614096E-02 
1110	 0.040698769914221 
1111	 4.36389473103857E-02 
1112	 4.42070308243914E-02 
1113	 4.49194562813061E-02 
1114	 4.54248260431509E-02 
1115	 4.29214114347796E-02 
1116	 4.29592251313433E-02 
1117	 4.66138863727427E-02 
1118	 4.88391619908839E-02 
1119	 0.055087344007299 
1120	 5.59882844755815E-02 
1121	 4.79513360256705E-02 
1122	 3.85305452090983E-02 
1123	 3.50605125320171E-02 
1124	 3.32274765274819E-02 
1125	 4.39400022258456E-02 
1126	 5.65150671908348E-02 
1127	 4.53588386939692E-02 
1128	 0.034660904388336 
1129	 3.62781895325029E-02 
1130	 4.11965416839902E-02 
1131	 0.04286377032024 
1132	 0.053192008163763 
1133	 5.14979092284865E-02 
1134	 3.78570248967134E-02 
1135	 3.82916821766955E-02 
1136	 4.72060207642455E-02 
1137	 4.71378456196479E-02 
1138	 4.97338870932764E-02 
1139	 4.39800108608015E-02 
1140	 3.73208621681447E-02 
1141	 3.27939648345022E-02 
1142	 3.22881087330538E-02 
1143	 3.80019182762708E-02 
1144	 4.26648059256502E-02 
1145	 0.039380341686438 
1146	 3.50417208115328E-02 
1147	 3.50594381082366E-02 
1148	 3.37800483309956E-02 
1149	 3.32508192379469E-02 
1150	 3.45367198199247E-02 
1151	 3.98545040269981E-02 
1152	 4.02584839823374E-02 
1153	 3.78192241575154E-02 
1154	 3.74120355878123E-02 
1155	 0.036349804036357 
1156	 3.77570497147668E-02 
1157	 3.87723771402387E-02 
1158	 3.99468911373602E-02 
1159	 4.06773848612111E-02 
1160	 3.86892267693579E-02 
1161	 3.69471873532148E-02 
1162	 3.75499682716772E-02 
1163	 0.038029248401054 
1164	 3.81252472671431E-02 
1165	 3.88835411273987E-02 
1166	 3.87803555691391E-02 
1167	 3.79692768707292E-02 
1168	 0.037857637162054 
1169	 3.79783425932888E-02 
1170	 3.80102593721721E-02 
1171	 3.82915502166312E-02 
1172	 3.97472883983358E-02 
1173	 3.99373845510487E-02 
1174	 3.94465696177508E-02 
1175	 3.89078948060788E-02 
1176	 3.89537763674497E-02 
1177	 0.039226013371124 
1178	 0.039486355451729 
1179	 3.95043530286985E-02 
1180	 3.93962245347059E-02 
1181	 3.86307204687291E-02 
1182	 3.80466046737131E-02 
1183	 3.89345849490771E-02 
1184	 3.92624249916765E-02 
1185	 3.87833329157759E-02 
1186	 0.039076565506748 
1187	 3.91876342981868E-02 
1188	 3.89527530499432E-02 
1189	 3.94191339246322E-02 
1190	 3.97887414490022E-02 
1191	 3.95616884112683E-02 
1192	 3.95826932974944E-02 
1193	 3.98131301652607E-02 
1194	 3.98911102588798E-02 
1195	 3.97791757216742E-02 
1196	 4.00964636309736E-02 
1197	 4.01074766541022E-02 
1198	 0.040163064186404 
1199	 4.03689694213663E-02 
1200	 3.99922916471178E-02 
1201	 3.96902123846051E-02 
1202	 4.02210317891078E-02 
1203	 4.04552810696601E-02 
1204	 3.97297616270381E-02 
1205	 3.99385818170816E-02 
1206	 4.04505782243721E-02 
1207	 3.97897116931548E-02 
1208	 0.039450524862663 
1209	 3.97706909217947E-02 
1210	 3.98359493193379E-02 
1211	 3.98398392129444E-02 
1212	 4.02276440675544E-02 
1213	 4.04538822681621E-02 
1214	 4.04260062781232E-02 
1215	 3.96542998182785E-02 
1216	 3.93132602448715E-02 
1217	 3.97907310368673E-02 
1218	 4.00175691541945E-02 
1219	 3.97926988423242E-02 
1220	 3.98333603683837E-02 
1221	 0.039771950429032 
1222	 0.039512241090677 
1223	 3.94892096903134E-02 
1224	 3.97065760518081E-02 
1225	 3.99083665674277E-02 
1226	 3.97993099675104E-02 
1227	 3.98423765468642E-02 
1228	 4.04245264107746E-02 
1229	 4.06359932995299E-02 
1230	 4.02629817626967E-02 
1231	 0.040162317206045 
1232	 4.02986564770307E-02 
1233	 4.04508871174956E-02 
1234	 4.05365631595682E-02 
1235	 4.04384331593721E-02 
1236	 3.99673383029276E-02 
1237	 3.98972433464718E-02 
1238	 3.97430867664725E-02 
1239	 3.98931449184185E-02 
1240	 4.02284407492426E-02 
1241	 4.00664734402433E-02 
1242	 3.96232441910188E-02 
1243	 3.97626457709125E-02 
1244	 4.03876001269712E-02 
1245	 4.08071336954486E-02 
1246	 4.07614916457317E-02 
1247	 4.07174312565781E-02 
1248	 4.05306913757473E-02 
1249	 4.01649460174176E-02 
1250	 4.02813666579889E-02 
1251	 4.03808508793397E-02 
1252	 4.00149503799641E-02 
1253	 3.97336449373399E-02 
1254	 3.98950423761576E-02 
1255	 4.01770789106138E-02 
1256	 4.02252672259501E-02 
1257	 4.05165508957395E-02 
1258	 4.05640945596291E-02 
1259	 4.00312944684697E-02 
1260	 3.98662708841491E-02 
1261	 4.00362560442419E-02 
1262	 4.01886485448991E-02 
1263	 4.06585284571792E-02 
1264	 4.02670695593708E-02 
1265	 3.97230740207039E-02 
1266	 3.97275467754162E-02 
1267	 3.93183230289455E-02 
1268	 3.91094156906903E-02 
1269	 3.96084526907623E-02 
1270	 3.98833334500441E-02 
1271	 3.98590966706706E-02 
1272	 4.00519760914028E-02 
1273	 0.040643591600661 
1274	 4.03232557798195E-02 
1275	 3.95582675334068E-02 
1276	 3.97748419151463E-02 
1277	 3.99624830652832E-02 
1278	 3.94818833799774E-02 
1279	 3.93570803386801E-02 
1280	 3.95948987893209E-02 
1281	 3.95507857816743E-02 
1282	 3.92040560198392E-02 
1283	 3.91792383723169E-02 
1284	 3.93483667755874E-02 
1285	 3.94623085670714E-02 
1286	 3.96218355091409E-02 
1287	 3.96508409742089E-02 
1288	 3.95890203798704E-02 
1289	 3.95729573963666E-02 
1290	 3.94035623207703E-02 
1291	 0.039587740740351 
1292	 3.93838885502709E-02 
1293	 3.91253153944571E-02 
1294	 3.91824807752995E-02 
1295	 3.93651730662232E-02 
1296	 3.98325123535427E-02 
1297	 3.97624779583317E-02 
1298	 3.90092849829372E-02 
1299	 3.85682577463343E-02 
1300	 3.85715642353237E-02 
1301	 3.89285909712635E-02 
1302	 3.90190459144792E-02 
1303	 3.87048166108096E-02 
1304	 0.038307927073592 
1305	 3.80265781686434E-02 
1306	 3.79882759420835E-02 
1307	 3.85357992224673E-02 
1308	 3.85218254690033E-02 
1309	 3.80111949147419E-02 
1310	 3.79478933484181E-02 
1311	 3.79907804398448E-02 
1312	 3.80205767223704E-02 
1313	 3.87207196332388E-02 
1314	 3.90984242884463E-02 
1315	 3.86964530508352E-02 
1316	 3.83910358717193E-02 
1317	 0.038737441078942 
1318	 0.038581199325489 
1319	 3.71461701203724E-02 
1320	 3.72719740838495E-02 
1321	 3.89618352870356E-02 
1322	 3.86147271395948E-02 
1323	 3.74107727668555E-02 
1324	 3.83290320537999E-02 
1325	 3.91965421427574E-02 
1326	 3.77570183636367E-02 
1327	 3.69673987018215E-02 
1328	 3.75619453489697E-02 
1329	 3.64733073136999E-02 
1330	 3.49336157615349E-02 
1331	 3.59386235623581E-02 
1332	 3.75993705054015E-02 
1333	 3.79036184114057E-02 
1334	 3.81754560755107E-02 
1335	 3.78496777155401E-02 
1336	 3.61961612099496E-02 
1337	 3.51784482586246E-02 
1338	 3.33291901580542E-02 
1339	 0.033767457515062 
1340	 3.66303606092707E-02 
1341	 3.73262587170743E-02 
1342	 3.79931578762375E-02 
1343	 4.03190502522504E-02 
1344	 4.27178361408958E-02 
1345	 4.42169527476778E-02 
1346	 5.03302705740105E-02 
1347	 5.35017859242444E-02 
1348	 4.51414178852263E-02 
1349	 4.49350067006814E-02 
1350	 5.62884544822803E-02 
1351	 6.13938224554433E-02 
1352	 6.87127413091197E-02 
1353	 8.03665461378926E-02 
1354	 7.13481943810248E-02 
1355	 7.76860522456373E-02 
1356	 0.105828265546722 
1357	 0.10361120137242 
1358	 0.167299037828514 
1359	 0.292513492513116 
1360	 0.385532966037698 
1361	 0.439728071919062 
1362	 0.334943291860666 
1363	 3.27524892924792E-02 
1364	-1.40801466525192E-02 
1365	 0.116406478237308 
1366	 0.409818877940151 
1367	 0.539309748822774 
1368	 0.555312076860562 
1369	 3.82662441508327E-02 
1370	 0.164656581465616 
1371	 0.66355819361352 
1372	 0.594794052544887 
1373	 0.161237638608974 
1374	 0.199199780992846 
1375	 7.58119578961186E-02 
1376	-0.22505139529462 
1377	-0.180071229217996 
1378	-9.12766977611435E-02 
1379	-0.361511633217213 
1380	-0.511544368237582 
1381	 0.116331122950134 
1382	 0.238099404157629 
1383	-0.742578050640988 
1384	-1.44751492875835 
1385	-0.454171482652006 
1386	-0.145640363714711 
1387	 0.251267073295604 
1388	 0.944102580652493 
1389	 1.89201630420368 
1390	 1.36662020456789 
1391	 1.76853134368065 
1392	 1.6580607849156 
1393	 0.641948237576616 
1394	-2.68754023235275 
1395	-0.617273277529269 
1396	-4.26402043520866E-03 
1397	-6.78532976565283E-02 
1398	-0.265992814997163 
1399	-0.103730379224226 
1400	 4.76575770783841E-02 
1401	 0.556186002531412 
1402	 1.61025226667794 
1403	 2.03824051337308 
1404	 2.173891377686 
1405	 1.80230694563868 
1406	-0.540922953293431 
1407	-0.523035768023783 
1408	-0.261748731175484 
1409	-0.213830954925967 
1410	 8.84105196558128E-03 
1411	 0.131352283011989 
1412	 0.505712809411869 
1413	 0.217446426221053 
1414	-0.259303928055553 
1415	-5.23381360197961E-02 
1416	 4.28027937030256E-02 
1417	 0.021797151501707 
1418	 0.226288105224377 
1419	 0.230605994731916 
1420	 3.97733513923099E-02 
1421	-9.38455374963656E-03 
1422	-0.04687464357635 
1423	 9.66734956844117E-04 
1424	 0.100459351584431 
1425	 0.119494882173685 
1426	 0.191739162485936 
1427	 0.185347492229468 
1428	 6.71040309838892E-02 
1429	 0.036945087298261 
1430	 2.52281918186993E-02 
1431	 3.09646880512496E-02 
1432	 9.29726897405048E-02 
1433	 9.48041134597504E-02 
1434	 0.057382884761903 
1435	 6.11885144954541E-02 
1436	 5.93535793573795E-02 
1437	 6.10115813239366E-02 
1438	 5.41833943506063E-02 
1439	 3.47574279978478E-02 
1440	 4.79220450617495E-03 
1441	-2.23879182852812E-02 
1442	 4.38851018324093E-03 
1443	 4.16290243370249E-02 
1444	 2.91831894264555E-02 
1445	 2.48259205241657E-02 
1446	 4.50698590770244E-02 
1447	 4.46176756388497E-02 
1448	 3.57785903220088E-02 
1449	 3.95323247617725E-02 
1450	 3.97269307070207E-02 
1451	 3.10870007824308E-02 
1452	 3.17513302610548E-02 
1453	 3.82916281368634E-02 
1454	 3.53993934423582E-02 
1455	 2.73292281986713E-02 
1456	 0.025907485539178 
1457	 2.37237895779468E-02 
1458	 2.34658962532015E-02 
1459	 2.77224042314099E-02 
1460	 2.80817074404252E-02 
1461	 2.34164903736659E-02 
1462	 2.77042302182672E-02 
1463	 4.15289480784845E-02 
1464	 4.10574550985713E-02 
1465	 3.64174340412224E-02 
1466	 3.51120944441822E-02 
1467	 2.47690538325435E-02 
1468	 1.88977381784469E-02 
1469	 1.88171772734833E-02 
1470	 2.24418115367404E-02 
1471	 0.024278909456441 
1472	 2.52659668750069E-02 
1473	 0.033162711419251 
1474	 3.94830734279676E-02 
1475	 4.49865176473135E-02 
1476	 4.27626456265576E-02 
1477	 3.66525956116406E-02 
1478	 3.79617144650221E-02 
1479	 3.60873255516279E-02 
1480	 3.50769707696545E-02 
1481	 4.28148850428756E-02 
1482	 4.38812353254107E-02 
1483	 3.74707691608191E-02 
1484	 3.64071571118949E-02 
1485	 3.82710364162329E-02 
1486	 3.77968849485112E-02 
1487	 3.68135722160389E-02 
1488	 3.66726284969721E-02 
1489	 0.036525141766525 
1490	 0.035970853262126 
1491	 3.55862152758737E-02 
1492	 3.54067484310905E-02 
1493	 3.47522214491026E-02 
1494	 0.034439006389896 
1495	 3.44841444390726E-02 
1496	 3.47815979057012E-02 
1497	 3.56374823666031E-02 
1498	 3.55302004690245E-02 
1499	 3.42484466798831E-02 
1500	 3.45824305010536E-02 
1501	 3.60025398877613E-02 
1502	 0.036228983551991 
1503	 3.65594526694206E-02 
1504	 3.71362826927647E-02 
1505	 3.73630661748283E-02 
1506	 0.036748170116296 
1507	 3.62668018654702E-02 
1508	 0.036550207381709 
1509	 3.58498702357283E-02 
1510	 3.56231285287071E-02 
1511	 3.67299557685182E-02 
1512	 3.72846263709719E-02 
1513	 3.74635427368518E-02 
1514	 3.72842539266828E-02 
1515	 3.70183704583289E-02 
1516	 3.68275318796006E-02 
1517	 3.63071518895228E-02 
1518	 0.036321436812456 
1519	 3.70310390878112E-02 
1520	 3.74483313311378E-02 
1521	 3.75800882486293E-02 
1522	 3.77118968412192E-02 
1523	 3.75859335943273E-02 
1524	 3.74536767006252E-02 
1525	 3.76763683169482E-02 
1526	 0.037855049492665 
1527	 3.77855532234365E-02 
1528	 3.79604554091133E-02 
1529	 0.038119547214418 
1530	 3.81664457809502E-02 
1531	 3.82524411548777E-02 
1532	 3.81711827181755E-02 
1533	 3.84059282825655E-02 
1534	 3.85083687643081E-02 
1535	 3.77455290647947E-02 
1536	 3.71265673544141E-02 
1537	 3.72858993293539E-02 
1538	 3.76468298203657E-02 
1539	 3.80696580749829E-02 
1540	 3.84561943911184E-02 
1541	 3.84219389161121E-02 
1542	 3.83754458306369E-02 
1543	 3.86569511437739E-02 
1544	 3.88410637642945E-02 
1545	 3.86226312109057E-02 
1546	 3.82668295920006E-02 
1547	 3.83566640330649E-02 
1548	 3.85898848754908E-02 
1549	 3.87822080239585E-02 
1550	 3.92231739654339E-02 
1551	 3.91919428870469E-02 
1552	 3.89305794413787E-02 
1553	 3.90446570492271E-02 
1554	 3.89857419039663E-02 
1555	 3.87077975508787E-02 
1556	 3.87236079147988E-02 
1557	 3.87067505597539E-02 
1558	 3.82573484768668E-02 
1559	 3.83779436221377E-02 
1560	 3.90566802733744E-02 
1561	 0.039007568579683 
1562	 3.84984111198321E-02 
1563	 3.82481143771036E-02 
1564	 0.038001167063424 
1565	 3.79889115755291E-02 
1566	 0.038261563349465 
1567	 3.82361457797913E-02 
1568	 3.80573910003586E-02 
1569	 3.79794593583948E-02 
1570	 3.82173768787714E-02 
1571	 3.83852909385443E-02 
1572	 3.79673145495054E-02 
1573	 3.77757763133239E-02 
1574	 3.81246046948801E-02 
1575	 3.86165749821202E-02 
1576	 3.89201029770116E-02 
1577	 0.038690270187741 
1578	 3.86499952896758E-02 
1579	 3.88379492144351E-02 
1580	 3.85149528379287E-02 
1581	 3.82246925762703E-02 
1582	 3.83909720221829E-02 
1583	 3.85365881694889E-02 
1584	 0.038462358846557 
1585	 3.88216740155434E-02 
1586	 3.93947358312927E-02 
1587	 3.90283005885844E-02 
1588	 3.81920093439192E-02 
1589	 3.80471227210796E-02 
1590	 3.81463667755581E-02 
1591	 3.82807925094462E-02 
1592	 3.91391072779905E-02 
1593	 3.96397199761843E-02 
1594	 3.90364647680739E-02 
1595	 3.85258733130599E-02 
1596	 3.84896234096592E-02 
1597	 3.84923775653244E-02 
1598	 3.82523965515567E-02 
1599	 3.80126992926753E-02 
1600	 3.80872396284008E-02 
1601	 3.77393062818895E-02 
1602	 3.76741801763413E-02 
1603	 3.86176883206816E-02 
1604	 3.88848807297585E-02 
1605	 3.91858911144879E-02 
1606	 3.99681775407727E-02 
1607	 3.94449915571719E-02 
1608	 0.038885396622378 
1609	 3.88474275953295E-02 
1610	 3.82281611989486E-02 
1611	 3.76231651233496E-02 
1612	 3.75397825952295E-02 
1613	 3.78505740812966E-02 
1614	 3.78814081378901E-02 
1615	 3.76828854167431E-02 
1616	 3.80541695531057E-02 
1617	 3.83594730801468E-02 
1618	 3.82548563833384E-02 
1619	 3.86702854129048E-02 
1620	 3.91735107607303E-02 
1621	 3.89947040614213E-02 
1622	 3.88606033653834E-02 
1623	 3.87742632618301E-02 
1624	 3.84161287657442E-02 
1625	 0.038929247711207 
1626	 3.97431971627747E-02 
1627	 3.94778608739558E-02 
1628	 3.92565111980014E-02 
1629	 0.039371389661867 
1630	 3.90022893834722E-02 
1631	 3.92042576505076E-02 
1632	 3.98158010162961E-02 
1633	 3.95982842985725E-02 
1634	 3.90006024951605E-02 
1635	 3.83473126830781E-02 
1636	 0.038616291647933 
1637	 0.039353715028315 
1638	 3.89111118041963E-02 
1639	 3.85623182238033E-02 
1640	 3.85688659331071E-02 
1641	 3.77683358214451E-02 
1642	 3.79398943803535E-02 
1643	 3.92384642561171E-02 
1644	 3.95878327711748E-02 
1645	 3.99361984503509E-02 
1646	 4.02936676394081E-02 
1647	 3.97031545584693E-02 
1648	 0.039245528979733 
1649	 3.91016619862261E-02 
1650	 3.87682011848674E-02 
1651	 3.87889373218861E-02 
1652	 3.91588223847686E-02 
1653	 3.86352394080874E-02 
1654	 3.85782750640191E-02 
1655	 3.91426220090998E-02 
1656	 3.93317078657291E-02 
1657	 3.93915651869775E-02 
1658	 3.94275398846074E-02 
1659	 3.92750941937297E-02 
1660	 3.91568135693513E-02 
1661	 3.92160318307732E-02 
1662	 3.91589118486837E-02 
1663	 3.89031423958559E-02 
1664	 3.91038129445382E-02 
1665	 3.94819310746253E-02 
1666	 3.94708853595082E-02 
1667	 3.95451763483519E-02 
1668	 3.93352014059136E-02 
1669	 3.92419960245595E-02 
1670	 3.96343971360162E-02 
1671	 3.95973067997912E-02 
1672	 3.94770969735765E-02 
1673	 3.95216902220401E-02 
1674	 3.93818768116726E-02 
1675	 0.03941795897767 
1676	 3.97125339817839E-02 
1677	 3.97088572777188E-02 
1678	 3.90693624537438E-02 
1679	 3.81589219676284E-02 
1680	 3.79461272372248E-02 
1681	 3.85413511434613E-02 
1682	 3.87530773309682E-02 
1683	 0.038671183382421 
1684	 3.94181575470365E-02 
1685	 4.01773931521926E-02 
1686	 4.03285626437702E-02 
1687	 4.07388698940167E-02 
1688	 4.07370276498609E-02 
1689	 3.94747195486708E-02 
1690	 3.86474468194423E-02 
1691	 3.90621155617938E-02 
1692	 0.038845161663917 
1693	 3.88367420585392E-02 
1694	 4.01016839526948E-02 
1695	 0.040224677150438 
1696	 3.93568914672267E-02 
1697	 3.89245013142404E-02 
1698	 3.84510878490664E-02 
1699	 3.88596971974322E-02 
1700	 0.04014131880209 
1701	 4.03506247907969E-02 
1702	 3.96452027386218E-02 
1703	 3.95432508902679E-02 
1704	 3.98417842516745E-02 
1705	 3.96191984349082E-02 
1706	 0.039568661554533 
1707	 3.97733016574503E-02 
1708	 3.92707106147166E-02 
1709	 3.86808431261781E-02 
1710	 0.039255704629261 
1711	 3.93889197675909E-02 
1712	 3.85002192345651E-02 
1713	 4.04955082512936E-02 
1714	 4.04863318764908E-02 
1715	 3.83943836339774E-02 
1716	 3.90894162784575E-02 
1717	 3.85680639451936E-02 
1718	 3.81490338250167E-02 
1719	 3.99838556691967E-02 
1720	 4.02507244150385E-02 
1721	 3.91622954790473E-02 
1722	 3.97288472984412E-02 
1723	 3.90353767463861E-02 
1724	 3.79081793669909E-02 
1725	 0.03956189964268 
1726	 4.09843233373266E-02 
1727	 4.06115485026192E-02 
1728	 0.040541282206676 
1729	 4.03743222063005E-02 
1730	 3.93948550316496E-02 
1731	 3.91551793971853E-02 
1732	 3.85394734990152E-02 
1733	 3.69542906571206E-02 
1734	 3.70400117160319E-02 
1735	 3.82780778618638E-02 
1736	 3.88779780975127E-02 
1737	 0.039922037529926 
1738	 3.98639115171548E-02 
1739	 3.77586489136754E-02 
1740	 3.78998413325575E-02 
1741	 3.94065471076168E-02 
1742	 3.93348789400247E-02 
1743	 4.00544973379164E-02 
1744	 4.05193579458612E-02 
1745	 3.97852138605349E-02 
1746	 3.99803594110116E-02 
1747	 4.00609842179927E-02 
1748	 4.09507809758035E-02 
1749	 4.10809243338727E-02 
1750	 4.11024082598978E-02 
1751	 4.00415992306858E-02 
1752	 3.59423319263889E-02 
1753	 3.53930819976997E-02 
1754	 3.69003523594078E-02 
1755	 3.65519084632775E-02 
1756	 3.86078963593884E-02 
1757	 3.83317685718077E-02 
1758	 3.51601354811957E-02 
1759	 3.68513984702099E-02 
1760	 3.82652029124588E-02 
1761	 3.75986193503435E-02 
1762	 4.04457733028134E-02 
1763	 4.13447891178193E-02 
1764	 3.94365395435641E-02 
1765	 3.92704106034316E-02 
1766	 3.87070829662081E-02 
1767	 3.81476480854595E-02 
1768	 3.88965827599004E-02 
1769	 3.95437066147817E-02 
1770	 3.87075819162712E-02 
1771	 3.74142392823417E-02 
1772	 3.71950854085319E-02 
1773	 3.77021882642876E-02 
1774	 3.88891983834753E-02 
1775	 0.040681979347396 
1776	 4.08846750386169E-02 
1777	 3.83332087582583E-02 
1778	 3.76158015035518E-02 
1779	 3.71644481693947E-02 
1780	 3.58955232410123E-02 
1781	 3.51644660368673E-02 
1782	 3.59532413867451E-02 
1783	 3.65148051620763E-02 
1784	 3.84938855297511E-02 
1785	 4.53134221603824E-02 
1786	 4.50276917461821E-02 
1787	 3.88186562274252E-02 
1788	 3.89475811411985E-02 
1789	 3.79532400551083E-02 
1790	 4.11105133979183E-02 
1791	 4.93324124671922E-02 
1792	 3.86825282400739E-02 
1793	 2.91130421536393E-02 
1794	 3.83123407365252E-02 
1795	 3.48417303302361E-02 
1796	 5.00778750930845E-02 
1797	 7.59117630298438E-02 
1798	 5.68451483268797E-02 
1799	 3.99669016191081E-02 
1800	 2.76190962689081E-02 
1801	 1.17487432147432E-02 
1802	 2.28032234211923E-02 
1803	 2.22250612587775E-02 
1804	-7.91347454939918E-03 
1805	-1.30446517405747E-02 
1806	-2.09299563192764E-03 
1807	 4.09530384592572E-02 
1808	 0.277927566733485 
1809	 0.511974638104969 
1810	 0.485186613335278 
1811	 0.548909617142788 
1812	 0.462826039289039 
1813	 0.509389462199323 
1814	-2.05568689308632 
1815	 0.153947302401434 
1816	-132.217427264264 
1817	-2.7876570820212 
1818	-0.79678092564329 
1819	 0.613133283751514 
1820	 5.88002838287736 
1821	-0.230225883185321 
1822	-0.239348355874497 
1823	 0.633608579036298 
1824	 0.349572858149018 
1825	 0.856151173659402 
1826	 0.865119172627485 
1827	-16.9497808270462 
1828	-1.56544946014295 
1829	 0.65613821657825 
1830	 0.299446875076196 
1831	 2.64853327576307 
1832	 3.2682446918899 
1833	 2.85847101740728 
1834	 3.08997000586135 
1835	 5.91346275967437 
1836	-29.4898511228327 
1837	-1.07208644043449 
1838	-4.33171890773389 
1839	 0.630785025030793 
1840	 0.731177644744777 
1841	 0.857423754899528 
1842	 0.684168459290434 
1843	 0.723792870300358 
1844	 2.66435324221012 
1845	 8.46781792346757 
1846	 2.74025931296391 
1847	 1.58922350170977 
1848	 0.674215911606142 
1849	-0.3393959924098 
1850	-0.800389717178038 
1851	-1.42423492995301 
1852	-1.90650796156141 
1853	-9.27615686532187 
1854	 10.7390658175444 
1855	 2.52446342877672 
1856	 1.18019440937815 
1857	-0.985495073613116 
1858	-2.02389669945645 
1859	-2.1577676207465 
1860	-3.24715490655674 
1861	-22.3888703048898 
1862	 2.35504069643941 
1863	 7.03110754463195 
1864	-21.6621557140346 
1865	-4.64094049216351 
1866	-0.644027065012801 
1867	-0.561550467734946 
1868	-2.57504996137185 
1869	 4.16736216688674 
1870	 0.828178352488899 
1871	-0.130500119740127 
1872	-1.07893984835874 
1873	-0.961536344076866 
1874	-0.637921240763126 
1875	-0.368857663408304 
1876	-0.295291236179783 
1877	-0.206258624019958 
1878	-0.315697472791951 
1879	-1.49224929779883 
1880	-1.67579348078082 
1881	-0.662448080879633 
1882	-0.567590719870271 
1883	-0.637288607905387 
1884	-0.321985461835748 
1885	-0.541337200917783 
1886	 0.145731637772891 
1887	 0.819385294535156 
1888	-0.515404180345314 
1889	-0.585328433302988 
1890	-0.566857304274012 
1891	-0.40317355156025 
1892	-1.40900263157458 
1893	 0.752223971789144 
1894	 0.757769715483289 
1895	 0.373513555421999 
1896	 0.214117741492595 
1897	 7.22420112190477E-02 
1898	-0.702727504404919 
1899	-2.62880374163249 
1900	-1.36712699512276 
1901	-7.18206431086182E-02 
1902	-4.96924634505382E-02 
1903	-3.40018446513744E-02 
1904	-0.22154117775808 
1905	-0.400729866113426 
1906	-0.359507523438976 
1907	-0.273015020815423 
1908	-0.64078036278436 
1909	-3.05997614863425 
1910	 11.6798246298726 
1911	-5.45459290991448 
1912	-5.6528876185663 
1913	-4.57223517154263 
1914	-2.03562039989716 
1915	-9.94624975145181E-02 
1916	 3.91421155813598 
1917	 1.98154834486462 
1918	 1.81937629153335 
1919	 3.49496084147993 
1920	 1.1648993508191 
1921	-5.35009745372968E-02 
1922	-0.406904623462117 
1923	-0.403227874467664 
1924	-0.284412771301175 
1925	-0.254415655520728 
1926	 5.61573609494807E-02 
1927	 1.22136425385132 
1928	-5.11135277062951 
1929	 6.27018194197191 
1930	 1.2362311592285 
1931	 1.13847307189804 
1932	 1.15968113981536 
1933	 0.145838653256813 
1934	-0.880527474229181 
1935	 1.37378092635542 
1936	 0.949993896280902 
1937	 0.671139247963836 
1938	 1.65001646979901 
1939	 2.80391990601881 
1940	-98.0768536317203 
1941	 2.29936161999282 
1942	 4.60435058698579 
1943	-9.68710083330514 
1944	-2.54947855339153 
1945	-1.1727316490314 
1946	-0.681934819302521 
1947	-0.540937386709216 
1948	-0.620031322334144 
1949	-0.252328254961222 
1950	-8.30102362424054E-02 
1951	 7.3385559440457E-03 
1952	 5.23257652701813E-02 
1953	 6.88754244648969E-02 
1954	-0.103856727258665 
1955	-0.110375607931496 
1956	-0.101426536044617 
1957	-0.119120998691077 
1958	 7.86620877325122E-03 
1959	 7.43912584804754E-02 
1960	 9.07152862374921E-02 
1961	 0.106889575927594 
1962	 0.118987005619005 
1963	 9.40160042647133E-02 
1964	 5.61423465240979E-02 
1965	 3.35934326588734E-02 
1966	 2.31742156339062E-02 
1967	 8.38116593222232E-03 
1968	 9.19141652375218E-03 
1969	 1.63287722898408E-02 
1970	 0.018798036288311 
1971	 2.11023881575096E-02 
1972	 1.49014747222787E-02 
1973	 1.17063039520281E-02 
1974	 1.53089001412293E-02 
1975	 1.07017688546764E-02 
1976	 7.26431189579711E-03 
1977	 1.11804457564678E-02 
1978	 1.08631460049719E-02 
1979	 1.35811713387134E-02 
1980	 1.84366901832291E-02 
1981	 2.88104212709306E-02 
1982	 3.08533108135565E-02 
1983	 3.19583033109559E-02 
1984	 3.64592065255619E-02 
1985	 3.51745220896516E-02 
1986	 3.48921483650706E-02 
1987	 3.37873471181787E-02 
1988	 0.029497364195121 
1989	 2.61442399290705E-02 
1990	 0.02434285980632 
1991	 2.46947353910006E-02 
1992	 2.70847249633734E-02 
1993	 3.25650908480067E-02 
1994	 3.60426064964469E-02 
1995	 3.91759452424275E-02 
1996	 0.04384067051176 
1997	 4.69423110708721E-02 
1998	 4.21062642118408E-02 
1999	 3.70755504158057E-02 
2000	 3.54948822992071E-02 
2001	 3.21404182141143E-02 
2002	 3.34789512189486E-02 
2003	 3.08015677220006E-02 
2004	 1.95212299703359E-02 
2005	 2.53523728847264E-02 
2006	 3.40152105449311E-02 
2007	 0.037791370266675 
2008	 0.038625267146215 
2009	 3.57532433655337E-02 
2010	 1.50536049388598E-02 
2011	 8.64489224885111E-03 
2012	 3.80559652301427E-03 
2013	 1.45395596583275E-02 
2014	 2.30914262686498E-02 
2015	 2.88515753390856E-02 
2016	 3.25664426498286E-02 
2017	 2.96912684426859E-02 
2018	 2.97690634449794E-02 
2019	 2.82473551027969E-02 
2020	 2.39841314473891E-02 
2021	 2.27806374485594E-02 
2022	 1.96889560769991E-02 
2023	 1.56580096001555E-02 
2024	 1.59086902216693E-02 
2025	 2.09840394780713E-02 
2026	 2.09678358732438E-02 
2027	 1.97639555908569E-02 
2028	 2.04058598285218E-02 
2029	 1.92897361802615E-02 
2030	 1.93759088018324E-02 
2031	 2.00089305642785E-02 
2032	 2.14821751239289E-02 
2033	 2.65591186055824E-02 
2034	 2.74770222239459E-02 
2035	 2.62713821127897E-02 
2036	 0.027389463643655 
2037	 2.54617318212773E-02 
2038	 0.023867301194328 
2039	 2.50713394501898E-02 
2040	 3.18297520820259E-02 
2041	 3.24794799584975E-02 
2042	 3.11506433419873E-02 
2043	 3.07688463908526E-02 
2044	 2.76096541426976E-02 
2045	 2.55985903784051E-02 
2046	 2.83238113881841E-02 
2047	 3.23890350328307E-02 
2048	 3.67342597224988E-02 
2049	 3.90260510557122E-02 
2050	 3.84059916875272E-02 
2051	 3.66514025038293E-02 
2052	 3.43326947656062E-02 
2053	 3.40489020817664E-02 
2054	 3.76739113136801E-02 
2055	 4.19922248631977E-02 
2056	 4.10883851728561E-02 
2057	 3.62681192019458E-02 
2058	 3.32180200173917E-02 
2059	 2.52081153238342E-02 
2060	 0.02215441339263 
2061	 2.21098664699898E-02 
2062	 2.40706812036714E-02 
2063	 2.70128870952475E-02 
2064	 2.56623281245551E-02 
2065	 2.45208071743396E-02 
2066	 2.70266480380378E-02 
2067	 2.90356281526604E-02 
2068	 3.38540179077481E-02 
2069	 3.50145335179964E-02 
2070	 0.035959926277188 
2071	 3.71877587467758E-02 
2072	 3.25149623870563E-02 
2073	 3.11930665433769E-02 
2074	 3.16424574775412E-02 
2075	 3.14244268316475E-02 
2076	 3.09277024195881E-02 
2077	 3.18774642365164E-02 
2078	 3.51166263350674E-02 
2079	 3.54577593840468E-02 
2080	 3.44566747304446E-02 
2081	 3.33457080449871E-02 
2082	 3.46844293381284E-02 
2083	 3.44603681126857E-02 
2084	 3.44548476641055E-02 
2085	 3.55262515109709E-02 
2086	 3.43168596116512E-02 
2087	 3.24046120131591E-02 
2088	 3.16918085449379E-02 
2089	 3.13986617850771E-02 
2090	 3.01384828088349E-02 
2091	 2.98073148627839E-02 
2092	 2.96652804938583E-02 
2093	 3.03840935415847E-02 
2094	 3.01138356596668E-02 
2095	 2.86804294680457E-02 
2096	 2.86943569867311E-02 
2097	 2.98000254341401E-02 
2098	 3.00087335990502E-02 
2099	 3.04183348169943E-02 
2100	 3.17545770635908E-02 
2101	 3.10268501387156E-02 
2102	 3.02500774586543E-02 
2103	 3.06118885958302E-02 
2104	 3.07790346755425E-02 
2105	 3.22422151573544E-02 
2106	 3.42556621870122E-02 
2107	 3.41354781441908E-02 
2108	 3.32332834764029E-02 
2109	 0.033287241220823 
2110	 3.11117993269594E-02 
2111	 3.09699863240677E-02 
2112	 3.27910318005505E-02 
2113	 3.20701336674669E-02 
2114	 2.85051102343343E-02 
2115	 2.80991005519784E-02 
2116	 2.80083784865945E-02 
2117	 2.89250605824473E-02 
2118	 3.25106880181515E-02 
2119	 0.034539769115689 
2120	 3.61850999412148E-02 
2121	 3.78551223418799E-02 
2122	 0.03863072898076 
2123	 3.87192242670595E-02 
2124	 3.81540754674965E-02 
2125	 3.51390063074289E-02 
2126	 0.031669478271432 
2127	 2.86803426863546E-02 
2128	 2.83883786196739E-02 
2129	 3.01220642748306E-02 
2130	 2.91640047713189E-02 
2131	 2.88038736968273E-02 
2132	 3.06798194994263E-02 
2133	 3.26681533156556E-02 
2134	 3.47511091823296E-02 
2135	 0.040865063735069 
2136	 4.24418681025247E-02 
2137	 4.00367785550895E-02 
2138	 3.91416300571668E-02 
2139	 3.80174789761834E-02 
2140	 3.68930540633557E-02 
2141	 3.56589861513567E-02 
2142	 3.50006394037702E-02 
2143	 0.034458811845635 
2144	 3.29410149648292E-02 
2145	 3.16991289011983E-02 
2146	 3.13939496516832E-02 
2147	 3.25342012681374E-02 
2148	 3.21943323325946E-02 
2149	 3.11309803613794E-02 
2150	 3.14972254836843E-02 
2151	 3.24172137150362E-02 
2152	 0.034465242023361 
2153	 3.73092038922191E-02 
2154	 3.86291034307281E-02 
2155	 3.83094198631412E-02 
2156	 3.67770189351654E-02 
2157	 3.60405169479267E-02 
2158	 3.63652971530343E-02 
2159	 3.63135294453994E-02 
2160	 3.61679446435924E-02 
2161	 3.44779619385717E-02 
2162	 3.10813856515546E-02 
2163	 3.00769943087023E-02 
2164	 2.78080625826378E-02 
2165	 0.028414803373545 
2166	 3.53518089948448E-02 
2167	 3.64417165744799E-02 
2168	 3.46559515054387E-02 
2169	 3.43164061036944E-02 
2170	 3.25295093175251E-02 
2171	 2.92469772681476E-02 
2172	 2.64227409749274E-02 
2173	 2.84336278834405E-02 
2174	 3.17432374898148E-02 
2175	 2.98107607591864E-02 
2176	 0.02963535420471 
2177	 0.029381903411969 
2178	 2.78445231421901E-02 
2179	 2.97248431397453E-02 
2180	 3.07496292011673E-02 
2181	 0.029776875197362 
2182	 2.84676538366057E-02 
2183	 2.51561904800087E-02 
2184	 2.35770017408228E-02 
2185	 2.48972973102904E-02 
2186	 2.41989419887217E-02 
2187	 1.99720949052285E-02 
2188	 2.14304407351965E-02 
2189	 2.72683980184648E-02 
2190	 2.91774042580326E-02 
2191	 3.44400777228427E-02 
2192	 0.0349352702797 
2193	 2.60347984339223E-02 
2194	 2.61058230580031E-02 
2195	 3.01725425009195E-02 
2196	 3.21944146559819E-02 
2197	 3.92594628893826E-02 
2198	 4.35483993286843E-02 
2199	 4.49637949770041E-02 
2200	 0.046600030242031 
2201	 4.84661684824545E-02 
2202	 4.64358455185124E-02 
2203	 0.0411044588526 
2204	 3.52866030370284E-02 
2205	 3.07063734475648E-02 
2206	 3.10425591330914E-02 
2207	 0.03467177139359 
2208	 3.67595052070584E-02 
2209	 4.18455784912143E-02 
2210	 4.54764451054937E-02 
2211	 4.26073388604624E-02 
2212	 4.12210126162805E-02 
2213	 3.75578027968167E-02 
2214	 3.11340867445437E-02 
2215	 2.92573191610832E-02 
2216	 3.02961619074896E-02 
2217	 3.10627539069285E-02 
2218	 3.43722704272723E-02 
2219	 3.53705745680354E-02 
2220	 3.67416571569143E-02 
2221	 3.54978885365917E-02 
2222	 3.03513971103373E-02 
2223	 2.94224141321706E-02 
2224	 2.92772587561498E-02 
2225	 2.82295829112986E-02 
2226	 2.91143910094582E-02 
2227	 2.99213169256363E-02 
2228	 2.96792914212983E-02 
2229	 2.98876960281814E-02 
2230	 3.13692238663627E-02 
2231	 3.37135826859149E-02 
2232	 3.63351373332159E-02 
2233	 3.66241922682669E-02 
2234	 3.67357567399498E-02 
2235	 3.75850420274837E-02 
2236	 3.42119609029493E-02 
2237	 3.32797203613676E-02 
2238	 3.93444741211858E-02 
2239	 3.84843729817764E-02 
2240	 3.63871373509643E-02 
2241	 3.98708826396756E-02 
2242	 0.038252294610683 
2243	 3.90739555200647E-02 
2244	 4.05356697768898E-02 
2245	 3.73428787047789E-02 
2246	 3.64691571103238E-02 
2247	 3.57459056890247E-02 
2248	 3.66784235428969E-02 
2249	 3.69386993789934E-02 
2250	 3.54196814168701E-02 
2251	 3.23442341880309E-02 
2252	 2.94199808312673E-02 
2253	 0.032079623142506 
2254	 3.33393939693715E-02 
2255	 3.38179343228957E-02 
2256	 3.63755119304539E-02 
2257	 3.83287020520162E-02 
2258	 0.037905492545662 
2259	 3.68698388299525E-02 
2260	 3.70706209344072E-02 
2261	 3.49168592376845E-02 
2262	 3.75085268296982E-02 
2263	 4.56702093253425E-02 
2264	 4.73942197728466E-02 
2265	 5.00749948537523E-02 
2266	 4.60578552499543E-02 
2267	 3.17564293898588E-02 
2268	 2.89898497085462E-02 
2269	 3.04571957325822E-02 
2270	 3.02861625095349E-02 
2271	 3.41046019275561E-02 
2272	 3.67375283460368E-02 
2273	 3.56164102476701E-02 
2274	 3.57241184979846E-02 
2275	 4.11008040878849E-02 
2276	 4.13745289102854E-02 
2277	 3.34240989294277E-02 
2278	 3.49204018218517E-02 
2279	 0.044353139533501 
2280	 4.55027803877545E-02 
2281	 4.58560430680937E-02 
2282	 4.99848991347951E-02 
2283	 4.57274447812509E-02 
2284	 3.91790564460107E-02 
2285	 3.98421322558236E-02 
2286	 3.80102733640743E-02 
2287	 3.47748533978116E-02 
2288	 2.91441948256339E-02 
2289	 2.94589046055701E-02 
2290	 3.10362272796301E-02 
2291	 2.70194022784681E-02 
2292	 3.84955663371034E-02 
2293	 5.17856672271661E-02 
2294	 5.25448410038861E-02 
2295	 4.57073932822519E-02 
2296	 3.72877582182537E-02 
2297	 2.83072860439856E-02 
2298	 2.22345284839764E-02 
2299	 3.24577787432836E-02 
2300	 3.52488374227616E-02 
2301	 0.031120915290218 
2302	 3.94374452755824E-02 
2303	 3.77156718777761E-02 
2304	 3.12535661987366E-02 
2305	 2.16538438566556E-02 
2306	 3.67110796414068E-03 
2307	 6.90196089364479E-03 
2308	 2.13400181064113E-02 
2309	 3.57040005686036E-02 
2310	 5.10234971094947E-02 
2311	 4.53891724272691E-02 
2312	 3.77952324695966E-02 
2313	 4.30132515325063E-02 
2314	 5.09791956845753E-02 
2315	 5.86687334869266E-02 
2316	 5.73843581431967E-02 
2317	 5.47136052957285E-02 
2318	 0.05423716699255 
2319	 5.58802682456346E-02 
2320	 6.13612671182288E-02 
2321	 4.51809819688413E-02 
2322	 1.93657878113454E-02 
2323	 2.30773840629099E-02 
2324	 3.47683611998838E-02 
2325	 2.83384489431207E-02 
2326	 2.27314908178896E-02 
2327	 1.00918655851569E-02 
2328	-0.010661727820465 
2329	 3.76102544732355E-03 
2330	 2.82954162608673E-02 
2331	 2.59291846267558E-02 
2332	 3.41052441107817E-02 
2333	 4.92592102719743E-02 
2334	 4.46799952549099E-02 
2335	 3.92896649407733E-02 
2336	 3.50692226918292E-02 
2337	 2.14824122740005E-02 
2338	 2.60978490895572E-02 
2339	 3.60594837462287E-02 
2340	 0.03827020433946 
2341	 3.67241686296817E-02 
2342	 1.19052010164548E-02 
2343	-1.41645694132208E-02 
2344	-3.20932181005579E-02 
2345	-3.65972652909332E-02 
2346	-4.40405654575451E-02 
2347	-4.64513846738086E-02 
2348	-4.02222107599345E-02 
2349	-0.046466736660185 
2350	-2.22856709473847E-02 
2351	-1.15381180373116E-02 
2352	-8.90599480368595E-03 
2353	 0.029537773293329 
2354	 3.78882041901211E-02 
2355	 5.53030163321653E-02 
2356	 7.42158964859678E-02 
2357	 6.24125265003657E-02 
2358	 0.053666762456374 
2359	 1.88998409825154E-02 
2360	 1.29341221135498E-02 
2361	 3.18587239255827E-02 
2362	 3.23008724335999E-02 
2363	 4.82948004015856E-02 
2364	 4.29351279055881E-02 
2365	 8.85697945728592E-03 
2366	-0.023452654557573 
2367	-7.03483126520282E-02 
2368	-5.81406391565877E-02 
2369	-3.24370073463651E-02 
2370	-0.045226713702252 
2371	-5.92119278783882E-03 
2372	 2.35242058949983E-02 
2373	-5.52873362589002E-03 
2374	-3.21762786226011E-03 
2375	-0.022600827109133 
2376	-0.177365100115176 
2377	-0.227836762965817 
2378	-0.140760096124374 
2379	-0.134990757991776 
2380	-6.14496030159729E-03 
2381	 0.152454840466962 
2382	 0.16148629946539 
2383	 0.157697199732652 
2384	 0.187117908789069 
2385	 0.122155076866684 
2386	 7.96203767073119E-02 
2387	 0.187113852840297 
2388	 0.138766535902047 
2389	 0.168733981679848 
2390	 0.168462578963195 
2391	-2.45700358504498E-02 
2392	-7.05177038593795E-02 
2393	-1.12227003689128E-02 
2394	 0.102633043527952 
2395	 0.271002497506956 
2396	 0.370067571040159 
2397	 0.288745833752961 
2398	 0.154703058642081 
2399	 8.49830029909597E-02 
2400	 5.52293301905431E-02 
2401	 9.43358525623154E-02 
2402	 0.1915800954384 
2403	 0.254849916444616 
2404	 0.197495954533294 
2405	 0.109540196286157 
2406	-4.11353368337546E-02 
2407	-0.146635241068996 
2408	-0.168482552250997 
2409	-0.296763841131881 
2410	-0.329869240417178 
2411	-0.564017766713372 
2412	-0.935456008338637 
2413	-0.797448732010697 
2414	-0.583799234614844 
2415	-0.586800310460045 
2416	-0.550316977160876 
2417	-0.519897364595665 
2418	-0.519605159855048 
2419	-0.299857322952994 
2420	 2.05488594013016E-03 
2421	 0.250829271595334 
2422	 0.524676307614441 
2423	 1.14004692378093 
2424	 0.685490887143815 
2425	 3.75797962463371E-02 
2426	-0.644464569694948 
2427	-0.345642881452987 
2428	-0.398811910765042 
2429	 0.166047082720742 
2430	 0.453160505496499 
2431	 0.231205285472708 
2432	 0.340451142039169 
2433	 9.79826160446924E-02 
2434	-0.74713386479634 
2435	 0.414248954776629 
2436	 2.03674147576574 
2437	 29.0314119975928 
2438	 0.920517067246589 
2439	 2.84652573265484 
2440	-52.230594518146 
2441	-19.7161071282209 
2442	-0.109484866197909 
2443	-0.820687351115335 
2444	 7.88853570615945 
2445	 0.668048724621896 
2446	-0.057098616376713 
2447	-0.610331717506169 
2448	-0.655318410882849 
2449	-0.690632453572637 
2450	-0.704590363734302 
2451	-0.364187944669116 
2452	-0.380577477892574 
2453	-0.209419086999909 
2454	 0.332994683832243 
2455	 0.467814715619693 
2456	 0.61935933762877 
2457	 0.756631800063846 
2458	 0.682091556060311 
2459	 0.19094190550172 
2460	-0.764993756241283 
2461	-0.61528744305343 
2462	-9.81562168896717E-02 
2463	 0.389613428398756 
2464	 0.74404251767563 
2465	 1.13100158446522 
2466	 1.66487003715212 
2467	 3.07530206483975 
2468	 4.15326229666431 
2469	 5.23253425829365 
2470	-3.034848063849 
2471	-3.8724056956602 
2472	 2.7472403945551 
2473	 0.906575353666198 
2474	-0.157549597766795 
2475	-0.430413043396066 
2476	-0.959355752436771 
2477	-3.55729715761818 
2478	-7.33896580243785 
2479	 1.05899196188742 
2480	 0.518866776020618 
2481	 0.445734624107728 
2482	 0.390930443816044 
2483	 0.40254286183898 
2484	 0.512819958209191 
2485	 0.921626841705106 
2486	 1.59498295025001 
2487	 3.26627672509968 
2488	 2.37934441081085 
2489	 1.36985802759295 
2490	 0.94663571768877 
2491	 0.619868331906554 
2492	 0.508085446107597 
2493	 1.25939696133403 
2494	 1.72469436950787 
2495	 5.25240291986132 
2496	-23.8971915099976 
2497	-3.35777727602788 
2498	-3.2617249675549 
2499	-4.43871900613422 
2500	-5.28371558186888 
