Wavelength	rt0713west_close_sunny_100001.asd
350	 4.79245959456866E-02 
351	 0.047405692823883 
352	 4.72766890780708E-02 
353	 4.77084028201965E-02 
354	 0.048239917589809 
355	 0.047383724299824 
356	 4.69509295985708E-02 
357	 4.70367011683363E-02 
358	 4.71429340766537E-02 
359	 0.046791420598159 
360	 4.66769950048107E-02 
361	 4.67720372515648E-02 
362	 0.046573845607458 
363	 4.62737295774331E-02 
364	 4.62477201397559E-02 
365	 4.64909505773192E-02 
366	 4.64150753652157E-02 
367	 4.62710242411877E-02 
368	 4.62333289729167E-02 
369	 4.63284446938789E-02 
370	 4.60800228595806E-02 
371	 4.62941282403254E-02 
372	 4.65545694734593E-02 
373	 4.59573385736112E-02 
374	 4.60363615133985E-02 
375	 4.62838485217381E-02 
376	 4.63410788517141E-02 
377	 4.63542665680134E-02 
378	 4.61734365666706E-02 
379	 4.60830139932854E-02 
380	 4.63303456165438E-02 
381	 4.68349971433399E-02 
382	 4.66082219953788E-02 
383	 4.62058675419166E-02 
384	 0.046690387668462 
385	 4.69040795634727E-02 
386	 4.68261406572266E-02 
387	 4.67456885646501E-02 
388	 4.71351202383365E-02 
389	 0.047038361249001 
390	 4.69190761188419E-02 
391	 4.71894502833071E-02 
392	 4.74944655806608E-02 
393	 4.75494571690151E-02 
394	 4.74838098257034E-02 
395	 4.75480847325712E-02 
396	 4.76484809665961E-02 
397	 4.78417995802485E-02 
398	 4.79480653981948E-02 
399	 4.76362561264607E-02 
400	 0.047691847237539 
401	 4.78597329711792E-02 
402	 4.78970474958616E-02 
403	 4.79525641207771E-02 
404	 4.81212028057637E-02 
405	 4.82859209532836E-02 
406	 4.82879789367726E-02 
407	 4.82062300409251E-02 
408	 4.83556780114965E-02 
409	 4.86437747571531E-02 
410	 4.86042397098839E-02 
411	 4.85648885351037E-02 
412	 4.86758160042319E-02 
413	 4.89138862149056E-02 
414	 4.89189364923338E-02 
415	 4.90836314587262E-02 
416	 4.92954881404246E-02 
417	 0.049325018990917 
418	 4.95710648150353E-02 
419	 4.98153209978063E-02 
420	 4.99177387449525E-02 
421	 4.98806268607298E-02 
422	 5.01237017760821E-02 
423	 0.05049087314312 
424	 5.07724497492241E-02 
425	 5.09763071364095E-02 
426	 5.11748210223574E-02 
427	 5.13920879303465E-02 
428	 5.16348925119009E-02 
429	 5.19949728921368E-02 
430	 5.22855410003517E-02 
431	 5.24849664871966E-02 
432	 5.27898647157658E-02 
433	 5.30545914486059E-02 
434	 5.32816991566665E-02 
435	 5.35221955008319E-02 
436	 5.38771912347983E-02 
437	 5.42152329689887E-02 
438	 5.44982147926346E-02 
439	 5.47498761993473E-02 
440	 5.50293229828223E-02 
441	 5.53741736960922E-02 
442	 5.57374804200944E-02 
443	 5.59550130396147E-02 
444	 5.62036569424403E-02 
445	 5.64952664525961E-02 
446	 5.67927934354658E-02 
447	 0.057076943511353 
448	 5.72630290534744E-02 
449	 5.73887356515734E-02 
450	 5.75814177022643E-02 
451	 5.78681158948573E-02 
452	 5.81305032436597E-02 
453	 5.82994538978304E-02 
454	 5.84397713975372E-02 
455	 5.86344268768519E-02 
456	 5.88083462093745E-02 
457	 5.88758108644573E-02 
458	 5.90319585818791E-02 
459	 5.92418629549799E-02 
460	 5.94393616297275E-02 
461	 5.95451168213778E-02 
462	 5.96492398753575E-02 
463	 5.97914342994277E-02 
464	 5.99683359440773E-02 
465	 6.00958385624976E-02 
466	 6.01858430509118E-02 
467	 6.02581787149278E-02 
468	 0.060344684780915 
469	 6.04982904864081E-02 
470	 6.06710762773671E-02 
471	 6.08244993352305E-02 
472	 6.09463102799037E-02 
473	 6.10577973763743E-02 
474	 6.12207906940901E-02 
475	 0.061460658301627 
476	 6.16501292288452E-02 
477	 6.17965552526253E-02 
478	 6.19601491675934E-02 
479	 6.22225896254004E-02 
480	 6.24672603159012E-02 
481	 6.27531332429179E-02 
482	 0.063069131550097 
483	 6.32014052244966E-02 
484	 6.34294466039742E-02 
485	 6.37567865502964E-02 
486	 6.40850616589041E-02 
487	 6.43935195182442E-02 
488	 6.46594431843111E-02 
489	 6.49146533539542E-02 
490	 6.52360883120285E-02 
491	 6.55259716155832E-02 
492	 6.58386242414718E-02 
493	 6.62204969445241E-02 
494	 6.66261958647492E-02 
495	 6.70349961728481E-02 
496	 0.067428989127584 
497	 6.77964788834195E-02 
498	 6.81394660440654E-02 
499	 6.84750652017204E-02 
500	 0.068821349214544 
501	 6.91944998419817E-02 
502	 6.95917827331198E-02 
503	 7.00262707818919E-02 
504	 7.04921815016275E-02 
505	 7.08801520503585E-02 
506	 7.13687860784518E-02 
507	 7.19150283676946E-02 
508	 7.23116384887314E-02 
509	 7.27255226298947E-02 
510	 7.32066236820696E-02 
511	 7.37421530520822E-02 
512	 7.42241507491629E-02 
513	 7.47413653292266E-02 
514	 7.52963196638592E-02 
515	 7.58527481873212E-02 
516	 0.07639995929303 
517	 7.69990472285561E-02 
518	 7.76277714217785E-02 
519	 7.81607171615198E-02 
520	 0.07875539541729 
521	 7.93163457129212E-02 
522	 0.079786012996741 
523	 8.04239644135382E-02 
524	 8.10970829844001E-02 
525	 8.17252367104439E-02 
526	 8.22843232327849E-02 
527	 8.28751248167765E-02 
528	 8.34886407421168E-02 
529	 0.084095145149478 
530	 0.084654080673871 
531	 8.52595677142769E-02 
532	 8.59335203474486E-02 
533	 8.66469023252939E-02 
534	 8.72913145601859E-02 
535	 8.78519763361159E-02 
536	 8.83959732146815E-02 
537	 8.90648108973057E-02 
538	 8.96877231847704E-02 
539	 9.02937621329019E-02 
540	 9.09345752141414E-02 
541	 9.15732838253877E-02 
542	 9.22038646942328E-02 
543	 9.28377638624286E-02 
544	 9.34991559135919E-02 
545	 9.42005070677859E-02 
546	 9.48457369228024E-02 
547	 9.54093093053285E-02 
548	 0.096023137167448 
549	 9.66493960722271E-02 
550	 9.72760801214809E-02 
551	 9.79007288936854E-02 
552	 9.85392340755192E-02 
553	 9.91274741067843E-02 
554	 9.96869807643637E-02 
555	 0.100333039456711 
556	 0.100917396860962 
557	 0.101464040804228 
558	 0.102022529498709 
559	 0.102606474898337 
560	 0.103153376228258 
561	 0.103647121341149 
562	 0.104105058442948 
563	 0.104514769134998 
564	 0.104930728524421 
565	 0.105346110965852 
566	 0.105614540339525 
567	 0.105923509116162 
568	 0.106277416832012 
569	 0.106615590899116 
570	 0.106945702617477 
571	 0.107212828770039 
572	 0.107411283546199 
573	 0.107590701763015 
574	 0.107826275208634 
575	 0.108057709127448 
576	 0.108223860471284 
577	 0.108377983169433 
578	 0.108526155181179 
579	 0.108657110369308 
580	 0.108747209742769 
581	 0.108790209052802 
582	 0.10871564791809 
583	 0.108543531381914 
584	 0.108481095429307 
585	 0.108265926367619 
586	 0.107925815204823 
587	 0.107581810926852 
588	 0.107245239642955 
589	 0.106929477943054 
590	 0.106664325753238 
591	 0.106465132097259 
592	 0.106153307395504 
593	 0.105798590311082 
594	 0.105456973983538 
595	 0.104953138740302 
596	 0.104361689538858 
597	 0.103727969765052 
598	 0.103083521881681 
599	 0.102420339238205 
600	 0.101845479498108 
601	 0.101419420417054 
602	 0.101101768606057 
603	 0.100893087968492 
604	 0.10072777889648 
605	 0.100565015702145 
606	 0.100590607303119 
607	 0.10060936627931 
608	 0.100558754405459 
609	 0.100531509971015 
610	 0.100507647414208 
611	 0.100488134475274 
612	 0.100471718764704 
613	 0.100441147880617 
614	 0.100424342665663 
615	 0.100417959008459 
616	 0.10040098042755 
617	 0.100375906127169 
618	 0.100309666396934 
619	 0.100220315348129 
620	 0.100216204705086 
621	 0.100177165193472 
622	 0.100112801909797 
623	 0.1000586951095 
624	 9.99576176703593E-02 
625	 9.98667667750445E-02 
626	 0.099784628484051 
627	 9.96565282768334E-02 
628	 9.95868628163153E-02 
629	 9.95844405803119E-02 
630	 9.96110859558434E-02 
631	 9.95657175614298E-02 
632	 9.95214328727347E-02 
633	 9.94935930263027E-02 
634	 9.94642819023993E-02 
635	 9.93849591773471E-02 
636	 9.93117735436042E-02 
637	 9.92403473017955E-02 
638	 9.90628901620118E-02 
639	 9.89295068696883E-02 
640	 9.87823917301095E-02 
641	 9.85553643905685E-02 
642	 9.84097670589597E-02 
643	 0.098192995481458 
644	 0.097860087331707 
645	 9.74707321064749E-02 
646	 9.71797696761204E-02 
647	 0.096946795800752 
648	 9.67369696741358E-02 
649	 9.66290389252489E-02 
650	 9.64680054762105E-02 
651	 9.62384695707954E-02 
652	 9.59792306143333E-02 
653	 9.56211623004424E-02 
654	 9.52180682894315E-02 
655	 9.47845096585963E-02 
656	 9.43287734692208E-02 
657	 9.38629658653362E-02 
658	 9.34659717313541E-02 
659	 9.31682659843238E-02 
660	 9.28749909729075E-02 
661	 9.26051548498381E-02 
662	 9.23721652292401E-02 
663	 9.21917049723854E-02 
664	 9.20879000835089E-02 
665	 9.19290928396749E-02 
666	 0.091693910858968 
667	 9.15933470187144E-02 
668	 9.15005065884477E-02 
669	 0.091398685690407 
670	 9.13117670013771E-02 
671	 9.12864453701721E-02 
672	 9.12592295138942E-02 
673	 9.12233548188589E-02 
674	 9.12248186147579E-02 
675	 9.11478472261283E-02 
676	 9.11479199913446E-02 
677	 9.12900528117856E-02 
678	 9.12847301738213E-02 
679	 9.12731926747774E-02 
680	 9.13486458145909E-02 
681	 9.15409261961948E-02 
682	 9.15846878718664E-02 
683	 9.16278366893633E-02 
684	 9.17186083456013E-02 
685	 9.17285793425509E-02 
686	 9.17012954412169E-02 
687	 9.16909655492758E-02 
688	 9.17285877402564E-02 
689	 9.17606523005261E-02 
690	 9.16992296112254E-02 
691	 9.15225887856093E-02 
692	 9.12583792741056E-02 
693	 9.10344918593659E-02 
694	 9.08757697899191E-02 
695	 9.07395094667467E-02 
696	 0.090515329056624 
697	 9.00430114037443E-02 
698	 8.93783010665175E-02 
699	 8.87101409852536E-02 
700	 8.82280586036807E-02 
701	 8.76422423742927E-02 
702	 8.69614789236425E-02 
703	 8.63956860614289E-02 
704	 8.55450100266891E-02 
705	 8.45929171721642E-02 
706	 8.37129892624285E-02 
707	 8.28017875940688E-02 
708	 8.17131961760161E-02 
709	 8.04785653014536E-02 
710	 0.079177787797888 
711	 7.76984000004779E-02 
712	 7.61285276332484E-02 
713	 7.44731000461157E-02 
714	 7.25905465347537E-02 
715	 7.06580104680465E-02 
716	 6.85283110097953E-02 
717	 6.63021775208853E-02 
718	 6.43781385037307E-02 
719	 6.26768808106797E-02 
720	 6.12119366729931E-02 
721	 5.96979965510703E-02 
722	 5.80519326182414E-02 
723	 5.60926353478984E-02 
724	 0.054079921616269 
725	 5.22197142245904E-02 
726	 5.02628264391166E-02 
727	 4.81683195839205E-02 
728	 4.60083754783604E-02 
729	 4.39389138639384E-02 
730	 4.18243362827562E-02 
731	 3.99549586025282E-02 
732	 3.85278806305658E-02 
733	 3.70832757258239E-02 
734	 3.58099429037003E-02 
735	 3.48129911248376E-02 
736	 0.034004505746419 
737	 3.34348386435741E-02 
738	 3.30773395921444E-02 
739	 3.28566098273372E-02 
740	 3.25681777225508E-02 
741	 3.24347686778062E-02 
742	 0.032418824861902 
743	 0.032355022308997 
744	 3.22797413115533E-02 
745	 3.21832666533336E-02 
746	 3.20868982271664E-02 
747	 3.20536760608931E-02 
748	 3.20781576704468E-02 
749	 3.20721329387554E-02 
750	 3.19829650406394E-02 
751	 3.19385598075396E-02 
752	 3.19286532403454E-02 
753	 3.19336143176828E-02 
754	 3.19231068023191E-02 
755	 3.18524071424092E-02 
756	 0.031754418435942 
757	 3.16136120712683E-02 
758	 3.12606962034781E-02 
759	 3.10174331708137E-02 
760	 3.08603464749311E-02 
761	 3.06698166876791E-02 
762	 3.07546173948154E-02 
763	 3.08593627080756E-02 
764	 3.11095848603136E-02 
765	 3.15940239993493E-02 
766	 3.17377907177349E-02 
767	 3.18933322102054E-02 
768	 3.21594154466848E-02 
769	 3.23768173879008E-02 
770	 0.032396046321864 
771	 3.24880266115894E-02 
772	 3.27892512630325E-02 
773	 3.28223211274291E-02 
774	 3.29513321296455E-02 
775	 3.31894091133967E-02 
776	 3.33970732455948E-02 
777	 3.34976088619271E-02 
778	 3.36855141920828E-02 
779	 3.39675887786674E-02 
780	 3.41513132489698E-02 
781	 3.43133438647706E-02 
782	 3.45414367803931E-02 
783	 3.48518996097856E-02 
784	 0.0351013391833 
785	 3.53051588250399E-02 
786	 0.035512252366959 
787	 3.57660379165389E-02 
788	 3.59781675200667E-02 
789	 3.62914100671455E-02 
790	 3.66901816343546E-02 
791	 0.03703921171477 
792	 3.74455710743382E-02 
793	 3.77945914197738E-02 
794	 3.80520468817711E-02 
795	 3.83418190157058E-02 
796	 3.86998739555363E-02 
797	 3.89680563633642E-02 
798	 3.90821332271568E-02 
799	 3.94498646545533E-02 
800	 0.039736047051252 
801	 3.99258286780379E-02 
802	 4.01775489975764E-02 
803	 4.04028793138695E-02 
804	 4.05254613595783E-02 
805	 4.05819444369501E-02 
806	 4.07171243802637E-02 
807	 4.08043185771114E-02 
808	 4.06520075055614E-02 
809	 4.02299404640617E-02 
810	 3.99303940512264E-02 
811	 3.98468664926626E-02 
812	 3.96338058834109E-02 
813	 3.88978446010906E-02 
814	 3.84806950379295E-02 
815	 3.81442813864318E-02 
816	 3.76882032753426E-02 
817	 3.70874207350065E-02 
818	 3.69155679895246E-02 
819	 3.67610411527503E-02 
820	 3.62636344464775E-02 
821	 3.52147341464806E-02 
822	 3.42146272673159E-02 
823	 3.32574132404874E-02 
824	 3.22567117385753E-02 
825	 3.13030204339822E-02 
826	 3.00772586798838E-02 
827	 2.86891547446483E-02 
828	 2.74849068097852E-02 
829	 2.63890597127144E-02 
830	 2.54488752520255E-02 
831	 0.024741759465062 
832	 2.43271356101693E-02 
833	 2.36724866409601E-02 
834	 2.31465062423419E-02 
835	 2.29010764037402E-02 
836	 2.26795002210266E-02 
837	 2.23796419930183E-02 
838	 2.20793321311885E-02 
839	 2.18994757630639E-02 
840	 2.19845871208946E-02 
841	 2.18625288988379E-02 
842	 2.15812371163534E-02 
843	 2.13720078026252E-02 
844	 2.12760078220031E-02 
845	 2.11176796986401E-02 
846	 2.09006951871258E-02 
847	 2.07566563062371E-02 
848	 0.020724977757551 
849	 2.05964200456416E-02 
850	 2.03602985887249E-02 
851	 2.02789180425547E-02 
852	 2.02102856188134E-02 
853	 2.00852003361211E-02 
854	 1.99085673239967E-02 
855	 1.97975792576221E-02 
856	 1.97729008157647E-02 
857	 1.97737995790095E-02 
858	 1.97337733721736E-02 
859	 1.96733533952572E-02 
860	 1.94469096780056E-02 
861	 1.92168607295542E-02 
862	 1.92091995348393E-02 
863	 1.90134433476098E-02 
864	 1.88715798140026E-02 
865	 1.88427611561606E-02 
866	 1.87744836144582E-02 
867	 1.85907351581138E-02 
868	 1.84434098697256E-02 
869	 1.83371106943258E-02 
870	 1.80604293360003E-02 
871	 1.80580604623305E-02 
872	 1.79823415487223E-02 
873	 1.76777666585513E-02 
874	 0.017813838113032 
875	 1.77393579617323E-02 
876	 1.74604632563583E-02 
877	 1.72004158659025E-02 
878	 1.71373715036473E-02 
879	 1.71282907172203E-02 
880	 1.70455925250535E-02 
881	 1.68219813313798E-02 
882	 1.66155329363336E-02 
883	 1.65288192323379E-02 
884	 1.64124173016524E-02 
885	 1.60346163618257E-02 
886	 1.61148300828364E-02 
887	 1.61428023455015E-02 
888	 1.59102959505755E-02 
889	 1.57109898987727E-02 
890	 1.56234653448347E-02 
891	 0.015445464309419 
892	 1.51129172348982E-02 
893	 1.49360179903718E-02 
894	 1.46536180721369E-02 
895	 1.42687088383058E-02 
896	 1.39654142751801E-02 
897	 1.41793032607207E-02 
898	 1.44874040479483E-02 
899	 1.44017421001626E-02 
900	 1.38277077963004E-02 
901	 1.37464232709273E-02 
902	 1.39564511022917E-02 
903	 0.013956260208286 
904	 1.34296579780718E-02 
905	 1.34575267980077E-02 
906	 1.36086978217452E-02 
907	 1.37789465584706E-02 
908	 0.013985073224461 
909	 1.32172810123974E-02 
910	 0.012421111019416 
911	 1.22266661977093E-02 
912	 1.26226394843971E-02 
913	 0.012795062095227 
914	 1.26097945714503E-02 
915	 0.012292964867554 
916	 1.22744674059961E-02 
917	 1.20268318468706E-02 
918	 0.011697076229986 
919	 1.16920509528621E-02 
920	 1.25398303484426E-02 
921	 1.22654374358759E-02 
922	 0.011574563480529 
923	 1.12786003393374E-02 
924	 1.12761468827938E-02 
925	 1.10296432094013E-02 
926	 1.07362649922092E-02 
927	 1.07549549555433E-02 
928	 1.10593101192941E-02 
929	 1.04813200226116E-02 
930	 9.85325810433751E-03 
931	 1.11817949129992E-02 
932	 0.012887150514752 
933	 1.53607522001507E-02 
934	 1.39863462053161E-02 
935	 6.95019301767851E-03 
936	 7.09098248935157E-03 
937	 8.45261975788507E-03 
938	 9.31236305842276E-03 
939	 9.58437763680419E-03 
940	 8.44316300064919E-03 
941	 6.63013941512431E-03 
942	 6.26227573086784E-03 
943	 9.26445568679038E-03 
944	 1.23639581783436E-02 
945	 9.92602370536299E-03 
946	 6.28297867631968E-03 
947	 9.17191328306114E-03 
948	 9.4873055895327E-03 
949	 8.69587346824666E-03 
950	 7.6140068142357E-03 
951	 6.65220996580802E-03 
952	 8.67921658827789E-03 
953	 9.48323776405428E-03 
954	 9.08906749634595E-03 
955	 9.88676594922853E-03 
956	 7.23170246171353E-03 
957	 7.70343825756058E-03 
958	 1.06135012723304E-02 
959	 0.010448833540879 
960	 7.92856169944806E-03 
961	 7.48708405115946E-03 
962	 9.80470748539494E-03 
963	 1.22542112719613E-02 
964	 1.11387382217945E-02 
965	 1.01300749705628E-02 
966	 9.91828725400752E-03 
967	 8.87584653235794E-03 
968	 7.79460454369391E-03 
969	 8.34593725713248E-03 
970	 9.83319191453527E-03 
971	 9.8890303683176E-03 
972	 9.73493820349977E-03 
973	 1.03631452750209E-02 
974	 0.010914672074879 
975	 9.37483736343311E-03 
976	 9.21429537176057E-03 
977	 8.74933951327278E-03 
978	 8.5535483734373E-03 
979	 1.07108793573836E-02 
980	 1.00812395702822E-02 
981	 9.39981764896201E-03 
982	 9.86887042621807E-03 
983	 0.010648018052927 
984	 1.07876072942154E-02 
985	 1.08123275294094E-02 
986	 1.12942365396951E-02 
987	 1.23054058583896E-02 
988	 1.13924301820314E-02 
989	 1.01227398948658E-02 
990	 9.56443258888036E-03 
991	 9.84226400109921E-03 
992	 1.00411366815832E-02 
993	 1.05869392341673E-02 
994	 1.12965230959963E-02 
995	 0.011490218481397 
996	 1.05788316508947E-02 
997	 1.05931505258108E-02 
998	 1.10480679109682E-02 
999	 1.04038791755398E-02 
1000	 0.011313444248239 
1001	 9.51685784494633E-03 
1002	 9.51611947908849E-03 
1003	 9.50522808391869E-03 
1004	 9.62600328093903E-03 
1005	 9.66233374168476E-03 
1006	 9.63326534724406E-03 
1007	 9.35856209649225E-03 
1008	 9.25444729179005E-03 
1009	 9.17218522828423E-03 
1010	 9.1441918703973E-03 
1011	 9.14641253261995E-03 
1012	 9.34413218127895E-03 
1013	 9.43052578025214E-03 
1014	 9.38676947049834E-03 
1015	 9.19101017327095E-03 
1016	 9.16900140679831E-03 
1017	 9.21817662062197E-03 
1018	 9.02280498612124E-03 
1019	 8.7119460667267E-03 
1020	 8.55956426265774E-03 
1021	 8.11807338135626E-03 
1022	 8.02599615740305E-03 
1023	 8.38972531401957E-03 
1024	 8.60045749961856E-03 
1025	 8.95468959824585E-03 
1026	 9.09748980979568E-03 
1027	 9.16756699358599E-03 
1028	 9.09159210209272E-03 
1029	 9.16439065822336E-03 
1030	 9.16018849573301E-03 
1031	 9.29279880073964E-03 
1032	 9.68148962814559E-03 
1033	 9.78815430462262E-03 
1034	 9.7670087699664E-03 
1035	 9.78243616511893E-03 
1036	 9.56860912985641E-03 
1037	 9.56291530224897E-03 
1038	 9.76371184859866E-03 
1039	 9.89859561033204E-03 
1040	 9.80610351569966E-03 
1041	 9.97596532477587E-03 
1042	 9.87713062158204E-03 
1043	 9.42531736221674E-03 
1044	 9.46365214116336E-03 
1045	 9.68501359075044E-03 
1046	 0.009809253746142 
1047	 1.03739414211213E-02 
1048	 1.03575533525865E-02 
1049	 9.79503329323303E-03 
1050	 9.64749260922934E-03 
1051	 9.40201748259569E-03 
1052	 9.25493960667345E-03 
1053	 9.4626102358006E-03 
1054	 9.48593417168333E-03 
1055	 9.31988115823369E-03 
1056	 9.27237670911339E-03 
1057	 9.25654270396223E-03 
1058	 9.23829882368411E-03 
1059	 9.32214999312385E-03 
1060	 9.58223337283814E-03 
1061	 9.59002416017138E-03 
1062	 9.45528714014276E-03 
1063	 9.53262253101753E-03 
1064	 0.00960926373863 
1065	 9.64344123213891E-03 
1066	 9.98255972484217E-03 
1067	 9.97212104048761E-03 
1068	 9.49734415901226E-03 
1069	 9.35440168382003E-03 
1070	 9.19332303172618E-03 
1071	 9.14814466134191E-03 
1072	 9.3979668038313E-03 
1073	 9.56284831954382E-03 
1074	 9.61725071149522E-03 
1075	 9.64785451669399E-03 
1076	 9.60387983503806E-03 
1077	 9.40600797887168E-03 
1078	 9.3437856217102E-03 
1079	 9.26968957034908E-03 
1080	 9.26863208365779E-03 
1081	 9.39362853128571E-03 
1082	 9.40264067061347E-03 
1083	 9.39843328372528E-03 
1084	 9.37752974877756E-03 
1085	 9.20925064056139E-03 
1086	 0.009206842166233 
1087	 9.39001258257454E-03 
1088	 9.42832584429373E-03 
1089	 9.6484492264293E-03 
1090	 9.49286688132448E-03 
1091	 9.36064395724635E-03 
1092	 8.9921840241179E-03 
1093	 8.94546178627557E-03 
1094	 8.99095989651711E-03 
1095	 8.99961752530851E-03 
1096	 9.21236785238943E-03 
1097	 9.11731868520966E-03 
1098	 8.75509805048755E-03 
1099	 8.6324738566436E-03 
1100	 8.47546644123221E-03 
1101	 8.42151856639656E-03 
1102	 8.58091323993894E-03 
1103	 8.54012391038437E-03 
1104	 8.29137581472916E-03 
1105	 8.3634125333263E-03 
1106	 8.14231616382133E-03 
1107	 8.18828047929207E-03 
1108	 8.67191978826351E-03 
1109	 8.54122367254061E-03 
1110	 8.6001435586519E-03 
1111	 9.02728815834513E-03 
1112	 8.80785461063819E-03 
1113	 7.53447284581071E-03 
1114	 7.46795250593922E-03 
1115	 7.87347550268841E-03 
1116	 7.66875463371913E-03 
1117	 8.81509389101601E-03 
1118	 9.05352468344714E-03 
1119	 5.71916618758241E-03 
1120	 4.96241609453693E-03 
1121	 6.83886810227705E-03 
1122	 9.65841012848402E-03 
1123	 9.26984808845377E-03 
1124	 7.84360589793032E-03 
1125	 6.04202968856084E-03 
1126	 3.2332295531337E-03 
1127	 6.12821272155583E-03 
1128	 1.42982095296556E-02 
1129	 1.40529302359001E-02 
1130	 7.95382297755125E-03 
1131	 7.59180985086288E-03 
1132	 6.93275263352159E-03 
1133	 7.02684537195537E-03 
1134	 1.13805310115732E-02 
1135	 1.17072611054516E-02 
1136	 8.33486450646551E-03 
1137	 7.18704585059083E-03 
1138	 6.12818365944226E-03 
1139	 5.74288940156435E-03 
1140	 5.12218394592222E-03 
1141	 6.62675212450722E-03 
1142	 7.14773560570497E-03 
1143	 7.15308909904799E-03 
1144	 9.31859693671319E-03 
1145	 8.59998818598212E-03 
1146	 6.44002027671202E-03 
1147	 7.15112053760457E-03 
1148	 7.55029808931967E-03 
1149	 6.72690130934466E-03 
1150	 6.38502315820837E-03 
1151	 6.45035522661725E-03 
1152	 6.34854932806301E-03 
1153	 5.86941617733648E-03 
1154	 6.22038173052125E-03 
1155	 7.43354303052545E-03 
1156	 7.15843084441056E-03 
1157	 6.46043622062893E-03 
1158	 6.84609033647059E-03 
1159	 7.03377493852563E-03 
1160	 7.22607017076766E-03 
1161	 7.7859953559381E-03 
1162	 7.57427525505874E-03 
1163	 7.23973500305917E-03 
1164	 7.29477313721386E-03 
1165	 7.48700948756376E-03 
1166	 7.45484975856984E-03 
1167	 6.96377528473142E-03 
1168	 6.98165879434813E-03 
1169	 7.21188525833402E-03 
1170	 7.16665843972136E-03 
1171	 7.25536358195057E-03 
1172	 7.62575761290328E-03 
1173	 7.63572378684475E-03 
1174	 7.31522234125775E-03 
1175	 7.46777866429998E-03 
1176	 7.60158461547248E-03 
1177	 7.46175855939717E-03 
1178	 7.32315427982956E-03 
1179	 7.60483416102632E-03 
1180	 7.76945434505084E-03 
1181	 7.55203932283556E-03 
1182	 7.68003269501134E-03 
1183	 7.59970649412162E-03 
1184	 7.2277329798694E-03 
1185	 7.5284238588962E-03 
1186	 7.97976931207679E-03 
1187	 7.69518420294561E-03 
1188	 7.31039504157419E-03 
1189	 7.34572339101169E-03 
1190	 7.23380529976213E-03 
1191	 7.19428688297755E-03 
1192	 7.31945945162181E-03 
1193	 7.83400889964152E-03 
1194	 7.81384989728427E-03 
1195	 7.49436576415141E-03 
1196	 7.74743933004529E-03 
1197	 7.98284879645829E-03 
1198	 7.70869811067774E-03 
1199	 7.6766380285858E-03 
1200	 7.78463791397687E-03 
1201	 7.6018760928341E-03 
1202	 7.58569405281514E-03 
1203	 7.74468683519082E-03 
1204	 7.72063303325325E-03 
1205	 7.5169258082701E-03 
1206	 7.55473977993816E-03 
1207	 7.9680049899812E-03 
1208	 7.99095351880419E-03 
1209	 7.73593457687275E-03 
1210	 7.80349971820148E-03 
1211	 7.74328873421259E-03 
1212	 7.45991034400555E-03 
1213	 0.007493550662123 
1214	 7.62754527424132E-03 
1215	 7.8449731257031E-03 
1216	 7.79599730651742E-03 
1217	 7.83843610750005E-03 
1218	 7.97392684523303E-03 
1219	 7.83306510260453E-03 
1220	 7.71794062750344E-03 
1221	 7.89021310686152E-03 
1222	 7.95390829121305E-03 
1223	 7.8501624320913E-03 
1224	 7.98817417901824E-03 
1225	 8.14541972830011E-03 
1226	 8.02596195502846E-03 
1227	 7.86234894631025E-03 
1228	 7.72905553177504E-03 
1229	 7.73591555670971E-03 
1230	 7.88721920601894E-03 
1231	 7.99664340443893E-03 
1232	 8.10321121248094E-03 
1233	 8.11136887518531E-03 
1234	 7.96299713725985E-03 
1235	 7.93409081763945E-03 
1236	 8.07918346377238E-03 
1237	 8.12129197609912E-03 
1238	 8.09833586537385E-03 
1239	 8.09871635465003E-03 
1240	 8.17544466057175E-03 
1241	 8.21133217341447E-03 
1242	 8.12705015057958E-03 
1243	 7.95582131263787E-03 
1244	 7.96762707413155E-03 
1245	 7.99175265702078E-03 
1246	 7.89887690743342E-03 
1247	 8.14300221623558E-03 
1248	 8.36448993716324E-03 
1249	 8.18468203405131E-03 
1250	 8.07673574935917E-03 
1251	 8.10285654030715E-03 
1252	 8.08731266335244E-03 
1253	 7.99091407736957E-03 
1254	 7.96866577822128E-03 
1255	 8.15941081122649E-03 
1256	 8.13390883615854E-03 
1257	 7.88367055170182E-03 
1258	 7.8091941444941E-03 
1259	 7.73162806095341E-03 
1260	 7.68035832371963E-03 
1261	 7.74520756608695E-03 
1262	 7.78973495092087E-03 
1263	 7.90344105535073E-03 
1264	 7.85426190336991E-03 
1265	 7.73341849430661E-03 
1266	 7.7074946211093E-03 
1267	 7.6881117748965E-03 
1268	 7.81021681903624E-03 
1269	 7.98678466034639E-03 
1270	 7.84424474168219E-03 
1271	 7.74893052623885E-03 
1272	 7.87435246698808E-03 
1273	 7.68502712539513E-03 
1274	 7.6517012348515E-03 
1275	 7.88345876704762E-03 
1276	 7.65073038679214E-03 
1277	 7.46578399392425E-03 
1278	 0.007627181360862 
1279	 7.66445568566128E-03 
1280	 7.53288319902713E-03 
1281	 7.50322989755036E-03 
1282	 7.50134450144561E-03 
1283	 7.58296815174737E-03 
1284	 7.77993733401806E-03 
1285	 7.81514294419456E-03 
1286	 7.8542793630024E-03 
1287	 7.82170779301497E-03 
1288	 7.57886420469136E-03 
1289	 7.51133702351677E-03 
1290	 7.56775785075467E-03 
1291	 7.50378590262212E-03 
1292	 7.42214079031302E-03 
1293	 7.53137117399828E-03 
1294	 7.72745795244626E-03 
1295	 7.79736142309626E-03 
1296	 7.73186504906886E-03 
1297	 7.72018312413163E-03 
1298	 7.54830474734967E-03 
1299	 7.29182469925334E-03 
1300	 7.58804666530141E-03 
1301	 7.83092375072989E-03 
1302	 7.65529769463606E-03 
1303	 7.52871351774784E-03 
1304	 7.2315113078483E-03 
1305	 7.05205061618754E-03 
1306	 6.9095818756678E-03 
1307	 6.91808552942823E-03 
1308	 7.02681492040534E-03 
1309	 7.29688906165096E-03 
1310	 7.24512441266378E-03 
1311	 7.21466395156307E-03 
1312	 7.1001498420455E-03 
1313	 6.58167874011533E-03 
1314	 6.52535867237579E-03 
1315	 6.7843442067876E-03 
1316	 6.81638936205925E-03 
1317	 6.98740890204107E-03 
1318	 6.95125564105816E-03 
1319	 6.6666870344827E-03 
1320	 6.51784441901108E-03 
1321	 6.47411558692369E-03 
1322	 6.20171558138653E-03 
1323	 5.99085315359576E-03 
1324	 5.90729552764884E-03 
1325	 5.94822973847725E-03 
1326	 6.14185999705822E-03 
1327	 6.33020183310757E-03 
1328	 6.48500200701612E-03 
1329	 6.72886255607168E-03 
1330	 6.6776727662817E-03 
1331	 6.34312525331196E-03 
1332	 6.51579183583248E-03 
1333	 6.41847266599105E-03 
1334	 5.84848919846849E-03 
1335	 5.94829566708824E-03 
1336	 6.12722024551101E-03 
1337	 6.12831634546146E-03 
1338	 6.67850026719367E-03 
1339	 7.06140520120759E-03 
1340	 6.93592529762481E-03 
1341	 7.07256270021027E-03 
1342	 8.27106895413328E-03 
1343	 8.45007229460025E-03 
1344	 6.50295563336559E-03 
1345	 6.17816674343675E-03 
1346	 7.45474470995823E-03 
1347	 7.6805657622715E-03 
1348	 7.6894071686031E-03 
1349	 1.04854970509376E-02 
1350	 1.64354197955851E-02 
1351	 1.95545327715297E-02 
1352	 2.51781952331907E-02 
1353	 3.70183408774055E-02 
1354	 4.48295283521187E-02 
1355	 4.65579037389589E-02 
1356	 3.57381451196496E-02 
1357	 5.34893432074423E-02 
1358	 0.207815280882398 
1359	 0.251999442445851 
1360	 0.059201431509524 
1361	 0.113677705253884 
1362	 0.153787950565762 
1363	-8.23583651022055E-02 
1364	-8.81584127306771E-02 
1365	 6.70708630504023E-02 
1366	 0.231154637267489 
1367	 0.290830564650659 
1368	 0.189345394044749 
1369	 0.240623670004772 
1370	 0.39899660763227 
1371	 8.11842375102311E-02 
1372	-3.35562535502292E-02 
1373	 0.351310278367409 
1374	 0.679450362901876 
1375	 8.80251283059376E-02 
1376	 0.132794842166574 
1377	 2.12840919268439 
1378	 1.64369613055596 
1379	 8.08052486912873E-02 
1380	 4.65482678973351E-02 
1381	 0.254853251463588 
1382	 0.263529713114214 
1383	 0.588038825125732 
1384	 0.939410355189439 
1385	 0.859070640068718 
1386	 0.503671930395077 
1387	-0.199946636537573 
1388	-0.273556309838258 
1389	-0.20664686955574 
1390	-0.19860228781829 
1391	 0.101876423728529 
1392	 1.04919327268894 
1393	 1.77905171019302 
1394	 1.6786604525585 
1395	 1.09561121461187 
1396	 1.02637546193413 
1397	 0.944840715551762 
1398	 0.398657224878375 
1399	 0.349350337141433 
1400	 0.815843719346783 
1401	 1.13700998421465 
1402	 0.854696738281567 
1403	 0.421449795031517 
1404	 0.31603704281147 
1405	 0.462943769608185 
1406	 0.554420485875606 
1407	 0.333282997135112 
1408	 0.38257585934635 
1409	 0.413547532434127 
1410	 8.58003109235608E-02 
1411	-3.00040014006201E-02 
1412	 0.092650903420235 
1413	 0.162106639617813 
1414	 0.146886827316435 
1415	 0.12914490048591 
1416	 0.23775559634332 
1417	 0.220831749912239 
1418	 8.17866029583281E-02 
1419	 3.53913334356391E-02 
1420	 2.50747756796298E-02 
1421	 1.78022158098792E-02 
1422	-1.64439482471011E-04 
1423	-1.86467661440922E-04 
1424	 1.84661144055366E-02 
1425	 2.58050487242964E-02 
1426	 2.83531177495408E-02 
1427	 3.34396018658831E-02 
1428	 0.053152539810633 
1429	 4.40975697596826E-02 
1430	-2.34209891404473E-03 
1431	-1.10779989223124E-03 
1432	 2.75484708956433E-02 
1433	 2.68439137410117E-02 
1434	 3.44818610049326E-02 
1435	 4.40216914777313E-02 
1436	 3.72700647951081E-02 
1437	 1.53466688425495E-02 
1438	 2.17472642082329E-02 
1439	 3.59099138835563E-02 
1440	 2.28194811953253E-02 
1441	 1.06209565266485E-02 
1442	 1.70038174600234E-02 
1443	 1.90269589408111E-02 
1444	 1.23570116844463E-02 
1445	 1.19234358173913E-02 
1446	 1.23772988675919E-02 
1447	 8.17632300206254E-03 
1448	 8.24414187851464E-03 
1449	 1.14326222683825E-02 
1450	 1.16008772142497E-02 
1451	 8.28675490037638E-03 
1452	 8.93594326049629E-03 
1453	 1.20002494300351E-02 
1454	 1.09235194178645E-02 
1455	 7.94822057152817E-03 
1456	 8.56373619479048E-03 
1457	 9.36219906936653E-03 
1458	 8.37160771966984E-03 
1459	 8.39745389994173E-03 
1460	 8.11618469341312E-03 
1461	 5.35673655907556E-03 
1462	 5.2171949923065E-03 
1463	 8.18707364495773E-03 
1464	 8.46786006804984E-03 
1465	 7.24386118626658E-03 
1466	 7.62902703131315E-03 
1467	 8.25610876002077E-03 
1468	 7.53809002905949E-03 
1469	 6.90229430905616E-03 
1470	 7.14654799254662E-03 
1471	 6.55549668555547E-03 
1472	 5.83307939392293E-03 
1473	 5.82618599563289E-03 
1474	 6.97845472798435E-03 
1475	 9.0988936586336E-03 
1476	 7.64123632325529E-03 
1477	 4.84736001798008E-03 
1478	 4.88785813101337E-03 
1479	 3.51188567348086E-03 
1480	 3.27526490521337E-03 
1481	 5.90784345798542E-03 
1482	 7.42475389464291E-03 
1483	 8.31126987721409E-03 
1484	 7.82418646504554E-03 
1485	 7.40869041756645E-03 
1486	 7.06703215443086E-03 
1487	 5.17988993807048E-03 
1488	 4.79549294165737E-03 
1489	 5.50164913248259E-03 
1490	 5.85423773666555E-03 
1491	 6.14133938081393E-03 
1492	 6.39343849080882E-03 
1493	 7.08145009834633E-03 
1494	 7.11850481048566E-03 
1495	 6.54342157553531E-03 
1496	 6.50296834430865E-03 
1497	 6.45892752823246E-03 
1498	 6.45777960288223E-03 
1499	 6.93393039625627E-03 
1500	 6.95416300190359E-03 
1501	 6.50032260046009E-03 
1502	 6.44015259156291E-03 
1503	 6.45414775796117E-03 
1504	 6.42991710749667E-03 
1505	 6.42715840899007E-03 
1506	 6.72474965338229E-03 
1507	 6.96847683687302E-03 
1508	 6.72015941583313E-03 
1509	 6.51780624707012E-03 
1510	 6.80972023150564E-03 
1511	 7.00202671926218E-03 
1512	 6.9677645251424E-03 
1513	 7.11241409610092E-03 
1514	 7.14548608506364E-03 
1515	 6.88889413002338E-03 
1516	 6.86554383958066E-03 
1517	 7.17546228139442E-03 
1518	 7.14504041599493E-03 
1519	 6.83469380586468E-03 
1520	 6.97477945708502E-03 
1521	 7.27831924016965E-03 
1522	 7.12295201318546E-03 
1523	 7.00583497169297E-03 
1524	 7.18771220424252E-03 
1525	 7.13563234469553E-03 
1526	 6.98539454034784E-03 
1527	 6.9922940925223E-03 
1528	 6.99136259932329E-03 
1529	 6.91096787780003E-03 
1530	 6.92534759911132E-03 
1531	 7.15958659742506E-03 
1532	 7.22298512926898E-03 
1533	 7.11154389181882E-03 
1534	 7.12011567238347E-03 
1535	 7.17081152294668E-03 
1536	 7.27204719397269E-03 
1537	 7.27168259436944E-03 
1538	 7.2418110242124E-03 
1539	 7.27392986407914E-03 
1540	 7.19348981924331E-03 
1541	 7.11198064534179E-03 
1542	 7.14444738854945E-03 
1543	 7.28180988737345E-03 
1544	 7.3799060448011E-03 
1545	 7.32306129507282E-03 
1546	 7.29534449925177E-03 
1547	 7.27635864881435E-03 
1548	 7.06328217131291E-03 
1549	 7.00540381213054E-03 
1550	 7.2115811065244E-03 
1551	 7.25648391606389E-03 
1552	 7.07658929002301E-03 
1553	 7.06957067504865E-03 
1554	 7.25166951447513E-03 
1555	 7.31682121534701E-03 
1556	 0.007367438145306 
1557	 7.47214757569381E-03 
1558	 7.52837066565368E-03 
1559	 7.44746457483111E-03 
1560	 7.34750033537667E-03 
1561	 7.39656023538871E-03 
1562	 7.41648927980239E-03 
1563	 7.35381157899809E-03 
1564	 7.52827969199788E-03 
1565	 7.68323692334497E-03 
1566	 7.50219397490413E-03 
1567	 7.46375198042309E-03 
1568	 7.55242936535327E-03 
1569	 7.46290643290641E-03 
1570	 7.42399726224696E-03 
1571	 7.41252303039011E-03 
1572	 7.27824757418361E-03 
1573	 7.33110669713771E-03 
1574	 7.50144456404144E-03 
1575	 7.45638273609235E-03 
1576	 7.53454418002767E-03 
1577	 7.67746005796931E-03 
1578	 7.43653343722428E-03 
1579	 7.30519121913624E-03 
1580	 7.34684786774197E-03 
1581	 7.16977128742259E-03 
1582	 7.22864822990956E-03 
1583	 7.50762821978742E-03 
1584	 7.52792898076783E-03 
1585	 7.33211531078534E-03 
1586	 7.25196786316094E-03 
1587	 7.25549332960455E-03 
1588	 7.28501243759451E-03 
1589	 7.46758170504928E-03 
1590	 7.60934115513862E-03 
1591	 7.63678030507837E-03 
1592	 7.46722513333624E-03 
1593	 7.35704751929497E-03 
1594	 7.48558013129636E-03 
1595	 7.48314199227247E-03 
1596	 7.48502121832701E-03 
1597	 7.5332967704428E-03 
1598	 7.50243666632327E-03 
1599	 7.51677706704329E-03 
1600	 7.47273283339883E-03 
1601	 7.36221859575551E-03 
1602	 7.28663891996252E-03 
1603	 7.32273923870233E-03 
1604	 7.52473415881177E-03 
1605	 7.51762680706342E-03 
1606	 7.28769794658193E-03 
1607	 7.06339810569024E-03 
1608	 6.80402084367227E-03 
1609	 6.99411311529842E-03 
1610	 7.36716032410871E-03 
1611	 7.38564855283501E-03 
1612	 7.48355351260721E-03 
1613	 7.57878023279157E-03 
1614	 7.47248269555543E-03 
1615	 7.45226845993482E-03 
1616	 7.65075272465217E-03 
1617	 7.87892907761792E-03 
1618	 7.78648571545816E-03 
1619	 7.55797119317261E-03 
1620	 7.48800130627315E-03 
1621	 7.33012477836898E-03 
1622	 7.22882545912823E-03 
1623	 7.42805615285958E-03 
1624	 7.48608445857374E-03 
1625	 7.25013800914828E-03 
1626	 7.20514222152636E-03 
1627	 7.28168710452554E-03 
1628	 7.16394313306259E-03 
1629	 7.33287578344434E-03 
1630	 7.61857741613666E-03 
1631	 7.49466135752012E-03 
1632	 7.34297619255404E-03 
1633	 7.29426149014367E-03 
1634	 7.37623693466586E-03 
1635	 7.52265181976303E-03 
1636	 7.55513166589083E-03 
1637	 7.56970436489484E-03 
1638	 7.32314289136969E-03 
1639	 7.14045373745056E-03 
1640	 7.43114373849496E-03 
1641	 7.46296484118533E-03 
1642	 7.15720491386202E-03 
1643	 7.14350370926548E-03 
1644	 7.25755368227474E-03 
1645	 7.48040573180249E-03 
1646	 7.76338349477296E-03 
1647	 7.70378056930617E-03 
1648	 7.53725811272034E-03 
1649	 7.30156813457508E-03 
1650	 7.02119532899462E-03 
1651	 7.15000548230812E-03 
1652	 7.35482195940699E-03 
1653	 7.32566190958065E-03 
1654	 7.51341272596635E-03 
1655	 7.78447464318772E-03 
1656	 7.71012280842208E-03 
1657	 7.67554679148755E-03 
1658	 7.55058976880546E-03 
1659	 6.82741908481561E-03 
1660	 6.85721361117372E-03 
1661	 7.49794548445951E-03 
1662	 7.64193562645027E-03 
1663	 7.93781087288036E-03 
1664	 7.92657092689512E-03 
1665	 7.48507398157932E-03 
1666	 7.42236290224639E-03 
1667	 7.36886016503519E-03 
1668	 7.41337569040121E-03 
1669	 7.38514484884159E-03 
1670	 7.33235742796691E-03 
1671	 7.51705198025748E-03 
1672	 7.56071548816807E-03 
1673	 7.61201647160984E-03 
1674	 7.82019934496733E-03 
1675	 7.78492849082931E-03 
1676	 7.57632941764106E-03 
1677	 7.39347813360971E-03 
1678	 7.14083945769501E-03 
1679	 7.13593282617499E-03 
1680	 7.54324429288238E-03 
1681	 7.62124988708511E-03 
1682	 7.30432855081666E-03 
1683	 7.20604815820169E-03 
1684	 7.10361753630584E-03 
1685	 7.04967799851673E-03 
1686	 7.36904641123205E-03 
1687	 7.38192197318618E-03 
1688	 7.0411449314647E-03 
1689	 7.17826723109042E-03 
1690	 7.56807682115705E-03 
1691	 7.57414101570476E-03 
1692	 7.48877427679272E-03 
1693	 7.62217358912917E-03 
1694	 7.53579670933779E-03 
1695	 7.45431355965931E-03 
1696	 7.60855319577495E-03 
1697	 7.4554311758865E-03 
1698	 7.14546290079589E-03 
1699	 7.1591762993562E-03 
1700	 7.42687680010218E-03 
1701	 7.58116216785995E-03 
1702	 7.39936248502935E-03 
1703	 7.21072352597341E-03 
1704	 7.38681110767156E-03 
1705	 7.59714487596997E-03 
1706	 7.67406870435648E-03 
1707	 7.51089718592767E-03 
1708	 7.05403330612266E-03 
1709	 6.91344195349651E-03 
1710	 7.07217938638834E-03 
1711	 7.14307091993899E-03 
1712	 7.28551271400394E-03 
1713	 7.34111748260903E-03 
1714	 7.27648179258528E-03 
1715	 7.51485830138087E-03 
1716	 7.32037197744967E-03 
1717	 6.92458052414416E-03 
1718	 6.71737657417112E-03 
1719	 6.96656435831388E-03 
1720	 7.01407910177466E-03 
1721	 7.01995560289902E-03 
1722	 0.007214978352593 
1723	 7.20896774683489E-03 
1724	 7.24711769559825E-03 
1725	 7.00112556527506E-03 
1726	 6.53242622565816E-03 
1727	 6.76798577469078E-03 
1728	 7.32597268884368E-03 
1729	 7.30189319714515E-03 
1730	 6.99216833004243E-03 
1731	 6.89894260083649E-03 
1732	 6.66711679517295E-03 
1733	 6.42306032479571E-03 
1734	 6.93464200505193E-03 
1735	 7.33931196341467E-03 
1736	 6.95841882498479E-03 
1737	 7.25977573457567E-03 
1738	 7.77453774916965E-03 
1739	 7.0763420417005E-03 
1740	 6.49006995279003E-03 
1741	 6.74979966905663E-03 
1742	 7.08427370050718E-03 
1743	 7.27369540099289E-03 
1744	 7.24065680792018E-03 
1745	 6.96789945348596E-03 
1746	 6.89113770038919E-03 
1747	 6.67341429071015E-03 
1748	 6.83839506724962E-03 
1749	 6.84981509135747E-03 
1750	 5.84650520907847E-03 
1751	 5.94011967895543E-03 
1752	 7.41637089388358E-03 
1753	 7.62901584865061E-03 
1754	 7.64101098721058E-03 
1755	 7.71434700921543E-03 
1756	 6.68091612743674E-03 
1757	 6.54798930694422E-03 
1758	 7.42766165091681E-03 
1759	 7.23544968033602E-03 
1760	 7.38522241843153E-03 
1761	 8.13042716496884E-03 
1762	 7.30289423132609E-03 
1763	 6.41190228690342E-03 
1764	 6.77172275082081E-03 
1765	 6.62483197103387E-03 
1766	 6.48489970303648E-03 
1767	 6.91995986256004E-03 
1768	 6.59228741949184E-03 
1769	 6.15864528461981E-03 
1770	 6.48839613652469E-03 
1771	 7.2395948156019E-03 
1772	 7.7183758069129E-03 
1773	 7.41588489307377E-03 
1774	 6.28759539419048E-03 
1775	 4.93351981550611E-03 
1776	 0.004382506453462 
1777	 4.36804344884508E-03 
1778	 4.63349644360809E-03 
1779	 6.3456645668605E-03 
1780	 6.30818969499778E-03 
1781	 4.63295676910001E-03 
1782	 5.03167114621449E-03 
1783	 0.00523104231923 
1784	 5.58061689917029E-03 
1785	 9.41598430124662E-03 
1786	 9.15667990984313E-03 
1787	 4.85551085732543E-03 
1788	 4.27987721430056E-03 
1789	 3.00823909439174E-03 
1790	 3.81774032433975E-03 
1791	 6.50787125319817E-03 
1792	 5.87688866142693E-03 
1793	 7.80648435865537E-03 
1794	 1.03113649406133E-02 
1795	 1.08596786989955E-02 
1796	 1.28868874468972E-02 
1797	 1.55653628584637E-02 
1798	 1.56379412446057E-02 
1799	 1.55858998594962E-02 
1800	 5.36934246995735E-03 
1801	 2.47990283798235E-03 
1802	 1.26104271543156E-02 
1803	 1.94995039800872E-02 
1804	 4.28152765628869E-02 
1805	 5.75631763711405E-02 
1806	 0.048824580605242 
1807	 4.23785694193053E-02 
1808	 1.29165202004978E-02 
1809	-4.21096282862898E-03 
1810	-1.43440523981612E-02 
1811	-6.2895439015897E-03 
1812	 2.50151702058496E-02 
1813	 0.123055563002051 
1814	 0.460149333164062 
1815	 0.607968959667396 
1816	 0.659859487690986 
1817	 0.511274650338214 
1818	 0.143229732717846 
1819	 0.286188493802273 
1820	 0.456415921117143 
1821	 0.460285515298166 
1822	 0.448607173289985 
1823	 0.139456883330788 
1824	-2.68216814855119E-02 
1825	 8.77404750773454E-02 
1826	 0.138860827147759 
1827	 0.42173772643805 
1828	 0.408588378142785 
1829	 0.107726641519891 
1830	 0.122674890123054 
1831	-1.95918991758389 
1832	 35.6140212276235 
1833	 1.24271570875585 
1834	 1.11097318691093 
1835	 0.569027784564292 
1836	 0.412501535020416 
1837	-0.362225478062416 
1838	-0.170884424367268 
1839	 0.477369873491404 
1840	 0.613197749651479 
1841	 0.75254881835968 
1842	 1.08133360202536 
1843	 1.03456175052052 
1844	 0.471692648988578 
1845	 0.318337554403504 
1846	 0.209704050358036 
1847	 0.210766538045246 
1848	 0.17048463319995 
1849	-0.156176915547302 
1850	-3.28202037778375E-02 
1851	 0.257901681429691 
1852	-0.03372542855511 
1853	-0.244527761857545 
1854	-0.169955322741819 
1855	 0.266395390835877 
1856	 0.40786256999025 
1857	-4.10147692927568 
1858	-3.2698713519166 
1859	 1.96438570633062 
1860	 0.438830533839243 
1861	 7.50278542605431E-02 
1862	-0.175810891653706 
1863	-1.21103143133411 
1864	-30.7275336202966 
1865	 6.26884416225397 
1866	-2.58436435615117 
1867	-0.810876416997245 
1868	 2.83535039348624 
1869	 9.4172298568431 
1870	 0.607302304122272 
1871	 1.01943187268554 
1872	-0.458314049158384 
1873	 2.43579829485003 
1874	-0.41834008474549 
1875	-0.633610213847268 
1876	-0.664985595645715 
1877	-0.590583498150359 
1878	-0.481421212049772 
1879	-3.77826249643803 
1880	-0.92017436895166 
1881	 1.28797840936584E-03 
1882	 0.45380143518004 
1883	 2.0984732879802 
1884	 2.78199795503666 
1885	 1.21942209669751 
1886	 1.06919085894868 
1887	-0.202960872589862 
1888	 0.187184812612551 
1889	 0.437391956445039 
1890	 1.43294715214772 
1891	 1.158144896468 
1892	 1.02284076721047 
1893	-0.183801026336656 
1894	-0.527673051512867 
1895	-0.427946187500344 
1896	-0.521848758961089 
1897	-10.4316110025675 
1898	 1.04902019763809 
1899	-6.58181887529074 
1900	-0.272836123925102 
1901	 0.266615319000891 
1902	 0.291510615263145 
1903	 0.188013403917976 
1904	 2.88226481654915E-02 
1905	 0.295488688475261 
1906	 3.07810086154569E-02 
1907	-6.87550296858996E-02 
1908	 0.11858962884 
1909	-9.98968669698838E-02 
1910	-3.57764141194262 
1911	 0.986647972687983 
1912	 0.288803598410946 
1913	 1.69157838390322E-02 
1914	 0.431545338644668 
1915	 0.326878621709944 
1916	 0.469005069415915 
1917	 0.308565583825423 
1918	-0.235639233215685 
1919	-0.200273423020596 
1920	 0.141229087399975 
1921	 8.52742733402522E-02 
1922	 0.037365687741471 
1923	 0.490583453364302 
1924	 0.147634210691197 
1925	-0.246955523309434 
1926	-0.145361786937651 
1927	 7.35964451401415 
1928	-1.24373551635473 
1929	-0.766143950119449 
1930	-1.30436548369886 
1931	-0.794594883330573 
1932	-1.4634970669866 
1933	-0.939968767513483 
1934	-0.139269874960007 
1935	-0.122465187706911 
1936	-0.369454807085477 
1937	-0.194205994527766 
1938	 1.93019838745393E-02 
1939	 1.09868648328979E-02 
1940	-2.94989887379629E-02 
1941	 2.46194046399628E-02 
1942	 6.74302319360982E-02 
1943	-1.87431184767064E-02 
1944	-2.53646435917018E-02 
1945	-4.35876994211781E-03 
1946	-9.32637214672172E-02 
1947	-0.144878813076105 
1948	-9.93531563602063E-02 
1949	-6.09645623498141E-02 
1950	-4.28405945056524E-02 
1951	 3.52677261440075E-03 
1952	 1.46748404642122E-02 
1953	-1.40869213630689E-02 
1954	-4.23659419607139E-02 
1955	-1.53852443143181E-02 
1956	-1.11982068151935E-02 
1957	 5.01510752195593E-03 
1958	 2.57465112636716E-02 
1959	 1.41820553134558E-02 
1960	 9.43600440651872E-03 
1961	 6.0889380967674E-03 
1962	-7.19085206329266E-04 
1963	 2.24536090025911E-03 
1964	 3.77252756323629E-03 
1965	 1.87111908498799E-03 
1966	 1.6623897079543E-03 
1967	 1.47016594175818E-03 
1968	 1.17704980623985E-03 
1969	 2.14371609464599E-03 
1970	 3.13781964243412E-03 
1971	 3.87994940151694E-03 
1972	 5.47633098759434E-03 
1973	 5.92113937953497E-03 
1974	 5.36737975017537E-03 
1975	 4.88078980974693E-03 
1976	 4.03684581528669E-03 
1977	 3.23417864645192E-03 
1978	 3.41713703152395E-03 
1979	 3.63306669843803E-03 
1980	 4.33143719582165E-03 
1981	 4.64871561266467E-03 
1982	 4.35992728222522E-03 
1983	 3.2621386521555E-03 
1984	 3.04431306224065E-03 
1985	 3.18280407759716E-03 
1986	 2.8344012019906E-03 
1987	 2.7422840015226E-03 
1988	 2.26192773498214E-03 
1989	 1.42666070236368E-03 
1990	 1.00618954837994E-03 
1991	 2.42697880394062E-03 
1992	 4.16438441662987E-03 
1993	 3.96684150840248E-03 
1994	 5.20048461309051E-03 
1995	 7.74234318005314E-03 
1996	 9.65190665625552E-03 
1997	 8.36236662537253E-03 
1998	 8.47751171941137E-03 
1999	 7.87628787256313E-03 
2000	 5.0245941412948E-03 
2001	 6.49876309598076E-03 
2002	 0.010382285068118 
2003	 7.43252771112006E-03 
2004	 5.67096424116008E-03 
2005	 7.19632872871113E-03 
2006	 5.60043928969005E-03 
2007	 7.98429527306987E-03 
2008	 0.011185917926609 
2009	 1.11741501955541E-02 
2010	 7.54256025192356E-03 
2011	 5.83085677749441E-03 
2012	 2.8800490240326E-03 
2013	 2.01642199095829E-03 
2014	 3.90483545057398E-03 
2015	 3.49225504128226E-03 
2016	 4.03877897981866E-03 
2017	 5.4130759270572E-03 
2018	 5.31748453754872E-03 
2019	 3.3632855680773E-03 
2020	 3.63682922087711E-03 
2021	 5.38143043204828E-03 
2022	 3.07611031726993E-03 
2023	 2.32942218430309E-03 
2024	 2.71666940208221E-03 
2025	 3.04031090190046E-03 
2026	 2.73291141702091E-03 
2027	 2.92135720058979E-03 
2028	 3.96524414119314E-03 
2029	 3.51962457695098E-03 
2030	 3.94523048355753E-03 
2031	 4.44433540252902E-03 
2032	 4.70882751940932E-03 
2033	 5.4361956490248E-03 
2034	 5.25386619102944E-03 
2035	 5.07354467213143E-03 
2036	 5.45414017353148E-03 
2037	 5.12795235383814E-03 
2038	 4.60616781677366E-03 
2039	 4.53767631787477E-03 
2040	 4.55453060759216E-03 
2041	 4.63355220935574E-03 
2042	 5.60602626406951E-03 
2043	 5.68369170210967E-03 
2044	 5.24356911009485E-03 
2045	 0.004609254873312 
2046	 4.39475331814649E-03 
2047	 4.27966276641287E-03 
2048	 5.36509616207067E-03 
2049	 6.12700047029643E-03 
2050	 5.20424340255489E-03 
2051	 4.53214372239658E-03 
2052	 4.07019007600204E-03 
2053	 3.21175381620802E-03 
2054	 3.86853258723892E-03 
2055	 4.44484282191635E-03 
2056	 4.40655679156927E-03 
2057	 3.62670961285025E-03 
2058	 3.79718957903876E-03 
2059	 4.30320729628769E-03 
2060	 4.05007902868314E-03 
2061	 3.7883269059769E-03 
2062	 2.98675496117946E-03 
2063	 2.86180609869055E-03 
2064	 2.90743445140674E-03 
2065	 2.8174211220593E-03 
2066	 3.24341190832584E-03 
2067	 3.20570273146793E-03 
2068	 3.31723433039481E-03 
2069	 4.44402467779669E-03 
2070	 5.61220159700784E-03 
2071	 5.42031598526356E-03 
2072	 5.40177677998312E-03 
2073	 5.50946041635744E-03 
2074	 5.26855454529677E-03 
2075	 5.10040670547744E-03 
2076	 5.03526697273309E-03 
2077	 5.38320860880859E-03 
2078	 5.97348533274901E-03 
2079	 6.01477993380166E-03 
2080	 5.98526196869331E-03 
2081	 6.69706406975478E-03 
2082	 6.65143012756791E-03 
2083	 5.59780258346291E-03 
2084	 5.39681233354003E-03 
2085	 5.31594565335099E-03 
2086	 4.53467704574695E-03 
2087	 4.75959155427204E-03 
2088	 5.21778285213739E-03 
2089	 5.02447080398598E-03 
2090	 5.25739390125471E-03 
2091	 5.60693973703825E-03 
2092	 5.68557896675659E-03 
2093	 6.03602156060374E-03 
2094	 5.69853557035742E-03 
2095	 4.39452599894873E-03 
2096	 4.25529434959665E-03 
2097	 4.63478698245741E-03 
2098	 4.55455883676391E-03 
2099	 4.93303662603785E-03 
2100	 4.6644999600986E-03 
2101	 3.72843218162349E-03 
2102	 3.33301067441762E-03 
2103	 3.88867227636846E-03 
2104	 4.75278404193996E-03 
2105	 5.35010028756971E-03 
2106	 5.82116005009468E-03 
2107	 5.76133721261414E-03 
2108	 5.05483797098215E-03 
2109	 4.56863860930855E-03 
2110	 4.43770742266827E-03 
2111	 5.14034386534527E-03 
2112	 6.21256690942153E-03 
2113	 6.16885080592743E-03 
2114	 5.92652467614856E-03 
2115	 5.5335054479358E-03 
2116	 3.39557065347067E-03 
2117	 2.83710213645756E-03 
2118	 3.44041622216778E-03 
2119	 3.79162762911187E-03 
2120	 4.63801671922209E-03 
2121	 5.14306646305143E-03 
2122	 5.47740676862613E-03 
2123	 5.77970377268368E-03 
2124	 5.37073838181274E-03 
2125	 5.52218834992098E-03 
2126	 5.59813456756804E-03 
2127	 4.7726443548727E-03 
2128	 4.49673016875285E-03 
2129	 4.69133494688338E-03 
2130	 4.69170554441303E-03 
2131	 5.38419515897156E-03 
2132	 6.19030447235976E-03 
2133	 6.46177904720669E-03 
2134	 6.44178888099436E-03 
2135	 5.99519392425714E-03 
2136	 5.77041686624789E-03 
2137	 5.3054838183522E-03 
2138	 4.78325925129741E-03 
2139	 4.06145479639089E-03 
2140	 4.3104097550953E-03 
2141	 5.14931587538865E-03 
2142	 5.36403985758413E-03 
2143	 6.12574432366953E-03 
2144	 6.44915055504845E-03 
2145	 5.63465599364888E-03 
2146	 4.7477505461383E-03 
2147	 4.71684887554486E-03 
2148	 5.15504708155016E-03 
2149	 5.63489493059656E-03 
2150	 6.67249607594836E-03 
2151	 7.91228683737387E-03 
2152	 8.21988124537865E-03 
2153	 7.35763215861479E-03 
2154	 6.28997950999599E-03 
2155	 6.00889482619073E-03 
2156	 5.63910253205683E-03 
2157	 5.28280178649962E-03 
2158	 5.80903987164263E-03 
2159	 5.73990534596452E-03 
2160	 4.89204346493747E-03 
2161	 4.72827628682492E-03 
2162	 5.1597695598029E-03 
2163	 5.33445234440362E-03 
2164	 5.67136471753618E-03 
2165	 5.34407697809695E-03 
2166	 4.11070466773799E-03 
2167	 3.96516500686481E-03 
2168	 4.58245336434399E-03 
2169	 4.36865842554195E-03 
2170	 3.88389383357558E-03 
2171	 4.26782865224077E-03 
2172	 4.82951029465942E-03 
2173	 4.5685501545431E-03 
2174	 5.36614058364893E-03 
2175	 6.13942280122604E-03 
2176	 6.22146944170078E-03 
2177	 6.34167917504957E-03 
2178	 6.54949725629043E-03 
2179	 6.51412345521415E-03 
2180	 6.25934078252497E-03 
2181	 5.46548190461475E-03 
2182	 3.97768261785616E-03 
2183	 3.53277602745015E-03 
2184	 3.57817030225537E-03 
2185	 2.4000831183605E-03 
2186	 2.72258831116454E-03 
2187	 4.71898835685568E-03 
2188	 5.92356195522067E-03 
2189	 8.27699733095756E-03 
2190	 8.73791758925819E-03 
2191	 7.29509556903459E-03 
2192	 6.6197738464738E-03 
2193	 5.18191828078066E-03 
2194	 4.39514760279934E-03 
2195	 4.8696548690274E-03 
2196	 4.66460066196465E-03 
2197	 3.12979234623127E-03 
2198	 2.78027860740523E-03 
2199	 3.21479112226366E-03 
2200	 2.95828498471796E-03 
2201	 4.29628133148793E-03 
2202	 5.81079114644858E-03 
2203	 4.75558354971269E-03 
2204	 5.36853886766715E-03 
2205	 6.96196151462634E-03 
2206	 6.6047813041714E-03 
2207	 5.85406700148645E-03 
2208	 6.08188009229541E-03 
2209	 5.01576096701857E-03 
2210	 4.5559409575869E-03 
2211	 5.18992187064209E-03 
2212	 4.01030653564762E-03 
2213	 3.8254678032436E-03 
2214	 3.41096456967946E-03 
2215	 2.50757481910798E-03 
2216	 3.12066528508638E-03 
2217	 3.66916633463216E-03 
2218	 3.9082942574005E-03 
2219	 4.63015718806808E-03 
2220	 6.88701159750574E-03 
2221	 7.85618074808925E-03 
2222	 7.69610219939957E-03 
2223	 7.41673219243126E-03 
2224	 6.96481359889618E-03 
2225	 6.26884509381303E-03 
2226	 4.90483255241129E-03 
2227	 5.01292180150303E-03 
2228	 5.6742175057429E-03 
2229	 5.57070197006133E-03 
2230	 5.75073991202308E-03 
2231	 6.28184717961437E-03 
2232	 6.9460500865771E-03 
2233	 7.06035682347834E-03 
2234	 7.97409673486799E-03 
2235	 7.29939548180942E-03 
2236	 4.54982139535316E-03 
2237	 3.47538243236103E-03 
2238	 3.9556162254236E-03 
2239	 4.02166287495168E-03 
2240	 4.61948765766283E-03 
2241	 4.89333583340786E-03 
2242	 0.004616539490299 
2243	 5.12707173560147E-03 
2244	 5.32236794856278E-03 
2245	 5.08997313916918E-03 
2246	 5.2832992278046E-03 
2247	 4.40669004007682E-03 
2248	 3.5208473829867E-03 
2249	 5.11381151506755E-03 
2250	 5.08405556326545E-03 
2251	 3.19405877819115E-03 
2252	 5.25520278074065E-03 
2253	 6.09796174401346E-03 
2254	 5.74659066882671E-03 
2255	 8.05922870121197E-03 
2256	 6.36307017734995E-03 
2257	 4.19891500264256E-03 
2258	 5.11618355631178E-03 
2259	 5.16946829221128E-03 
2260	 5.0716237867259E-03 
2261	 6.60803245129793E-03 
2262	 6.64944600593737E-03 
2263	 3.9862083019325E-03 
2264	 3.48146240930321E-03 
2265	 4.92729641329256E-03 
2266	 3.99786055146948E-03 
2267	 2.07608072585851E-03 
2268	 1.79730103777837E-03 
2269	 1.26765550470936E-03 
2270	 1.65334316499548E-04 
2271	-1.2159608591904E-03 
2272	-2.37908139830611E-04 
2273	 1.40467194226029E-03 
2274	 2.47591722223185E-03 
2275	 7.31791529542485E-03 
2276	 8.23868722423521E-03 
2277	 4.48630019307096E-03 
2278	 3.41375611181859E-03 
2279	 2.20421517244507E-03 
2280	 1.73938321516108E-03 
2281	 1.58601128761931E-03 
2282	 4.51858385176332E-03 
2283	 6.32128422466551E-03 
2284	 6.38425153534342E-03 
2285	 7.05118373123972E-03 
2286	 6.18159041678005E-03 
2287	 4.84683153250307E-03 
2288	 5.14293872737583E-03 
2289	 5.29575889224856E-03 
2290	 5.07142818223323E-03 
2291	 5.08612936818187E-03 
2292	 3.97898657375567E-03 
2293	 2.7708904183065E-03 
2294	 1.41001997368245E-03 
2295	-2.94551049666102E-04 
2296	 1.22994226172416E-04 
2297	 2.28268553199219E-03 
2298	 3.99159480761268E-03 
2299	 4.73492001933075E-03 
2300	 5.69170855002585E-03 
2301	 3.9564639312168E-03 
2302	 1.5130671680926E-03 
2303	 1.97517418567857E-03 
2304	 7.58583426095554E-04 
2305	 2.08040235813521E-03 
2306	 6.33060291159071E-03 
2307	 7.13163712567527E-03 
2308	 7.51505949743629E-03 
2309	 6.24225119554177E-03 
2310	 2.22007180491803E-03 
2311	 4.18275142339373E-03 
2312	 6.73315493764638E-03 
2313	 5.64104116311806E-03 
2314	 8.48612809381778E-03 
2315	 7.49462594628254E-03 
2316	 3.46965564513248E-03 
2317	 4.15819911828074E-03 
2318	 4.28131896846019E-03 
2319	 3.50978047896619E-03 
2320	 2.27804204912878E-03 
2321	-7.46383622698455E-04 
2322	-2.89591693054202E-03 
2323	-3.18052468997798E-03 
2324	 1.28481841420072E-03 
2325	 9.78152207949566E-03 
2326	 1.31002190947957E-02 
2327	 1.16058362027675E-02 
2328	 9.37605164428292E-03 
2329	 2.65951973641504E-03 
2330	-5.68576188434832E-04 
2331	 2.76206341376983E-03 
2332	 5.79523794471707E-03 
2333	 9.86432708487952E-03 
2334	 7.5446715918569E-03 
2335	 2.46437888487281E-03 
2336	 2.87703216269911E-03 
2337	-1.65461464850686E-03 
2338	-3.58259765984723E-03 
2339	 3.71225495170259E-03 
2340	 6.28275564356979E-03 
2341	 4.65659095647055E-03 
2342	 7.41195425917087E-03 
2343	 6.80802320230748E-03 
2344	-4.58045889673599E-03 
2345	-9.60973372841422E-03 
2346	-3.79870466615751E-03 
2347	-3.85222147447218E-03 
2348	-5.81997731579681E-03 
2349	-4.25793780976252E-03 
2350	-6.54565742765066E-03 
2351	-0.007086179494785 
2352	-7.51005224663725E-03 
2353	-1.69084741887243E-02 
2354	-1.38180799266402E-02 
2355	-3.43939108956411E-03 
2356	-6.51233072786164E-03 
2357	-4.50049909522385E-03 
2358	-4.27396918220003E-03 
2359	-1.50535851221969E-02 
2360	-0.017372731015376 
2361	-0.010528574577751 
2362	-1.25458643348627E-02 
2363	-1.36489379825914E-02 
2364	-1.87421199932481E-03 
2365	 4.97829422143553E-03 
2366	 7.60439625904794E-03 
2367	 1.54221232489736E-02 
2368	 2.61442983902803E-02 
2369	 2.34401432348259E-02 
2370	 1.79109708682367E-02 
2371	 2.37210548143826E-02 
2372	 1.25632942843814E-02 
2373	 1.10008425436226E-03 
2374	 1.17688564625396E-02 
2375	 1.66371151036721E-02 
2376	 4.11656755861859E-03 
2377	-1.10811249160255E-02 
2378	-1.74101540557628E-02 
2379	-1.84398404723987E-02 
2380	-1.39975678626364E-02 
2381	 4.88703472308942E-03 
2382	 2.18107052321666E-02 
2383	 7.08401361045738E-04 
2384	-2.30066503844789E-02 
2385	-9.86171009062877E-03 
2386	-2.27545019706672E-02 
2387	-2.67472178387098E-02 
2388	-5.03075646419675E-03 
2389	-2.19202985338577E-02 
2390	-2.38643512354823E-02 
2391	-1.88023696177845E-02 
2392	-4.29699240646509E-02 
2393	-4.51061713485908E-02 
2394	-3.53718978019971E-02 
2395	-3.74263589327591E-02 
2396	-3.27681073515178E-02 
2397	-2.86328264677614E-02 
2398	-2.18142149278431E-02 
2399	-2.57779128708026E-02 
2400	-4.47321648552031E-02 
2401	-6.02722855667363E-02 
2402	-0.095209969068136 
2403	-0.111286275356963 
2404	-0.112590911069153 
2405	-0.128761873730718 
2406	-0.121607690348036 
2407	-9.01224527966032E-02 
2408	-4.30912215883247E-02 
2409	-2.56891416085176E-02 
2410	-4.57494072001598E-02 
2411	-4.84162715846366E-02 
2412	-7.44101555997136E-02 
2413	-9.71340921099153E-02 
2414	 1.46518856294003E-03 
2415	 1.29429547370392E-02 
2416	-1.78348314091497E-02 
2417	 2.87538145048403E-02 
2418	-4.21085556903956E-02 
2419	-0.127336450068504 
2420	-0.100091203680321 
2421	-0.039177620302373 
2422	-3.23873525965937E-02 
2423	-3.96255331392138E-02 
2424	-7.30069573566165E-02 
2425	-0.156202800748403 
2426	-0.10293505443018 
2427	-0.083171042438656 
2428	-7.78068057292801E-02 
2429	 1.29443865288069E-02 
2430	-9.85574938244265E-02 
2431	-0.221181652770345 
2432	-0.212719627131069 
2433	-0.349146062366991 
2434	-0.390558079635923 
2435	-0.172199025141089 
2436	-0.197198250026085 
2437	-0.257814803571595 
2438	-0.17025845402224 
2439	-0.266833161942774 
2440	-0.21527753329876 
2441	 4.22494164738957E-02 
2442	 7.88594111897717E-02 
2443	 5.36927335505079E-02 
2444	-5.67857274275864E-02 
2445	-0.252872621900702 
2446	-0.380407424969094 
2447	-0.256983307106457 
2448	-0.294723516902902 
2449	-0.245618873274733 
2450	 6.21837295254433E-02 
2451	-8.99442672680827E-02 
2452	 0.797524036488667 
2453	 1.08058747630581 
2454	 0.407708168181733 
2455	-8.54903641992293E-04 
2456	-0.13137316884779 
2457	-0.331749989473546 
2458	-0.475989561690279 
2459	 0.164238249293217 
2460	 0.394828552464915 
2461	 0.26067261266808 
2462	 0.253994180704123 
2463	 0.123365628219858 
2464	-0.103510951442456 
2465	-0.444057213615335 
2466	-2.09708208778865 
2467	-10.6294008545156 
2468	-0.298351110804782 
2469	 0.330572182855645 
2470	 0.843687767922985 
2471	-48.1200977402752 
2472	 1.91072158344492 
2473	 2.25659192293857 
2474	 0.724417428438206 
2475	 5.10441333271926 
2476	-4.30208678208429E-02 
2477	 5.71769316265112E-02 
2478	 2.15032385502103 
2479	 4.57249079797049 
2480	 0.828987842634659 
2481	-11.2859693756887 
2482	-0.633011011432209 
2483	-0.464736146871966 
2484	-0.106587761302337 
2485	 15.1257915611878 
2486	 15.3736642048833 
2487	-1.24182936394894 
2488	-1.39895668373977 
2489	 1.90209140898841 
2490	 0.643987620164793 
2491	 0.197027689420856 
2492	 0.569862532810711 
2493	 0.467470693489259 
2494	 1.89105608497214 
2495	 2.31718530128229 
2496	 0.679693770708478 
2497	 0.548636259889158 
2498	 0.567948628563642 
2499	 0.479015225516241 
2500	 1.27556500344074 
