Wavelength	rt0713west_far_cloud00002.asd
350	 4.76856640786858E-02 
351	 4.77400113710346E-02 
352	 4.80068787207918E-02 
353	 4.81229087463478E-02 
354	 4.79277764235062E-02 
355	 4.77379122675498E-02 
356	 4.79305191670223E-02 
357	 4.81830330874727E-02 
358	 4.81139491885165E-02 
359	 4.81391923502051E-02 
360	 4.82775370457459E-02 
361	 4.83724687220948E-02 
362	 4.82291291637836E-02 
363	 4.85413385731883E-02 
364	 4.82090813808707E-02 
365	 4.73109393364437E-02 
366	 4.79993894587812E-02 
367	 4.84716938608324E-02 
368	 4.84485563759804E-02 
369	 4.82665898632768E-02 
370	 4.89442995721267E-02 
371	 4.92750536733101E-02 
372	 4.89542236828544E-02 
373	 4.83813295334453E-02 
374	 4.85979946830153E-02 
375	 4.93622695849506E-02 
376	 4.99768843306477E-02 
377	 4.94138017223096E-02 
378	 4.92187995119258E-02 
379	 0.049440925258642 
380	 4.97133558119979E-02 
381	 4.96229775776836E-02 
382	 0.049607820993423 
383	 4.99361316903484E-02 
384	 0.050608980952549 
385	 5.06267327146481E-02 
386	 5.03254771983084E-02 
387	 5.02901321217395E-02 
388	 5.11471227647196E-02 
389	 5.12628811212133E-02 
390	 0.051286882708134 
391	 5.17745822472632E-02 
392	 5.19248965605719E-02 
393	 0.051939307739751 
394	 5.18447783301526E-02 
395	 5.17304161146175E-02 
396	 5.22981849173396E-02 
397	 5.26978049925984E-02 
398	 5.27394072719747E-02 
399	 5.28559553647657E-02 
400	 5.26632264210154E-02 
401	 5.25782518667158E-02 
402	 0.052881712605619 
403	 5.33814837620898E-02 
404	 5.35013820819095E-02 
405	 5.34460288785025E-02 
406	 0.053633189790299 
407	 5.37600718572407E-02 
408	 5.38730460520187E-02 
409	 5.40085583730476E-02 
410	 5.41670535527486E-02 
411	 5.41720113759478E-02 
412	 5.42850693418775E-02 
413	 5.46115951955722E-02 
414	 5.46873853187525E-02 
415	 5.49028894418335E-02 
416	 5.51625342577176E-02 
417	 5.52470094770442E-02 
418	 0.055454473523812 
419	 5.57392995583737E-02 
420	 5.60309911070147E-02 
421	 5.62646614014233E-02 
422	 5.64984648863583E-02 
423	 5.67215538638365E-02 
424	 5.69337901315018E-02 
425	 0.057196830593874 
426	 0.057551892666288 
427	 5.78906208253846E-02 
428	 5.80747972157724E-02 
429	 5.83046130294358E-02 
430	 5.86902504320889E-02 
431	 5.91619644360802E-02 
432	 5.94626713484031E-02 
433	 5.97829045164646E-02 
434	 6.01136328978457E-02 
435	 0.060413495247548 
436	 6.06624843997175E-02 
437	 6.10248750009545E-02 
438	 6.14251727072506E-02 
439	 6.16931917828863E-02 
440	 6.21186830724483E-02 
441	 6.25051777239109E-02 
442	 6.27795526889629E-02 
443	 6.31303736132687E-02 
444	 0.063325676080533 
445	 6.35448111209897E-02 
446	 6.39640932891155E-02 
447	 6.43189488762054E-02 
448	 6.45586640521927E-02 
449	 6.47388570545416E-02 
450	 0.064990434154723 
451	 6.53517076849542E-02 
452	 6.55995861142645E-02 
453	 6.56715906394823E-02 
454	 6.58986000889817E-02 
455	 6.61953950245718E-02 
456	 0.066438323087764 
457	 6.65405524775717E-02 
458	 6.67295477206791E-02 
459	 6.69677283823458E-02 
460	 6.71618079350829E-02 
461	 0.067192534737725 
462	 6.73655369828919E-02 
463	 6.76221701856585E-02 
464	 6.78308745217066E-02 
465	 0.067861217068239 
466	 6.79893576298818E-02 
467	 6.82125442083119E-02 
468	 6.83879229321884E-02 
469	 6.84807023237849E-02 
470	 6.86947846734585E-02 
471	 6.90082696542013E-02 
472	 6.90734852478631E-02 
473	 6.91801311956862E-02 
474	 6.94110931560355E-02 
475	 6.97271181807252E-02 
476	 6.98740532224298E-02 
477	 6.99410530135284E-02 
478	 0.070137562605736 
479	 0.070673267375358 
480	 7.08320649377482E-02 
481	 7.09667344538176E-02 
482	 7.13074755847993E-02 
483	 7.15355716051499E-02 
484	 7.17162098737964E-02 
485	 7.20142174150975E-02 
486	 7.25349179445537E-02 
487	 7.28420318829311E-02 
488	 7.31583187520023E-02 
489	 7.35273550236756E-02 
490	 7.37937319463358E-02 
491	 7.40716608425086E-02 
492	 7.45069019771182E-02 
493	 7.50959964360638E-02 
494	 7.54188945352552E-02 
495	 7.58601921395529E-02 
496	 7.63425284614709E-02 
497	 7.66145454667845E-02 
498	 7.70518684784285E-02 
499	 7.76638460692823E-02 
500	 7.83046366320618E-02 
501	 7.86551918022622E-02 
502	 7.90863504066223E-02 
503	 7.96367410419458E-02 
504	 8.02255223110985E-02 
505	 8.07182915372877E-02 
506	 8.11993552976337E-02 
507	 8.17527529565666E-02 
508	 0.082437112124139 
509	 8.30208272615296E-02 
510	 8.35500168455335E-02 
511	 0.084101621344352 
512	 8.47158744712454E-02 
513	 8.53197978859238E-02 
514	 8.59095741716156E-02 
515	 8.65215357045007E-02 
516	 8.72515778485581E-02 
517	 8.80688345381398E-02 
518	 8.88718215916015E-02 
519	 8.95007899984988E-02 
520	 9.01677004062193E-02 
521	 9.08513096406802E-02 
522	 9.15129509822567E-02 
523	 9.22367730093037E-02 
524	 9.30086860909731E-02 
525	 9.37473658018376E-02 
526	 9.43577910695282E-02 
527	 9.51383158249288E-02 
528	 9.58531703669254E-02 
529	 9.64069738618301E-02 
530	 9.71291605192503E-02 
531	 9.78781502720297E-02 
532	 9.86461953312548E-02 
533	 9.94294979300786E-02 
534	 0.100010993800883 
535	 0.100634042501289 
536	 0.101364760454714 
537	 0.102034913037884 
538	 0.102789113643495 
539	 0.10352827504537 
540	 0.104165681840722 
541	 0.104844462348026 
542	 0.105509469853842 
543	 0.106195800148994 
544	 0.106975993990614 
545	 0.107660094603728 
546	 0.108334698179803 
547	 0.109030496673518 
548	 0.109588275981517 
549	 0.110239000565932 
550	 0.110972436078256 
551	 0.111688655157723 
552	 0.11232112504564 
553	 0.11295841339796 
554	 0.113604740202581 
555	 0.114158165682989 
556	 0.114753061653409 
557	 0.115355073152789 
558	 0.115920502305968 
559	 0.11655407823624 
560	 0.117051398977676 
561	 0.11746156114219 
562	 0.117971216150451 
563	 0.118354287834301 
564	 0.118755061431014 
565	 0.119234204424954 
566	 0.119604337108282 
567	 0.119894380011646 
568	 0.120179185842309 
569	 0.120523282615665 
570	 0.120792388628436 
571	 0.121068269897835 
572	 0.121364802954806 
573	 0.121609881005304 
574	 0.12183523124953 
575	 0.121999492436469 
576	 0.122103097678619 
577	 0.122336218127679 
578	 0.122526717085553 
579	 0.122629242914478 
580	 0.122687138782688 
581	 0.122764307843985 
582	 0.122781192056327 
583	 0.122717454759741 
584	 0.122697154284641 
585	 0.122622579333645 
586	 0.122491648271453 
587	 0.122329657417522 
588	 0.12211030602877 
589	 0.122006153107281 
590	 0.121960741140282 
591	 0.121678440981062 
592	 0.121532478387185 
593	 0.121360397414509 
594	 0.121008392901368 
595	 0.120677225522514 
596	 0.120273289314684 
597	 0.119802787303673 
598	 0.119328920163349 
599	 0.118854925686417 
600	 0.118459981781947 
601	 0.11817948317445 
602	 0.117967414861766 
603	 0.117732530167926 
604	 0.117568119623614 
605	 0.117572733258498 
606	 0.117533521864205 
607	 0.117456209283828 
608	 0.117393215786103 
609	 0.117430096057507 
610	 0.117513171981868 
611	 0.117496970641433 
612	 0.117350666710114 
613	 0.117436120385178 
614	 0.11747017100262 
615	 0.117387616555002 
616	 0.117274145407406 
617	 0.117371630873081 
618	 0.11735376463952 
619	 0.117132075819564 
620	 0.11709431261673 
621	 0.117113605162448 
622	 0.117064377236413 
623	 0.116892503087554 
624	 0.11691215509085 
625	 0.117030936707054 
626	 0.117094187569846 
627	 0.116925906940026 
628	 0.116832910331927 
629	 0.116788711099678 
630	 0.116751880700943 
631	 0.116860674281984 
632	 0.116776782444351 
633	 0.116548821570419 
634	 0.116400942421745 
635	 0.116287566853061 
636	 0.116150963343715 
637	 0.115952386059899 
638	 0.115680256769549 
639	 0.115397897756304 
640	 0.115196175818798 
641	 0.115104272068442 
642	 0.114890503434477 
643	 0.114650304393913 
644	 0.114395654594008 
645	 0.114071420765745 
646	 0.113732348567514 
647	 0.113432094707441 
648	 0.113202134837057 
649	 0.113014251230264 
650	 0.11279775237195 
651	 0.112620978898027 
652	 0.112547487426516 
653	 0.112174231744288 
654	 0.111767645316043 
655	 0.111470919696293 
656	 0.11122066017262 
657	 0.110805393997753 
658	 0.110411666923627 
659	 0.110162802113177 
660	 0.109775575504802 
661	 0.10948200247726 
662	 0.10925959362368 
663	 0.108954224472782 
664	 0.1087736815586 
665	 0.108535411401531 
666	 0.108192812973511 
667	 0.108029238577184 
668	 0.107950981333224 
669	 0.10788770674543 
670	 0.107809475536463 
671	 0.107902043733631 
672	 0.107824340370672 
673	 0.107597258478764 
674	 0.107588869346467 
675	 0.107723438462027 
676	 0.107901263969647 
677	 0.108067606494109 
678	 0.108327349389185 
679	 0.108408447600932 
680	 0.108531883207956 
681	 0.109044920071139 
682	 0.109437960857684 
683	 0.109858562068557 
684	 0.110372362890593 
685	 0.110910138439921 
686	 0.111531043920574 
687	 0.112224381938496 
688	 0.11286688992286 
689	 0.113198952548976 
690	 0.113657739202939 
691	 0.114290659394347 
692	 0.114884810862084 
693	 0.115122860140059 
694	 0.115432030442533 
695	 0.115919737209178 
696	 0.116061882810523 
697	 0.116104162966369 
698	 0.116207877562281 
699	 0.116421148443615 
700	 0.116342649169355 
701	 0.116184764615277 
702	 0.116017582897199 
703	 0.115765631353683 
704	 0.115480319675184 
705	 0.115072959814722 
706	 0.114515607554133 
707	 0.113931082623623 
708	 0.11314676628107 
709	 0.112203900866816 
710	 0.111196998518653 
711	 0.110003981080889 
712	 0.108819282432102 
713	 0.107615638686849 
714	 0.106082826583425 
715	 0.104505397936679 
716	 0.10282168081607 
717	 0.101085637154191 
718	 0.099368749126896 
719	 9.71497083695315E-02 
720	 9.51926674813915E-02 
721	 9.38223719288966E-02 
722	 9.19670779208621E-02 
723	 8.99662341788311E-02 
724	 8.81745269082854E-02 
725	 8.60508148700414E-02 
726	 8.38657208990915E-02 
727	 8.15516690015272E-02 
728	 7.90343567361655E-02 
729	 7.63382518490644E-02 
730	 7.34888165687769E-02 
731	 7.08578413404948E-02 
732	 6.86680789201628E-02 
733	 6.68843951099648E-02 
734	 6.53412645993932E-02 
735	 6.39564765480121E-02 
736	 6.27164456525743E-02 
737	 6.18669637710047E-02 
738	 0.061279578417889 
739	 6.07847212788551E-02 
740	 6.03133668243122E-02 
741	 0.06010898178265 
742	 6.00274578541704E-02 
743	 5.97791790474244E-02 
744	 5.97021253945288E-02 
745	 5.97015356901008E-02 
746	 5.96544898037945E-02 
747	 0.059459943864274 
748	 5.94345435807092E-02 
749	 5.94556905598747E-02 
750	 5.93742390549357E-02 
751	 5.93548011509423E-02 
752	 5.93194678432252E-02 
753	 5.92874510633822E-02 
754	 5.93148088237494E-02 
755	 5.93018877086032E-02 
756	 5.92617756093898E-02 
757	 5.92313438064594E-02 
758	 5.92827740203622E-02 
759	 5.95914453396498E-02 
760	 5.99557052337035E-02 
761	 5.98450084236466E-02 
762	 5.97087057780885E-02 
763	 5.95217809967734E-02 
764	 5.94606086506134E-02 
765	 5.96415876511826E-02 
766	 5.99375944310089E-02 
767	 6.00759224079013E-02 
768	 6.00783877176262E-02 
769	 6.02150202220591E-02 
770	 6.03300335712591E-02 
771	 6.04626052454517E-02 
772	 6.06654620666741E-02 
773	 6.09390555797296E-02 
774	 6.11729649216137E-02 
775	 6.14155375354077E-02 
776	 6.17496323415057E-02 
777	 6.19745982804534E-02 
778	 6.22370800231165E-02 
779	 6.25813083405195E-02 
780	 6.29217368865418E-02 
781	 6.31710079830344E-02 
782	 6.34206235168336E-02 
783	 6.37821955984409E-02 
784	 6.43500366259424E-02 
785	 6.48410619519617E-02 
786	 6.52295105783946E-02 
787	 0.065590909377315 
788	 6.59393256636251E-02 
789	 6.64796603607381E-02 
790	 0.067111562480093 
791	 6.75194398049862E-02 
792	 6.78309412781116E-02 
793	 6.83402658146069E-02 
794	 6.90227933575881E-02 
795	 6.92792044253747E-02 
796	 6.96595753450203E-02 
797	 7.01216077609498E-02 
798	 7.05139486913002E-02 
799	 7.08527754080796E-02 
800	 0.071116166723592 
801	 7.14615733744492E-02 
802	 7.20434624558626E-02 
803	 7.22703896923367E-02 
804	 0.072270548900161 
805	 7.22948074689822E-02 
806	 7.26119020573706E-02 
807	 0.07271076864619 
808	 7.26136723105337E-02 
809	 0.072437243824084 
810	 0.072240794615571 
811	 7.20447710494412E-02 
812	 7.17435470665726E-02 
813	 7.12439489092505E-02 
814	 7.09387401313721E-02 
815	 7.05697874714009E-02 
816	 6.99994122288043E-02 
817	 6.92742602379025E-02 
818	 0.068556822820757 
819	 6.80305306629286E-02 
820	 6.75835660544686E-02 
821	 6.68088407884568E-02 
822	 6.51513099155972E-02 
823	 6.33444161751849E-02 
824	 6.20715107717795E-02 
825	 0.060907312228469 
826	 5.95207053634769E-02 
827	 5.75750711621792E-02 
828	 5.51544667376053E-02 
829	 5.36054535686489E-02 
830	 5.23541179076526E-02 
831	 5.10359835904911E-02 
832	 4.96574182136425E-02 
833	 4.88521456776066E-02 
834	 4.82359185864885E-02 
835	 4.76416281593013E-02 
836	 4.73514765201319E-02 
837	 4.68152887820599E-02 
838	 4.62984678726598E-02 
839	 4.60409555190202E-02 
840	 4.57782484184569E-02 
841	 4.53280736248248E-02 
842	 4.50100633000656E-02 
843	 4.50952746958176E-02 
844	 4.46907193524203E-02 
845	 4.43488242824387E-02 
846	 4.42555453114155E-02 
847	 4.42365864526057E-02 
848	 4.36656892951478E-02 
849	 4.32749775454806E-02 
850	 4.32391771833834E-02 
851	 4.28437971202124E-02 
852	 4.24124506536408E-02 
853	 4.22100935793385E-02 
854	 4.23059056287001E-02 
855	 4.24111549261552E-02 
856	 4.19302937563908E-02 
857	 4.13607133409492E-02 
858	 4.12548437255062E-02 
859	 4.11899260756049E-02 
860	 4.13064036320793E-02 
861	 4.12423145800887E-02 
862	 4.06207182563002E-02 
863	 4.05206176529735E-02 
864	 4.04510362642271E-02 
865	 4.03034189783989E-02 
866	 4.03399485346653E-02 
867	 3.98922728789508E-02 
868	 3.93569154146563E-02 
869	 3.91287021070559E-02 
870	 3.93661229912362E-02 
871	 3.90234031644266E-02 
872	 0.038649625237602 
873	 3.86257098121211E-02 
874	 3.81217372653071E-02 
875	 3.79060934960591E-02 
876	 3.80022438106056E-02 
877	 3.80842888852202E-02 
878	 3.74943029530663E-02 
879	 3.72405965770231E-02 
880	 3.70634532157846E-02 
881	 3.63365596999077E-02 
882	 3.61132003835176E-02 
883	 3.60967027492976E-02 
884	 3.60204242383782E-02 
885	 3.57589539849651E-02 
886	 3.57007010638072E-02 
887	 3.53898218571022E-02 
888	 3.50307194345676E-02 
889	 3.55401577387723E-02 
890	 3.53089622292891E-02 
891	 3.48934427059954E-02 
892	 3.48141054794094E-02 
893	 3.47460164787247E-02 
894	 3.46787661115522E-02 
895	 3.43212546177035E-02 
896	 3.36888655660508E-02 
897	 3.39712555288604E-02 
898	 3.40610533666052E-02 
899	 3.38645780612875E-02 
900	 3.35195164012474E-02 
901	 3.23325839803101E-02 
902	 3.25125641410633E-02 
903	 3.32678909656383E-02 
904	 3.30333743848631E-02 
905	 3.24850121806939E-02 
906	 3.22802824859502E-02 
907	 3.22222594207205E-02 
908	 3.16327701256066E-02 
909	 3.15803712814946E-02 
910	 3.16146164930439E-02 
911	 3.14912238347697E-02 
912	 3.12615366960228E-02 
913	 3.03985249964481E-02 
914	 2.99275833720428E-02 
915	 0.030062997427261 
916	 2.99679838808715E-02 
917	 3.07728904639769E-02 
918	 3.07565430212731E-02 
919	 2.96968012696604E-02 
920	 2.96260905378592E-02 
921	 2.98410396445306E-02 
922	 2.93945925173539E-02 
923	 2.83974720311657E-02 
924	 0.029350203372502 
925	 2.96053375634761E-02 
926	 2.92776640762413E-02 
927	 2.90096051734707E-02 
928	 2.78652772344602E-02 
929	 2.68877716844284E-02 
930	 2.84640138677625E-02 
931	 0.033973635389067 
932	 3.16614308345087E-02 
933	 2.41003474241874E-02 
934	 2.07447338058074E-02 
935	 2.75596827876812E-02 
936	 0.031412218594417 
937	 2.45273320660683E-02 
938	 0.018431397095981 
939	 2.35809004207743E-02 
940	 2.59808067771555E-02 
941	 2.64995889595573E-02 
942	 2.37481938468496E-02 
943	 1.76690761917705E-02 
944	 2.17820911903094E-02 
945	 2.54363147000749E-02 
946	 2.73900037481719E-02 
947	 3.10423609227287E-02 
948	 2.49409792124281E-02 
949	 0.022730955748293 
950	 2.52612866927115E-02 
951	 2.55672740276271E-02 
952	 2.79304104045482E-02 
953	 3.12162482228622E-02 
954	 3.08197375131411E-02 
955	 2.29435103618428E-02 
956	 1.98031450976453E-02 
957	 1.94317719635487E-02 
958	 2.26878569116967E-02 
959	 3.06250357711881E-02 
960	 2.81662619011894E-02 
961	 2.66708928937473E-02 
962	 2.70465566553425E-02 
963	 2.31785000372287E-02 
964	 2.39672180424743E-02 
965	 0.024982815514683 
966	 2.44186375819719E-02 
967	 2.34926534186278E-02 
968	 2.54780115433178E-02 
969	 2.60771491989949E-02 
970	 2.50470505887065E-02 
971	 2.54168609591675E-02 
972	 2.24597381859235E-02 
973	 2.24378411858521E-02 
974	 2.49385374205868E-02 
975	 2.32504538134658E-02 
976	 2.55380912918272E-02 
977	 2.52516993441687E-02 
978	 2.32898992316807E-02 
979	 2.63638955436704E-02 
980	 2.45041541856297E-02 
981	 2.44486075506861E-02 
982	 0.026549063241962 
983	 2.56504023342848E-02 
984	 2.52083741656658E-02 
985	 2.46210708942292E-02 
986	 2.40410643762912E-02 
987	 2.43601421539271E-02 
988	 2.55949265169141E-02 
989	 2.53870662106008E-02 
990	 2.44185429451032E-02 
991	 2.50732594141318E-02 
992	 2.37958800144275E-02 
993	 2.41835353439604E-02 
994	 2.50148746750951E-02 
995	 2.27384267570928E-02 
996	 2.33584163667859E-02 
997	 2.37055173640782E-02 
998	 2.44756308543848E-02 
999	 2.73487274737621E-02 
1000	 2.38187369337963E-02 
1001	 2.40817972749424E-02 
1002	 2.39890229962628E-02 
1003	 2.38823628245407E-02 
1004	 2.35702347731339E-02 
1005	 2.34538601552561E-02 
1006	 2.35452961488324E-02 
1007	 2.34284363452913E-02 
1008	 2.29298954129516E-02 
1009	 2.29289721252701E-02 
1010	 2.27650786697072E-02 
1011	 2.27580409814214E-02 
1012	 2.34419803947864E-02 
1013	 2.39715317750562E-02 
1014	 2.41482175124704E-02 
1015	 2.40869150735939E-02 
1016	 2.41936135387966E-02 
1017	 2.40869702198486E-02 
1018	 2.40947608271017E-02 
1019	 2.43881814563393E-02 
1020	 2.44364683715705E-02 
1021	 2.46589784436091E-02 
1022	 2.39731014806507E-02 
1023	 2.33966151451907E-02 
1024	 2.31482968539648E-02 
1025	 2.23096379140854E-02 
1026	 2.23707640312169E-02 
1027	 2.27740497626974E-02 
1028	 2.39494491139807E-02 
1029	 2.42796445067505E-02 
1030	 2.50233174932801E-02 
1031	 2.48130108511756E-02 
1032	 2.33612772305642E-02 
1033	 2.29446128409646E-02 
1034	 2.22745628355346E-02 
1035	 2.23575863030883E-02 
1036	 2.37913474275541E-02 
1037	 2.41126359959742E-02 
1038	 2.38227123294987E-02 
1039	 2.43175191767096E-02 
1040	 2.41087180727212E-02 
1041	 2.37690712397023E-02 
1042	 2.38602572903744E-02 
1043	 2.45291642844572E-02 
1044	 0.024569182145519 
1045	 2.43391486167868E-02 
1046	 2.43409400705376E-02 
1047	 2.41772455386784E-02 
1048	 2.42152242483315E-02 
1049	 2.45274183704899E-02 
1050	 0.024737796326381 
1051	 2.50531935200975E-02 
1052	 2.51734602563003E-02 
1053	 0.02513118354367 
1054	 2.51674345242215E-02 
1055	 2.52486211021561E-02 
1056	 2.51259968304816E-02 
1057	 2.49280238966334E-02 
1058	 2.46380130585636E-02 
1059	 2.46040820384442E-02 
1060	 2.44255639584229E-02 
1061	 0.024506628810507 
1062	 0.025164998092032 
1063	 0.025205710013704 
1064	 2.48359400576274E-02 
1065	 2.48105676793734E-02 
1066	 0.024687807141174 
1067	 2.46727156609931E-02 
1068	 2.49917618926076E-02 
1069	 2.51224289063514E-02 
1070	 2.52328319988373E-02 
1071	 2.51735952273472E-02 
1072	 2.50193916798183E-02 
1073	 2.45754400892803E-02 
1074	 2.48069194096811E-02 
1075	 2.53318379306407E-02 
1076	 2.54838781638029E-02 
1077	 2.61413611685823E-02 
1078	 2.60400712653421E-02 
1079	 2.48161672924993E-02 
1080	 2.46503941211377E-02 
1081	 0.025052837550088 
1082	 2.49928265271008E-02 
1083	 2.53789618412276E-02 
1084	 2.52050652458545E-02 
1085	 2.35157571522137E-02 
1086	 2.32682595769771E-02 
1087	 2.41575991816964E-02 
1088	 2.44150267469838E-02 
1089	 2.50365990492277E-02 
1090	 0.026174618655398 
1091	 2.59686307553904E-02 
1092	 2.40275876761417E-02 
1093	 2.40319627607521E-02 
1094	 2.45825323990133E-02 
1095	 2.47709835014655E-02 
1096	 2.61630988969564E-02 
1097	 2.63071718956528E-02 
1098	 2.47885659592934E-02 
1099	 2.45117928931287E-02 
1100	 2.48496257384054E-02 
1101	 2.47843853427981E-02 
1102	 0.02496273556321 
1103	 2.51169091711625E-02 
1104	 2.49419583599532E-02 
1105	 2.47084055592954E-02 
1106	 2.50075328946806E-02 
1107	 2.54125142444754E-02 
1108	 2.62022917296876E-02 
1109	 2.64858998146355E-02 
1110	 2.59131337081221E-02 
1111	 2.37849556667557E-02 
1112	 2.34344279549702E-02 
1113	 2.30230443471088E-02 
1114	 2.29851813449756E-02 
1115	 2.58266996806243E-02 
1116	 2.76328583434236E-02 
1117	 2.87958440780789E-02 
1118	 2.82434261526308E-02 
1119	 2.43725462824207E-02 
1120	 2.40002514403586E-02 
1121	 2.29611268617484E-02 
1122	 2.37529794531416E-02 
1123	 0.029956140175952 
1124	 3.25219872781098E-02 
1125	 3.21585405685695E-02 
1126	 3.57117774256566E-02 
1127	 3.21709639782756E-02 
1128	 2.60585740358959E-02 
1129	 2.60954301635066E-02 
1130	 2.33763827209918E-02 
1131	 2.24781139637403E-02 
1132	 0.030029249616887 
1133	 3.06119415899228E-02 
1134	 2.50247399119929E-02 
1135	 2.47702428100006E-02 
1136	 2.63629923847933E-02 
1137	 2.52987956632553E-02 
1138	 0.024275553917442 
1139	 0.023713539392798 
1140	 0.022385348542589 
1141	 0.023369148043359 
1142	 2.52800254380509E-02 
1143	 2.70323456688499E-02 
1144	 2.75557433235885E-02 
1145	 2.68423912782623E-02 
1146	 2.39355761159024E-02 
1147	 2.25106357861197E-02 
1148	 2.28385549207764E-02 
1149	 2.31185754862636E-02 
1150	 2.42610825227409E-02 
1151	 2.87456854454585E-02 
1152	 2.73463013657009E-02 
1153	 0.022585160652185 
1154	 2.25668757598761E-02 
1155	 2.26709286277552E-02 
1156	 0.02306512042187 
1157	 2.33346495636158E-02 
1158	 2.35588298184908E-02 
1159	 2.37689454355288E-02 
1160	 2.40414175491244E-02 
1161	 2.48960907125686E-02 
1162	 2.47776629366834E-02 
1163	 2.38035260168822E-02 
1164	 0.023780176816839 
1165	 0.024608174600019 
1166	 0.025148969658357 
1167	 2.47040607067427E-02 
1168	 2.41720185756789E-02 
1169	 2.40972163184043E-02 
1170	 2.38892271725706E-02 
1171	 2.36664704465308E-02 
1172	 2.35489281623098E-02 
1173	 2.36403878582707E-02 
1174	 2.34794262258558E-02 
1175	 2.40766728511007E-02 
1176	 2.43659766409919E-02 
1177	 0.023617055448324 
1178	 2.31522605781496E-02 
1179	 2.30075359062592E-02 
1180	 2.28653911667821E-02 
1181	 2.32443625635693E-02 
1182	 2.39072515620763E-02 
1183	 2.39291456830625E-02 
1184	 2.31943598622706E-02 
1185	 2.34540504177642E-02 
1186	 2.40301320446466E-02 
1187	 2.36349003113126E-02 
1188	 2.37243177527513E-02 
1189	 2.38089887804959E-02 
1190	 2.32667066871456E-02 
1191	 2.33580206408726E-02 
1192	 2.34474667100973E-02 
1193	 2.39087671179352E-02 
1194	 2.40350863440044E-02 
1195	 2.41480073745119E-02 
1196	 2.41013966021884E-02 
1197	 2.35646766969019E-02 
1198	 0.023603523075508 
1199	 2.41645865170924E-02 
1200	 2.35622777406118E-02 
1201	 2.33072073485847E-02 
1202	 2.41321863757485E-02 
1203	 2.37725621936954E-02 
1204	 2.33421692989669E-02 
1205	 2.37086889890907E-02 
1206	 2.30675678807984E-02 
1207	 2.27146297718936E-02 
1208	 2.33122708430953E-02 
1209	 2.33776120812208E-02 
1210	 2.36865380357289E-02 
1211	 0.024086675099223 
1212	 2.40330112817181E-02 
1213	 2.38571221488851E-02 
1214	 2.37095638015728E-02 
1215	 0.023279825870096 
1216	 0.023373583621831 
1217	 2.36394431503195E-02 
1218	 2.36177110778992E-02 
1219	 2.36210286692622E-02 
1220	 2.33783672565284E-02 
1221	 2.33317542058429E-02 
1222	 2.34555227311243E-02 
1223	 0.023768925500604 
1224	 2.42397927245407E-02 
1225	 0.024076827144891 
1226	 2.37831474454268E-02 
1227	 0.023719481736096 
1228	 2.34708658616833E-02 
1229	 2.32453208533815E-02 
1230	 2.32839026003219E-02 
1231	 2.35167035224981E-02 
1232	 0.023664353672922 
1233	 0.023602821846991 
1234	 2.35147182364772E-02 
1235	 2.34167421562016E-02 
1236	 2.29822637998029E-02 
1237	 2.28672321822761E-02 
1238	 2.28594534873885E-02 
1239	 2.32397664716275E-02 
1240	 2.33863382102333E-02 
1241	 2.34191562879116E-02 
1242	 2.33863549164184E-02 
1243	 2.33143895141585E-02 
1244	 0.023471047955949 
1245	 2.36150498801265E-02 
1246	 0.023492397125661 
1247	 2.33383055685092E-02 
1248	 0.023549958756147 
1249	 2.37484869177385E-02 
1250	 2.39164085577034E-02 
1251	 2.39539080315269E-02 
1252	 2.33336922269515E-02 
1253	 2.28397437563771E-02 
1254	 2.30559597946113E-02 
1255	 2.34595134034218E-02 
1256	 2.36187693248052E-02 
1257	 2.39130304733147E-02 
1258	 2.40398537435878E-02 
1259	 2.37657908379044E-02 
1260	 2.36640106756927E-02 
1261	 2.37444504176973E-02 
1262	 2.37337540195069E-02 
1263	 0.023499470567336 
1264	 0.023710190674661 
1265	 2.42158034932867E-02 
1266	 2.41727028483691E-02 
1267	 2.40143567646263E-02 
1268	 2.39745699178089E-02 
1269	 2.40180060407943E-02 
1270	 0.023998310431235 
1271	 2.36661723336764E-02 
1272	 2.35469660575494E-02 
1273	 2.35156728788918E-02 
1274	 2.33528424011702E-02 
1275	 2.35453255625934E-02 
1276	 2.40587865477984E-02 
1277	 2.44138278617364E-02 
1278	 2.41589489391214E-02 
1279	 0.02384726815248 
1280	 2.40133022021287E-02 
1281	 2.39766837940438E-02 
1282	 2.35390995704814E-02 
1283	 2.35014943568855E-02 
1284	 2.40164735809536E-02 
1285	 2.38812650608409E-02 
1286	 2.30758148542488E-02 
1287	 2.31674057220558E-02 
1288	 2.38716821751931E-02 
1289	 0.023820746929728 
1290	 2.36471953304633E-02 
1291	 2.38274428768952E-02 
1292	 2.42506387419085E-02 
1293	 2.40501460162183E-02 
1294	 2.37650483064602E-02 
1295	 2.41970073006875E-02 
1296	 0.023962547848846 
1297	 2.33598746670735E-02 
1298	 2.35491917703961E-02 
1299	 2.39810372365877E-02 
1300	 0.024036220577858 
1301	 2.33836738392971E-02 
1302	 2.31093254558191E-02 
1303	 2.35204641159043E-02 
1304	 2.36208326999994E-02 
1305	 2.38704555230089E-02 
1306	 2.39916488135209E-02 
1307	 2.42594836456431E-02 
1308	 2.41351125913529E-02 
1309	 2.33101096567414E-02 
1310	 2.31326558049505E-02 
1311	 2.33086016777882E-02 
1312	 2.34109156609245E-02 
1313	 2.39972689100696E-02 
1314	 2.43137205940832E-02 
1315	 2.41115431721326E-02 
1316	 2.40394719884104E-02 
1317	 2.42281025889668E-02 
1318	 2.42653361359848E-02 
1319	 2.41482582983218E-02 
1320	 2.42908466029687E-02 
1321	 2.46979430221733E-02 
1322	 2.44055779251042E-02 
1323	 2.41296415969588E-02 
1324	 2.42292578823829E-02 
1325	 2.43617303753074E-02 
1326	 2.55186697510956E-02 
1327	 2.67374712100579E-02 
1328	 2.62561929974235E-02 
1329	 2.62979143398548E-02 
1330	 2.65837192854846E-02 
1331	 2.57615222720965E-02 
1332	 2.55723579752758E-02 
1333	 2.50483381390739E-02 
1334	 2.37705054368771E-02 
1335	 2.39124928469842E-02 
1336	 2.65137622162057E-02 
1337	 0.026405596948047 
1338	 2.41932687805497E-02 
1339	 2.43364999007242E-02 
1340	 2.57707389060554E-02 
1341	 0.02561763304654 
1342	 2.51116225340864E-02 
1343	 2.64468285948233E-02 
1344	 2.87394987840404E-02 
1345	 2.78304891098749E-02 
1346	 2.51927429318484E-02 
1347	 0.027125941724287 
1348	 2.52140451912805E-02 
1349	 2.44687952544341E-02 
1350	 0.052142542858837 
1351	 7.26662284254252E-02 
1352	 5.65929435895265E-02 
1353	 5.68106209679277E-02 
1354	 5.26429380012467E-02 
1355	 6.15096791451244E-02 
1356	 6.61143159549554E-02 
1357	 9.71310831173514E-02 
1358	 9.07236443018972E-02 
1359	 1.52103791644927E-02 
1360	 2.90938292314076E-02 
1361	 6.77401752862772E-02 
1362	 9.17977631110396E-02 
1363	 0.155673120483307 
1364	 0.186036229124548 
1365	 0.23058541086633 
1366	 0.388882151236639 
1367	 0.235998391090749 
1368	 6.01951485924981E-02 
1369	-9.65286875428197E-02 
1370	-9.22209361987234E-02 
1371	-0.232219321643262 
1372	-0.407891378151465 
1373	-0.317329202990168 
1374	 3.56169646611897E-02 
1375	-0.110965484198872 
1376	-5.99615428642633E-02 
1377	 0.175334121150096 
1378	 0.248632408637443 
1379	 0.292335027664311 
1380	 0.281104051536884 
1381	 2.78899976221791 
1382	 1.1663606627401 
1383	 0.12118500521249 
1384	-3.38247444316704E-02 
1385	-0.194677277844059 
1386	-7.87744197467243E-02 
1387	 0.114361438396817 
1388	 0.334591323187646 
1389	 0.823137448997682 
1390	 0.858177371539853 
1391	 0.744996657730393 
1392	 0.375502760329225 
1393	 0.295863230567944 
1394	-0.097984861759434 
1395	-0.261885534309657 
1396	 1.62854964735397 
1397	 2.58297138394942 
1398	 3.25143613992454 
1399	 2.0149012897707 
1400	-4.34993292723407E-02 
1401	 0.516903447995019 
1402	 1.00120489659901 
1403	 0.164902477683328 
1404	 0.288996324893517 
1405	 0.421277002960091 
1406	 0.596650851643268 
1407	 0.143427662114389 
1408	-0.571031815608122 
1409	-0.391800105864474 
1410	-0.408446790601287 
1411	-0.372776861107527 
1412	 0.480495545830591 
1413	 0.707962063821879 
1414	 0.555371020138704 
1415	 0.425650756471929 
1416	 0.176230783716305 
1417	 0.142579618401239 
1418	 7.42056756061232E-02 
1419	 8.24684242636924E-03 
1420	 0.025709318220928 
1421	 8.19894563956318E-02 
1422	 0.115363714822236 
1423	 8.80327082653214E-02 
1424	 6.11013726539083E-02 
1425	 0.104696963196486 
1426	 0.171188026907816 
1427	 0.142909461317187 
1428	 8.50916482860033E-02 
1429	 9.44736878818412E-02 
1430	 0.101328968248696 
1431	 7.73538215684675E-02 
1432	 7.80557010887138E-02 
1433	 9.01174214277141E-02 
1434	 0.056175311572827 
1435	 3.65781789671884E-02 
1436	 4.69162300370961E-02 
1437	 9.74193227727421E-02 
1438	 0.118751418653031 
1439	 7.16154815457449E-02 
1440	 4.32041144843987E-02 
1441	 4.81497534023934E-02 
1442	 3.60002704820852E-02 
1443	 2.60673584877883E-02 
1444	 1.51159657365543E-02 
1445	 1.66892165694097E-02 
1446	 4.22712323072421E-02 
1447	 5.40450461646266E-02 
1448	 4.96257224570125E-02 
1449	 4.12541653486025E-02 
1450	 3.40030865139308E-02 
1451	 2.59951914031764E-02 
1452	 1.96704825378637E-02 
1453	 2.44278893393402E-02 
1454	 2.95838305897197E-02 
1455	 3.36120758581822E-02 
1456	 3.04638757921139E-02 
1457	 2.90216019830335E-02 
1458	 0.031427913610625 
1459	 2.87499067769603E-02 
1460	 2.71812984879042E-02 
1461	 3.30411512916053E-02 
1462	 3.52830109307248E-02 
1463	 3.06040749240829E-02 
1464	 2.97353105138302E-02 
1465	 3.48277731102259E-02 
1466	 3.49138477341679E-02 
1467	 2.87782955209368E-02 
1468	 0.029380804834805 
1469	 3.71404727344847E-02 
1470	 3.38801147387422E-02 
1471	 2.36113631523324E-02 
1472	 2.33046111686837E-02 
1473	 2.21733288691363E-02 
1474	 2.21036855181221E-02 
1475	 2.97122998306846E-02 
1476	 0.032012004596585 
1477	 3.02197985137861E-02 
1478	 2.95523700689148E-02 
1479	 2.96649140190153E-02 
1480	 2.99885825616097E-02 
1481	 2.87549159563212E-02 
1482	 2.77658988675482E-02 
1483	 0.028814328113996 
1484	 2.93339980918544E-02 
1485	 2.76464894548096E-02 
1486	 2.72870907298049E-02 
1487	 0.02923725626272 
1488	 2.87762353971095E-02 
1489	 2.65861837823779E-02 
1490	 2.66755795642749E-02 
1491	 2.73287984620759E-02 
1492	 2.69204090226028E-02 
1493	 2.68916545324372E-02 
1494	 2.70642112142933E-02 
1495	 2.64505071620393E-02 
1496	 2.64223644439067E-02 
1497	 2.75351376200963E-02 
1498	 2.74921341970849E-02 
1499	 2.65282979800683E-02 
1500	 2.63844025171311E-02 
1501	 2.65708211161495E-02 
1502	 2.62364433502803E-02 
1503	 0.025707536385343 
1504	 2.55931703046861E-02 
1505	 2.53168027454615E-02 
1506	 2.51397191333385E-02 
1507	 2.50108496681119E-02 
1508	 2.53979954617637E-02 
1509	 2.52903991802666E-02 
1510	 2.48740253108132E-02 
1511	 2.49322222698181E-02 
1512	 2.50532073153351E-02 
1513	 2.51756644947634E-02 
1514	 2.52365460626026E-02 
1515	 2.53262035248911E-02 
1516	 2.54421559524124E-02 
1517	 2.54583621767398E-02 
1518	 2.55587505492049E-02 
1519	 2.56702047978394E-02 
1520	 2.57326416344966E-02 
1521	 2.55268170028466E-02 
1522	 2.54450905069056E-02 
1523	 2.53372170145172E-02 
1524	 2.46009449942613E-02 
1525	 2.47450160832026E-02 
1526	 2.49524092370427E-02 
1527	 2.42586953326184E-02 
1528	 0.024505411316099 
1529	 2.50755406275842E-02 
1530	 2.52318167542457E-02 
1531	 2.50540098858036E-02 
1532	 2.46706040286875E-02 
1533	 2.49973277398998E-02 
1534	 2.51856236213828E-02 
1535	 2.49469672695236E-02 
1536	 2.50498402746941E-02 
1537	 2.49766942939538E-02 
1538	 2.46353113818863E-02 
1539	 2.45892517227982E-02 
1540	 2.50605044417453E-02 
1541	 2.52239072885408E-02 
1542	 2.48193645603917E-02 
1543	 2.48665077217773E-02 
1544	 2.51282304148753E-02 
1545	 2.52348741341372E-02 
1546	 2.52126741534121E-02 
1547	 2.50230726518122E-02 
1548	 0.025010070019471 
1549	 2.50005877955292E-02 
1550	 2.47885203633714E-02 
1551	 2.46984278209022E-02 
1552	 2.47903666660067E-02 
1553	 2.49447771573694E-02 
1554	 2.50025486513421E-02 
1555	 2.46788275507454E-02 
1556	 2.46410306370078E-02 
1557	 2.48607489450487E-02 
1558	 2.43421676361049E-02 
1559	 2.38201574629867E-02 
1560	 2.39577906826413E-02 
1561	 2.39745949030203E-02 
1562	 2.40447234708011E-02 
1563	 0.024790474139017 
1564	 2.51836395290537E-02 
1565	 2.43343547720917E-02 
1566	 0.023563024530798 
1567	 2.36987827854459E-02 
1568	 2.36919842536984E-02 
1569	 2.37358057485175E-02 
1570	 2.42798704832717E-02 
1571	 2.44704005212156E-02 
1572	 2.44561217324033E-02 
1573	 2.46120302485313E-02 
1574	 2.47197197973724E-02 
1575	 2.47212944162378E-02 
1576	 2.47113371003825E-02 
1577	 2.50478274921584E-02 
1578	 2.50827201930408E-02 
1579	 2.47425132082749E-02 
1580	 0.024787231850251 
1581	 2.49346465304405E-02 
1582	 2.49850916825113E-02 
1583	 2.45872719820564E-02 
1584	 0.024295870796996 
1585	 2.46620508619541E-02 
1586	 2.50009596633433E-02 
1587	 2.54960556189461E-02 
1588	 2.57483548745565E-02 
1589	 2.54151454390899E-02 
1590	 2.53901433946361E-02 
1591	 2.51739880327035E-02 
1592	 2.48660644270205E-02 
1593	 2.53105215065991E-02 
1594	 2.51940971114864E-02 
1595	 0.024718783204904 
1596	 2.49793435276087E-02 
1597	 2.44845862548447E-02 
1598	 2.38024281638297E-02 
1599	 2.42985633743337E-02 
1600	 2.45284602609928E-02 
1601	 2.45270704397734E-02 
1602	 2.49542868556207E-02 
1603	 2.51448454461151E-02 
1604	 0.025172099574385 
1605	 2.50236894037324E-02 
1606	 0.024299357984771 
1607	 2.37542470299648E-02 
1608	 2.43894167660032E-02 
1609	 2.49038863602229E-02 
1610	 2.44967953997509E-02 
1611	 2.46033951453301E-02 
1612	 2.45891416364255E-02 
1613	 2.45638951349976E-02 
1614	 2.54775193742754E-02 
1615	 2.61410988588378E-02 
1616	 2.62011895915996E-02 
1617	 2.53512032370876E-02 
1618	 2.47133089272869E-02 
1619	 2.51142902349508E-02 
1620	 2.45559841188089E-02 
1621	 2.39477054937072E-02 
1622	 2.45634391818109E-02 
1623	 2.42878000683057E-02 
1624	 0.023572961087488 
1625	 2.41935157962443E-02 
1626	 2.46535898052876E-02 
1627	 2.41265381103061E-02 
1628	 0.02398884505838 
1629	 2.43526192390837E-02 
1630	 2.42620557525961E-02 
1631	 2.44302996339686E-02 
1632	 2.49337475308884E-02 
1633	 2.46845395369876E-02 
1634	 0.024437079848278 
1635	 0.024430750088101 
1636	 2.45071789504275E-02 
1637	 2.47720061038587E-02 
1638	 0.024344335076373 
1639	 2.37648319806803E-02 
1640	 2.42047366021912E-02 
1641	 2.48136757222385E-02 
1642	 2.44770011167703E-02 
1643	 2.44935579093677E-02 
1644	 2.47855074254198E-02 
1645	 2.39426455304703E-02 
1646	 2.39886211968381E-02 
1647	 2.53311501397245E-02 
1648	 2.56924181302662E-02 
1649	 2.54496024095152E-02 
1650	 2.56133115792643E-02 
1651	 2.52912660440024E-02 
1652	 2.45123320613202E-02 
1653	 2.46007989458807E-02 
1654	 2.47331536404509E-02 
1655	 2.48371944335504E-02 
1656	 2.46010130127088E-02 
1657	 2.45270173302121E-02 
1658	 2.46117349221759E-02 
1659	 2.41303076170361E-02 
1660	 2.42710347221717E-02 
1661	 2.51438606629341E-02 
1662	 2.51300549525382E-02 
1663	 2.51220131640407E-02 
1664	 2.51167613017348E-02 
1665	 2.41479298902806E-02 
1666	 2.43740210159054E-02 
1667	 2.57940627339489E-02 
1668	 2.59120342469351E-02 
1669	 2.54561217958198E-02 
1670	 2.49007855148256E-02 
1671	 2.50199634794918E-02 
1672	 2.55739012881571E-02 
1673	 2.55234710674714E-02 
1674	 2.54009210809419E-02 
1675	 2.50447192266128E-02 
1676	 2.47679528281246E-02 
1677	 2.59226674992003E-02 
1678	 2.64021639767642E-02 
1679	 0.024846437027792 
1680	 2.36513515148572E-02 
1681	 2.36600634268997E-02 
1682	 2.45437519414537E-02 
1683	 0.025601565078909 
1684	 2.55302829439722E-02 
1685	 2.50214219716681E-02 
1686	 2.45487297717285E-02 
1687	 2.44047170162453E-02 
1688	 0.025235298232105 
1689	 2.57363882168125E-02 
1690	 2.55506275914654E-02 
1691	 2.52585335777697E-02 
1692	 2.49179318773419E-02 
1693	 0.025452648334573 
1694	 2.61114744350382E-02 
1695	 2.60369437202777E-02 
1696	 2.62004598864964E-02 
1697	 0.026169471587242 
1698	 2.59558264850994E-02 
1699	 0.025997827775147 
1700	 2.61118365049566E-02 
1701	 2.58293760312314E-02 
1702	 2.49801503135396E-02 
1703	 2.52577222305499E-02 
1704	 2.58178789479208E-02 
1705	 2.53736649505765E-02 
1706	 2.53873764796288E-02 
1707	 2.55046695418324E-02 
1708	 2.51664695176218E-02 
1709	 2.50556655152501E-02 
1710	 0.024961977812722 
1711	 2.49189338945882E-02 
1712	 2.53211948099817E-02 
1713	 2.56770690968255E-02 
1714	 2.56696921315947E-02 
1715	 2.46834962319511E-02 
1716	 2.49210304405448E-02 
1717	 2.51545639172474E-02 
1718	 2.46444963084496E-02 
1719	 2.52237294546964E-02 
1720	 2.55637468538551E-02 
1721	 2.47617147299246E-02 
1722	 2.51660956176389E-02 
1723	 0.02610904539698 
1724	 2.52568866453914E-02 
1725	 2.49431375946083E-02 
1726	 0.025632736407612 
1727	 2.48615610918181E-02 
1728	 2.44180749190152E-02 
1729	 2.53397631736684E-02 
1730	 2.56317883301678E-02 
1731	 2.54353178533107E-02 
1732	 2.53106453471035E-02 
1733	 2.50845875464442E-02 
1734	 2.50063205601822E-02 
1735	 2.50157878961071E-02 
1736	 2.50486248603297E-02 
1737	 2.54983287684628E-02 
1738	 2.57068485654844E-02 
1739	 2.49705897525687E-02 
1740	 2.49543187903987E-02 
1741	 2.49345139112099E-02 
1742	 0.024751354901942 
1743	 2.55615284975585E-02 
1744	 2.58112703182196E-02 
1745	 2.58755663071341E-02 
1746	 2.48481742522092E-02 
1747	 2.45301959746599E-02 
1748	 0.024973375434965 
1749	 2.51326107667708E-02 
1750	 2.52586510777989E-02 
1751	 2.56294630718093E-02 
1752	 2.63706628093536E-02 
1753	 2.62827854172132E-02 
1754	 0.02599520033701 
1755	 2.65250398869198E-02 
1756	 2.66818636466642E-02 
1757	 2.56072886191643E-02 
1758	 2.61954170269381E-02 
1759	 2.57277641122685E-02 
1760	 0.024385651613572 
1761	 2.69031107136709E-02 
1762	 2.79792996850774E-02 
1763	 2.49874202762359E-02 
1764	 2.67197188509623E-02 
1765	 2.86377935927617E-02 
1766	 2.63602468994652E-02 
1767	 2.66489752251784E-02 
1768	 2.67202973365842E-02 
1769	 2.37581480529688E-02 
1770	 2.29031102752084E-02 
1771	 2.44151666865259E-02 
1772	 2.44571188896921E-02 
1773	 2.40619752924312E-02 
1774	 2.56474976081192E-02 
1775	 2.62463367653155E-02 
1776	 2.65416166899582E-02 
1777	 2.76682331130441E-02 
1778	 2.83851738472126E-02 
1779	 2.75590380692835E-02 
1780	 0.028206654339437 
1781	 3.03223650161525E-02 
1782	 3.06419752679582E-02 
1783	 3.15582691761328E-02 
1784	 3.11987715955144E-02 
1785	 2.85762990819968E-02 
1786	 2.78132874445765E-02 
1787	 2.52093579879832E-02 
1788	 2.45747860953322E-02 
1789	 2.71687041064769E-02 
1790	 2.01387349489203E-02 
1791	 0.024619452705823 
1792	 2.95561181882442E-02 
1793	 3.34412967173317E-02 
1794	 4.52927338250781E-02 
1795	 4.38195651778947E-02 
1796	 3.70389559006487E-02 
1797	 2.89171915071303E-02 
1798	 1.71335133917207E-02 
1799	 2.73555255661512E-02 
1800	 2.96362095524698E-02 
1801	 3.39955315068804E-02 
1802	 5.82538004797304E-02 
1803	 6.06086282469262E-02 
1804	 3.37741574152323E-02 
1805	 0.035251340877535 
1806	 2.04751561369141E-02 
1807	 7.02299295458185E-03 
1808	 7.90200072357914E-02 
1809	 9.84482666818962E-02 
1810	-5.79658107046647E-03 
1811	 2.96839173930211E-02 
1812	 0.242544619325847 
1813	 0.240717370338146 
1814	 0.175084503038614 
1815	 6.27934548472567E-02 
1816	-0.606490519004853 
1817	-0.933572778249771 
1818	-0.867666188879556 
1819	-0.440124150360425 
1820	 0.314553409481392 
1821	 0.308663877237965 
1822	 0.226309702963566 
1823	-0.952988227989446 
1824	 0.676074047165963 
1825	-0.59282918146437 
1826	-0.469422223657172 
1827	-0.737886005158261 
1828	-1.83596447309506 
1829	 1.56982462492898 
1830	-8.79709177566979E-03 
1831	-1.6186471423012 
1832	-1.75345540993784 
1833	-0.736784085644743 
1834	-0.583392894593357 
1835	-0.682670005277543 
1836	-0.6944096698833 
1837	-0.941897557747296 
1838	-1.25961919285188 
1839	-2.89175872106232 
1840	-4.09676339949353 
1841	-0.457269305062336 
1842	 0.200238318574031 
1843	 0.32536039115004 
1844	 1.02846385906723 
1845	 1.38777680539857 
1846	 0.420064905256912 
1847	-0.338177113310708 
1848	 3.47393423437147 
1849	-0.90222164867814 
1850	-1.9731988449744 
1851	 33.6061383492431 
1852	-0.742845190638195 
1853	-0.278345693423224 
1854	-0.379211954316617 
1855	-1.03165585320219 
1856	-1.0382487108874 
1857	-1.97994016403503 
1858	-2.41187790535405 
1859	-0.92595319389204 
1860	-0.480860719642123 
1861	-1.12767953995027 
1862	-12.552629791935 
1863	-0.47199316156272 
1864	-0.810142785256835 
1865	-0.630550697649259 
1866	-1.8800901666765E-03 
1867	 0.1710311104054 
1868	 0.954274926549336 
1869	 1.49542506412242 
1870	 4.32302946972492 
1871	 9.97627352899522 
1872	 3.96273812830566 
1873	-1.97568527433602 
1874	-0.75414666014922 
1875	-0.432428886736006 
1876	-0.31691638417653 
1877	-0.167850932036707 
1878	-5.88554317043865E-02 
1879	-0.104241556996366 
1880	-0.111624129880056 
1881	-0.359820665217147 
1882	 2.60376485606297 
1883	 0.443230827014056 
1884	-0.229852092931948 
1885	 2.90322345016643 
1886	-41.1715969883222 
1887	 12.6175628066652 
1888	 8.24515450971724 
1889	 3.38784405314462 
1890	 1.43237094191163 
1891	 0.667603971385861 
1892	 0.327229250631802 
1893	 0.242780527717225 
1894	 0.162155587439667 
1895	 0.354503920433097 
1896	 1.64254574777957E-02 
1897	-0.497504952668857 
1898	-5.38509796391136 
1899	 8.49592098517461 
1900	 7.24184142800122 
1901	 4.10133092257094 
1902	 3.99771506324932 
1903	 14.1796619312306 
1904	-5.46463411260407 
1905	-2.73818295412112 
1906	-2.12165733790729 
1907	-1.56078466256239 
1908	-0.487066250712231 
1909	 0.124868270060904 
1910	 1.99821964496436 
1911	 0.531663725906411 
1912	 0.961052505323463 
1913	 1.0593898343942 
1914	 2.79979027332132 
1915	 2.92371922110563 
1916	 0.763289857872462 
1917	 0.336955963235948 
1918	-1.29856092315628 
1919	-0.636516145470488 
1920	-0.649515265389576 
1921	 0.317211433131755 
1922	 1.61284265469575 
1923	 2.74908793476952 
1924	 1.35840344066284 
1925	-0.317647189054699 
1926	-1.27459721939013 
1927	-3.98626528246837 
1928	-2.83698294669907 
1929	-3.51450769205318 
1930	-1.54878244729215 
1931	-2.13613457393711 
1932	 3.94217341772471E-02 
1933	 0.371143786709929 
1934	-0.440372085499655 
1935	 8.37559117297673E-03 
1936	 0.46928542626422 
1937	-0.380609525509581 
1938	-0.690055936536011 
1939	-0.553538979406388 
1940	-0.770745419448706 
1941	-0.40364321541259 
1942	-0.118778093803475 
1943	 3.54007391848776E-02 
1944	 0.241362977687426 
1945	 8.83188701234966E-02 
1946	 2.27509159802179E-03 
1947	 5.51810357593263E-02 
1948	-0.056994912556909 
1949	-0.177547343357398 
1950	-0.103255974135047 
1951	 1.34062024810877E-02 
1952	 3.67702771156371E-02 
1953	 3.75169067182167E-02 
1954	 2.87002219688251E-02 
1955	 1.06268578652747E-02 
1956	-2.83237867904345E-02 
1957	-4.37629238816477E-02 
1958	-3.01655949445722E-02 
1959	-1.17396842685679E-02 
1960	-1.24217020449804E-02 
1961	-1.29039681907819E-02 
1962	-1.15574393639501E-02 
1963	-1.29105670336708E-03 
1964	 2.31240281516367E-02 
1965	 2.34960323954471E-02 
1966	 2.35219073239237E-02 
1967	 2.57842930998354E-02 
1968	 2.65854334560432E-02 
1969	 1.19653991035833E-02 
1970	 1.17337210685121E-02 
1971	 1.51235331813906E-02 
1972	 1.68266454440012E-02 
1973	 2.37605092532765E-02 
1974	 2.40233448167561E-02 
1975	 2.47679780696457E-02 
1976	 2.54034152092056E-02 
1977	 2.46687277386279E-02 
1978	 2.57928886671521E-02 
1979	 2.64286113049338E-02 
1980	 2.77458130491973E-02 
1981	 2.66446935227036E-02 
1982	 2.25866143452715E-02 
1983	 2.09065111612615E-02 
1984	 1.97259102387982E-02 
1985	 1.92197657114359E-02 
1986	 2.10995318684744E-02 
1987	 0.023172964651151 
1988	 2.27059000158458E-02 
1989	 2.08468987785108E-02 
1990	 2.32933997788982E-02 
1991	 2.64858760966247E-02 
1992	 0.026136539110231 
1993	 2.64926340970161E-02 
1994	 2.71786152320987E-02 
1995	 2.66060697502264E-02 
1996	 2.24943087435631E-02 
1997	 2.16168501129144E-02 
1998	 2.50125761066172E-02 
1999	 2.27582934076679E-02 
2000	 2.07675120825846E-02 
2001	 2.63409884063768E-02 
2002	 2.40815643250324E-02 
2003	 1.91552277505862E-02 
2004	 1.46743922033551E-02 
2005	 2.92142085569659E-03 
2006	-4.93543553101551E-03 
2007	-4.7139651441263E-03 
2008	 5.37189077125637E-03 
2009	 1.08499104084722E-02 
2010	 2.09021913961929E-02 
2011	 2.49608253756945E-02 
2012	 2.65085859394636E-02 
2013	 0.020899431054346 
2014	 1.99124207714582E-02 
2015	 2.31926734969629E-02 
2016	 2.61224344186284E-02 
2017	 0.029832388046539 
2018	 3.01862000495996E-02 
2019	 2.69723395232429E-02 
2020	 2.69342180480554E-02 
2021	 2.80319591952482E-02 
2022	 2.59086765450584E-02 
2023	 2.74859066530966E-02 
2024	 0.027409488124395 
2025	 2.46360002785567E-02 
2026	 2.37272212110905E-02 
2027	 2.37684537743166E-02 
2028	 2.38868171598381E-02 
2029	 2.53834914197104E-02 
2030	 2.65162164835152E-02 
2031	 2.51588130831759E-02 
2032	 2.34893826139533E-02 
2033	 2.22612490767685E-02 
2034	 2.20169435515897E-02 
2035	 2.17089662035441E-02 
2036	 2.10541426485779E-02 
2037	 2.21567353037185E-02 
2038	 2.18832578686765E-02 
2039	 2.10057016196799E-02 
2040	 0.021177121100125 
2041	 2.14068288001398E-02 
2042	 1.88335779778994E-02 
2043	 1.87555909760245E-02 
2044	 2.13399654758525E-02 
2045	 2.32609338754322E-02 
2046	 2.20463415616848E-02 
2047	 2.18506347230951E-02 
2048	 2.27592478023003E-02 
2049	 0.021570251437031 
2050	 2.26623556069309E-02 
2051	 0.025609350003878 
2052	 0.024440558797986 
2053	 2.36155040342739E-02 
2054	 2.27596953485966E-02 
2055	 2.21831623351955E-02 
2056	 2.18442876442018E-02 
2057	 0.020819660990657 
2058	 2.09001205680884E-02 
2059	 2.26532128433887E-02 
2060	 2.31924631184085E-02 
2061	 2.28640962698213E-02 
2062	 0.025461073648154 
2063	 2.65748022740988E-02 
2064	 2.66868277754274E-02 
2065	 2.66298962958298E-02 
2066	 2.71310451023583E-02 
2067	 2.95778866013571E-02 
2068	 0.029622440681625 
2069	 2.88706271024365E-02 
2070	 2.82553221104868E-02 
2071	 2.57374216832232E-02 
2072	 2.49863013421397E-02 
2073	 2.53725503006586E-02 
2074	 2.80586931701825E-02 
2075	 2.84919182020862E-02 
2076	 2.91269287136455E-02 
2077	 2.87042761178219E-02 
2078	 2.65833373747777E-02 
2079	 2.50800343336446E-02 
2080	 2.32570030758325E-02 
2081	 2.26210489564688E-02 
2082	 2.15773246812217E-02 
2083	 2.03869486430729E-02 
2084	 2.16745550056901E-02 
2085	 2.19167813308079E-02 
2086	 2.11737848661613E-02 
2087	 2.23056717911619E-02 
2088	 2.27273754586107E-02 
2089	 2.28782719181581E-02 
2090	 0.023104706331156 
2091	 2.18933301648097E-02 
2092	 2.12456384006705E-02 
2093	 1.89481115601706E-02 
2094	 2.00995274078608E-02 
2095	 2.52856434777782E-02 
2096	 2.56039340760403E-02 
2097	 2.38304972888435E-02 
2098	 2.41080431338373E-02 
2099	 2.26271522633011E-02 
2100	 2.19720119778995E-02 
2101	 2.36191887322178E-02 
2102	 2.49253644041196E-02 
2103	 2.35830316230925E-02 
2104	 0.02186481719447 
2105	 2.22728236292948E-02 
2106	 2.21342554649188E-02 
2107	 2.17272819613365E-02 
2108	 2.21066090091918E-02 
2109	 2.20557035852507E-02 
2110	 2.34537575969527E-02 
2111	 2.34139234854476E-02 
2112	 2.16966718879953E-02 
2113	 2.18987929417502E-02 
2114	 2.31267565954088E-02 
2115	 2.37964846552386E-02 
2116	 0.024872980568442 
2117	 2.56677803984213E-02 
2118	 2.55161030860139E-02 
2119	 2.51000564914225E-02 
2120	 2.37810092392449E-02 
2121	 2.67148956158038E-02 
2122	 2.61568286945109E-02 
2123	 2.53529663986959E-02 
2124	 2.48901114954023E-02 
2125	 2.24028771895344E-02 
2126	 0.021600688762139 
2127	 2.30017890931619E-02 
2128	 2.43750748559198E-02 
2129	 2.62415589481868E-02 
2130	 2.68701702418648E-02 
2131	 2.65473703170045E-02 
2132	 2.66756804030955E-02 
2133	 2.50157923983254E-02 
2134	 2.38857678959909E-02 
2135	 2.21372154604927E-02 
2136	 2.20545338893022E-02 
2137	 2.24334368437713E-02 
2138	 2.38334269508575E-02 
2139	 2.84128577736079E-02 
2140	 2.92343552967228E-02 
2141	 2.80799971325123E-02 
2142	 2.70348143472299E-02 
2143	 2.35051356751756E-02 
2144	 2.23396669804723E-02 
2145	 2.25024230108988E-02 
2146	 2.43423697735377E-02 
2147	 2.60736029413378E-02 
2148	 2.36529852193989E-02 
2149	 2.15887412882117E-02 
2150	 2.04021928278721E-02 
2151	 1.93536367507284E-02 
2152	 0.022604598257106 
2153	 2.52942239724046E-02 
2154	 2.39373921343036E-02 
2155	 2.17373615996739E-02 
2156	 1.79744743676344E-02 
2157	 1.69238999021429E-02 
2158	 1.64423640316781E-02 
2159	 1.75479990764999E-02 
2160	 2.23055111550647E-02 
2161	 2.33116315076842E-02 
2162	 2.25916030197944E-02 
2163	 2.26250363860402E-02 
2164	 2.22144202019085E-02 
2165	 2.10978386511253E-02 
2166	 1.85269301503997E-02 
2167	 0.018398934107636 
2168	 1.89866838285662E-02 
2169	 0.01924845249856 
2170	 2.18362560597333E-02 
2171	 2.29235920687921E-02 
2172	 2.30849956366463E-02 
2173	 2.30641401979739E-02 
2174	 2.31793988400417E-02 
2175	 2.56959849217287E-02 
2176	 2.51258540070271E-02 
2177	 2.41482069317002E-02 
2178	 2.57010587536901E-02 
2179	 2.51725769529188E-02 
2180	 0.024536575645836 
2181	 2.38917828660616E-02 
2182	 0.022579725907396 
2183	 2.19673763317097E-02 
2184	 2.15845489686515E-02 
2185	 2.15909968525248E-02 
2186	 2.12621204151454E-02 
2187	 2.03729818618556E-02 
2188	 1.90410269185458E-02 
2189	 1.64607917286115E-02 
2190	 1.66904968901991E-02 
2191	 0.018411282222024 
2192	 1.82357923534175E-02 
2193	 1.88112162661986E-02 
2194	 2.09194447611606E-02 
2195	 2.29896280468933E-02 
2196	 2.34347205553952E-02 
2197	 2.52507454147101E-02 
2198	 2.65076754223277E-02 
2199	 2.47106182385247E-02 
2200	 2.39321215075412E-02 
2201	 2.56190609739403E-02 
2202	 2.57817583980086E-02 
2203	 2.62232881481046E-02 
2204	 2.51798469768962E-02 
2205	 2.34252070731678E-02 
2206	 2.27609548047525E-02 
2207	 1.95412754095676E-02 
2208	 1.43778971204204E-02 
2209	 0.016149349742131 
2210	 1.88652386041398E-02 
2211	 2.14384660399043E-02 
2212	 2.87546043034687E-02 
2213	 2.71872243882555E-02 
2214	 0.022274859937317 
2215	 2.18546627418989E-02 
2216	 2.14868501503975E-02 
2217	 2.13548019787628E-02 
2218	 2.52385091884024E-02 
2219	 2.55243554858445E-02 
2220	 2.27608450803233E-02 
2221	 2.23757326993955E-02 
2222	 2.29579891840057E-02 
2223	 2.37368361070051E-02 
2224	 2.56904182030839E-02 
2225	 2.39025009066257E-02 
2226	 2.02815816635461E-02 
2227	 1.90950221897209E-02 
2228	 1.51985039962795E-02 
2229	 1.52451100055846E-02 
2230	 2.00664878765509E-02 
2231	 2.05599093313437E-02 
2232	 2.05189926130367E-02 
2233	 0.021233623228328 
2234	 2.02603899263545E-02 
2235	 2.01241864646937E-02 
2236	 2.30783259822526E-02 
2237	 2.54448893070672E-02 
2238	 2.53113366753038E-02 
2239	 2.84643676980949E-02 
2240	 2.57477269426894E-02 
2241	 2.04057675212707E-02 
2242	 1.92779505605187E-02 
2243	 1.74951899512444E-02 
2244	 1.90545669157947E-02 
2245	 1.86402615893517E-02 
2246	 1.62558313452452E-02 
2247	 0.013064191965787 
2248	 1.09519358705394E-02 
2249	 1.53049442930435E-02 
2250	 2.00046202354916E-02 
2251	 2.26108421847905E-02 
2252	 1.97830862866894E-02 
2253	 1.74661003185895E-02 
2254	 1.92815497734442E-02 
2255	 1.39772568022179E-02 
2256	 1.24688925711078E-02 
2257	 1.69346077271191E-02 
2258	 1.36443872686768E-02 
2259	 0.014173985080052 
2260	 1.59345148064103E-02 
2261	 0.020270897656438 
2262	 1.97847701527909E-02 
2263	 1.76032511594637E-02 
2264	 1.80710838596446E-02 
2265	 1.87766035506862E-02 
2266	 1.77491943554996E-02 
2267	 1.69710657513933E-02 
2268	 1.80412373486696E-02 
2269	 1.80470986602359E-02 
2270	 1.79383539336953E-02 
2271	 1.89335696219415E-02 
2272	 2.01944665262931E-02 
2273	 2.14787876387688E-02 
2274	 2.25229101053214E-02 
2275	 2.47043766444953E-02 
2276	 0.029175691976757 
2277	 3.57085064718963E-02 
2278	 3.48449578988167E-02 
2279	 2.98012238427974E-02 
2280	 2.83968925473884E-02 
2281	 2.38389172452311E-02 
2282	 2.18229166893455E-02 
2283	 2.00152241269256E-02 
2284	 2.89293827426284E-02 
2285	 3.27734189425842E-02 
2286	 2.95397526823973E-02 
2287	 3.13147037126474E-02 
2288	 2.75855412878239E-02 
2289	 2.74633394998418E-02 
2290	 2.64468941065618E-02 
2291	 2.01855106944194E-02 
2292	 2.64916133980653E-02 
2293	 2.39527935008666E-02 
2294	 1.52311503521403E-02 
2295	 2.48323330876122E-02 
2296	 2.06993347992863E-02 
2297	 8.69118235753444E-03 
2298	 1.04489899067313E-02 
2299	 4.38050191934984E-03 
2300	 3.44767236453596E-03 
2301	 1.64811405545495E-02 
2302	 2.53562402933175E-02 
2303	 2.50386458760501E-02 
2304	 1.96150037201317E-02 
2305	 1.37974844139648E-02 
2306	 9.43829884749208E-03 
2307	 8.25213810954333E-03 
2308	 8.95096840326969E-03 
2309	 8.53834706491767E-03 
2310	 7.23841134550547E-03 
2311	 7.57938638312099E-03 
2312	 7.72978246502439E-03 
2313	 2.68513294865303E-03 
2314	-3.15491533714432E-03 
2315	-7.61146925926554E-03 
2316	-7.52467198749844E-03 
2317	 1.4744321688623E-03 
2318	 1.74427489080129E-03 
2319	 3.00802148390801E-03 
2320	 5.4418669078492E-03 
2321	-9.71368581390439E-04 
2322	 3.83382234404703E-03 
2323	 1.54076781781272E-03 
2324	-4.80506115935087E-03 
2325	-9.57662253455319E-03 
2326	-1.70962964767324E-02 
2327	-9.37320060298277E-03 
2328	-5.3538179002684E-05 
2329	 6.30470220176162E-03 
2330	 9.60418412462406E-03 
2331	 7.18888447581457E-03 
2332	 9.05258361110068E-03 
2333	 8.73405950058957E-03 
2334	 5.01264122350589E-03 
2335	 1.05966490202277E-02 
2336	 2.00011871649516E-02 
2337	 0.023403272060991 
2338	 2.45248193477244E-02 
2339	 0.011616055407189 
2340	-1.42739630191845E-02 
2341	-2.42151060571764E-02 
2342	-1.70817129374423E-02 
2343	-6.18341262013423E-03 
2344	 9.23596050293652E-03 
2345	 1.75617723541362E-02 
2346	 0.020223108180697 
2347	 3.26563911518025E-02 
2348	 3.73622505628351E-02 
2349	 3.61435628960855E-02 
2350	 5.85845494600806E-02 
2351	 7.53522163466088E-02 
2352	 6.50247544567559E-02 
2353	 7.23253333068292E-02 
2354	 8.54371392405977E-02 
2355	 5.12173861780007E-02 
2356	 2.45673623862445E-02 
2357	 2.08724268587997E-02 
2358	 1.34003453431681E-03 
2359	 1.49227321376197E-03 
2360	-3.45028441654971E-04 
2361	-2.00273830351328E-02 
2362	-2.64626915736106E-02 
2363	-2.61141309387434E-02 
2364	-1.72086108906804E-02 
2365	-1.46864003759165E-02 
2366	-2.97867417973274E-02 
2367	-5.98378936818733E-02 
2368	-8.71200035064716E-02 
2369	-9.57474534954856E-02 
2370	-9.55315631532063E-02 
2371	-0.065033974374457 
2372	-5.33440685758352E-02 
2373	-5.60877455478578E-02 
2374	-4.95673773637074E-03 
2375	 0.012616229295717 
2376	-2.27921387465791E-02 
2377	-4.66174760921026E-02 
2378	-9.57045709383074E-02 
2379	-0.147281922110611 
2380	-0.128588319252808 
2381	-7.42247934668721E-02 
2382	-4.93587882778135E-02 
2383	-8.64505994316456E-02 
2384	-0.141439420058404 
2385	-0.117331768033996 
2386	-0.126751625370588 
2387	-0.178051188511942 
2388	-0.130959477936331 
2389	-0.113050881352417 
2390	-0.138241771680827 
2391	-8.36225658109109E-03 
2392	 0.13440041300022 
2393	 0.203660250624563 
2394	 0.215821215335911 
2395	 0.109650435824003 
2396	 2.42389276617471E-02 
2397	 1.10078523376771E-02 
2398	-1.72452493398791E-02 
2399	 3.79412560905235E-02 
2400	 0.115281754496474 
2401	 6.98111035569496E-02 
2402	 5.79135537933273E-02 
2403	 9.03768616862185E-02 
2404	 9.82573455912017E-02 
2405	 0.15227988018074 
2406	 0.196414082944445 
2407	 0.192364271441705 
2408	 9.02224379431623E-02 
2409	-0.126380331054549 
2410	-0.12812001076825 
2411	-0.140397174666413 
2412	-0.141371712961723 
2413	 0.112820044410259 
2414	 0.210635240013004 
2415	 0.200022602543703 
2416	 0.32292211216118 
2417	 0.220925301975937 
2418	 0.018193295759639 
2419	-0.124091312025067 
2420	-0.240614223876551 
2421	-0.329532219978966 
2422	-0.500579378744221 
2423	-0.295247738266843 
2424	-0.052429341723406 
2425	-4.10121215994318E-03 
2426	 8.01741885661392E-02 
2427	 2.11700031102287E-02 
2428	-4.42418225039458E-02 
2429	-3.98088803330932E-02 
2430	-0.240730772555508 
2431	-0.470251237056327 
2432	-0.444033931715033 
2433	-0.372702183779318 
2434	-0.16631748936354 
2435	-4.69939371381275E-02 
2436	-0.177480390968335 
2437	-0.228632652649536 
2438	-0.23238553258429 
2439	-0.323502444143735 
2440	-0.284790405383587 
2441	-0.452171269657854 
2442	-0.565235631725301 
2443	-0.522802883016729 
2444	-0.647229537061835 
2445	-0.878552395068674 
2446	-2.36862613034534 
2447	-6.20149359091736 
2448	-5.06180084677059 
2449	-0.800295568652974 
2450	-0.428676759085626 
2451	-0.331856490940577 
2452	-0.345330076768831 
2453	-0.666082817756438 
2454	-0.861502304201723 
2455	-1.41043575149777 
2456	 71.1908329010029 
2457	 7.95456778256154 
2458	 9.26762308231078 
2459	 46.1738559623916 
2460	-3.08264033857542 
2461	-1.25879730702008 
2462	-0.278604125795963 
2463	-0.149626435841023 
2464	-0.324399305445857 
2465	-1.11639553145377 
2466	-21.2191145947573 
2467	 4.81602839292552 
2468	 8.1605536043664 
2469	 24.6720483657807 
2470	 3.73884693052366 
2471	 10.5277317424756 
2472	-1.01233575448786 
2473	-0.669666301068349 
2474	-0.904588995911474 
2475	-0.762334474363894 
2476	 0.918225953345226 
2477	 0.769020241196996 
2478	 0.638617566180824 
2479	 0.594313465577524 
2480	 1.80727940893992 
2481	-39.6618470300734 
2482	 2.32103939146231 
2483	 1.41589362777432 
2484	 1.29021674132213 
2485	 1.13553029528228 
2486	-0.650002804630837 
2487	-0.889983049117631 
2488	-9.56016597687218 
2489	 8.06927546741951 
2490	-10.944298354642 
2491	-2.87167932647346 
2492	-25.1270165384621 
2493	-2.75778704650122 
2494	-12.2496501642269 
2495	-6.16454546267309 
2496	-13.088943470952 
2497	 2.03764620871283 
2498	 0.458911700737175 
2499	 0.22577467965369 
2500	 0.588948689197192 
