Wavelength	rt0713east_far200009.asd
350	 0.130072868227648 
351	 0.12949990402267 
352	 0.12897278117641 
353	 0.128953982377125 
354	 0.129333714387613 
355	 0.128900853100486 
356	 0.128404168879703 
357	 0.12818522194692 
358	 0.128336795043392 
359	 0.128575348611709 
360	 0.128290562643321 
361	 0.127596962965123 
362	 0.127132468010591 
363	 0.127492004155797 
364	 0.127457145050144 
365	 0.126803992098774 
366	 0.127133310713908 
367	 0.126719005574752 
368	 0.126534250737056 
369	 0.127450730094842 
370	 0.127528797965214 
371	 0.127013904432051 
372	 0.126643442518403 
373	 0.127141400339092 
374	 0.12640779584187 
375	 0.126071629528526 
376	 0.126676024938196 
377	 0.126777419594507 
378	 0.1270590648169 
379	 0.126981384468098 
380	 0.126326444882066 
381	 0.126678959902492 
382	 0.126753411060481 
383	 0.126567038133581 
384	 0.126725097265618 
385	 0.127095487279652 
386	 0.12750553661704 
387	 0.127544332403948 
388	 0.126649455973958 
389	 0.126880491385829 
390	 0.12716829936402 
391	 0.126768021392672 
392	 0.127352542627722 
393	 0.127300587426983 
394	 0.1269935059347 
395	 0.127278986794263 
396	 0.127190434689567 
397	 0.127209603672462 
398	 0.127433877016288 
399	 0.127574217564657 
400	 0.127734163073166 
401	 0.127772133674444 
402	 0.127662572612013 
403	 0.127692636731852 
404	 0.12777970687244 
405	 0.127829195665405 
406	 0.12779589192367 
407	 0.127975973989423 
408	 0.128065803926798 
409	 0.12801897774764 
410	 0.128071476162368 
411	 0.128320897247993 
412	 0.128410902982498 
413	 0.128243970741619 
414	 0.128558695823503 
415	 0.128621091269285 
416	 0.128626586207815 
417	 0.129014384870188 
418	 0.129255464637923 
419	 0.129362581431817 
420	 0.12943858304891 
421	 0.129633030819158 
422	 0.12989822072087 
423	 0.130089567793964 
424	 0.130185508068834 
425	 0.130567904137954 
426	 0.13091818351937 
427	 0.131224797814152 
428	 0.13158175949411 
429	 0.131678966194962 
430	 0.131975205339618 
431	 0.132476879011494 
432	 0.132597913096011 
433	 0.132821217436465 
434	 0.133259934525987 
435	 0.133798467361029 
436	 0.133893837264441 
437	 0.134109093953108 
438	 0.134493592376983 
439	 0.134811732894315 
440	 0.135058256317731 
441	 0.135386840190633 
442	 0.135814095574415 
443	 0.136133923467681 
444	 0.13639911671359 
445	 0.136685782414053 
446	 0.137026157954747 
447	 0.137221706337178 
448	 0.137646323170123 
449	 0.138145968718118 
450	 0.13823121255841 
451	 0.138462430159285 
452	 0.138717723794624 
453	 0.138913094407404 
454	 0.139255677802825 
455	 0.139543404731946 
456	 0.139696934911657 
457	 0.1397605025822 
458	 0.140164156988482 
459	 0.140421430160729 
460	 0.140466039189273 
461	 0.140687554651771 
462	 0.140917170322284 
463	 0.141184808910456 
464	 0.141464384920322 
465	 0.141453320392029 
466	 0.141605530183053 
467	 0.141898589373889 
468	 0.142090533419421 
469	 0.142278797247674 
470	 0.142387890682141 
471	 0.142475649634323 
472	 0.142789886082886 
473	 0.142995373582602 
474	 0.143193102380497 
475	 0.143506348281045 
476	 0.143709194281823 
477	 0.143906571968724 
478	 0.144182310950698 
479	 0.144575606179946 
480	 0.144830049205318 
481	 0.14509099512279 
482	 0.145434598604819 
483	 0.145673105846598 
484	 0.146018524398776 
485	 0.146387028213447 
486	 0.146657462761388 
487	 0.147135041041262 
488	 0.14755977767556 
489	 0.147864729456887 
490	 0.14819542038533 
491	 0.148464317354087 
492	 0.148852970755632 
493	 0.149398342934754 
494	 0.149599154412792 
495	 0.149957558589564 
496	 0.150457097293388 
497	 0.150834808669711 
498	 0.151167909916223 
499	 0.151481735034141 
500	 0.15181892007936 
501	 0.152258736276563 
502	 0.152503338138995 
503	 0.152748507905405 
504	 0.153221796337588 
505	 0.153630083813144 
506	 0.154276137940132 
507	 0.155039147223867 
508	 0.155485500101807 
509	 0.155879924303103 
510	 0.156402404671021 
511	 0.157074996515857 
512	 0.157599045007251 
513	 0.158123173196502 
514	 0.158674987503497 
515	 0.159236209377272 
516	 0.159839311445057 
517	 0.160434246309674 
518	 0.16096091199709 
519	 0.161361385008049 
520	 0.161977893479696 
521	 0.162631455033749 
522	 0.163115257536333 
523	 0.16353546557797 
524	 0.164108261958243 
525	 0.164774398861689 
526	 0.165299767658149 
527	 0.165862866694436 
528	 0.166487893762109 
529	 0.167157237037328 
530	 0.167834334334025 
531	 0.168427520422075 
532	 0.16899921466786 
533	 0.169629844398927 
534	 0.170097611801958 
535	 0.170670677612949 
536	 0.171398250838485 
537	 0.172047662161651 
538	 0.172456616608686 
539	 0.17294998223191 
540	 0.173730736889277 
541	 0.174183596980268 
542	 0.174712854371099 
543	 0.175353700466001 
544	 0.175926117121862 
545	 0.176588685982057 
546	 0.177283049545506 
547	 0.177953180512654 
548	 0.178605250303232 
549	 0.17919436164463 
550	 0.179781298341994 
551	 0.180445171628716 
552	 0.181133778391003 
553	 0.181749697967551 
554	 0.182280795371643 
555	 0.182809859931436 
556	 0.183401017197435 
557	 0.184033109172494 
558	 0.184636487598588 
559	 0.185097959020537 
560	 0.185497529625935 
561	 0.185934548383303 
562	 0.186496208357327 
563	 0.187013008540812 
564	 0.187443827809118 
565	 0.187761047931493 
566	 0.187909315472402 
567	 0.188128119362305 
568	 0.188434298155463 
569	 0.188759720998841 
570	 0.18911275349807 
571	 0.189483359983092 
572	 0.189841066187573 
573	 0.190134419348786 
574	 0.190335308696176 
575	 0.190564579177137 
576	 0.190900785484587 
577	 0.191181694605406 
578	 0.191432740029717 
579	 0.191711507625624 
580	 0.192073808862412 
581	 0.192363495193297 
582	 0.192519355578304 
583	 0.192513743884672 
584	 0.192353487689447 
585	 0.19198531142344 
586	 0.191265753763552 
587	 0.190147290240686 
588	 0.189334384137996 
589	 0.188949572370798 
590	 0.188942979678603 
591	 0.189101909272091 
592	 0.189206853681606 
593	 0.189144105720094 
594	 0.18896089088886 
595	 0.189074532240114 
596	 0.189153884193609 
597	 0.189169448221105 
598	 0.189247821403533 
599	 0.189259842467969 
600	 0.189308722211055 
601	 0.189400857394589 
602	 0.189336624591623 
603	 0.189121988987455 
604	 0.189015271280177 
605	 0.189217488475424 
606	 0.189173604222226 
607	 0.189204732480023 
608	 0.189321605545881 
609	 0.189191742616168 
610	 0.18921359458528 
611	 0.189284652419921 
612	 0.189291836337423 
613	 0.189433037358544 
614	 0.189456062030554 
615	 0.189372396188663 
616	 0.189348799832331 
617	 0.189439158647298 
618	 0.189537825822058 
619	 0.189583149691384 
620	 0.189611805009341 
621	 0.189632436961827 
622	 0.189601061632836 
623	 0.189493987919194 
624	 0.189496983386282 
625	 0.189264122242732 
626	 0.188881255816958 
627	 0.188842067469936 
628	 0.188850826854748 
629	 0.189031619146141 
630	 0.189386719601702 
631	 0.189413939448901 
632	 0.189363084892449 
633	 0.189376138884252 
634	 0.189518461139997 
635	 0.189640080073903 
636	 0.189671895525454 
637	 0.189698027678074 
638	 0.190015636200886 
639	 0.190003810155711 
640	 0.189859588113674 
641	 0.189882125850621 
642	 0.189733366508302 
643	 0.189379247231313 
644	 0.188768245776633 
645	 0.187864552660441 
646	 0.187106310013414 
647	 0.186811059156934 
648	 0.187031352018154 
649	 0.187394410392791 
650	 0.187245872466902 
651	 0.186960553647405 
652	 0.187141382368846 
653	 0.186818143306592 
654	 0.186269179880366 
655	 0.185836035516806 
656	 0.185858866797755 
657	 0.185717725419441 
658	 0.185574789628512 
659	 0.18558854411836 
660	 0.185382299172181 
661	 0.185216807444954 
662	 0.185089015082678 
663	 0.184841787762464 
664	 0.184479003017186 
665	 0.184285932383836 
666	 0.184327271392845 
667	 0.184233756882817 
668	 0.184012661592696 
669	 0.183850197127056 
670	 0.183911563607488 
671	 0.183871866900778 
672	 0.183939878031831 
673	 0.184063759628499 
674	 0.18395482134266 
675	 0.184006129020458 
676	 0.184070414399136 
677	 0.184046372810293 
678	 0.184218278522763 
679	 0.184396275297348 
680	 0.184575150691358 
681	 0.184790557454018 
682	 0.184761627474073 
683	 0.184762395782395 
684	 0.184712324732176 
685	 0.18394906476346 
686	 0.183288557959654 
687	 0.183031629011565 
688	 0.183132176214373 
689	 0.183293587066215 
690	 0.183025470851269 
691	 0.182167702783622 
692	 0.180875750269892 
693	 0.180443552482132 
694	 0.1808022905802 
695	 0.18146795730303 
696	 0.181976722177112 
697	 0.181412433699467 
698	 0.180139917385368 
699	 0.179044064217477 
700	 0.178650233187753 
701	 0.178713743300861 
702	 0.178797632649115 
703	 0.178438256293793 
704	 0.177853109601774 
705	 0.177348070988011 
706	 0.177001771277518 
707	 0.176331750477909 
708	 0.175646402165489 
709	 0.174941057424842 
710	 0.174112283167754 
711	 0.173195404664456 
712	 0.171926759555905 
713	 0.170158876872287 
714	 0.167801171911342 
715	 0.164305181449734 
716	 0.159958006639712 
717	 0.156075873354487 
718	 0.154006454206522 
719	 0.154111774692927 
720	 0.154834245137609 
721	 0.154599403224523 
722	 0.1524297455536 
723	 0.149299029981066 
724	 0.146657006587627 
725	 0.145322359237364 
726	 0.144133761149916 
727	 0.142647806156149 
728	 0.140771291521553 
729	 0.138591483233572 
730	 0.137553781709107 
731	 0.137484218186978 
732	 0.137318211878042 
733	 0.136369387397869 
734	 0.135137474764039 
735	 0.134053662005999 
736	 0.133402592019043 
737	 0.1332076445461 
738	 0.133282337946533 
739	 0.133433926028947 
740	 0.133624359510928 
741	 0.133868378595351 
742	 0.134054134241385 
743	 0.134052352405724 
744	 0.134080591096318 
745	 0.13414456028981 
746	 0.134190614219881 
747	 0.13411828775074 
748	 0.134164945392407 
749	 0.134182152496315 
750	 0.134030970852051 
751	 0.133929909264566 
752	 0.133891415062516 
753	 0.133877175150955 
754	 0.133825656056765 
755	 0.133793785096257 
756	 0.133671778336167 
757	 0.133203564723881 
758	 0.131558294443489 
759	 0.128924754803508 
760	 0.126613717714509 
761	 0.126819974318201 
762	 0.126762961310881 
763	 0.12809591270864 
764	 0.130005243552579 
765	 0.131302910160416 
766	 0.132429520394575 
767	 0.133353595933114 
768	 0.134003649808143 
769	 0.134253607578665 
770	 0.134660055237416 
771	 0.134976479308662 
772	 0.134993118708663 
773	 0.135034380766824 
774	 0.135239814557941 
775	 0.135510025065689 
776	 0.135689920450072 
777	 0.136070384598247 
778	 0.136352873095689 
779	 0.136482982468697 
780	 0.136690793956603 
781	 0.136952805682312 
782	 0.137179308854664 
783	 0.137301081360155 
784	 0.137341162486797 
785	 0.1371563109754 
786	 0.136934860035306 
787	 0.13693811272208 
788	 0.137050412272603 
789	 0.137259448760968 
790	 0.137661513940695 
791	 0.138404621497858 
792	 0.139361218936745 
793	 0.139759066844512 
794	 0.139498826183548 
795	 0.139658600083011 
796	 0.139737373347551 
797	 0.140072762617692 
798	 0.140814272156792 
799	 0.140744430531422 
800	 0.140460052299788 
801	 0.140429841190686 
802	 0.140921653749983 
803	 0.141444574012789 
804	 0.142065046665468 
805	 0.142639610093669 
806	 0.142763533358172 
807	 0.142223652627893 
808	 0.141421658547547 
809	 0.140659399910496 
810	 0.139617885524804 
811	 0.138008269352476 
812	 0.136122159350274 
813	 0.13457720867748 
814	 0.133535879680248 
815	 0.13267023605085 
816	 0.132219976771779 
817	 0.132674718985195 
818	 0.132817786469803 
819	 0.133197984700434 
820	 0.133502645894345 
821	 0.132054643815348 
822	 0.130626606714055 
823	 0.129807207544559 
824	 0.129378463709697 
825	 0.128353054434986 
826	 0.126440309407896 
827	 0.124496861933898 
828	 0.123643810873976 
829	 0.122312131185891 
830	 0.120784738130997 
831	 0.119727204196162 
832	 0.119820349647538 
833	 0.119614595722637 
834	 0.119266889211485 
835	 0.118961760817512 
836	 0.118652719568852 
837	 0.118605332019887 
838	 0.11872837444296 
839	 0.118828660655798 
840	 0.118656978214192 
841	 0.118605605562953 
842	 0.118561240813002 
843	 0.118359435675381 
844	 0.118558979027998 
845	 0.11835229271841 
846	 0.117944193996534 
847	 0.118120558792309 
848	 0.117983948714277 
849	 0.117436579415745 
850	 0.116909397244277 
851	 0.117267167438204 
852	 0.116892719582775 
853	 0.116498978369789 
854	 0.116621253622495 
855	 0.116331272009348 
856	 0.116210508967375 
857	 0.116079439217558 
858	 0.115791409471561 
859	 0.11613312727663 
860	 0.115835366166546 
861	 0.11522116377095 
862	 0.115232585967371 
863	 0.115042762077089 
864	 0.115074690388333 
865	 0.115064213080198 
866	 0.114276944234751 
867	 0.114486285397781 
868	 0.114364248240418 
869	 0.113591404304067 
870	 0.113641449225059 
871	 0.11352433719238 
872	 0.11312069456507 
873	 0.112678342097547 
874	 0.112880599680167 
875	 0.112341407985766 
876	 0.111472188943347 
877	 0.11104790210932 
878	 0.110893054116017 
879	 0.110759339703906 
880	 0.110536405580383 
881	 0.110195607947195 
882	 0.109666609515408 
883	 0.109096430418326 
884	 0.108736552262682 
885	 0.108795176104569 
886	 0.108692199986606 
887	 0.108016691844973 
888	 0.107106978804131 
889	 0.106949487333172 
890	 0.105572976501265 
891	 0.104393443891702 
892	 0.104113471043845 
893	 0.102823354119058 
894	 0.101027050192226 
895	 9.94697878636518E-02 
896	 9.86029268475095E-02 
897	 9.73586491432107E-02 
898	 9.70113882847378E-02 
899	 0.096864457513251 
900	 9.61925575847436E-02 
901	 9.66785681087934E-02 
902	 9.74498762784688E-02 
903	 9.79068082455986E-02 
904	 9.75495187246783E-02 
905	 9.54442299982319E-02 
906	 0.094979939588815 
907	 9.55470549918626E-02 
908	 9.39059461551733E-02 
909	 9.30036624931694E-02 
910	 9.31525333866911E-02 
911	 9.33335789319496E-02 
912	 9.20077103996031E-02 
913	 9.21417557372845E-02 
914	 9.03430256802943E-02 
915	 8.79741265810412E-02 
916	 9.12365292828632E-02 
917	 9.04488397749999E-02 
918	 8.96769094065938E-02 
919	 9.07239356080328E-02 
920	 9.01140664097541E-02 
921	 9.01498622476949E-02 
922	 8.94553807278557E-02 
923	 8.74990890562771E-02 
924	 8.69996750564378E-02 
925	 8.72342830827503E-02 
926	 0.085703343757991 
927	 0.081024593380226 
928	 7.92189144041856E-02 
929	 0.080667422199361 
930	 8.10446279994441E-02 
931	 7.35939053219178E-02 
932	 0.068549831659564 
933	 6.67662773731112E-02 
934	 6.97866732142862E-02 
935	 0.075040638635525 
936	 0.072302213864971 
937	 7.25660122652283E-02 
938	 7.02967095296827E-02 
939	 6.06679678978954E-02 
940	 6.09845152008519E-02 
941	 6.47750522223473E-02 
942	 6.55645657804192E-02 
943	 6.02225407416891E-02 
944	 6.47344725761783E-02 
945	 6.85988387583411E-02 
946	 6.54793789349519E-02 
947	 5.76526248765539E-02 
948	 6.78545205179651E-02 
949	 6.69579000888663E-02 
950	 6.02561277245776E-02 
951	 6.94454323886336E-02 
952	 6.61348963229233E-02 
953	 6.90261967920699E-02 
954	 7.17263553879115E-02 
955	 5.73254851735004E-02 
956	 6.64604494512833E-02 
957	 7.21484801033469E-02 
958	 6.67317505755424E-02 
959	 6.11469449629191E-02 
960	 6.82333135183241E-02 
961	 7.53739225512575E-02 
962	 7.51362933438443E-02 
963	 6.86636307277334E-02 
964	 6.77019347422983E-02 
965	 7.28847556928612E-02 
966	 7.84882150618692E-02 
967	 7.74405670648002E-02 
968	 7.77261458715522E-02 
969	 7.59777534259761E-02 
970	 7.44237266782429E-02 
971	 0.079044589695748 
972	 7.95440752531408E-02 
973	 7.76618225946556E-02 
974	 7.66133101310041E-02 
975	 7.85580436917843E-02 
976	 0.076404039557531 
977	 7.61579282594187E-02 
978	 7.84248613593628E-02 
979	 7.84637682162985E-02 
980	 0.077858249171168 
981	 7.91924288626457E-02 
982	 8.18592308366884E-02 
983	 0.082950252913479 
984	 8.24826393930889E-02 
985	 8.24615458150623E-02 
986	 8.30123095512459E-02 
987	 8.28085107443586E-02 
988	 8.23145252202229E-02 
989	 8.37599060660786E-02 
990	 8.55634291699593E-02 
991	 8.42228897028576E-02 
992	 8.34665054701954E-02 
993	 8.43955323670304E-02 
994	 0.084755366610161 
995	 8.18270221750527E-02 
996	 8.29609721047931E-02 
997	 8.71921059626952E-02 
998	 8.89287315752303E-02 
999	 0.08385521155101 
1000	 8.63952764847489E-02 
1001	 8.24194851398641E-02 
1002	 8.22543690559584E-02 
1003	 8.20848736687341E-02 
1004	 8.19172686404011E-02 
1005	 8.18446973344031E-02 
1006	 8.18473765470721E-02 
1007	 8.17527516468446E-02 
1008	 8.16356454906678E-02 
1009	 8.12679461034468E-02 
1010	 8.06879026461536E-02 
1011	 8.14412356548958E-02 
1012	 8.22572342685463E-02 
1013	 8.20487198658821E-02 
1014	 8.24315741089189E-02 
1015	 8.28512377250473E-02 
1016	 8.29335364395088E-02 
1017	 8.35570931077714E-02 
1018	 8.35012970021585E-02 
1019	 8.23754830826965E-02 
1020	 8.20595032652833E-02 
1021	 8.17009054979341E-02 
1022	 8.13937170925721E-02 
1023	 0.082688732398106 
1024	 8.36456231650677E-02 
1025	 8.43301351392951E-02 
1026	 8.49058950932301E-02 
1027	 8.48498776090736E-02 
1028	 8.37552575183197E-02 
1029	 8.34006793382468E-02 
1030	 8.28101394104478E-02 
1031	 8.29454962774357E-02 
1032	 0.083633142923323 
1033	 8.39892323440387E-02 
1034	 8.50343291784324E-02 
1035	 8.52858929633324E-02 
1036	 8.48504324535404E-02 
1037	 8.46025603856574E-02 
1038	 8.38724761215225E-02 
1039	 8.33899854202892E-02 
1040	 8.41128762363481E-02 
1041	 8.50573495985634E-02 
1042	 8.54878203106302E-02 
1043	 8.65965226689265E-02 
1044	 8.66833635494141E-02 
1045	 8.55397217356278E-02 
1046	 8.54005483346764E-02 
1047	 8.55255970200257E-02 
1048	 8.55686713312809E-02 
1049	 8.56773969514295E-02 
1050	 8.60153873808502E-02 
1051	 8.67932302804039E-02 
1052	 8.69601644968506E-02 
1053	 8.69583194024194E-02 
1054	 8.70406551177034E-02 
1055	 8.63573000110821E-02 
1056	 8.62771947638038E-02 
1057	 0.086519684570969 
1058	 0.087511659757256 
1059	 8.76275779028622E-02 
1060	 8.77648349760932E-02 
1061	 8.75566342483084E-02 
1062	 8.65172814776827E-02 
1063	 8.62868665061272E-02 
1064	 8.62597523502923E-02 
1065	 8.63320180517709E-02 
1066	 8.71154331443172E-02 
1067	 8.71579386865892E-02 
1068	 8.66984193666403E-02 
1069	 8.65779450266765E-02 
1070	 8.61114465415518E-02 
1071	 8.59387568809547E-02 
1072	 8.61152631187951E-02 
1073	 8.65266222134254E-02 
1074	 8.65188642643658E-02 
1075	 8.64862477944651E-02 
1076	 8.61820198884671E-02 
1077	 8.53600619852025E-02 
1078	 8.50790409051289E-02 
1079	 8.48522184275136E-02 
1080	 8.47301947937487E-02 
1081	 8.52712616801161E-02 
1082	 0.085073702847871 
1083	 8.43527985866066E-02 
1084	 8.39137977274347E-02 
1085	 8.26750121383732E-02 
1086	 8.24578302788673E-02 
1087	 8.34942295297008E-02 
1088	 8.37257153051993E-02 
1089	 8.40410833741718E-02 
1090	 8.48691772414735E-02 
1091	 8.40525798397209E-02 
1092	 8.12681175185273E-02 
1093	 8.06873690716245E-02 
1094	 8.03103105369643E-02 
1095	 7.99894999245725E-02 
1096	 8.12876981414962E-02 
1097	 8.12164097156852E-02 
1098	 0.080055513060104 
1099	 0.079094699903777 
1100	 7.76654484930339E-02 
1101	 7.69615408889109E-02 
1102	 7.67276656642473E-02 
1103	 7.58557391517733E-02 
1104	 7.49045953290809E-02 
1105	 7.42119513457445E-02 
1106	 7.32676709922993E-02 
1107	 7.15139450940448E-02 
1108	 7.16574674545772E-02 
1109	 7.18304281410036E-02 
1110	 7.11840176828621E-02 
1111	 7.04723606672533E-02 
1112	 6.95568709701164E-02 
1113	 6.62931197243789E-02 
1114	 0.065276334142913 
1115	 6.66397961057891E-02 
1116	 6.59507903445577E-02 
1117	 6.65180173023825E-02 
1118	 6.65997129497325E-02 
1119	 6.33780395138245E-02 
1120	 6.02159205090382E-02 
1121	 5.84571293466629E-02 
1122	 5.22556529944807E-02 
1123	 4.38117080370827E-02 
1124	 5.03414979738427E-02 
1125	 5.64357883809863E-02 
1126	 5.79957382679542E-02 
1127	 6.72795573855676E-02 
1128	 6.08693086458548E-02 
1129	 5.75338189353262E-02 
1130	 5.27315827288403E-02 
1131	 5.45437958578909E-02 
1132	 5.64797386972916E-02 
1133	 5.74484573553342E-02 
1134	 6.30025574540826E-02 
1135	 0.061794224848646 
1136	 5.31752150061967E-02 
1137	 5.38928364427876E-02 
1138	 5.94421376143838E-02 
1139	 5.90165278306959E-02 
1140	 5.85274971581257E-02 
1141	 5.73669655419763E-02 
1142	 4.84508742221111E-02 
1143	 4.90813154370312E-02 
1144	 5.32762311506299E-02 
1145	 5.27012653675195E-02 
1146	 5.98677335432876E-02 
1147	 6.07943522896866E-02 
1148	 5.39260385346991E-02 
1149	 5.54715667061195E-02 
1150	 5.69981416909929E-02 
1151	 5.63926505775846E-02 
1152	 0.056220215682623 
1153	 0.060073944459485 
1154	 6.08134146867752E-02 
1155	 5.89083446930076E-02 
1156	 5.82010176263986E-02 
1157	 0.060744759271682 
1158	 6.22672598192351E-02 
1159	 6.36377045099716E-02 
1160	 6.50152009656759E-02 
1161	 6.55745638862877E-02 
1162	 6.61149277592459E-02 
1163	 6.61442314942642E-02 
1164	 6.64094625582335E-02 
1165	 6.79114356673386E-02 
1166	 0.068944323086568 
1167	 6.92638136711553E-02 
1168	 0.070160127531706 
1169	 0.07031903171597 
1170	 7.03140954235166E-02 
1171	 7.07655187890963E-02 
1172	 7.21431337649896E-02 
1173	 7.23523220345742E-02 
1174	 7.22882349925016E-02 
1175	 0.071881076621047 
1176	 0.071552334847435 
1177	 7.19166499537581E-02 
1178	 7.23783362809354E-02 
1179	 7.27215278766822E-02 
1180	 7.24182610586935E-02 
1181	 7.20149363462159E-02 
1182	 7.25316201443091E-02 
1183	 0.072799888780589 
1184	 7.22935249457933E-02 
1185	 7.20993139758918E-02 
1186	 7.25231187299226E-02 
1187	 7.30061036267132E-02 
1188	 7.38973442956906E-02 
1189	 0.074670554191853 
1190	 7.42127820107749E-02 
1191	 7.35591559974607E-02 
1192	 0.073548766487474 
1193	 7.39290357191912E-02 
1194	 7.44713606506598E-02 
1195	 7.48396274615874E-02 
1196	 0.075094129610055 
1197	 0.075047417637104 
1198	 7.49493393197778E-02 
1199	 7.46854187053491E-02 
1200	 7.45767082594041E-02 
1201	 7.52876453099991E-02 
1202	 7.51532099705437E-02 
1203	 7.44976285122453E-02 
1204	 7.46470451382312E-02 
1205	 7.48621885614364E-02 
1206	 7.50597125144064E-02 
1207	 7.52951117707641E-02 
1208	 7.52015321485964E-02 
1209	 7.49041914815241E-02 
1210	 0.074997009524064 
1211	 7.53933109905008E-02 
1212	 7.57462569876302E-02 
1213	 7.58540137042531E-02 
1214	 7.60288270107766E-02 
1215	 7.57846948591682E-02 
1216	 7.61201470606227E-02 
1217	 7.68475202883279E-02 
1218	 7.75263901825798E-02 
1219	 7.80906102180472E-02 
1220	 7.81046054061937E-02 
1221	 7.77917551038258E-02 
1222	 7.76813330405684E-02 
1223	 7.75829852109318E-02 
1224	 7.75512342908557E-02 
1225	 7.77959945401424E-02 
1226	 7.80021058890197E-02 
1227	 7.83665565996429E-02 
1228	 7.88858056672268E-02 
1229	 7.88074684015521E-02 
1230	 7.85237318074969E-02 
1231	 0.078631321798655 
1232	 7.86943823529863E-02 
1233	 7.89397914496944E-02 
1234	 7.95581820551373E-02 
1235	 7.98147188727725E-02 
1236	 7.92473971459988E-02 
1237	 7.94303510589684E-02 
1238	 8.00715153779536E-02 
1239	 8.04743881371393E-02 
1240	 8.03928416226631E-02 
1241	 8.03296188188595E-02 
1242	 7.99974533925342E-02 
1243	 7.98676461132768E-02 
1244	 8.03690831028888E-02 
1245	 8.06180157157207E-02 
1246	 8.03676815808148E-02 
1247	 8.01600341543302E-02 
1248	 0.079930930369175 
1249	 7.96707561981388E-02 
1250	 7.99468567924746E-02 
1251	 8.03044272063183E-02 
1252	 8.00624486258662E-02 
1253	 8.00397642546992E-02 
1254	 8.02728872943365E-02 
1255	 7.99692027739435E-02 
1256	 7.97366530751484E-02 
1257	 7.96964113118381E-02 
1258	 7.95828164715458E-02 
1259	 0.079059895198566 
1260	 7.88477138539592E-02 
1261	 7.91601731477667E-02 
1262	 7.89712760079325E-02 
1263	 7.84575631505837E-02 
1264	 7.81534575954679E-02 
1265	 0.078095935249999 
1266	 7.74262546868562E-02 
1267	 7.76311972207649E-02 
1268	 7.82727936546899E-02 
1269	 7.79960665604792E-02 
1270	 0.07828965703503 
1271	 7.83906922755971E-02 
1272	 7.81444532023007E-02 
1273	 7.88715594323283E-02 
1274	 7.94982332099996E-02 
1275	 7.92141651403019E-02 
1276	 7.87984714699418E-02 
1277	 7.87189806582049E-02 
1278	 7.87221956938591E-02 
1279	 7.88544031590306E-02 
1280	 7.90068673325082E-02 
1281	 7.91959861522401E-02 
1282	 7.94218975207621E-02 
1283	 0.079016190292454 
1284	 7.80382185777228E-02 
1285	 7.80432876429002E-02 
1286	 0.078054946783916 
1287	 7.78732603254019E-02 
1288	 7.86618549892667E-02 
1289	 7.88113611668102E-02 
1290	 7.82521186865308E-02 
1291	 7.75632476932784E-02 
1292	 7.76527322093767E-02 
1293	 0.077355295972269 
1294	 7.66297667451452E-02 
1295	 7.63888615692104E-02 
1296	 0.076392093109252 
1297	 7.65530937809304E-02 
1298	 0.076786857301722 
1299	 7.68129123750385E-02 
1300	 7.62847952033163E-02 
1301	 7.54413586354291E-02 
1302	 7.47720031264661E-02 
1303	 7.40905400130474E-02 
1304	 7.38758164438479E-02 
1305	 7.37466323247422E-02 
1306	 7.34739286736587E-02 
1307	 7.38659177878084E-02 
1308	 7.35944256113618E-02 
1309	 7.25030212616365E-02 
1310	 7.17544334256117E-02 
1311	 7.06970011066243E-02 
1312	 7.01595671642241E-02 
1313	 7.00694886276048E-02 
1314	 6.98840361753084E-02 
1315	 7.01139534997406E-02 
1316	 7.01552693807448E-02 
1317	 7.04307259944486E-02 
1318	 0.069926837539644 
1319	 6.85164040266597E-02 
1320	 0.06787841525824 
1321	 6.71224965354031E-02 
1322	 6.61936104893863E-02 
1323	 6.58477067394351E-02 
1324	 6.64062396579503E-02 
1325	 6.46281760788694E-02 
1326	 6.22366957603894E-02 
1327	 6.21440185898984E-02 
1328	 6.25278844435931E-02 
1329	 6.30763103117609E-02 
1330	 6.27309196091736E-02 
1331	 6.15956968183286E-02 
1332	 6.07913029671494E-02 
1333	 5.96472861781264E-02 
1334	 5.99011414534214E-02 
1335	 5.92834205423882E-02 
1336	 5.58109173700495E-02 
1337	 5.58362945258736E-02 
1338	 5.98813120413972E-02 
1339	 5.95188742442649E-02 
1340	 5.75384431727186E-02 
1341	 5.81841905340648E-02 
1342	 5.73160170063237E-02 
1343	 5.64278059303764E-02 
1344	 0.060611312762717 
1345	 6.09402101038748E-02 
1346	 0.051250256820036 
1347	 4.95269701181042E-02 
1348	 5.81981391669541E-02 
1349	 6.14056901021344E-02 
1350	 7.23865841137635E-02 
1351	 7.83296480080047E-02 
1352	 4.55247175560635E-02 
1353	 0.037183293943206 
1354	 4.28864683050291E-02 
1355	 0.108696914441496 
1356	 0.258776274173455 
1357	 0.256814656399897 
1358	 0.216822946970177 
1359	 0.344977488654584 
1360	 0.262438233841683 
1361	 0.210587479704784 
1362	 0.504199361213251 
1363	 0.569086106182286 
1364	 0.509819121204062 
1365	 0.72836718687282 
1366	 0.974941001555123 
1367	 0.553064079178205 
1368	 0.520417955623352 
1369	 1.282054374891 
1370	 1.22670838792575 
1371	 0.433342579127255 
1372	 0.417313473699429 
1373	 0.879548559724197 
1374	 0.967379750428225 
1375	 1.40802802047999 
1376	 1.46757302719002 
1377	 0.709464786078882 
1378	 0.506640781056565 
1379	 0.40551535803053 
1380	 0.268419315460245 
1381	 0.184561252733511 
1382	 0.20334424756224 
1383	-0.353376617054476 
1384	-0.518692455577879 
1385	 2.12387183329242 
1386	 1.78141520458356 
1387	 1.21961304704243 
1388	 1.71733962706843 
1389	 1.3645855040475 
1390	 0.409904139750014 
1391	-0.615427036906295 
1392	-2.89454399759441E-02 
1393	 0.115633549202065 
1394	-1.10169468159856 
1395	-0.43228117108249 
1396	 1.80308764950298E-03 
1397	 2.51292060266072 
1398	 0.753901215891177 
1399	 0.375553084892895 
1400	 1.36625933612582 
1401	 2.64513161143806 
1402	 3.17018194871776 
1403	 3.84431348905122 
1404	 4.82644357349193 
1405	 5.69387202200715 
1406	 0.950114441002942 
1407	 0.185968666098333 
1408	 0.456630916263765 
1409	 0.653650610257976 
1410	 0.592630366166288 
1411	 0.611850599156602 
1412	 1.85679129612807 
1413	 1.94280659334385 
1414	 0.763130419969996 
1415	 0.409461749965808 
1416	 0.462115862399739 
1417	 0.385982280315129 
1418	 0.177537629641424 
1419	 9.52451183336021E-02 
1420	 0.153094371751497 
1421	 0.107413784253627 
1422	-0.010969157197412 
1423	-3.23562287744678E-02 
1424	-4.27340249075965E-02 
1425	-5.62712527785441E-02 
1426	-3.68937423329754E-02 
1427	-9.94009098627606E-03 
1428	 9.48432977600128E-03 
1429	 2.70424547984686E-02 
1430	 6.77407318948897E-02 
1431	 0.086395394924283 
1432	 0.100726267537924 
1433	 0.100492225810979 
1434	 7.65631181318515E-02 
1435	 6.47271554843704E-02 
1436	 3.47707355115805E-02 
1437	 3.24194489231645E-02 
1438	 7.10286150624674E-02 
1439	 6.39157339288709E-02 
1440	 5.08388565323934E-02 
1441	 6.34225280432861E-02 
1442	 2.83242153331386E-02 
1443	-3.20414071867881E-03 
1444	 1.97621054985063E-02 
1445	 4.09991051207314E-02 
1446	 3.78019828620371E-02 
1447	 3.48938900025008E-02 
1448	 0.045216860897785 
1449	 4.66389329278677E-02 
1450	 3.84571863879187E-02 
1451	 3.48276337660416E-02 
1452	 3.26569690070294E-02 
1453	 2.81304360360657E-02 
1454	 3.06398682404242E-02 
1455	 4.87365761956208E-02 
1456	 5.10508165789702E-02 
1457	 4.39897381393227E-02 
1458	 0.045148360428755 
1459	 4.79804038614699E-02 
1460	 4.90097545972855E-02 
1461	 5.39488762283517E-02 
1462	 5.26687563836357E-02 
1463	 0.043856821826329 
1464	 4.10651209865594E-02 
1465	 3.80634435343765E-02 
1466	 3.96025747001258E-02 
1467	 4.74636835789596E-02 
1468	 0.052172668157689 
1469	 6.14533964068878E-02 
1470	 5.94530914076308E-02 
1471	 4.74001656465275E-02 
1472	 4.49852434110972E-02 
1473	 4.26921373577154E-02 
1474	 3.96841899340443E-02 
1475	 3.77714551086692E-02 
1476	 4.09048850294522E-02 
1477	 4.70662364377771E-02 
1478	 4.78467363412716E-02 
1479	 4.97311982225398E-02 
1480	 0.050838049964147 
1481	 4.86314509625078E-02 
1482	 4.66575956702407E-02 
1483	 4.44192145061226E-02 
1484	 4.57990024021135E-02 
1485	 0.04809704033683 
1486	 4.82712210308232E-02 
1487	 4.90432634302784E-02 
1488	 5.07627420916768E-02 
1489	 5.19836185954937E-02 
1490	 5.21357134640592E-02 
1491	 5.17940559406728E-02 
1492	 5.37959352249126E-02 
1493	 5.63339791577444E-02 
1494	 5.72779980133901E-02 
1495	 5.90094819109692E-02 
1496	 6.04733673250825E-02 
1497	 6.12429315207302E-02 
1498	 6.13246837422881E-02 
1499	 6.09470963297579E-02 
1500	 6.15788544454087E-02 
1501	 6.22715052584691E-02 
1502	 0.06236050705908 
1503	 6.25097527194148E-02 
1504	 6.33878548834824E-02 
1505	 0.064571941015105 
1506	 6.45813322342124E-02 
1507	 6.47507075261209E-02 
1508	 6.59679295343484E-02 
1509	 0.065714521194828 
1510	 0.06541772433621 
1511	 6.68858311664603E-02 
1512	 6.73424190773698E-02 
1513	 6.66684461937511E-02 
1514	 6.67409793811532E-02 
1515	 6.65611576179649E-02 
1516	 6.68476218479504E-02 
1517	 6.83788778589933E-02 
1518	 0.069113591817262 
1519	 6.88883570597983E-02 
1520	 6.90881782074699E-02 
1521	 6.97427837282634E-02 
1522	 6.98850025044556E-02 
1523	 7.00126548406417E-02 
1524	 7.07337310830067E-02 
1525	 7.06529418854531E-02 
1526	 7.03400990872437E-02 
1527	 0.070790259448434 
1528	 7.10074469263342E-02 
1529	 7.08474076514026E-02 
1530	 7.08427276167337E-02 
1531	 7.12004960694326E-02 
1532	 7.15516718969621E-02 
1533	 7.16364475430058E-02 
1534	 7.21263878302316E-02 
1535	 7.26781659056284E-02 
1536	 7.23808583936578E-02 
1537	 0.072713612897372 
1538	 7.36946829263729E-02 
1539	 7.35538233575522E-02 
1540	 7.36709911053682E-02 
1541	 7.41250516612021E-02 
1542	 7.36022620048954E-02 
1543	 7.34493589941387E-02 
1544	 7.37645429117741E-02 
1545	 7.39489909024598E-02 
1546	 7.43002503865928E-02 
1547	 7.42972715629312E-02 
1548	 7.43934594602039E-02 
1549	 0.074630470610513 
1550	 7.44919449144346E-02 
1551	 7.46152674822169E-02 
1552	 7.47975211692996E-02 
1553	 7.49052082546271E-02 
1554	 7.49603392349753E-02 
1555	 7.51119671546707E-02 
1556	 7.55380131185197E-02 
1557	 7.56983958756595E-02 
1558	 7.57966142974436E-02 
1559	 7.58783544071153E-02 
1560	 7.57478190044496E-02 
1561	 7.56044192254054E-02 
1562	 7.57930605581841E-02 
1563	 7.64848708566661E-02 
1564	 7.67887616066553E-02 
1565	 7.66623345498632E-02 
1566	 7.69088862509782E-02 
1567	 7.66370882005715E-02 
1568	 7.63647555800351E-02 
1569	 7.70168922163719E-02 
1570	 7.67508065979792E-02 
1571	 0.075663340405097 
1572	 0.075708551917319 
1573	 7.64427221305268E-02 
1574	 0.07660307881267 
1575	 7.68722937305992E-02 
1576	 7.75439158109276E-02 
1577	 0.077410306393182 
1578	 7.70247893355551E-02 
1579	 7.73636657897047E-02 
1580	 7.75508433576192E-02 
1581	 7.75513740949584E-02 
1582	 7.75446804207231E-02 
1583	 7.71179599768127E-02 
1584	 7.69674728119743E-02 
1585	 7.70647166762653E-02 
1586	 7.70690912688361E-02 
1587	 7.73367425967494E-02 
1588	 7.77107458893593E-02 
1589	 7.80229568746204E-02 
1590	 7.79577782371216E-02 
1591	 7.75254722170781E-02 
1592	 7.72749629985341E-02 
1593	 7.72941264180246E-02 
1594	 7.75177163270563E-02 
1595	 7.78570025973748E-02 
1596	 7.80918681789596E-02 
1597	 7.80612755918557E-02 
1598	 7.81326147007069E-02 
1599	 7.81544925449407E-02 
1600	 7.80201988155668E-02 
1601	 7.80055544207726E-02 
1602	 7.76577099970283E-02 
1603	 7.77123195861238E-02 
1604	 7.81204624039263E-02 
1605	 7.80653147252731E-02 
1606	 7.80225241030371E-02 
1607	 7.78181125160682E-02 
1608	 7.78261408734638E-02 
1609	 7.79614116005776E-02 
1610	 7.78196182831162E-02 
1611	 7.79398006979482E-02 
1612	 7.78439148526236E-02 
1613	 7.78675334175929E-02 
1614	 7.82735754986291E-02 
1615	 7.82974365514382E-02 
1616	 7.79615034100002E-02 
1617	 0.078281399957229 
1618	 7.90759938636683E-02 
1619	 7.89790562065783E-02 
1620	 7.88081149065929E-02 
1621	 7.87289810639599E-02 
1622	 7.82690144847306E-02 
1623	 7.80754497201104E-02 
1624	 7.82328706308532E-02 
1625	 7.85388460772784E-02 
1626	 7.88400613108361E-02 
1627	 7.94314524494365E-02 
1628	 0.079594189210643 
1629	 7.90227592709774E-02 
1630	 0.078652264532699 
1631	 7.83711823697697E-02 
1632	 7.85240795911276E-02 
1633	 7.90812688455345E-02 
1634	 0.079123848167151 
1635	 7.90698858415241E-02 
1636	 7.92429268372817E-02 
1637	 7.97424042475347E-02 
1638	 8.00594081326174E-02 
1639	 7.91399564823942E-02 
1640	 7.88348972528877E-02 
1641	 7.96066713201981E-02 
1642	 7.89657091252984E-02 
1643	 7.79997688381736E-02 
1644	 7.83886618407796E-02 
1645	 7.86934393305777E-02 
1646	 7.85480046625341E-02 
1647	 7.89475256349837E-02 
1648	 0.079185723199681 
1649	 7.82974279301389E-02 
1650	 7.78984236105537E-02 
1651	 7.85388637797761E-02 
1652	 7.84604122377242E-02 
1653	 7.89148816483123E-02 
1654	 7.89385879037507E-02 
1655	 7.76704418358574E-02 
1656	 0.077734319617863 
1657	 7.90665690776166E-02 
1658	 7.89351949077228E-02 
1659	 7.84409024667932E-02 
1660	 7.87405462910827E-02 
1661	 7.83686352903635E-02 
1662	 7.81934084766246E-02 
1663	 7.90205623834966E-02 
1664	 7.93920382961912E-02 
1665	 7.92359204190122E-02 
1666	 7.90015502171818E-02 
1667	 7.91314983483501E-02 
1668	 0.079248075006173 
1669	 7.87403892649887E-02 
1670	 7.91589751410399E-02 
1671	 7.92895573944315E-02 
1672	 7.85303452614696E-02 
1673	 7.82710259673319E-02 
1674	 7.84956315511061E-02 
1675	 7.86746503705981E-02 
1676	 7.90305223224817E-02 
1677	 7.95602586697582E-02 
1678	 7.95438664068596E-02 
1679	 7.91652932735591E-02 
1680	 7.96677530060231E-02 
1681	 8.01717754679606E-02 
1682	 7.96725373835938E-02 
1683	 7.90689449964288E-02 
1684	 7.88015789151636E-02 
1685	 7.88182502146124E-02 
1686	 7.92226767181224E-02 
1687	 7.95809872850036E-02 
1688	 7.95037135820362E-02 
1689	 7.91211515933799E-02 
1690	 7.88023418313791E-02 
1691	 7.88492792914843E-02 
1692	 7.90165229270323E-02 
1693	 7.88321068219256E-02 
1694	 7.86469218914644E-02 
1695	 7.90012028896473E-02 
1696	 7.92793468340939E-02 
1697	 7.92487246468418E-02 
1698	 7.91709928481337E-02 
1699	 7.85451233865585E-02 
1700	 7.80244300578702E-02 
1701	 7.82961550689004E-02 
1702	 7.86110724288017E-02 
1703	 7.86268441754995E-02 
1704	 7.84295868556704E-02 
1705	 7.87909171385342E-02 
1706	 7.89126425222915E-02 
1707	 0.078270931872725 
1708	 7.86512631143712E-02 
1709	 7.86773793744359E-02 
1710	 7.77506688508867E-02 
1711	 7.89276937162583E-02 
1712	 8.02422709754443E-02 
1713	 7.82249142802548E-02 
1714	 7.82660461476934E-02 
1715	 7.90285174671416E-02 
1716	 7.77962811612878E-02 
1717	 7.79978216361787E-02 
1718	 7.81080778351131E-02 
1719	 7.67890806654653E-02 
1720	 7.73365110102313E-02 
1721	 7.91629119507482E-02 
1722	 7.90591391578907E-02 
1723	 7.85471828174595E-02 
1724	 7.83518833996476E-02 
1725	 7.73002384543232E-02 
1726	 7.75140537938519E-02 
1727	 7.86301187644066E-02 
1728	 7.88264256362929E-02 
1729	 7.81222674456013E-02 
1730	 7.72358365280247E-02 
1731	 7.68840859846077E-02 
1732	 7.59379482255218E-02 
1733	 7.58219491084947E-02 
1734	 7.65355613766301E-02 
1735	 7.54989582596893E-02 
1736	 7.47139529322343E-02 
1737	 7.61891223907545E-02 
1738	 7.59868657064043E-02 
1739	 7.38382347362548E-02 
1740	 7.41170447037776E-02 
1741	 7.41585828706829E-02 
1742	 7.31153411782287E-02 
1743	 7.53463335015463E-02 
1744	 7.68129833584917E-02 
1745	 7.44242689785219E-02 
1746	 0.074568610389168 
1747	 7.46736541279131E-02 
1748	 7.60124166333737E-02 
1749	 0.076034313951821 
1750	 7.36573878095619E-02 
1751	 7.26455767981987E-02 
1752	 7.19792034938875E-02 
1753	 7.22458872471614E-02 
1754	 7.46964537549286E-02 
1755	 7.49597003071599E-02 
1756	 7.38955235211774E-02 
1757	 7.17571627150844E-02 
1758	 7.02932337114258E-02 
1759	 6.92530694178276E-02 
1760	 6.92335540070816E-02 
1761	 7.04432841966409E-02 
1762	 7.14788442656327E-02 
1763	 7.17787727821535E-02 
1764	 7.06924795649701E-02 
1765	 6.99614533093708E-02 
1766	 7.04503903927889E-02 
1767	 6.93321157364496E-02 
1768	 6.92594374405147E-02 
1769	 7.13169634159339E-02 
1770	 7.04327803879096E-02 
1771	 6.94749825695953E-02 
1772	 6.96950767139324E-02 
1773	 6.64704356192417E-02 
1774	 6.42621644282629E-02 
1775	 6.65579967932952E-02 
1776	 6.65183067175779E-02 
1777	 6.62531115237304E-02 
1778	 6.58817413868801E-02 
1779	 6.37773647826215E-02 
1780	 0.063057857020233 
1781	 6.28377031508538E-02 
1782	 6.08340123352211E-02 
1783	 5.72665804536422E-02 
1784	 5.79947704739265E-02 
1785	 6.18631784708212E-02 
1786	 6.32844522984028E-02 
1787	 6.77104323173031E-02 
1788	 6.77754559077412E-02 
1789	 6.19434494170895E-02 
1790	 0.05938880050822 
1791	 5.58119616228632E-02 
1792	 5.66013366498017E-02 
1793	 5.83541056701314E-02 
1794	 6.54349394790412E-02 
1795	 7.23816074986098E-02 
1796	 5.68178777210437E-02 
1797	 4.01036084695936E-02 
1798	 4.09707437697576E-02 
1799	 2.99591318804403E-02 
1800	 4.64241129188878E-02 
1801	 5.71030103786012E-02 
1802	 2.55108034285145E-02 
1803	 1.65317833292333E-02 
1804	 4.14207565529853E-02 
1805	 4.95569848694415E-02 
1806	 6.37398489791118E-02 
1807	 7.00784332086648E-02 
1808	 5.65203178874237E-02 
1809	 2.24998929770383E-02 
1810	-6.03307639116018E-02 
1811	-2.29280201156355E-02 
1812	 0.109571693802868 
1813	 0.20326898857922 
1814	-2.62539900165771 
1815	-1.19456187974338 
1816	 7.85743035363789 
1817	 1.43938411046308 
1818	 1.02912017024464 
1819	 3.57022215552331 
1820	 10.9278071203019 
1821	-0.570911650484233 
1822	-9.55781130894057E-02 
1823	 0.176138795314599 
1824	-0.105675067508949 
1825	 0.222751414691241 
1826	 7.05457658632419E-02 
1827	 13.8082406663809 
1828	 1.51029748938721 
1829	-0.346804392774779 
1830	 0.392688471775208 
1831	 0.585467944504161 
1832	 0.240700735615824 
1833	-0.733339011874923 
1834	-1.05738854707852 
1835	-6.04478838749558 
1836	 38.3534390397388 
1837	-0.857921114267114 
1838	-7.97630689066647 
1839	 0.636218322397016 
1840	 0.572739418449945 
1841	 0.440886155856008 
1842	-0.192869829434056 
1843	-0.570035115509349 
1844	-4.61558154718044 
1845	-19.6332586680681 
1846	-5.75199724403092 
1847	-4.2600496078781 
1848	-2.70038611434388 
1849	-0.922389715381093 
1850	-0.559089585890983 
1851	-0.642535579496358 
1852	-1.32480997232194 
1853	-10.7455940879154 
1854	 13.3844137285201 
1855	 3.37487888581717 
1856	 2.74431796858089 
1857	 3.61475868278215 
1858	 4.03981788784679 
1859	 4.68723599906165 
1860	 4.53326529732651 
1861	 16.9928839744789 
1862	-1.28609878470445 
1863	-2.29340464073106 
1864	 0.670887953455575 
1865	-0.354498251722756 
1866	 0.194987151284264 
1867	 0.167134125189961 
1868	-0.874522493280467 
1869	 2.90277238458514 
1870	 0.421620117956511 
1871	 0.580486241184807 
1872	 1.21136416593677 
1873	 0.413912875633045 
1874	-0.451124057784841 
1875	-0.486565250863998 
1876	-0.552941323696217 
1877	-0.426440262328084 
1878	-0.431459917658367 
1879	-1.05818949308978 
1880	-1.43418672507559 
1881	-0.770570767591836 
1882	-0.851164567995234 
1883	-2.3255588773391 
1884	-1.30692194953231 
1885	-4.70082179976015 
1886	 4.00697929852276 
1887	-2.83173075150031 
1888	-1.46568967282079 
1889	-1.9616340834146 
1890	-4.24412083007465 
1891	-3.63905110515306 
1892	-10.1905749421969 
1893	-4.25472203612839 
1894	-1.39278587000838 
1895	-1.03634905828561 
1896	-1.03975783660788 
1897	-1.86449590998385 
1898	-7.9053232484478 
1899	-2.4415802638479 
1900	-0.538549480606715 
1901	-0.289426938082242 
1902	-0.328852923683777 
1903	-1.22047872441071 
1904	-0.697011929841041 
1905	 1.26614810054439E-02 
1906	 8.70689684311986E-02 
1907	 0.430003197889894 
1908	 0.56895031180083 
1909	-9.13487535824321E-02 
1910	 1.82227723054859 
1911	-1.3191115200464 
1912	-1.92599410550674 
1913	-1.73830736550532 
1914	-0.290035497517444 
1915	-3.85705271667419E-02 
1916	-8.94094942995359E-02 
1917	 8.06461626643405E-02 
1918	 6.20783203761617E-03 
1919	-0.403836985962112 
1920	-0.622838675196615 
1921	-0.692411245766523 
1922	-0.478187074398481 
1923	-5.55576448097197E-02 
1924	 3.15897809077477E-02 
1925	 0.261693295999687 
1926	 0.794452687894713 
1927	 1.86407707638522 
1928	 0.48605759413644 
1929	-0.509524347414618 
1930	-7.32973182692665E-02 
1931	 3.58800793455616E-02 
1932	-0.180492705074845 
1933	-0.362156335398074 
1934	 0.975829396114636 
1935	 1.16788085209856 
1936	 2.06090404039933 
1937	 0.978257378764275 
1938	 1.08494606039128 
1939	 1.33552078002735 
1940	-48.7704346556217 
1941	 0.526053511487225 
1942	 1.03357509679768 
1943	-3.55841688127307 
1944	-3.19793783439027 
1945	-1.05913855258645 
1946	-1.18016380076551E-02 
1947	-0.130995581376418 
1948	-0.10499627240284 
1949	 2.56632984398776E-02 
1950	-7.92737440774237E-02 
1951	-0.164861931821051 
1952	-0.178186730463615 
1953	-0.11723032333621 
1954	-0.066943471780093 
1955	-5.82182342099121E-02 
1956	-4.32445916503817E-02 
1957	-2.68107698134416E-02 
1958	-5.58262388678247E-02 
1959	-3.19387243633618E-02 
1960	 1.24287665604362E-02 
1961	 2.28149712476434E-02 
1962	 3.05474664655602E-02 
1963	 3.85546321525789E-02 
1964	 4.06707517010243E-02 
1965	 4.89723449172335E-02 
1966	 4.65409633809839E-02 
1967	 4.44139051426167E-02 
1968	 2.40480126682715E-02 
1969	 1.69943252901484E-02 
1970	 2.69571243346116E-02 
1971	 3.77760521055701E-02 
1972	 5.12041416457577E-02 
1973	 5.91272045747038E-02 
1974	 5.80753788037232E-02 
1975	 5.43015820248567E-02 
1976	 4.48997275221112E-02 
1977	 3.68010727984406E-02 
1978	 3.29442908013664E-02 
1979	 0.031086469251778 
1980	 3.05407368230555E-02 
1981	 3.62098858282556E-02 
1982	 4.25670777612421E-02 
1983	 4.30418272984237E-02 
1984	 4.52839410265352E-02 
1985	 5.15022227462265E-02 
1986	 5.13697944993424E-02 
1987	 4.91926140751081E-02 
1988	 4.96210658147759E-02 
1989	 4.75021436985297E-02 
1990	 4.70411948698404E-02 
1991	 5.19991236265661E-02 
1992	 5.59521054028013E-02 
1993	 5.60279799963781E-02 
1994	 5.65856159834551E-02 
1995	 5.73156137332198E-02 
1996	 5.47092590873823E-02 
1997	 4.98867440286209E-02 
1998	 4.55490167782224E-02 
1999	 3.46764062309209E-02 
2000	 3.19741241929758E-02 
2001	 3.33634267858272E-02 
2002	 3.24600434358253E-02 
2003	 4.64645720877475E-02 
2004	 5.42727782708825E-02 
2005	 4.85553489993566E-02 
2006	 5.74724768632513E-02 
2007	 6.16184493809216E-02 
2008	 4.69555668284077E-02 
2009	 4.42868018097009E-02 
2010	 5.12930959578718E-02 
2011	 4.98728753607578E-02 
2012	 4.00207006050587E-02 
2013	 0.050948919102449 
2014	 6.30579312482464E-02 
2015	 5.55864972580116E-02 
2016	 5.66618106010194E-02 
2017	 5.87276668924187E-02 
2018	 5.34817672428645E-02 
2019	 5.58240933122929E-02 
2020	 0.057994308036421 
2021	 0.057830973349075 
2022	 5.72786686273122E-02 
2023	 5.48950415372045E-02 
2024	 5.44079973334933E-02 
2025	 5.70590843729833E-02 
2026	 5.56635004543697E-02 
2027	 5.23326657658804E-02 
2028	 4.98387593512673E-02 
2029	 4.98272038488008E-02 
2030	 4.90167697103478E-02 
2031	 0.051984964935084 
2032	 5.82973872978418E-02 
2033	 5.97048664296083E-02 
2034	 5.91450222742313E-02 
2035	 6.12274270291835E-02 
2036	 6.12710329413556E-02 
2037	 6.03955054522552E-02 
2038	 0.062000726065214 
2039	 6.29699442440945E-02 
2040	 6.24887888444026E-02 
2041	 6.28605206390809E-02 
2042	 6.50701035689255E-02 
2043	 6.53326649254354E-02 
2044	 6.47672225382994E-02 
2045	 6.23052056053545E-02 
2046	 6.18872715057562E-02 
2047	 6.40666208846905E-02 
2048	 6.18753481172197E-02 
2049	 6.11206590273117E-02 
2050	 6.02794801312594E-02 
2051	 5.64487022308475E-02 
2052	 0.058433842834567 
2053	 6.32518134422739E-02 
2054	 6.42035559768939E-02 
2055	 6.42557434850511E-02 
2056	 6.50736851533084E-02 
2057	 6.57264051540524E-02 
2058	 6.34237654995587E-02 
2059	 0.058873098471153 
2060	 0.05834757024643 
2061	 5.80860959224355E-02 
2062	 5.49519602499283E-02 
2063	 0.057175046447039 
2064	 6.02435758513625E-02 
2065	 5.66504407838313E-02 
2066	 5.50490022174031E-02 
2067	 5.96520183548983E-02 
2068	 6.36845506330173E-02 
2069	 6.86392115360891E-02 
2070	 7.21957344481847E-02 
2071	 0.068926820268455 
2072	 6.43651287532955E-02 
2073	 6.21911950653497E-02 
2074	 5.93696889117529E-02 
2075	 0.059031785707714 
2076	 6.10173643660206E-02 
2077	 6.15106498326145E-02 
2078	 6.18350914499632E-02 
2079	 6.27242560663083E-02 
2080	 6.36669786805914E-02 
2081	 6.53121955216738E-02 
2082	 6.75431495347631E-02 
2083	 6.70182594819729E-02 
2084	 6.56080372182239E-02 
2085	 0.065280652487745 
2086	 6.42632754433497E-02 
2087	 6.52041013882458E-02 
2088	 6.70554121279288E-02 
2089	 6.93913058866326E-02 
2090	 6.91060112211521E-02 
2091	 6.71731830795276E-02 
2092	 6.67545015344462E-02 
2093	 6.51701592076824E-02 
2094	 6.38741020746105E-02 
2095	 6.40490671758686E-02 
2096	 6.38135998834051E-02 
2097	 6.20615370374567E-02 
2098	 6.20745123508849E-02 
2099	 6.35180256668658E-02 
2100	 0.06502026586257 
2101	 6.61469261943076E-02 
2102	 6.75429174714876E-02 
2103	 6.82586887256037E-02 
2104	 6.93345297390651E-02 
2105	 7.25009628692486E-02 
2106	 7.44442781624957E-02 
2107	 0.074135242608318 
2108	 7.64247659027829E-02 
2109	 7.62048917639412E-02 
2110	 7.28555649680997E-02 
2111	 7.27982079386114E-02 
2112	 7.30966696195795E-02 
2113	 7.36210062352477E-02 
2114	 7.64568862727584E-02 
2115	 7.60863875440282E-02 
2116	 7.35415713338147E-02 
2117	 7.22390266709079E-02 
2118	 6.96180620722549E-02 
2119	 6.86066151218618E-02 
2120	 6.93274533128281E-02 
2121	 6.90444332011406E-02 
2122	 7.03390330554074E-02 
2123	 6.98122202530437E-02 
2124	 6.88359606009177E-02 
2125	 7.14317303772013E-02 
2126	 7.31201642187296E-02 
2127	 7.27737223275982E-02 
2128	 7.26373705333362E-02 
2129	 7.19606715958028E-02 
2130	 6.92906692877086E-02 
2131	 6.74546039771546E-02 
2132	 0.069630680018713 
2133	 7.02906774827906E-02 
2134	 7.08017464739326E-02 
2135	 7.35225490356713E-02 
2136	 7.34374026795692E-02 
2137	 6.95482510548679E-02 
2138	 6.96607168282645E-02 
2139	 7.11446399519408E-02 
2140	 7.06404325125905E-02 
2141	 7.07633958729584E-02 
2142	 7.10011577273074E-02 
2143	 6.94184088342279E-02 
2144	 6.98640822059419E-02 
2145	 7.12699676624275E-02 
2146	 0.071701791068939 
2147	 0.071940671216466 
2148	 0.070473205645907 
2149	 6.67264169575267E-02 
2150	 6.57552644789069E-02 
2151	 6.55205805716711E-02 
2152	 6.52982302090762E-02 
2153	 6.93771613646485E-02 
2154	 0.07329375646446 
2155	 7.53126631807237E-02 
2156	 7.54400009990855E-02 
2157	 0.074316917536726 
2158	 6.99338115070143E-02 
2159	 6.85152748894609E-02 
2160	 6.67215198474708E-02 
2161	 6.75807226444539E-02 
2162	 7.12546128058249E-02 
2163	 7.18803387367899E-02 
2164	 7.29730369052298E-02 
2165	 7.30195478404202E-02 
2166	 7.06801265351741E-02 
2167	 7.07473168734453E-02 
2168	 7.15684919124395E-02 
2169	 7.23537005224746E-02 
2170	 7.54458874448168E-02 
2171	 7.37336203141323E-02 
2172	 7.30538533019857E-02 
2173	 7.42820190480558E-02 
2174	 7.25267649893925E-02 
2175	 7.55030848224485E-02 
2176	 7.85904917336034E-02 
2177	 7.83660359173921E-02 
2178	 7.56540445365785E-02 
2179	 7.26136767779605E-02 
2180	 7.24032835112921E-02 
2181	 7.04884115686427E-02 
2182	 6.65844692604991E-02 
2183	 6.56724330223514E-02 
2184	 6.25704729034452E-02 
2185	 0.058886914305168 
2186	 6.01549877608739E-02 
2187	 6.83206037876961E-02 
2188	 7.14112681856294E-02 
2189	 7.64659231646121E-02 
2190	 7.62235105304076E-02 
2191	 6.94520767211638E-02 
2192	 6.86877539471643E-02 
2193	 6.81966690406284E-02 
2194	 6.82733303088368E-02 
2195	 0.073687834287505 
2196	 7.42683609865961E-02 
2197	 6.88735996699884E-02 
2198	 6.75586454453584E-02 
2199	 6.94078203553477E-02 
2200	 6.73826514553385E-02 
2201	 6.17313903185854E-02 
2202	 6.25315365150749E-02 
2203	 6.33041301920195E-02 
2204	 6.51133587978191E-02 
2205	 6.57787367158549E-02 
2206	 6.48433271101129E-02 
2207	 6.43608086558367E-02 
2208	 6.12422859282293E-02 
2209	 0.064079373378983 
2210	 7.14800291857076E-02 
2211	 7.55317712004288E-02 
2212	 7.51534019299864E-02 
2213	 7.13632353776522E-02 
2214	 0.069074863488136 
2215	 6.69208564378908E-02 
2216	 6.27206702140169E-02 
2217	 6.14961089984834E-02 
2218	 6.33298669862633E-02 
2219	 6.43009522987465E-02 
2220	 6.83636477446173E-02 
2221	 6.75085521124151E-02 
2222	 6.03491541944332E-02 
2223	 6.13400071538563E-02 
2224	 6.47360376672219E-02 
2225	 6.45426198210135E-02 
2226	 6.95293170841876E-02 
2227	 0.073276234727281 
2228	 7.12232684155671E-02 
2229	 7.05958637569519E-02 
2230	 7.49477969130911E-02 
2231	 7.48235251100051E-02 
2232	 6.70811929325662E-02 
2233	 6.60080607270392E-02 
2234	 6.83448432563193E-02 
2235	 7.15155606938321E-02 
2236	 6.84862446997936E-02 
2237	 7.17971149803019E-02 
2238	 8.06868956607305E-02 
2239	 7.66159067336275E-02 
2240	 7.69208618647457E-02 
2241	 0.08034832793676 
2242	 0.072782670507046 
2243	 7.03360793724139E-02 
2244	 7.11179529106383E-02 
2245	 7.00729349233003E-02 
2246	 6.55811433491904E-02 
2247	 6.11122830260096E-02 
2248	 0.060053469877551 
2249	 5.83689767836601E-02 
2250	 5.92487323349671E-02 
2251	 6.18985766971977E-02 
2252	 6.67793762959687E-02 
2253	 6.45898953991239E-02 
2254	 0.060696214994383 
2255	 6.29057975272142E-02 
2256	 5.94057412724809E-02 
2257	 6.08769587330318E-02 
2258	 6.95140898195435E-02 
2259	 0.07028688957963 
2260	 0.070750289410086 
2261	 7.00853096135718E-02 
2262	 7.05107076991945E-02 
2263	 6.82991726727915E-02 
2264	 6.72922973075546E-02 
2265	 6.82356816096448E-02 
2266	 6.59524692185409E-02 
2267	 6.17594256097767E-02 
2268	 6.02472939079405E-02 
2269	 0.055995676224309 
2270	 5.51888629231519E-02 
2271	 5.97377673906802E-02 
2272	 6.06567475073698E-02 
2273	 5.89939119754117E-02 
2274	 6.41051025529203E-02 
2275	 7.47335776581356E-02 
2276	 7.48142490408794E-02 
2277	 0.07202931446893 
2278	 7.47022971113831E-02 
2279	 7.41480073641768E-02 
2280	 7.16854162619316E-02 
2281	 7.33867516019757E-02 
2282	 7.48993466665043E-02 
2283	 6.59444003985195E-02 
2284	 5.90671779324265E-02 
2285	 6.27785886592657E-02 
2286	 7.04748368616649E-02 
2287	 7.83454100848657E-02 
2288	 8.52418267133818E-02 
2289	 8.65197991233034E-02 
2290	 8.11417832509454E-02 
2291	 7.01509912298193E-02 
2292	 6.02168874909239E-02 
2293	 5.41278172355698E-02 
2294	 5.28844851420118E-02 
2295	 0.063752021038211 
2296	 7.10068540754647E-02 
2297	 6.74224531126726E-02 
2298	 6.36554450412217E-02 
2299	 6.50948622599265E-02 
2300	 6.43140715840891E-02 
2301	 6.17064880360445E-02 
2302	 0.066753828954396 
2303	 6.68453318763666E-02 
2304	 5.78513316359314E-02 
2305	 6.05788681536529E-02 
2306	 6.65874186322037E-02 
2307	 5.40582538624083E-02 
2308	 4.35874589769646E-02 
2309	 4.17743812591606E-02 
2310	 4.52596404341036E-02 
2311	 0.061027947038903 
2312	 7.94454998795441E-02 
2313	 7.92580228473123E-02 
2314	 7.01058027807692E-02 
2315	 7.45566470204757E-02 
2316	 7.22485050180231E-02 
2317	 6.62837489968447E-02 
2318	 0.063125387188396 
2319	 4.55617669348734E-02 
2320	 3.63054574708845E-02 
2321	 4.59822673548017E-02 
2322	 5.73657220561032E-02 
2323	 7.53489842165174E-02 
2324	 8.62253115818944E-02 
2325	 7.83042781380304E-02 
2326	 6.12390975435402E-02 
2327	 4.20676054654723E-02 
2328	 3.28277657376736E-02 
2329	 4.02082458346966E-02 
2330	 5.78860510147537E-02 
2331	 7.01507402662305E-02 
2332	 0.071516196520946 
2333	 6.73579048183641E-02 
2334	 5.17589532039004E-02 
2335	 3.06048236671073E-02 
2336	 2.18231029699791E-02 
2337	 1.64894990897778E-02 
2338	 1.29662254178495E-02 
2339	 2.13860624329177E-02 
2340	 2.60694882070542E-02 
2341	 8.32119970577258E-03 
2342	 2.72558645764594E-03 
2343	 2.86963076360442E-02 
2344	 4.09209685856488E-02 
2345	 4.98048386046743E-02 
2346	 7.61499010941454E-02 
2347	 8.02534645183868E-02 
2348	 8.33690867129469E-02 
2349	 9.49701625905272E-02 
2350	 7.55053795494692E-02 
2351	 6.81691591527768E-02 
2352	 7.20506339139998E-02 
2353	 6.09110347119274E-02 
2354	 9.03040983148795E-02 
2355	 0.123801090334195 
2356	 9.91348562784664E-02 
2357	 9.87808081713412E-02 
2358	 9.91511481913556E-02 
2359	 4.94315388780268E-02 
2360	 5.69692632881965E-02 
2361	 8.75872551552435E-02 
2362	 0.097395267099613 
2363	 0.132371035254759 
2364	 0.136985480506909 
2365	 0.105988954047732 
2366	 8.37355743278341E-02 
2367	 4.43623106125168E-02 
2368	 5.07379837293503E-02 
2369	 0.093289036771544 
2370	 0.10941865077245 
2371	 0.117015024413324 
2372	 0.100309253542629 
2373	 5.61563289057182E-02 
2374	-3.01111292873639E-03 
2375	-2.22608515053236E-02 
2376	-2.96586071657541E-02 
2377	-5.00700855841639E-02 
2378	-3.43293096893591E-02 
2379	-2.07234004950899E-02 
2380	 7.38610471765341E-03 
2381	 0.122941275892867 
2382	 0.194162933863316 
2383	 0.131327032893625 
2384	 4.58417498299723E-02 
2385	-9.33535456946691E-02 
2386	-0.24569294313289 
2387	-0.100685257359502 
2388	 3.00398208767355E-02 
2389	 8.58750313023977E-02 
2390	 0.165135903484529 
2391	 8.67381834801046E-02 
2392	 0.012000326133357 
2393	-0.029881060219037 
2394	-0.113976672475946 
2395	-6.85805865553594E-02 
2396	-0.109228534025674 
2397	-0.117890781988139 
2398	-7.95720414480489E-02 
2399	-0.104473536740664 
2400	-7.84333204106404E-02 
2401	 6.35308801269828E-02 
2402	 9.80246207201298E-02 
2403	 6.44985840915134E-02 
2404	 0.104911196212075 
2405	 3.31542669019128E-02 
2406	-7.33111317731139E-02 
2407	-9.71151833136324E-02 
2408	-0.112214848365086 
2409	-0.211756030619236 
2410	-0.328255921787896 
2411	-0.47911563809737 
2412	-0.629676450932075 
2413	-0.637713198158651 
2414	-0.404692161177146 
2415	-0.252627281689889 
2416	-0.223973288272645 
2417	-0.181103280715753 
2418	-0.178647373347677 
2419	-0.115278370356862 
2420	-5.83544260346195E-02 
2421	-0.49457732305036 
2422	-0.515946584823417 
2423	-0.264830885907024 
2424	-0.136151556467279 
2425	-3.00874120670125E-02 
2426	-5.36560521433488E-03 
2427	-0.297588658570875 
2428	-0.198919484470116 
2429	 0.127393631444167 
2430	 0.1966898415076 
2431	 0.172679548760368 
2432	-0.103598279254849 
2433	-0.154380099070982 
2434	 5.19317823615877E-02 
2435	 0.408927121662158 
2436	 1.02585507372556 
2437	 114.795737084278 
2438	-0.487933108986054 
2439	-1.06093125839031 
2440	 4.73626159601695 
2441	-6.43594180004424 
2442	-1.02210568987261 
2443	-1.45880998396267 
2444	 7.14476531967627 
2445	-0.114427521586522 
2446	-4.19054976377138E-02 
2447	 0.392110405485536 
2448	 0.624463311081376 
2449	 0.705075645238189 
2450	 0.52620060230491 
2451	 0.108932095984221 
2452	-0.209495446732801 
2453	-0.16006419361442 
2454	 0.292733587755384 
2455	 0.439164840232739 
2456	 0.577508041429987 
2457	 0.635684552016189 
2458	 4.57035622346275E-02 
2459	-0.975764580038649 
2460	-1.42902935951589 
2461	-1.69481478013994 
2462	-0.738434902654421 
2463	-0.211859119370611 
2464	-0.302167436887059 
2465	-0.26030449871739 
2466	-0.409959381499252 
2467	-0.890057658086579 
2468	-0.941060091366666 
2469	 0.209343117988634 
2470	-1.65313878064025 
2471	-0.357812367540427 
2472	 0.576317118597528 
2473	-0.404440234763007 
2474	-1.26391515679381 
2475	-0.289416790324265 
2476	-0.214118587759699 
2477	-0.668987279865938 
2478	 0.666737095540791 
2479	 0.270336343900343 
2480	 0.609279901204531 
2481	 0.875928262576722 
2482	 0.808506499247161 
2483	 0.606701313579509 
2484	 0.352811557117107 
2485	 0.155014078598459 
2486	 0.444784941941125 
2487	 2.37272246651407 
2488	 1.98646909558759 
2489	 0.594520423840166 
2490	 0.120747274886929 
2491	-3.26492002233769E-02 
2492	-0.155782570370784 
2493	 0.188081560432838 
2494	-7.90265116114294E-02 
2495	-0.429862193097929 
2496	-4.20713217152033 
2497	-1.3612023549362 
2498	-4.8917480768124 
2499	-7.0768051116563 
2500	-2.66770198779727 
