Wavelength	rt0713west_far_cloud300004.asd
350	 8.09855570648599E-02 
351	 8.07529489147773E-02 
352	 8.10012829679028E-02 
353	 8.13379329777629E-02 
354	 0.081556935085513 
355	 8.21835918806492E-02 
356	 8.18537113023859E-02 
357	 8.14722080422372E-02 
358	 8.20972031468379E-02 
359	 8.21685468697161E-02 
360	 8.23373739449225E-02 
361	 8.26148970421054E-02 
362	 8.25842423628922E-02 
363	 8.26165539366032E-02 
364	 0.082904584273045 
365	 8.32922431940683E-02 
366	 8.31415157017956E-02 
367	 8.32137162246784E-02 
368	 8.34183365527318E-02 
369	 8.35125337436666E-02 
370	 8.35068219922539E-02 
371	 0.084124398797676 
372	 8.47650023282124E-02 
373	 8.42714935210119E-02 
374	 0.08396093671661 
375	 8.45060929490698E-02 
376	 8.55390628882992E-02 
377	 8.54458520063179E-02 
378	 8.56236756624035E-02 
379	 8.58366749480805E-02 
380	 8.57487068601302E-02 
381	 8.58792146576336E-02 
382	 8.65752138134239E-02 
383	 8.72398366892627E-02 
384	 8.70645382088091E-02 
385	 8.72984941623744E-02 
386	 8.73475745167769E-02 
387	 8.71437393337736E-02 
388	 8.73557508715051E-02 
389	 8.82934023013102E-02 
390	 8.87990615961063E-02 
391	 8.84212492719777E-02 
392	 8.91075392215798E-02 
393	 8.92243489942753E-02 
394	 8.92461167972547E-02 
395	 9.00609709038464E-02 
396	 9.03859128365464E-02 
397	 9.04815348535608E-02 
398	 0.090516185306249 
399	 9.05054520715319E-02 
400	 9.09957113018093E-02 
401	 9.13373567722486E-02 
402	 9.12025898838075E-02 
403	 9.13230104331961E-02 
404	 9.17843680408906E-02 
405	 9.21548834895798E-02 
406	 9.20164170930171E-02 
407	 9.23019861464923E-02 
408	 9.26238956225505E-02 
409	 9.27913723737915E-02 
410	 9.28976008352048E-02 
411	 9.30367465680769E-02 
412	 9.31487335811318E-02 
413	 0.093259471326966 
414	 9.36990684596512E-02 
415	 9.40931522136251E-02 
416	 9.43084588847394E-02 
417	 9.43670786795396E-02 
418	 9.44995332745835E-02 
419	 9.48477723395924E-02 
420	 9.52964491389486E-02 
421	 9.54877304593823E-02 
422	 0.095829239328315 
423	 9.62096966843126E-02 
424	 9.65129597369218E-02 
425	 9.69390618032183E-02 
426	 9.72156361690794E-02 
427	 9.74565020096723E-02 
428	 0.097911894969735 
429	 9.83432717316371E-02 
430	 9.87180317741111E-02 
431	 9.91209481820974E-02 
432	 9.97456346389363E-02 
433	 9.99648496803069E-02 
434	 0.1001735592563 
435	 0.100723928792941 
436	 0.10113424480043 
437	 0.101626587771691 
438	 0.102122374008131 
439	 0.102426807861679 
440	 0.102876099725294 
441	 0.103288282876199 
442	 0.103613230234208 
443	 0.104077601739521 
444	 0.104562358145885 
445	 0.104924123105006 
446	 0.105131845133413 
447	 0.105622347125236 
448	 0.105970755796861 
449	 0.106198552227992 
450	 0.106637610491714 
451	 0.106926951046427 
452	 0.107241252945569 
453	 0.107673612230114 
454	 0.1080029866263 
455	 0.108190593650579 
456	 0.108313838679 
457	 0.108506637907173 
458	 0.108895065351758 
459	 0.109205263584693 
460	 0.109370232363265 
461	 0.109550890277311 
462	 0.109734666994508 
463	 0.109927643275604 
464	 0.110120515856133 
465	 0.110239007048632 
466	 0.110544321227187 
467	 0.110897779725999 
468	 0.111020936842343 
469	 0.111241291042622 
470	 0.111475310315569 
471	 0.111678486172737 
472	 0.111906800315806 
473	 0.112211702249877 
474	 0.112545018240348 
475	 0.11284315976456 
476	 0.113095916162789 
477	 0.1133302188641 
478	 0.11357479918652 
479	 0.113855202579793 
480	 0.114146642354221 
481	 0.114445996906006 
482	 0.114787613915146 
483	 0.115287965669631 
484	 0.115683712766719 
485	 0.115965678655993 
486	 0.116251978522259 
487	 0.116740698824013 
488	 0.117131574842931 
489	 0.117415278797613 
490	 0.117877733579511 
491	 0.118326637236806 
492	 0.118829903489376 
493	 0.119410326810915 
494	 0.119841456904251 
495	 0.1202891729495 
496	 0.120768142590349 
497	 0.121237638416387 
498	 0.121853908485631 
499	 0.122511284996671 
500	 0.123109252921959 
501	 0.123597536505024 
502	 0.124148066391661 
503	 0.124694553126763 
504	 0.125178354051428 
505	 0.125871278932633 
506	 0.126557100025026 
507	 0.12716595840461 
508	 0.127765071582541 
509	 0.128503106619547 
510	 0.129275837366811 
511	 0.129983743003779 
512	 0.130635998064999 
513	 0.131346138704453 
514	 0.132149566167692 
515	 0.133014351351043 
516	 0.133775378750077 
517	 0.134622424634391 
518	 0.135559868514802 
519	 0.136334064803106 
520	 0.137111302008675 
521	 0.137911136675404 
522	 0.138716720283284 
523	 0.139476978404828 
524	 0.140312929708484 
525	 0.141195299582938 
526	 0.141998597396423 
527	 0.142785730579362 
528	 0.143623635294813 
529	 0.144479405174248 
530	 0.145110200115577 
531	 0.145828971865988 
532	 0.146649588991779 
533	 0.147460328587577 
534	 0.148146831010372 
535	 0.148877238436161 
536	 0.149667581220136 
537	 0.15033951539022 
538	 0.151066165265793 
539	 0.151856770449245 
540	 0.152642244027902 
541	 0.153212504815915 
542	 0.153985716222942 
543	 0.154851458481691 
544	 0.155418908767567 
545	 0.156095087591409 
546	 0.156818514655883 
547	 0.15752570633077 
548	 0.158277757683198 
549	 0.158997717799754 
550	 0.159637690691159 
551	 0.160201050030515 
552	 0.16089084718965 
553	 0.161552827480407 
554	 0.162162534647997 
555	 0.162858532057348 
556	 0.163508275138391 
557	 0.163984186699581 
558	 0.164301029150482 
559	 0.164937338859167 
560	 0.165517903828392 
561	 0.165958231766415 
562	 0.166361595713087 
563	 0.166687706352372 
564	 0.167022449074372 
565	 0.167396111968547 
566	 0.167708390819516 
567	 0.167962879575454 
568	 0.168200984858296 
569	 0.16844557519404 
570	 0.168503100652744 
571	 0.168633928762524 
572	 0.16887898318562 
573	 0.169019658039864 
574	 0.16923117185827 
575	 0.169417814016119 
576	 0.169494167998955 
577	 0.169606211251674 
578	 0.169731071741058 
579	 0.169800102552743 
580	 0.169739195774607 
581	 0.16972740875968 
582	 0.169680028425341 
583	 0.169523984014337 
584	 0.169254804125093 
585	 0.169091873862291 
586	 0.168893828331951 
587	 0.168446952039009 
588	 0.168014178710002 
589	 0.167778239875383 
590	 0.167651978366643 
591	 0.16727412195162 
592	 0.166883220512428 
593	 0.166548453073244 
594	 0.166256177557937 
595	 0.165825245308897 
596	 0.165306723173932 
597	 0.164710354894004 
598	 0.164045457414801 
599	 0.163466777911511 
600	 0.163017722462266 
601	 0.162670378195174 
602	 0.162295146042956 
603	 0.162150564376301 
604	 0.162084304588741 
605	 0.161886292486169 
606	 0.161783212324479 
607	 0.161715723660919 
608	 0.161666981232797 
609	 0.161672812910139 
610	 0.161636590236442 
611	 0.161573234409687 
612	 0.161518776367486 
613	 0.161494737926534 
614	 0.161472467957871 
615	 0.161408807961716 
616	 0.161270166384954 
617	 0.161170584209612 
618	 0.161027191505089 
619	 0.160886446679124 
620	 0.161058092995452 
621	 0.161045369265333 
622	 0.160885446402001 
623	 0.160767429300226 
624	 0.160664337466868 
625	 0.160630151225368 
626	 0.160593404089809 
627	 0.1603839289405 
628	 0.160370016799437 
629	 0.160398149139921 
630	 0.160301895225488 
631	 0.160153850872138 
632	 0.16003805874314 
633	 0.15991722235564 
634	 0.159708086222099 
635	 0.15951232101226 
636	 0.159255398438729 
637	 0.158937158103412 
638	 0.15868350848771 
639	 0.158349388453218 
640	 0.157952815730507 
641	 0.157582353296013 
642	 0.15740752089571 
643	 0.157049324272945 
644	 0.156500639714172 
645	 0.156063947471524 
646	 0.15559255492532 
647	 0.15525435844604 
648	 0.155133426019491 
649	 0.155025147293197 
650	 0.154621738165879 
651	 0.154209127019804 
652	 0.154181502404645 
653	 0.15381619871726 
654	 0.153378197866472 
655	 0.153006924415368 
656	 0.15262250591917 
657	 0.152214857458052 
658	 0.151839362050004 
659	 0.151530688814708 
660	 0.151276564171661 
661	 0.150963484323349 
662	 0.1505819739283 
663	 0.150205284153884 
664	 0.14991760119825 
665	 0.149716953212561 
666	 0.149572897309898 
667	 0.14944128534817 
668	 0.149257511878313 
669	 0.149138236331266 
670	 0.149183221054138 
671	 0.149075421851035 
672	 0.149003442558055 
673	 0.149007156590046 
674	 0.148974668993026 
675	 0.149057734198613 
676	 0.149156677124628 
677	 0.149221785322803 
678	 0.149461943119726 
679	 0.14965448782122 
680	 0.149850032852924 
681	 0.150194699588888 
682	 0.150541969165385 
683	 0.150973360394588 
684	 0.151518359058702 
685	 0.152171108723863 
686	 0.152646390764402 
687	 0.153117465140911 
688	 0.153759867339269 
689	 0.1542532121957 
690	 0.15482368834091 
691	 0.155378363077794 
692	 0.155675929200675 
693	 0.156227970567685 
694	 0.156819632377038 
695	 0.157255628864792 
696	 0.157615323358362 
697	 0.157960019136976 
698	 0.158202849104291 
699	 0.158221962071489 
700	 0.158152081151955 
701	 0.158194518687489 
702	 0.158211737008903 
703	 0.157840835778237 
704	 0.157405021895889 
705	 0.156953745871697 
706	 0.156487515316513 
707	 0.155980505127428 
708	 0.155257477845743 
709	 0.154311488892587 
710	 0.153188009113116 
711	 0.151759528304576 
712	 0.150347620288865 
713	 0.148909487257444 
714	 0.146958787398273 
715	 0.145128042367907 
716	 0.14308605397211 
717	 0.140656646862451 
718	 0.138527220288443 
719	 0.136382030653463 
720	 0.134550694934941 
721	 0.132943391821831 
722	 0.130944524079068 
723	 0.128770109345418 
724	 0.126666045378149 
725	 0.12401455805908 
726	 0.12165971780152 
727	 0.119274224505081 
728	 0.116550187124088 
729	 0.113921693563174 
730	 0.111182211141344 
731	 0.108660506989242 
732	 0.106592938782178 
733	 0.104716865317068 
734	 0.102971359955823 
735	 0.101504968678214 
736	 0.100669273028664 
737	 9.96715575480169E-02 
738	 9.89728167477437E-02 
739	 9.89101718153535E-02 
740	 9.84988031629928E-02 
741	 0.098180862328125 
742	 9.80086094127824E-02 
743	 0.09784357757861 
744	 9.77870166075754E-02 
745	 9.77471568105315E-02 
746	 9.76891066816497E-02 
747	 9.76775157312736E-02 
748	 9.75460607542413E-02 
749	 0.097409695260859 
750	 9.73743633946086E-02 
751	 9.72684449166439E-02 
752	 9.71071911990809E-02 
753	 9.70357842585734E-02 
754	 0.097199383329554 
755	 0.097133624162525 
756	 9.71225965536926E-02 
757	 9.72776758728223E-02 
758	 9.73824901664024E-02 
759	 9.71393011330855E-02 
760	 9.66692683488529E-02 
761	 9.67067381158104E-02 
762	 9.71076586081603E-02 
763	 9.70656601501333E-02 
764	 9.68813853875121E-02 
765	 9.70722715308461E-02 
766	 9.74577602397681E-02 
767	 9.75926885388651E-02 
768	 9.75518315500046E-02 
769	 9.78551431624126E-02 
770	 9.80429743746505E-02 
771	 9.80762991845249E-02 
772	 9.81123527100456E-02 
773	 9.86403872098219E-02 
774	 9.88723494512686E-02 
775	 9.89368791419618E-02 
776	 9.92630502763239E-02 
777	 0.099364378472777 
778	 9.95832134516787E-02 
779	 9.99608101657168E-02 
780	 0.100203486689205 
781	 0.100663535705701 
782	 0.101095500347349 
783	 0.101355944233889 
784	 0.101780050260964 
785	 0.10217521340414 
786	 0.102485314525276 
787	 0.102750893910652 
788	 0.103268681650904 
789	 0.103672901666467 
790	 0.103923214994304 
791	 0.10428241045332 
792	 0.104824499002398 
793	 0.105437630916417 
794	 0.10598825927259 
795	 0.106325474216102 
796	 0.106711218719432 
797	 0.107226720603655 
798	 0.107795259315518 
799	 0.107915756244483 
800	 0.108271752194974 
801	 0.108700349390837 
802	 0.10867966435215 
803	 0.108911964777568 
804	 0.109297180124002 
805	 0.109624032465036 
806	 0.109662691161171 
807	 0.10944524711084 
808	 0.109286859628691 
809	 0.109310313847293 
810	 0.108977383654233 
811	 0.108437426728063 
812	 0.107891509452976 
813	 0.107508310399277 
814	 0.106827352342079 
815	 0.106158686569311 
816	 0.105774185813745 
817	 0.105699094938569 
818	 0.105247046247825 
819	 0.104397719478683 
820	 0.103338176569605 
821	 0.102443877183375 
822	 0.101193529970866 
823	 9.97078239930187E-02 
824	 9.83147794836743E-02 
825	 9.72457848515578E-02 
826	 9.59289487778747E-02 
827	 9.40348477906151E-02 
828	 9.17208245294902E-02 
829	 9.02406318209354E-02 
830	 8.90977535459349E-02 
831	 8.79954639961459E-02 
832	 8.69242733776783E-02 
833	 8.59166632949324E-02 
834	 8.53837832227438E-02 
835	 8.51593052815425E-02 
836	 8.43611634024252E-02 
837	 8.41118621182131E-02 
838	 8.39514535221451E-02 
839	 8.34962424530257E-02 
840	 8.34735695196285E-02 
841	 8.31547236719173E-02 
842	 8.27682039994605E-02 
843	 8.27231616518402E-02 
844	 8.25178263981577E-02 
845	 8.23311917113262E-02 
846	 0.082160353023182 
847	 8.18910482662052E-02 
848	 0.081751418477142 
849	 8.13371974392087E-02 
850	 0.080846863647265 
851	 8.12144198298245E-02 
852	 8.05669514852646E-02 
853	 7.99705314176974E-02 
854	 0.080161773582279 
855	 7.98053913613407E-02 
856	 7.99079357292348E-02 
857	 8.00275970635757E-02 
858	 7.96704792301156E-02 
859	 7.96143767826052E-02 
860	 7.92013134678981E-02 
861	 7.88489573198561E-02 
862	 7.92484300131608E-02 
863	 7.92725697805411E-02 
864	 7.89161659818224E-02 
865	 7.85210775799824E-02 
866	 7.85803874339075E-02 
867	 7.84476504986654E-02 
868	 7.81155606300413E-02 
869	 7.77831278082695E-02 
870	 7.77653464864442E-02 
871	 7.74802318916017E-02 
872	 7.71108375831028E-02 
873	 7.68949166727408E-02 
874	 7.68018195641402E-02 
875	 7.67699461374749E-02 
876	 0.076374849459687 
877	 7.55402786861791E-02 
878	 0.075769686917075 
879	 7.58275254798288E-02 
880	 7.55356639253653E-02 
881	 0.07523840209306 
882	 7.49135427930859E-02 
883	 7.46567731801553E-02 
884	 7.44231134318009E-02 
885	 7.40926933710713E-02 
886	 7.38270926053652E-02 
887	 7.39932995249809E-02 
888	 7.43646710071701E-02 
889	 7.40794779087735E-02 
890	 7.32105566546793E-02 
891	 7.29812015329748E-02 
892	 7.35850062796419E-02 
893	 7.28023730238954E-02 
894	 7.20651464309657E-02 
895	 7.13950072848223E-02 
896	 7.08275843525551E-02 
897	 7.17450162540961E-02 
898	 7.15674951087098E-02 
899	 7.12535620434491E-02 
900	 7.19493599495325E-02 
901	 7.07135092950962E-02 
902	 6.97417009330892E-02 
903	 6.95685967604888E-02 
904	 6.99218504918232E-02 
905	 7.03383851356234E-02 
906	 6.94948955068906E-02 
907	 6.84196621114816E-02 
908	 6.94027059974377E-02 
909	 6.92297698629226E-02 
910	 6.84280869542239E-02 
911	 0.067759357875819 
912	 6.77844270636459E-02 
913	 6.87718415288401E-02 
914	 6.85414391418845E-02 
915	 6.72588409875808E-02 
916	 6.76551061079595E-02 
917	 6.62061831844827E-02 
918	 0.066290212406106 
919	 6.83299979871606E-02 
920	 6.80597385908325E-02 
921	 6.63973231617678E-02 
922	 6.56831308545914E-02 
923	 6.66099691456488E-02 
924	 6.57024844522154E-02 
925	 6.65504048197562E-02 
926	 6.67123310076598E-02 
927	 6.38007028414224E-02 
928	 6.40164801534909E-02 
929	 6.31865176630703E-02 
930	 6.02065974579046E-02 
931	 5.69789178745333E-02 
932	 6.12813723766037E-02 
933	 5.74175951084962E-02 
934	 5.15697296739041E-02 
935	 5.64269055124872E-02 
936	 4.91810011224199E-02 
937	 5.28441407310553E-02 
938	 6.03224660646665E-02 
939	 5.91416187064137E-02 
940	 5.12405616876382E-02 
941	 6.14523834904963E-02 
942	 7.34532207488302E-02 
943	 5.88689662768324E-02 
944	 5.17936614067031E-02 
945	 5.39958050538494E-02 
946	 6.20376075833895E-02 
947	 6.84356521435552E-02 
948	 6.04699584661331E-02 
949	 5.16125861011246E-02 
950	 5.02584543204792E-02 
951	 5.74244910935102E-02 
952	 6.14951287416758E-02 
953	 6.07552861430969E-02 
954	 5.92991396172874E-02 
955	 6.24215977651809E-02 
956	 6.27836328258517E-02 
957	 6.24834523303706E-02 
958	 0.06211059196064 
959	 6.09296634885329E-02 
960	 5.99529316104109E-02 
961	 6.01371708000128E-02 
962	 5.97762582785132E-02 
963	 5.69360298867448E-02 
964	 5.92711434126778E-02 
965	 6.14598495639155E-02 
966	 6.20181595029559E-02 
967	 6.24706726356929E-02 
968	 5.91962089494358E-02 
969	 6.12461768509433E-02 
970	 6.61726837996909E-02 
971	 6.29152973332756E-02 
972	 5.96796373735819E-02 
973	 0.0599540032911 
974	 6.17796995621462E-02 
975	 5.95236529835127E-02 
976	 5.90436982885878E-02 
977	 6.14364312967613E-02 
978	 6.39358262405575E-02 
979	 6.26939535122428E-02 
980	 6.50782750646988E-02 
981	 6.41416596668294E-02 
982	 6.15704591980057E-02 
983	 6.46362079574287E-02 
984	 6.12119064429362E-02 
985	 6.00645861771584E-02 
986	 6.25388824435221E-02 
987	 0.063294201380291 
988	 6.54345868121028E-02 
989	 6.40728974288074E-02 
990	 6.10990483098617E-02 
991	 6.23933353028408E-02 
992	 6.19061144467773E-02 
993	 6.14558695311468E-02 
994	 6.22305969069275E-02 
995	 6.38369555335902E-02 
996	 6.24103216788702E-02 
997	 6.18850367313427E-02 
998	 6.32656068739009E-02 
999	 6.45475736761257E-02 
1000	 6.09209167218041E-02 
1001	 5.73683204040378E-02 
1002	 5.73866135684182E-02 
1003	 5.72776121119157E-02 
1004	 5.66675062280517E-02 
1005	 5.65547095372611E-02 
1006	 5.65303895218776E-02 
1007	 5.68290240203051E-02 
1008	 5.74446005842098E-02 
1009	 5.81977350621534E-02 
1010	 5.82522817311451E-02 
1011	 5.71609016087152E-02 
1012	 5.62724276560264E-02 
1013	 5.57410578659344E-02 
1014	 5.57548145856048E-02 
1015	 5.69306890713297E-02 
1016	 5.72677183649642E-02 
1017	 5.75749972405675E-02 
1018	 0.057664351924308 
1019	 5.72897677932795E-02 
1020	 5.72166449616834E-02 
1021	 5.74682279390315E-02 
1022	 5.71649161735831E-02 
1023	 0.05679630853995 
1024	 5.67208069236997E-02 
1025	 0.056632512742447 
1026	 5.62309306493754E-02 
1027	 5.60986162032226E-02 
1028	 5.59268178978401E-02 
1029	 5.62825095917128E-02 
1030	 5.70270635508558E-02 
1031	 5.76291293127197E-02 
1032	 5.90664334039064E-02 
1033	 0.059314450607248 
1034	 5.86813896419448E-02 
1035	 0.058389225868579 
1036	 0.057440570423984 
1037	 5.70890121286514E-02 
1038	 5.72020357587078E-02 
1039	 5.72714774675468E-02 
1040	 5.72111748411344E-02 
1041	 0.057277114855778 
1042	 5.74665607403263E-02 
1043	 5.75928443121285E-02 
1044	 5.79182206561181E-02 
1045	 5.86211949317405E-02 
1046	 5.90317644417488E-02 
1047	 0.059577619463488 
1048	 5.96018898829178E-02 
1049	 5.91974790370174E-02 
1050	 0.05905551696919 
1051	 5.83697264279726E-02 
1052	 5.83278355506526E-02 
1053	 5.87139506679921E-02 
1054	 0.059187635424088 
1055	 6.08613908916914E-02 
1056	 6.12146837570574E-02 
1057	 6.10393982581215E-02 
1058	 6.03455349072303E-02 
1059	 5.99628903623231E-02 
1060	 0.058571062020405 
1061	 5.81808917860916E-02 
1062	 0.05872651554778 
1063	 0.058645805117589 
1064	 5.81834916170741E-02 
1065	 5.82188600559102E-02 
1066	 0.058591357049217 
1067	 5.86498912158038E-02 
1068	 5.91390562091844E-02 
1069	 5.90244613415562E-02 
1070	 0.058031451278005 
1071	 5.75842077390019E-02 
1072	 5.72114946637257E-02 
1073	 5.66690324599759E-02 
1074	 5.65827670456955E-02 
1075	 5.70337307239219E-02 
1076	 5.69777578572084E-02 
1077	 5.67937155234667E-02 
1078	 5.67589163930348E-02 
1079	 5.66716003485391E-02 
1080	 5.66167849870836E-02 
1081	 5.65716357951468E-02 
1082	 5.67693173971915E-02 
1083	 5.74101919791874E-02 
1084	 5.72983908468293E-02 
1085	 5.66919712451695E-02 
1086	 5.66674891304236E-02 
1087	 5.62726331282107E-02 
1088	 5.61642999163793E-02 
1089	 5.73335714880115E-02 
1090	 5.76533495547025E-02 
1091	 5.72338918698854E-02 
1092	 5.56968183509081E-02 
1093	 5.54637370050622E-02 
1094	 5.50195968879584E-02 
1095	 5.50759886235162E-02 
1096	 5.68833943117066E-02 
1097	 5.67749152673596E-02 
1098	 5.48455278813455E-02 
1099	 5.44909613233403E-02 
1100	 5.42275502465653E-02 
1101	 5.41117719841196E-02 
1102	 5.54995987325564E-02 
1103	 5.59860331722512E-02 
1104	 5.63084420249932E-02 
1105	 5.52124536516778E-02 
1106	 5.38407842518883E-02 
1107	 5.43881933798836E-02 
1108	 5.47612151659545E-02 
1109	 5.45279651192699E-02 
1110	 5.43040703442501E-02 
1111	 5.40225105474926E-02 
1112	 5.39300182376969E-02 
1113	 0.054017854860907 
1114	 5.35520741613275E-02 
1115	 5.29496829046632E-02 
1116	 5.15448245045725E-02 
1117	 4.76778553687337E-02 
1118	 4.58125601016675E-02 
1119	 4.40451446425195E-02 
1120	 4.45682645140086E-02 
1121	 5.65088987324591E-02 
1122	 5.48881782829063E-02 
1123	 4.40795120402935E-02 
1124	 4.62958828238266E-02 
1125	 4.10932526201729E-02 
1126	 3.73180753336564E-02 
1127	 4.23105099599497E-02 
1128	 4.59778660593004E-02 
1129	 4.82185603191243E-02 
1130	 4.75505438864119E-02 
1131	 4.66798421550029E-02 
1132	 4.56598889867367E-02 
1133	 4.59997171096086E-02 
1134	 4.62861002895971E-02 
1135	 0.047230170647188 
1136	 4.78568701584141E-02 
1137	 5.03919117538432E-02 
1138	 5.65696380924132E-02 
1139	 5.63424999726301E-02 
1140	 5.09113226105352E-02 
1141	 4.98113017232817E-02 
1142	 5.05415753803346E-02 
1143	 5.10564324384194E-02 
1144	 5.53499578876808E-02 
1145	 5.47174865371507E-02 
1146	 4.74090977220767E-02 
1147	 4.43042058953775E-02 
1148	 0.04739037749117 
1149	 0.051848360265357 
1150	 5.37048436809592E-02 
1151	 5.66476118183422E-02 
1152	 5.62304618852574E-02 
1153	 5.19482036847032E-02 
1154	 0.052441755784229 
1155	 5.50725706039888E-02 
1156	 5.52689350371987E-02 
1157	 5.28088274871549E-02 
1158	 5.11813061976004E-02 
1159	 5.19772071503057E-02 
1160	 5.31100475798704E-02 
1161	 5.36668729737659E-02 
1162	 5.49706302880992E-02 
1163	 5.51244202739282E-02 
1164	 5.43318607536778E-02 
1165	 5.61496274724913E-02 
1166	 0.058014444272211 
1167	 5.72013462336401E-02 
1168	 5.63300071655322E-02 
1169	 5.63501902771745E-02 
1170	 5.68493605957746E-02 
1171	 5.70363347267917E-02 
1172	 5.78280532754433E-02 
1173	 5.79453112040944E-02 
1174	 5.73516854743267E-02 
1175	 5.75017099789441E-02 
1176	 5.76668851540516E-02 
1177	 5.78499457148586E-02 
1178	 5.78788592150031E-02 
1179	 5.72344021313389E-02 
1180	 0.056866830819823 
1181	 5.72731540124541E-02 
1182	 5.78156447933981E-02 
1183	 5.75273051901873E-02 
1184	 5.68263239691534E-02 
1185	 0.057137747093441 
1186	 5.71570058619968E-02 
1187	 5.62051170890392E-02 
1188	 5.66141874942371E-02 
1189	 5.76379284491563E-02 
1190	 5.79083509179578E-02 
1191	 5.84049589603748E-02 
1192	 5.87503864642142E-02 
1193	 5.87433439415014E-02 
1194	 5.79305343689837E-02 
1195	 5.78458538968003E-02 
1196	 5.81988814113121E-02 
1197	 5.81365503905027E-02 
1198	 5.79621437637787E-02 
1199	 5.81267850719982E-02 
1200	 5.81716074669829E-02 
1201	 5.78495701472611E-02 
1202	 5.80248503986147E-02 
1203	 5.82659890119358E-02 
1204	 5.81271414429145E-02 
1205	 0.058358907961024 
1206	 5.79906605885051E-02 
1207	 5.71556544218596E-02 
1208	 5.70256375959065E-02 
1209	 5.74676237597643E-02 
1210	 5.81529222050262E-02 
1211	 5.80653386361025E-02 
1212	 5.78885999191622E-02 
1213	 5.84410487363748E-02 
1214	 5.85522128082075E-02 
1215	 5.85402420956548E-02 
1216	 5.82523853191722E-02 
1217	 5.79202973159308E-02 
1218	 5.77388062550355E-02 
1219	 5.74841292509168E-02 
1220	 5.76710054934477E-02 
1221	 5.83297999141218E-02 
1222	 5.81981879428242E-02 
1223	 5.80614582327982E-02 
1224	 5.81650975315743E-02 
1225	 0.057882203756367 
1226	 5.77657900441481E-02 
1227	 5.71540529755352E-02 
1228	 5.65565115093734E-02 
1229	 5.73498743801035E-02 
1230	 5.80372023796178E-02 
1231	 5.78696715307889E-02 
1232	 5.80977991801928E-02 
1233	 5.81534698177083E-02 
1234	 5.77125183340783E-02 
1235	 0.057625265000181 
1236	 5.83285721203629E-02 
1237	 5.85142073518649E-02 
1238	 5.84286094411662E-02 
1239	 5.83176798756005E-02 
1240	 5.80079491060492E-02 
1241	 0.057770514780372 
1242	 5.79682596750815E-02 
1243	 5.80429410991041E-02 
1244	 5.79007483877926E-02 
1245	 5.78437368000462E-02 
1246	 5.74917039387413E-02 
1247	 5.73905142332405E-02 
1248	 5.75705546573708E-02 
1249	 5.75833058882185E-02 
1250	 5.80927496105461E-02 
1251	 5.82834445739497E-02 
1252	 5.79790514024088E-02 
1253	 5.83537154344157E-02 
1254	 5.85804498421228E-02 
1255	 5.81606537885207E-02 
1256	 5.79824181254022E-02 
1257	 5.83058290492779E-02 
1258	 5.79781555836337E-02 
1259	 5.68147783482239E-02 
1260	 0.056697213421646 
1261	 5.71344749760408E-02 
1262	 5.72728784679529E-02 
1263	 5.79622854666637E-02 
1264	 5.78910455422617E-02 
1265	 0.057489498791309 
1266	 5.70852666951033E-02 
1267	 5.64978720230091E-02 
1268	 5.65020763517586E-02 
1269	 5.72570638115025E-02 
1270	 5.76823811941017E-02 
1271	 5.75617273646519E-02 
1272	 5.72439833919826E-02 
1273	 5.69090492843267E-02 
1274	 5.65472740223548E-02 
1275	 5.63379482012034E-02 
1276	 5.69740013153706E-02 
1277	 5.72614865339039E-02 
1278	 5.67837451736316E-02 
1279	 5.72552191471853E-02 
1280	 5.73735823210335E-02 
1281	 5.72024316047825E-02 
1282	 5.64995683144415E-02 
1283	 5.68942167149092E-02 
1284	 5.78836243278026E-02 
1285	 5.79260586654855E-02 
1286	 5.80482265458352E-02 
1287	 5.82821673321179E-02 
1288	 5.78644051361613E-02 
1289	 5.74619341748176E-02 
1290	 5.75890145646817E-02 
1291	 5.73106064421551E-02 
1292	 0.056954013951663 
1293	 5.69339304491799E-02 
1294	 5.68904786803233E-02 
1295	 5.73397331131804E-02 
1296	 5.71924319653689E-02 
1297	 0.056689398258813 
1298	 5.72310877192676E-02 
1299	 5.74424150359947E-02 
1300	 5.67626965264858E-02 
1301	 5.62079709984927E-02 
1302	 5.60531690313661E-02 
1303	 5.59661731741654E-02 
1304	 5.57689652299146E-02 
1305	 5.54397733093168E-02 
1306	 5.53454012605616E-02 
1307	 5.50195973623225E-02 
1308	 5.48292040506929E-02 
1309	 5.50361704778337E-02 
1310	 5.54802732129444E-02 
1311	 5.60541875521432E-02 
1312	 5.60217547276637E-02 
1313	 5.59988823284983E-02 
1314	 5.60145459955704E-02 
1315	 5.55188044320209E-02 
1316	 5.51686302190829E-02 
1317	 5.51714567982194E-02 
1318	 5.52771852932969E-02 
1319	 5.50102162482835E-02 
1320	 5.47472402815777E-02 
1321	 5.46095792431756E-02 
1322	 5.52331491473969E-02 
1323	 5.55980065255015E-02 
1324	 5.53662453814918E-02 
1325	 5.60783464073387E-02 
1326	 5.64151479197247E-02 
1327	 5.45913453541797E-02 
1328	 0.051669309956579 
1329	 4.95442436267146E-02 
1330	 0.048821258646694 
1331	 4.79428636886015E-02 
1332	 4.79219171123473E-02 
1333	 4.86223112985415E-02 
1334	 4.75227413385925E-02 
1335	 4.72330475844359E-02 
1336	 4.84061582935366E-02 
1337	 4.88557839902193E-02 
1338	 4.84638405870729E-02 
1339	 4.82858234143977E-02 
1340	 0.04853083632397 
1341	 4.86936315507392E-02 
1342	 4.89634232269176E-02 
1343	 4.81749382099303E-02 
1344	 4.38515616642202E-02 
1345	 4.41616870809024E-02 
1346	 0.052601379854593 
1347	 5.22288704616028E-02 
1348	 4.37665937444215E-02 
1349	 4.48493820069247E-02 
1350	 4.43016710666778E-02 
1351	 0.037641100566115 
1352	 5.29137658825657E-02 
1353	 6.71255075116083E-02 
1354	 6.48951027808112E-02 
1355	-2.78324717138497E-03 
1356	-0.213091967156495 
1357	-0.339205438399682 
1358	-0.382869102003605 
1359	-0.566161431958953 
1360	-0.669577944923589 
1361	-0.441986944120559 
1362	-0.214257508771998 
1363	-0.426730705550801 
1364	-1.16705044609785 
1365	-0.989201529474117 
1366	-0.540384983078819 
1367	-0.539739090986131 
1368	-0.643127252810365 
1369	-0.490171641844855 
1370	-0.390225565861086 
1371	-0.567515888892866 
1372	-0.808051692331179 
1373	-0.348209178062222 
1374	-0.285044584499691 
1375	-0.887087119019124 
1376	-0.97046322438222 
1377	-0.322797415350885 
1378	-0.298478847862263 
1379	-1.39838704561561 
1380	-1.55419647054688 
1381	-0.544901327010186 
1382	-0.7042515620261 
1383	-2.32671829792913 
1384	-2.14643175568115 
1385	-1.10213908280621 
1386	-1.4570134244964 
1387	-0.724781884123493 
1388	-0.313652464985689 
1389	-1.69615454910975 
1390	 3.02957612452114 
1391	 0.390121884593923 
1392	 0.554547478700793 
1393	-0.40571267690408 
1394	-0.710958518350448 
1395	-0.791295392447058 
1396	-0.276041545012087 
1397	-0.731209090451897 
1398	-1.61300761262954 
1399	-0.201731205594132 
1400	-0.357916280937206 
1401	-0.80975114858441 
1402	-0.251661129873297 
1403	-8.87226499324094E-03 
1404	-0.100486452986245 
1405	-0.346588016699005 
1406	-1.30306393028371 
1407	-0.869576471270039 
1408	-0.589688774046242 
1409	-0.452115332484673 
1410	 0.311789585389403 
1411	 0.417362872772364 
1412	 0.308254631652115 
1413	 3.64967650835109E-02 
1414	-0.219487579710974 
1415	-0.284839761195531 
1416	-0.741556221989449 
1417	-0.616944719177448 
1418	-0.168227897551226 
1419	-4.22850285087659E-02 
1420	 0.126546809499975 
1421	 0.131114410772218 
1422	 5.74029007819466E-02 
1423	 7.14565147738777E-02 
1424	 8.26981878377124E-02 
1425	 3.77788748246451E-02 
1426	-1.45631181519623E-02 
1427	-2.30750369882134E-02 
1428	-5.89679393442565E-02 
1429	-5.65789918018601E-02 
1430	 2.64229412378545E-03 
1431	 3.49376034147872E-02 
1432	 7.29591670068458E-02 
1433	 0.07938371688621 
1434	 5.09466242546299E-02 
1435	 5.01090742107489E-02 
1436	 0.053386539254007 
1437	 3.92297827416333E-02 
1438	 2.96708539759548E-02 
1439	 4.89585057496772E-02 
1440	 3.42871692862604E-02 
1441	 0.019706192116144 
1442	 5.11644406108652E-02 
1443	 7.04305041487483E-02 
1444	 8.64369556739857E-02 
1445	 9.77087633011741E-02 
1446	 6.97586356479062E-02 
1447	 6.39356713494075E-02 
1448	 7.54935358215989E-02 
1449	 6.40995243122628E-02 
1450	 6.51635135662983E-02 
1451	 0.077044526211456 
1452	 7.81082273087996E-02 
1453	 7.06109863280465E-02 
1454	 6.35615191804834E-02 
1455	 5.27979543169438E-02 
1456	 5.12756367610508E-02 
1457	 4.94451823221965E-02 
1458	 5.06592982850305E-02 
1459	 5.95990547505569E-02 
1460	 5.88802907474564E-02 
1461	 0.051960974189768 
1462	 5.16774674602984E-02 
1463	 5.36195827257645E-02 
1464	 5.12328171438341E-02 
1465	 4.50374839584615E-02 
1466	 0.048420973111942 
1467	 5.94783545442193E-02 
1468	 5.61730078417018E-02 
1469	 4.93615526011916E-02 
1470	 5.46113975695881E-02 
1471	 0.055097189306215 
1472	 5.25534770113307E-02 
1473	 0.060800649491443 
1474	 6.46506618627058E-02 
1475	 5.78797876072553E-02 
1476	 5.45490997076621E-02 
1477	 5.69404712524476E-02 
1478	 5.95618816333176E-02 
1479	 5.91452739203519E-02 
1480	 5.76897276671347E-02 
1481	 6.01686062722874E-02 
1482	 5.99888798344751E-02 
1483	 5.45608299505196E-02 
1484	 5.35253405477693E-02 
1485	 5.47145582072242E-02 
1486	 5.63954331756901E-02 
1487	 5.92477981975252E-02 
1488	 5.98750699970146E-02 
1489	 6.00140804610628E-02 
1490	 6.05975897377181E-02 
1491	 6.10853938696316E-02 
1492	 6.07083109138812E-02 
1493	 5.94052342229369E-02 
1494	 5.98326154505008E-02 
1495	 6.11214126070719E-02 
1496	 6.10863268863754E-02 
1497	 6.09768694620304E-02 
1498	 6.16335480764543E-02 
1499	 6.24406003580654E-02 
1500	 6.19708954303954E-02 
1501	 6.08416392927669E-02 
1502	 6.11543118535834E-02 
1503	 0.061655018979538 
1504	 0.061220463343779 
1505	 6.10289727393586E-02 
1506	 6.16477456138748E-02 
1507	 6.16305573025093E-02 
1508	 6.16268691765707E-02 
1509	 6.15273274161856E-02 
1510	 6.15163001955453E-02 
1511	 6.18713821460785E-02 
1512	 6.13847889874949E-02 
1513	 6.09395277772801E-02 
1514	 6.17517969928807E-02 
1515	 6.14239920834195E-02 
1516	 6.00963752302855E-02 
1517	 6.04192547575412E-02 
1518	 6.12535423143971E-02 
1519	 0.061377298101716 
1520	 6.13623231234531E-02 
1521	 6.17103610945808E-02 
1522	 6.18469323846457E-02 
1523	 6.15513524097159E-02 
1524	 0.061784650107779 
1525	 0.061924457507077 
1526	 0.061675279005307 
1527	 6.18186299905305E-02 
1528	 6.20769804175124E-02 
1529	 6.20666350080769E-02 
1530	 6.18645350756806E-02 
1531	 6.18770772384848E-02 
1532	 6.18799445225303E-02 
1533	 6.16247760206725E-02 
1534	 6.18277834569074E-02 
1535	 6.21178267069895E-02 
1536	 6.21160835371662E-02 
1537	 6.25293295814731E-02 
1538	 6.26384101720269E-02 
1539	 0.062058000166423 
1540	 6.21872100355934E-02 
1541	 6.25944063762268E-02 
1542	 6.23530203937568E-02 
1543	 6.22005666862465E-02 
1544	 6.20878855189877E-02 
1545	 6.15462828549505E-02 
1546	 6.13832401798961E-02 
1547	 6.21570846788993E-02 
1548	 6.28393098640497E-02 
1549	 6.25659602976407E-02 
1550	 6.19736804901968E-02 
1551	 6.19050542396348E-02 
1552	 6.20570222679162E-02 
1553	 6.20903818907527E-02 
1554	 6.24605079369163E-02 
1555	 6.31974429066895E-02 
1556	 6.32516097468998E-02 
1557	 6.28626997281601E-02 
1558	 6.32254636182049E-02 
1559	 6.32608102438034E-02 
1560	 6.26217971579796E-02 
1561	 6.22787833938511E-02 
1562	 6.21440455273555E-02 
1563	 6.20587508692194E-02 
1564	 0.06188869552995 
1565	 6.19692733511885E-02 
1566	 6.22012154529766E-02 
1567	 6.21025551671586E-02 
1568	 6.18925593164827E-02 
1569	 6.22027512313549E-02 
1570	 0.062856716872382 
1571	 0.062866736763926 
1572	 0.062748254724877 
1573	 6.28582049151332E-02 
1574	 6.27831501506722E-02 
1575	 6.26003632964138E-02 
1576	 6.25507326664412E-02 
1577	 6.25511784479473E-02 
1578	 0.062449783141592 
1579	 6.26599141657649E-02 
1580	 6.27385123241157E-02 
1581	 0.06224334646118 
1582	 6.19918540212719E-02 
1583	 6.24671180858757E-02 
1584	 6.29990081027299E-02 
1585	 6.30716632770673E-02 
1586	 6.31767460204834E-02 
1587	 6.30738577559716E-02 
1588	 6.25892030419396E-02 
1589	 6.27142856033264E-02 
1590	 6.29588372866814E-02 
1591	 6.24365304841321E-02 
1592	 6.21370723594439E-02 
1593	 6.26170359279574E-02 
1594	 6.27018055623642E-02 
1595	 6.23712136809775E-02 
1596	 6.25273604836517E-02 
1597	 6.29672836501905E-02 
1598	 6.32050037467411E-02 
1599	 6.29523466306749E-02 
1600	 6.28385981942159E-02 
1601	 6.27130356831282E-02 
1602	 6.18019899739009E-02 
1603	 6.16508478037849E-02 
1604	 6.22874882827322E-02 
1605	 6.21641859422613E-02 
1606	 0.062547116458474 
1607	 6.34545369827881E-02 
1608	 6.34577702113706E-02 
1609	 0.063240606543143 
1610	 6.32175093416933E-02 
1611	 6.29403240922908E-02 
1612	 6.25146760981717E-02 
1613	 6.25453165500408E-02 
1614	 6.25211528836444E-02 
1615	 6.22197580677482E-02 
1616	 6.24589751052562E-02 
1617	 6.24091524985875E-02 
1618	 6.20723708420905E-02 
1619	 6.25395738803588E-02 
1620	 6.28401400641113E-02 
1621	 6.23436786763132E-02 
1622	 6.22934625956981E-02 
1623	 6.22990731240988E-02 
1624	 6.15674073560264E-02 
1625	 0.061462868855223 
1626	 6.24009745683303E-02 
1627	 6.32353704326439E-02 
1628	 6.33063427136226E-02 
1629	 6.33493816958499E-02 
1630	 6.32561608444307E-02 
1631	 6.22370169449158E-02 
1632	 6.21955198777375E-02 
1633	 6.33282269851198E-02 
1634	 6.34288714038768E-02 
1635	 6.26687045435456E-02 
1636	 0.062783440105864 
1637	 6.34617946028071E-02 
1638	 6.29953759394263E-02 
1639	 6.31408548913092E-02 
1640	 6.36289931226491E-02 
1641	 6.25444110089052E-02 
1642	 6.22484426587433E-02 
1643	 6.28230326008478E-02 
1644	 0.062772201072124 
1645	 6.31434533731691E-02 
1646	 6.34175765915488E-02 
1647	 0.062717286837768 
1648	 6.28424649564817E-02 
1649	 6.33160778322179E-02 
1650	 6.30726218877431E-02 
1651	 6.34243851101809E-02 
1652	 6.34683432099169E-02 
1653	 6.30296819647608E-02 
1654	 0.062841137482279 
1655	 6.25640329867101E-02 
1656	 6.26541510797884E-02 
1657	 6.29352238982801E-02 
1658	 6.28673554199782E-02 
1659	 6.28370229250478E-02 
1660	 6.31328448489823E-02 
1661	 6.33730863203092E-02 
1662	 6.34665454671839E-02 
1663	 6.40858519993877E-02 
1664	 6.42271812510536E-02 
1665	 6.35372704897698E-02 
1666	 6.30250906804146E-02 
1667	 6.26266843261837E-02 
1668	 6.36979774427441E-02 
1669	 6.39711395313523E-02 
1670	 6.45995900282446E-02 
1671	 6.50303862561817E-02 
1672	 0.064231206111536 
1673	 6.40996587475632E-02 
1674	 6.47502058329864E-02 
1675	 6.45597114347862E-02 
1676	 6.38923994312033E-02 
1677	 6.36943577653259E-02 
1678	 0.063853768368233 
1679	 6.38088080595381E-02 
1680	 6.41206130619883E-02 
1681	 6.40540828949529E-02 
1682	 0.063630040376481 
1683	 6.42678324316897E-02 
1684	 6.42787255716032E-02 
1685	 6.42527953895965E-02 
1686	 6.51614022788123E-02 
1687	 6.48706872391794E-02 
1688	 6.41525473442871E-02 
1689	 6.38650123568526E-02 
1690	 6.32450577007376E-02 
1691	 6.34229327357142E-02 
1692	 6.42626473734443E-02 
1693	 6.43017360896727E-02 
1694	 6.41641627799955E-02 
1695	 0.063943088486323 
1696	 6.33532982310711E-02 
1697	 6.36879348419302E-02 
1698	 6.43380516461647E-02 
1699	 6.44418310981293E-02 
1700	 6.51177293457408E-02 
1701	 6.52583828732396E-02 
1702	 6.39021545354574E-02 
1703	 6.26736002166594E-02 
1704	 6.25673430668064E-02 
1705	 0.063352534696213 
1706	 6.39444133752588E-02 
1707	 6.35908371179832E-02 
1708	 6.30757815110834E-02 
1709	 6.31877076335116E-02 
1710	 6.32978899749977E-02 
1711	 6.35474464839086E-02 
1712	 6.38258329063599E-02 
1713	 6.21037834866735E-02 
1714	 6.16982103732631E-02 
1715	 6.35664386868545E-02 
1716	 6.31464737844866E-02 
1717	 6.28453867017137E-02 
1718	 6.26898219078627E-02 
1719	 6.32464377530257E-02 
1720	 6.40086153169237E-02 
1721	 6.28799697778374E-02 
1722	 6.21499995424663E-02 
1723	 0.062471750433696 
1724	 6.19904714148686E-02 
1725	 6.22544660209752E-02 
1726	 6.28239380286739E-02 
1727	 0.062261472019012 
1728	 6.24157628269523E-02 
1729	 6.35493397989755E-02 
1730	 6.41747717070352E-02 
1731	 6.37653483966654E-02 
1732	 6.35897639712141E-02 
1733	 6.33695029182268E-02 
1734	 6.33475357877726E-02 
1735	 6.49976991817716E-02 
1736	 6.50225650935344E-02 
1737	 6.41068166062808E-02 
1738	 6.43759709654385E-02 
1739	 0.062560171279723 
1740	 6.14237013198148E-02 
1741	 6.19334283364803E-02 
1742	 6.08280471580738E-02 
1743	 6.15101294239018E-02 
1744	 6.32172464102626E-02 
1745	 6.17217144656812E-02 
1746	 6.25403864767491E-02 
1747	 6.31292409067849E-02 
1748	 6.26082772870184E-02 
1749	 0.062524144464498 
1750	 6.20709310697982E-02 
1751	 6.21178125867903E-02 
1752	 6.35425025404922E-02 
1753	 6.44386341532432E-02 
1754	 6.61425469037093E-02 
1755	 6.49907800358961E-02 
1756	 5.99056476831569E-02 
1757	 6.11814882269388E-02 
1758	 6.20593673900529E-02 
1759	 6.21107416680913E-02 
1760	 6.42428213556791E-02 
1761	 6.33100197628131E-02 
1762	 6.15800669647262E-02 
1763	 6.40540660707061E-02 
1764	 6.45443489662083E-02 
1765	 6.21308017704578E-02 
1766	 6.15797233237894E-02 
1767	 6.14069256562018E-02 
1768	 6.06837437430687E-02 
1769	 6.25011420873756E-02 
1770	 6.44497254148743E-02 
1771	 6.39588553361151E-02 
1772	 6.66082496204571E-02 
1773	 6.90240055076288E-02 
1774	 6.62984286302455E-02 
1775	 0.063798361579696 
1776	 6.21123756719917E-02 
1777	 5.98654585124157E-02 
1778	 5.89832101593288E-02 
1779	 5.99375295627525E-02 
1780	 5.77035554366465E-02 
1781	 5.18169092310191E-02 
1782	 5.13531455446438E-02 
1783	 5.51822988967553E-02 
1784	 5.60417257677049E-02 
1785	 5.78310460523464E-02 
1786	 6.00288280091957E-02 
1787	 5.80801663938228E-02 
1788	 5.89836563140982E-02 
1789	 6.88840998181614E-02 
1790	 5.65698761597975E-02 
1791	 5.12615874711923E-02 
1792	 0.048372168965761 
1793	 4.35094050190227E-02 
1794	 5.62285193373748E-02 
1795	 6.11186271076355E-02 
1796	 4.88026075125015E-02 
1797	 5.33313770636875E-02 
1798	 5.58620567846171E-02 
1799	 4.23133749493992E-02 
1800	 0.038121783879455 
1801	 4.05493100461568E-02 
1802	 6.62015293389656E-02 
1803	 8.46022687364087E-02 
1804	 0.130699044949595 
1805	 0.144066334672453 
1806	 3.44739312187414E-02 
1807	 2.47425932026486E-02 
1808	 0.148002176228125 
1809	 0.126362984421442 
1810	 0.159497769620712 
1811	 0.111215394185409 
1812	-0.255115521994262 
1813	-0.395860609426155 
1814	-0.695717234986058 
1815	-0.574969258679543 
1816	 0.162049760458415 
1817	 2.70465604410062E-02 
1818	 3.25220530134255E-02 
1819	-0.364109277201615 
1820	-0.764681016783694 
1821	-0.370397198084703 
1822	-0.175081744103217 
1823	 0.11395613377107 
1824	 0.29458782500463 
1825	-11.0086867439768 
1826	-3.76875749904871 
1827	-1.57156541418653 
1828	-1.14123975006839 
1829	-2.53594650241459 
1830	-0.932957655212638 
1831	-1.60917163446231 
1832	-0.852412304793571 
1833	 0.723010017858895 
1834	-0.128786645436475 
1835	-1.29825713540413 
1836	-1.76218976634438 
1837	-0.777095549914361 
1838	-1.16769834189004 
1839	-116.435201308814 
1840	 5.85600334955785 
1841	 4.62675783733894 
1842	 30.8534333624678 
1843	 98.325094019895 
1844	-1.83159802312657 
1845	-1.60650780038393 
1846	 2.46105695312836 
1847	 1.79333084489661 
1848	-1.07402493883163 
1849	 0.341243077492978 
1850	 0.725728109893846 
1851	 1.25427476413124 
1852	 4.64339036999494 
1853	 0.460903030985466 
1854	 1.39300785054724 
1855	 13.4547666608953 
1856	 18.8869376863396 
1857	 5.03787684561126 
1858	 2.95478375430391 
1859	 1.58407628804176 
1860	 9.73571496142344E-02 
1861	-0.246411300321172 
1862	-0.265502508029419 
1863	 0.208156093878215 
1864	-0.429446478089131 
1865	-0.403339668131679 
1866	-1.84785468375661 
1867	-1.50297918039024 
1868	-0.521961180857134 
1869	-0.66274668172303 
1870	-14.6331602419792 
1871	 1.22764938841169 
1872	 0.152438249656685 
1873	-1.01671576923282 
1874	-3.02028355423941 
1875	-4.07389855094501 
1876	-3.4247910405842 
1877	-1.07707923568484 
1878	-0.708646370223801 
1879	-0.774448503037535 
1880	-0.624687350640726 
1881	 7.97267915690529E-03 
1882	 3.33533321346587 
1883	 3.22756315303207 
1884	 5.44829697819254 
1885	 3.28695918591258 
1886	 2.8460827377505 
1887	 1.71461066353971 
1888	 0.989012450515611 
1889	 0.692985063824977 
1890	-8.60475215378647E-02 
1891	-0.243704850695495 
1892	 0.996854782071188 
1893	 0.169364724832591 
1894	 0.267506873988286 
1895	 0.723149855087484 
1896	-7.37066175890177E-02 
1897	-0.158995817410805 
1898	-0.689945534741422 
1899	-3.36630117691121 
1900	 6.50546975374368 
1901	-4.25920524279875 
1902	 2.68042568066061E-02 
1903	 2.73502045535533 
1904	-2.00677494024099 
1905	 11.4034227614782 
1906	-3.82635620761584 
1907	-1.0639748642341 
1908	-1.84117563527496 
1909	-0.621717378659205 
1910	 0.229019670709804 
1911	 0.295694950836669 
1912	 0.733892687140621 
1913	 0.993734743491958 
1914	 0.853441417125267 
1915	 1.15672303636552 
1916	 3.55309257152136 
1917	-5.45876978746723 
1918	-7.39625519752457 
1919	-3.00100919271853 
1920	-3.52607145965816 
1921	-136.066112510034 
1922	-1.68263631749998 
1923	-0.449929133383952 
1924	-0.329149257814199 
1925	-1.65387627055729E-02 
1926	 6.85780888157639E-03 
1927	-0.125223841033127 
1928	-1.29191090075134 
1929	-2.62479270047493 
1930	-1.21907485397595 
1931	-0.886425529288351 
1932	-0.226361795554706 
1933	-0.3277123676791 
1934	-0.20888619620919 
1935	-8.09484278250344E-03 
1936	 0.308745343638781 
1937	 0.695532172437413 
1938	 0.43001342916791 
1939	 0.262492971018647 
1940	-1.11216131352802E-02 
1941	 1.70288808917172E-02 
1942	-0.065070705917191 
1943	-4.34843792989387E-02 
1944	 5.90356788861961E-02 
1945	-5.40990666175414E-02 
1946	-0.038266142661423 
1947	-5.20009463628872E-02 
1948	-0.208091563924059 
1949	-0.165730868138827 
1950	-0.213457393565808 
1951	-0.341530085815916 
1952	-0.30337797626111 
1953	-0.13691370495762 
1954	-9.84935023488055E-02 
1955	-0.106792166590133 
1956	-1.13710031971987E-03 
1957	 3.56336329430352E-02 
1958	 7.89422814683849E-02 
1959	 0.110857392756266 
1960	 0.100591581443656 
1961	 8.72306078612715E-02 
1962	 5.12053988742266E-02 
1963	 2.66946606556319E-02 
1964	 1.93436133469588E-02 
1965	 1.22359915650392E-02 
1966	 8.87303118888583E-03 
1967	 7.03202899271632E-03 
1968	 1.52011536093886E-02 
1969	 2.58436466912668E-02 
1970	 2.88749976732122E-02 
1971	 3.95725019166492E-02 
1972	 4.55646786005666E-02 
1973	 4.38911910139913E-02 
1974	 5.09341357099706E-02 
1975	 5.36534743289464E-02 
1976	 5.17868193789036E-02 
1977	 5.17449461425231E-02 
1978	 4.38241833111581E-02 
1979	 4.09394893905933E-02 
1980	 3.72293902818386E-02 
1981	 4.09190042702229E-02 
1982	 4.47431483736186E-02 
1983	 5.10037755337648E-02 
1984	 5.55961883653178E-02 
1985	 5.30362044873608E-02 
1986	 4.81648343926056E-02 
1987	 4.92070984410678E-02 
1988	 5.12311789812406E-02 
1989	 4.95629241032624E-02 
1990	 5.19037299384849E-02 
1991	 5.41671657809796E-02 
1992	 5.66406018458486E-02 
1993	 6.22921910024554E-02 
1994	 6.38801106623779E-02 
1995	 6.58893985335587E-02 
1996	 6.06171316898989E-02 
1997	 5.05532342891171E-02 
1998	 4.75312508228622E-02 
1999	 4.84806016793936E-02 
2000	 5.29381053231422E-02 
2001	 5.41443627801894E-02 
2002	 5.12336569529993E-02 
2003	 5.05209526572369E-02 
2004	 3.98304074035442E-02 
2005	 3.80973725357613E-02 
2006	 3.63779646459558E-02 
2007	 3.58450403127363E-02 
2008	 4.10059079398911E-02 
2009	 4.05864016042113E-02 
2010	 3.85494493542427E-02 
2011	 4.10632923327829E-02 
2012	 4.14469560976237E-02 
2013	 4.24003329626583E-02 
2014	 4.92813071049363E-02 
2015	 5.19700329424915E-02 
2016	 5.08682588217143E-02 
2017	 0.052676026544066 
2018	 5.97218943277283E-02 
2019	 6.37144419717408E-02 
2020	 6.47426439362656E-02 
2021	 6.61303866975373E-02 
2022	 6.49767722665101E-02 
2023	 5.99238630309097E-02 
2024	 5.86037320117672E-02 
2025	 0.060274750557175 
2026	 6.02115109393827E-02 
2027	 5.90211011841133E-02 
2028	 0.059811038821758 
2029	 0.061717593830479 
2030	 5.97512300800179E-02 
2031	 5.86507639689131E-02 
2032	 5.96081403295217E-02 
2033	 5.99950023991737E-02 
2034	 5.93871375024977E-02 
2035	 0.058502496638226 
2036	 0.057812648631783 
2037	 5.62013607663071E-02 
2038	 5.52249226956528E-02 
2039	 5.49236530153522E-02 
2040	 5.50418400005428E-02 
2041	 5.52835209418982E-02 
2042	 5.64865574767943E-02 
2043	 5.77488335940773E-02 
2044	 5.97026301187381E-02 
2045	 6.08197125395923E-02 
2046	 6.12731353398499E-02 
2047	 5.96148964586731E-02 
2048	 5.62670712758113E-02 
2049	 5.57394655707575E-02 
2050	 5.64426417890318E-02 
2051	 5.55506594750285E-02 
2052	 5.81058225614601E-02 
2053	 6.13590157350398E-02 
2054	 5.94453951667616E-02 
2055	 5.96468321046536E-02 
2056	 5.92849039227076E-02 
2057	 5.47064937187996E-02 
2058	 5.20091406047468E-02 
2059	 5.08682151155789E-02 
2060	 0.0519820965637 
2061	 5.35159983845021E-02 
2062	 5.71008687635377E-02 
2063	 6.07752324553995E-02 
2064	 6.20875950016708E-02 
2065	 5.97068878619309E-02 
2066	 5.89480602287171E-02 
2067	 5.87819298871273E-02 
2068	 5.78540709715028E-02 
2069	 5.91369797350942E-02 
2070	 0.059585010763575 
2071	 5.93772604826588E-02 
2072	 5.82863020376755E-02 
2073	 5.77994002319927E-02 
2074	 5.58553312967423E-02 
2075	 5.46729822248774E-02 
2076	 5.47803645907368E-02 
2077	 5.52514191647923E-02 
2078	 5.51797466437991E-02 
2079	 5.65104406685895E-02 
2080	 5.93072639236716E-02 
2081	 6.11015504660357E-02 
2082	 6.39351648281816E-02 
2083	 6.31390881488817E-02 
2084	 6.07756419326273E-02 
2085	 6.07764987409874E-02 
2086	 6.04770270796126E-02 
2087	 5.91242789852396E-02 
2088	 5.89919462527103E-02 
2089	 5.92382463124125E-02 
2090	 5.83526298968938E-02 
2091	 5.90402490950177E-02 
2092	 0.058886538154394 
2093	 5.86364276335182E-02 
2094	 5.77399620263355E-02 
2095	 5.60101044644886E-02 
2096	 5.53747407028525E-02 
2097	 5.59508805336642E-02 
2098	 5.49093766030301E-02 
2099	 0.053020387880743 
2100	 5.13948720606593E-02 
2101	 5.04330920976174E-02 
2102	 5.11439802798334E-02 
2103	 5.46365179387535E-02 
2104	 5.64326042044112E-02 
2105	 5.77843296289404E-02 
2106	 0.060250430206887 
2107	 5.98148735701075E-02 
2108	 5.99394542522704E-02 
2109	 6.07390930379727E-02 
2110	 5.83587796379037E-02 
2111	 5.70601315451466E-02 
2112	 5.69772085586546E-02 
2113	 5.79986442545301E-02 
2114	 6.04568196012245E-02 
2115	 6.17500714281767E-02 
2116	 0.065020613962249 
2117	 0.06568140636642 
2118	 0.063736981726067 
2119	 6.26490954839855E-02 
2120	 0.061326627381707 
2121	 0.059126093209734 
2122	 5.63785056249874E-02 
2123	 5.37728597249088E-02 
2124	 5.35444556533594E-02 
2125	 5.38125361130485E-02 
2126	 5.69585809216812E-02 
2127	 0.059284876397476 
2128	 6.11484747916557E-02 
2129	 6.45856066142027E-02 
2130	 6.37771068465865E-02 
2131	 6.13316850723222E-02 
2132	 5.94335910029882E-02 
2133	 5.72046489240094E-02 
2134	 5.63391026485751E-02 
2135	 5.76509456199322E-02 
2136	 5.86145553841722E-02 
2137	 5.95951205400272E-02 
2138	 6.06919156509821E-02 
2139	 6.34338086674237E-02 
2140	 0.064941182863337 
2141	 6.57011357183773E-02 
2142	 0.065763987929747 
2143	 6.51011613827446E-02 
2144	 6.37825677424314E-02 
2145	 6.30742033425898E-02 
2146	 6.36057876984491E-02 
2147	 6.34503919158102E-02 
2148	 6.34260631690786E-02 
2149	 6.30991735528589E-02 
2150	 6.20917428383542E-02 
2151	 6.16322185443598E-02 
2152	 6.23533550435422E-02 
2153	 6.38417674257481E-02 
2154	 6.33603098410809E-02 
2155	 6.20003250784731E-02 
2156	 6.17902255137189E-02 
2157	 6.15102030735686E-02 
2158	 6.14832601314158E-02 
2159	 6.04028194837225E-02 
2160	 5.77093596912264E-02 
2161	 0.056913475572412 
2162	 5.59244893677304E-02 
2163	 5.54393384527268E-02 
2164	 0.058088967438109 
2165	 5.95211675797281E-02 
2166	 6.04796563318988E-02 
2167	 5.96187330368894E-02 
2168	 5.80587098154126E-02 
2169	 5.64181705649141E-02 
2170	 5.37397391747555E-02 
2171	 4.80875544426039E-02 
2172	 4.67035130060857E-02 
2173	 4.66129737616906E-02 
2174	 0.046866490434645 
2175	 5.20229206353981E-02 
2176	 5.52634280141344E-02 
2177	 5.43007050149753E-02 
2178	 0.054472457599601 
2179	 5.32751179982998E-02 
2180	 5.23249421681607E-02 
2181	 5.47546258983541E-02 
2182	 5.36783179257421E-02 
2183	 5.01777453004534E-02 
2184	 5.12504499817848E-02 
2185	 0.053206773218727 
2186	 5.32978848811486E-02 
2187	 5.53954626452856E-02 
2188	 5.57493422760916E-02 
2189	 5.05639105017591E-02 
2190	 5.13935096808931E-02 
2191	 5.72982001531922E-02 
2192	 5.86019702418378E-02 
2193	 6.12205536705577E-02 
2194	 0.06146854436494 
2195	 5.65757780828059E-02 
2196	 0.055381261013673 
2197	 5.48675782458595E-02 
2198	 5.39434647682292E-02 
2199	 5.38256739997245E-02 
2200	 5.51024706835069E-02 
2201	 5.27421899932204E-02 
2202	 5.19512513136857E-02 
2203	 4.95137360785837E-02 
2204	 4.76656266779059E-02 
2205	 0.048854065711515 
2206	 5.28921763623345E-02 
2207	 5.80953314337921E-02 
2208	 5.81580620163825E-02 
2209	 5.20283661817584E-02 
2210	 4.90767229542696E-02 
2211	 5.45416919235801E-02 
2212	 5.68828505856643E-02 
2213	 6.08661407092415E-02 
2214	 6.71758487735381E-02 
2215	 6.05927311974231E-02 
2216	 0.055173154537007 
2217	 5.52269705645825E-02 
2218	 5.86693129055995E-02 
2219	 5.75484822940772E-02 
2220	 5.93466535797093E-02 
2221	 5.90506462995102E-02 
2222	 5.22862801866183E-02 
2223	 5.25050209813432E-02 
2224	 5.81384797441495E-02 
2225	 6.06768527538245E-02 
2226	 6.57937665512792E-02 
2227	 6.60082670125117E-02 
2228	 6.37424079281601E-02 
2229	 5.96522755874031E-02 
2230	 4.69196969528775E-02 
2231	 4.38966666771212E-02 
2232	 4.58891673537096E-02 
2233	 4.59364850439737E-02 
2234	 4.95576131270205E-02 
2235	 0.055790940132239 
2236	 5.44788123301798E-02 
2237	 5.61065744988643E-02 
2238	 6.05407844496286E-02 
2239	 5.86835881418341E-02 
2240	 5.87689346814636E-02 
2241	 5.82236160550346E-02 
2242	 5.61520179418688E-02 
2243	 6.02871037011422E-02 
2244	 6.03615250657507E-02 
2245	 5.85490910101579E-02 
2246	 5.80461783791003E-02 
2247	 5.27570692840988E-02 
2248	 5.52263588155696E-02 
2249	 0.058917800788513 
2250	 0.054666775574778 
2251	 5.69000896290893E-02 
2252	 5.74044693029409E-02 
2253	 4.81028381329196E-02 
2254	 4.67800367628852E-02 
2255	 5.22980019849721E-02 
2256	 5.28478869638383E-02 
2257	 5.73580742370122E-02 
2258	 6.29809749677004E-02 
2259	 0.059047616170171 
2260	 0.056208219050769 
2261	 4.94795863664601E-02 
2262	 4.83025670789963E-02 
2263	 0.046858757225683 
2264	 4.79834407633559E-02 
2265	 5.78844039502785E-02 
2266	 5.93106278576233E-02 
2267	 5.60480717580585E-02 
2268	 5.90595203302817E-02 
2269	 6.08901750305886E-02 
2270	 5.79318233198662E-02 
2271	 5.85276490333095E-02 
2272	 0.055058291693809 
2273	 4.07038308290344E-02 
2274	 3.86710386990626E-02 
2275	 4.20798116964534E-02 
2276	 4.20503474623932E-02 
2277	 4.78542273327761E-02 
2278	 5.20203720156052E-02 
2279	 5.26439766938153E-02 
2280	 5.57378460845219E-02 
2281	 6.23588169733825E-02 
2282	 6.48675322239511E-02 
2283	 6.47765755847883E-02 
2284	 6.99162261931194E-02 
2285	 7.26254678824303E-02 
2286	 6.84216200539864E-02 
2287	 5.87307153883686E-02 
2288	 5.91960146388261E-02 
2289	 6.25997051786165E-02 
2290	 5.56039944729471E-02 
2291	 5.60845164125888E-02 
2292	 5.48331499126085E-02 
2293	 4.35895446622066E-02 
2294	 4.03288140326897E-02 
2295	 4.13952211461287E-02 
2296	 3.27344019116767E-02 
2297	 2.75655188871917E-02 
2298	 3.30893277700997E-02 
2299	 3.35545876251235E-02 
2300	 3.45692404412413E-02 
2301	 3.51659550629232E-02 
2302	 3.31587169874691E-02 
2303	 3.65796506850542E-02 
2304	 4.13025274348777E-02 
2305	 4.53879518761914E-02 
2306	 4.81939207153704E-02 
2307	 5.02748324673832E-02 
2308	 4.81189373458978E-02 
2309	 4.53048514232577E-02 
2310	 4.39644138654113E-02 
2311	 3.52284891753421E-02 
2312	 2.94583821310698E-02 
2313	 3.00287640846866E-02 
2314	 2.74282700933322E-02 
2315	 3.07908475145075E-02 
2316	 3.57768323985428E-02 
2317	 4.31977184529802E-02 
2318	 0.057539039155317 
2319	 7.07691329666933E-02 
2320	 7.26053439600323E-02 
2321	 5.08735075827093E-02 
2322	 4.07518827393136E-02 
2323	 3.09955794427684E-02 
2324	 2.37842431165086E-02 
2325	 4.37696557298514E-02 
2326	 4.79528111392288E-02 
2327	 5.20232775219753E-02 
2328	 5.32850817157772E-02 
2329	 3.59776132212423E-02 
2330	 0.041165112148863 
2331	 5.10041552617858E-02 
2332	 4.73279382550275E-02 
2333	 5.93083130097398E-02 
2334	 5.57957908180968E-02 
2335	 0.035290559913947 
2336	 3.84432214070467E-02 
2337	 3.69087174140378E-02 
2338	 0.036211345062216 
2339	 4.80575060668507E-02 
2340	 5.40169300795258E-02 
2341	 5.58280337528251E-02 
2342	 5.71828447108365E-02 
2343	 4.75211245623381E-02 
2344	 4.08828419990557E-02 
2345	 5.97642197288611E-02 
2346	 6.99982789768211E-02 
2347	 5.87548758071545E-02 
2348	 4.85843245298126E-02 
2349	 2.77302037121375E-02 
2350	-2.63272763446421E-03 
2351	 1.54781265980416E-02 
2352	 4.74240663354816E-02 
2353	 5.77696392251963E-02 
2354	 7.87118558904681E-02 
2355	 6.12888630277533E-02 
2356	 3.28262745645872E-02 
2357	 2.69765953814555E-02 
2358	 5.03770754493172E-03 
2359	-0.009374197981342 
2360	-0.01740666578798 
2361	-1.27602439975331E-02 
2362	 9.88539214438227E-03 
2363	 3.0359290856225E-03 
2364	-2.21210345750849E-02 
2365	-2.06561322601985E-02 
2366	-2.73579847290413E-02 
2367	-2.90627540378122E-02 
2368	 1.8989485689013E-03 
2369	 3.99397135094594E-03 
2370	 2.00601301167868E-04 
2371	 7.03923945336066E-03 
2372	 5.46506807843691E-03 
2373	 2.31429823591525E-02 
2374	 4.77595566035209E-03 
2375	-4.10121575969906E-02 
2376	-3.66047028325272E-02 
2377	 1.89851989700108E-02 
2378	 8.79430536650881E-02 
2379	 0.185877835798206 
2380	 0.248444008609036 
2381	 0.164489605752256 
2382	 5.11977941780226E-02 
2383	-8.85093539219051E-03 
2384	-2.17260850589949E-02 
2385	 2.89222139077982E-02 
2386	 7.29690502304737E-02 
2387	 0.148959797106166 
2388	 0.133437365055169 
2389	 3.59722811903202E-02 
2390	-3.31098070730626E-03 
2391	-8.45113288176727E-02 
2392	-0.17777493938971 
2393	-0.178117855897967 
2394	-7.91941900574067E-02 
2395	-1.64419466848395E-02 
2396	-1.87707695800857E-02 
2397	-6.52302913044254E-02 
2398	-0.183435755184261 
2399	-0.176337441712346 
2400	-0.146604992965207 
2401	-0.152465045878723 
2402	-0.150317298667316 
2403	-0.237365969389231 
2404	-0.254563588508372 
2405	-0.129044677801722 
2406	-6.15883149411391E-03 
2407	 2.11548348614133E-02 
2408	 0.130446202382995 
2409	 0.195180785256015 
2410	 0.159319782961294 
2411	 2.20765482160668E-02 
2412	-0.179438034015446 
2413	-0.173947285186801 
2414	-0.236450958271557 
2415	 1.96810165757931E-02 
2416	 0.217422478306254 
2417	 7.22425688748313E-02 
2418	-3.75925065676749E-02 
2419	-0.149320858615174 
2420	-0.323554634548405 
2421	-0.380964681639016 
2422	-0.408231549235298 
2423	-0.676337802367464 
2424	-0.459172612345123 
2425	 0.344398119541436 
2426	 0.589644603543588 
2427	 0.916431558133978 
2428	 0.123563975069289 
2429	-0.565569837058896 
2430	-0.767397130311204 
2431	-0.932513829690172 
2432	-1.13524725846097 
2433	-1.62097369823939 
2434	-2.25313679734063 
2435	-1.00138711259419 
2436	-0.460695638815746 
2437	-0.858611860025641 
2438	-0.959599603354518 
2439	-0.650144892805475 
2440	-1.01951376281465 
2441	-6.14117023185942 
2442	 3.0460444202646 
2443	 0.902772873362926 
2444	 1.46405436054956 
2445	 4.43286023617355 
2446	-5.5437277053373 
2447	-0.812293546444784 
2448	 0.17004697310743 
2449	 0.38518168714628 
2450	 0.270583186690853 
2451	-3.46782006402853 
2452	-7.50268705146816 
2453	-4.26821621280784 
2454	-0.400290631750994 
2455	 0.411929364693173 
2456	 0.549169931744112 
2457	 1.17820800495589 
2458	 0.316266047102418 
2459	 6.98822601656673E-03 
2460	 0.209038269947475 
2461	 4.3167159635585 
2462	 5.35457233482846 
2463	 2.90932958194924 
2464	-0.703518076370876 
2465	-0.208099462109364 
2466	-0.277131902073352 
2467	-1.44049976056319 
2468	 7.80227600353066 
2469	 5.30326437681654 
2470	-2.6456427900503 
2471	-1.59722614764268 
2472	-2.22506381202479 
2473	-1.43333632486878 
2474	-1.40736863023051 
2475	-1.20315948712388 
2476	-0.277920846050851 
2477	 0.383861032994216 
2478	 1.12627474703016 
2479	 1.41044429943661 
2480	 1.18465203735745 
2481	 2.77223471706257 
2482	 15.4659513880395 
2483	 3.47515063361875 
2484	-6.54051957815737 
2485	-1.3221522628047 
2486	-2.51333459870165 
2487	 14.9954780759042 
2488	-3.018355620267 
2489	-1.17333259780579 
2490	-1.0288634755432 
2491	-1.16315157449645 
2492	 0.642057591031804 
2493	-26.7004636330538 
2494	 9.8062675504825 
2495	-1.43535194515445 
2496	 22.4418073905486 
2497	 2468.13411427499 
2498	-1.9987647108142 
2499	-5.12488260835926 
2500	-0.616486004859705 
