Wavelength	rt0713east_close200001.asd
350	 6.81036974145865E-02 
351	 6.79298407754042E-02 
352	 6.71133066027345E-02 
353	 6.65592706894811E-02 
354	 6.64261953723304E-02 
355	 6.52012381994078E-02 
356	 6.53106556003576E-02 
357	 6.61202077781109E-02 
358	 0.06632176333078 
359	 6.62428047600796E-02 
360	 6.61606439477673E-02 
361	 6.60152143400457E-02 
362	 6.55893563136563E-02 
363	 6.55966437620236E-02 
364	 6.55856436092052E-02 
365	 6.54138072706052E-02 
366	 6.56343310650556E-02 
367	 6.52980057857585E-02 
368	 6.52473130164736E-02 
369	 6.61083384412564E-02 
370	 6.60642140225079E-02 
371	 6.61685206267581E-02 
372	 6.62284006886304E-02 
373	 6.55563606176416E-02 
374	 6.59444699590926E-02 
375	 6.62816219208637E-02 
376	 6.60170029036767E-02 
377	 6.57914217823861E-02 
378	 6.62933940706646E-02 
379	 6.67308454228127E-02 
380	 6.64242638930941E-02 
381	 6.61592665667396E-02 
382	 6.63929247679808E-02 
383	 6.68043466719169E-02 
384	 6.67668298622305E-02 
385	 6.65488340271428E-02 
386	 6.68796688257806E-02 
387	 6.74234326546911E-02 
388	 0.066756489789599 
389	 6.70970949821048E-02 
390	 6.76294994313824E-02 
391	 6.75868999469764E-02 
392	 6.78619246139346E-02 
393	 6.76944998945608E-02 
394	 6.75772851665651E-02 
395	 6.81105013505895E-02 
396	 0.067956094832769 
397	 6.77745274903552E-02 
398	 6.79100715524042E-02 
399	 0.068297529631017 
400	 6.83696860513216E-02 
401	 6.83192938336653E-02 
402	 6.83357296708378E-02 
403	 6.82779398604659E-02 
404	 6.84757434994473E-02 
405	 6.88191333857349E-02 
406	 6.90369000002786E-02 
407	 6.89874637497383E-02 
408	 0.069069306587013 
409	 0.069316739518519 
410	 6.93905850417415E-02 
411	 6.94182594993949E-02 
412	 6.94452301424333E-02 
413	 6.95105666454779E-02 
414	 6.96707160433097E-02 
415	 6.98616964216041E-02 
416	 7.01446739104368E-02 
417	 7.05427470335268E-02 
418	 7.05225313377443E-02 
419	 7.06586546528752E-02 
420	 7.10109740820705E-02 
421	 7.10289792796346E-02 
422	 7.12311239256107E-02 
423	 7.14708221414212E-02 
424	 7.16261937279097E-02 
425	 7.20574980211676E-02 
426	 7.23360656931767E-02 
427	 7.25587760225762E-02 
428	 7.29880033843941E-02 
429	 7.30481141009223E-02 
430	 7.34332758415239E-02 
431	 7.40885410668057E-02 
432	 7.39826254691856E-02 
433	 7.41452722562065E-02 
434	 7.46263756134624E-02 
435	 7.51713268559098E-02 
436	 7.53158796005596E-02 
437	 7.55106701239502E-02 
438	 7.58943370895598E-02 
439	 7.63791946410439E-02 
440	 7.65886479327591E-02 
441	 7.68561479393215E-02 
442	 7.72761327448115E-02 
443	 7.74767142950689E-02 
444	 7.76948899966853E-02 
445	 7.80371895559664E-02 
446	 7.84862923311037E-02 
447	 7.86941802382713E-02 
448	 7.89953045953739E-02 
449	 7.93459201010738E-02 
450	 7.94568983542557E-02 
451	 7.97808819474436E-02 
452	 8.00631622913192E-02 
453	 8.01666821566137E-02 
454	 8.03987483087651E-02 
455	 8.06473138848519E-02 
456	 8.08953225030876E-02 
457	 0.081145608928333 
458	 8.13670737624165E-02 
459	 8.15483446288408E-02 
460	 8.17118981067359E-02 
461	 0.081910981623502 
462	 0.082181417495644 
463	 8.24068807686509E-02 
464	 0.08251028703669 
465	 8.25803701675298E-02 
466	 8.28144381083617E-02 
467	 8.31089197714258E-02 
468	 0.083250140185928 
469	 8.34950236444499E-02 
470	 8.36944501959475E-02 
471	 8.38100924083224E-02 
472	 8.39969458160134E-02 
473	 8.41178247532343E-02 
474	 8.43562067557976E-02 
475	 8.48061173743176E-02 
476	 8.49650859045883E-02 
477	 8.50811439540686E-02 
478	 8.52954964057904E-02 
479	 8.56456397855544E-02 
480	 8.59607322802942E-02 
481	 8.61444459279148E-02 
482	 8.62699029615715E-02 
483	 8.67421417355795E-02 
484	 8.70421800616537E-02 
485	 8.72320474550848E-02 
486	 8.75611414460604E-02 
487	 8.80110363217541E-02 
488	 8.83954620956987E-02 
489	 8.86645866150947E-02 
490	 8.89131191489966E-02 
491	 8.91875308013174E-02 
492	 8.95889863025753E-02 
493	 9.01017594793101E-02 
494	 9.03860624571324E-02 
495	 9.06815281684027E-02 
496	 9.10322867153988E-02 
497	 9.13848035740422E-02 
498	 9.17167181794775E-02 
499	 9.21814075418684E-02 
500	 9.27358080604126E-02 
501	 9.30112149959773E-02 
502	 9.33936569906286E-02 
503	 9.37927600018527E-02 
504	 9.40803606445962E-02 
505	 9.45367278781817E-02 
506	 9.50959871378177E-02 
507	 9.56213739037821E-02 
508	 9.59566229949007E-02 
509	 9.64253157439445E-02 
510	 9.69039477703305E-02 
511	 9.73104566882787E-02 
512	 9.78446916834576E-02 
513	 9.83673523506889E-02 
514	 9.88172625797911E-02 
515	 9.92052739599761E-02 
516	 9.98130390939138E-02 
517	 0.10048565026974 
518	 0.101038665716561 
519	 0.101317599839311 
520	 0.101819673306487 
521	 0.102453766494091 
522	 0.103014104590752 
523	 0.103393425469738 
524	 0.103903847657904 
525	 0.10452203978376 
526	 0.105010743158516 
527	 0.105645584673284 
528	 0.10626859770603 
529	 0.106793326584632 
530	 0.107398632176845 
531	 0.107979498400149 
532	 0.108564273651293 
533	 0.109182587027642 
534	 0.109566603677298 
535	 0.110130030844369 
536	 0.110912170796549 
537	 0.111487090960405 
538	 0.111993392884153 
539	 0.112574435854587 
540	 0.113278293733512 
541	 0.113835694875619 
542	 0.114300094776565 
543	 0.114835882357298 
544	 0.115618506461623 
545	 0.116130098715719 
546	 0.11673416892426 
547	 0.11754565493548 
548	 0.117965132868075 
549	 0.118546597486926 
550	 0.119207681349385 
551	 0.119713322786727 
552	 0.120317422336551 
553	 0.120881814247282 
554	 0.121393163730042 
555	 0.121996984050575 
556	 0.12263438173722 
557	 0.123246279370406 
558	 0.123802126853625 
559	 0.124411111185479 
560	 0.124835336065157 
561	 0.125192264118465 
562	 0.125781233077294 
563	 0.126257924901138 
564	 0.126698656751025 
565	 0.127141683650341 
566	 0.127433779951082 
567	 0.127805303243419 
568	 0.128199871918842 
569	 0.128498713811078 
570	 0.128898019639331 
571	 0.129260775983194 
572	 0.129582499949369 
573	 0.130012660768843 
574	 0.130262136372949 
575	 0.130440491511131 
576	 0.130711442554192 
577	 0.131129689299113 
578	 0.131306335150274 
579	 0.131389341704695 
580	 0.131804292791173 
581	 0.132127055371428 
582	 0.132355603711873 
583	 0.132481093861639 
584	 0.132364285913613 
585	 0.132290535474384 
586	 0.132197323436249 
587	 0.131927052760337 
588	 0.13158630921334 
589	 0.131475001122725 
590	 0.131634642520857 
591	 0.131805006892636 
592	 0.131751398861555 
593	 0.131582309630831 
594	 0.131457049416109 
595	 0.131441238555094 
596	 0.131310281437072 
597	 0.131122414008134 
598	 0.131063596077339 
599	 0.130840954033588 
600	 0.1306866461073 
601	 0.130691774215137 
602	 0.13060305571126 
603	 0.130493451174896 
604	 0.130433564608017 
605	 0.130472413122221 
606	 0.130522484158962 
607	 0.130576055624578 
608	 0.1306391666828 
609	 0.130724177147505 
610	 0.130707414818319 
611	 0.130701119497781 
612	 0.130794739947783 
613	 0.13086431716873 
614	 0.130902057641145 
615	 0.130907963657139 
616	 0.130905352261423 
617	 0.131029099331918 
618	 0.131174605681253 
619	 0.131243504747151 
620	 0.131180636764773 
621	 0.131158400099045 
622	 0.131166996904551 
623	 0.131159526829179 
624	 0.131241261793237 
625	 0.131255083132153 
626	 0.131184693602902 
627	 0.131155851285544 
628	 0.131147674301203 
629	 0.131247463334602 
630	 0.131465793355175 
631	 0.131596047744908 
632	 0.13156093500003 
633	 0.13147236763324 
634	 0.131511957836146 
635	 0.131541890285602 
636	 0.131614526539591 
637	 0.131747255988725 
638	 0.131889402449241 
639	 0.131974484677013 
640	 0.131904150899553 
641	 0.131682061441776 
642	 0.131713125164237 
643	 0.131717792226522 
644	 0.131548693257762 
645	 0.13119934410493 
646	 0.131003346193289 
647	 0.1307975982672 
648	 0.130553654324215 
649	 0.130823131165936 
650	 0.13076161491093 
651	 0.130530152767229 
652	 0.130570562587957 
653	 0.130362545198626 
654	 0.129956029141328 
655	 0.129494261657186 
656	 0.129252244908955 
657	 0.128946002395066 
658	 0.128699672964788 
659	 0.128600927579133 
660	 0.128395260980994 
661	 0.128197122555499 
662	 0.128049151209777 
663	 0.127941483159441 
664	 0.127774571717559 
665	 0.127543482389577 
666	 0.127299512058388 
667	 0.127171432369937 
668	 0.127084971734967 
669	 0.127036486320596 
670	 0.12703877270652 
671	 0.127080223188417 
672	 0.127119942974917 
673	 0.127148943507317 
674	 0.127193919913636 
675	 0.127378548129571 
676	 0.127441169635853 
677	 0.127320088756563 
678	 0.127662268351959 
679	 0.127878562862503 
680	 0.127987724264031 
681	 0.128237997645555 
682	 0.128387514268293 
683	 0.128576335804039 
684	 0.128733550813831 
685	 0.128453787683538 
686	 0.128323634485572 
687	 0.128383561337805 
688	 0.128500619939651 
689	 0.128787299857617 
690	 0.128754346140632 
691	 0.128421650695895 
692	 0.128131904932826 
693	 0.128035017480306 
694	 0.128172018915711 
695	 0.128371193443527 
696	 0.128254917364524 
697	 0.127962439923305 
698	 0.12748623720911 
699	 0.126891546398455 
700	 0.126567681708941 
701	 0.126316549647472 
702	 0.126056818378295 
703	 0.125813864779922 
704	 0.125504350690292 
705	 0.125040269912884 
706	 0.124423985106058 
707	 0.123795642176737 
708	 0.123206553776784 
709	 0.122537687307866 
710	 0.121660906039464 
711	 0.120812361542931 
712	 0.11987540442716 
713	 0.118701682860805 
714	 0.117093426034231 
715	 0.115270196584519 
716	 0.113286483398156 
717	 0.111417907174877 
718	 0.109682792417808 
719	 0.10862223249851 
720	 0.108048488455191 
721	 0.107321910947421 
722	 0.105896553606063 
723	 0.103707853084309 
724	 0.10147781626736 
725	 0.100293724266528 
726	 9.88785572550581E-02 
727	 9.71596348342537E-02 
728	 9.53143962841887E-02 
729	 9.32915616892747E-02 
730	 0.091385271642014 
731	 8.98419103194823E-02 
732	 0.088593132608945 
733	 8.70640820789238E-02 
734	 8.57169912556478E-02 
735	 8.46916009596534E-02 
736	 0.083617167601188 
737	 8.31024282528147E-02 
738	 8.28383582289881E-02 
739	 8.25015985871152E-02 
740	 8.23731025749608E-02 
741	 8.23451229320551E-02 
742	 8.22677728367098E-02 
743	 8.20312873261086E-02 
744	 8.19959756922167E-02 
745	 8.20803655450999E-02 
746	 8.21403644190221E-02 
747	 8.20163460807347E-02 
748	 0.081951582213264 
749	 8.19621820755086E-02 
750	 0.081990778012601 
751	 8.19615403347049E-02 
752	 8.18432458431224E-02 
753	 8.17176754872015E-02 
754	 8.17112779279703E-02 
755	 8.17710137227335E-02 
756	 8.17405427294971E-02 
757	 8.15461609267817E-02 
758	 8.11542705183144E-02 
759	 8.05622596376653E-02 
760	 0.079967568040799 
761	 7.99084279229728E-02 
762	 8.01569118469397E-02 
763	 8.06907661856682E-02 
764	 8.12152933928257E-02 
765	 8.15485869755835E-02 
766	 8.21221436139505E-02 
767	 8.23809955499124E-02 
768	 0.082373733454866 
769	 0.08269520742978 
770	 8.28833730703756E-02 
771	 8.30416678118835E-02 
772	 8.32889617053112E-02 
773	 8.34708646612275E-02 
774	 8.37899218870886E-02 
775	 8.40374885764642E-02 
776	 8.39776871334836E-02 
777	 8.43155923095715E-02 
778	 8.47366507919967E-02 
779	 8.50592251798623E-02 
780	 8.53201355591657E-02 
781	 8.55633210711642E-02 
782	 8.58148907619321E-02 
783	 8.60926249919421E-02 
784	 8.64192533961313E-02 
785	 8.66509175467185E-02 
786	 8.68337616112384E-02 
787	 8.70871995831669E-02 
788	 8.74857759792772E-02 
789	 8.78690515952622E-02 
790	 0.088221100985512 
791	 8.86724790535728E-02 
792	 8.94367460258368E-02 
793	 8.99152660943773E-02 
794	 8.99316937648452E-02 
795	 9.01299538954101E-02 
796	 9.05999860460573E-02 
797	 9.11812762342653E-02 
798	 9.16346156202163E-02 
799	 9.16976411850112E-02 
800	 9.17634966854933E-02 
801	 9.20426549188002E-02 
802	 9.25349607685973E-02 
803	 0.092717134085052 
804	 9.28905387726576E-02 
805	 0.093207946639796 
806	 9.35565283303971E-02 
807	 9.32413222021487E-02 
808	 9.27045318824723E-02 
809	 9.24246592290948E-02 
810	 9.23634501710648E-02 
811	 9.17327326688619E-02 
812	 9.07596228442569E-02 
813	 9.01254922752442E-02 
814	 8.97755826547307E-02 
815	 8.93277355365064E-02 
816	 8.86983970156112E-02 
817	 0.088122416670612 
818	 8.77912297013731E-02 
819	 8.76985985149599E-02 
820	 8.75029044347329E-02 
821	 8.64691113540653E-02 
822	 8.51051065586789E-02 
823	 8.37430359379576E-02 
824	 8.25551939308196E-02 
825	 8.14039410482708E-02 
826	 7.95946901238721E-02 
827	 7.77641433132109E-02 
828	 7.68461800034226E-02 
829	 7.51930577452296E-02 
830	 7.32616376113331E-02 
831	 7.17464569670208E-02 
832	 7.12868344973386E-02 
833	 7.08346510660818E-02 
834	 0.07014763662776 
835	 0.06930017280217 
836	 6.86168411051025E-02 
837	 6.82342788230007E-02 
838	 6.80504901846206E-02 
839	 6.78855081434552E-02 
840	 6.75325283028446E-02 
841	 6.71443299505478E-02 
842	 6.68938808579228E-02 
843	 6.68592243287573E-02 
844	 0.066725238045441 
845	 6.61033380768285E-02 
846	 6.55056421151849E-02 
847	 6.58348256244224E-02 
848	 6.56679778624569E-02 
849	 6.51891759278869E-02 
850	 0.064738559198955 
851	 6.45712854956804E-02 
852	 0.06428633329312 
853	 0.063991702863469 
854	 6.37811575810647E-02 
855	 6.34597119593611E-02 
856	 6.34350831913946E-02 
857	 6.33250459120836E-02 
858	 6.28445515377352E-02 
859	 6.28620278503136E-02 
860	 6.27113291674096E-02 
861	 6.23710555269674E-02 
862	 0.062144970751613 
863	 6.20804580599835E-02 
864	 6.20083473089679E-02 
865	 0.061574610924797 
866	 6.05433733938586E-02 
867	 0.061310733195183 
868	 6.13554218972073E-02 
869	 6.01539344801098E-02 
870	 6.05101661776451E-02 
871	 6.02717629459482E-02 
872	 5.98030639764746E-02 
873	 0.059586475985238 
874	 5.91638420318921E-02 
875	 5.87920397215067E-02 
876	 5.82620532633614E-02 
877	 5.75189766191815E-02 
878	 5.75506573366979E-02 
879	 5.75116611972969E-02 
880	 5.71876267398046E-02 
881	 5.67109033904088E-02 
882	 5.61031893184111E-02 
883	 5.58088839080125E-02 
884	 5.58033939189326E-02 
885	 5.56610512889778E-02 
886	 0.054927851259117 
887	 0.054622161565012 
888	 5.48699032295652E-02 
889	 5.46241271666053E-02 
890	 5.37909374090436E-02 
891	 5.31886135180891E-02 
892	 5.32156052488981E-02 
893	 5.30728858843619E-02 
894	 5.21433552865482E-02 
895	 5.12630711786707E-02 
896	 5.11390026213673E-02 
897	 0.050237084353061 
898	 4.99927882563628E-02 
899	 5.03564541797967E-02 
900	 5.05907614200421E-02 
901	 4.98810389342502E-02 
902	 4.98874244050495E-02 
903	 4.98936275117763E-02 
904	 4.87664831745152E-02 
905	 4.79101945928988E-02 
906	 4.85145941676358E-02 
907	 4.95502773829693E-02 
908	 0.048643839969698 
909	 4.77313285650585E-02 
910	 4.71626846196923E-02 
911	 4.70351257242216E-02 
912	 4.72635693966664E-02 
913	 4.76230222093399E-02 
914	 4.66285602503271E-02 
915	 0.045011451329903 
916	 4.55747332351744E-02 
917	 4.43847286006662E-02 
918	 4.34405868645832E-02 
919	 4.36274561076269E-02 
920	 4.33945338792674E-02 
921	 4.35173267928344E-02 
922	 4.32321219790336E-02 
923	 4.20374261005701E-02 
924	 4.05312749834175E-02 
925	 0.042146595045799 
926	 4.29319525731887E-02 
927	 3.90726327545358E-02 
928	 3.83395170110309E-02 
929	 3.90887340752637E-02 
930	 3.91553449413056E-02 
931	 3.64360110943596E-02 
932	 3.77267370091973E-02 
933	 4.38098129877255E-02 
934	 4.28296600213293E-02 
935	 2.92390305725702E-02 
936	 3.59707528159724E-02 
937	 4.21385396749762E-02 
938	 4.06246863546411E-02 
939	 3.30522881703744E-02 
940	 3.15132389964873E-02 
941	 3.03369101834136E-02 
942	 3.02727217348149E-02 
943	 3.38656995821485E-02 
944	 3.32557014252962E-02 
945	 3.29621969800472E-02 
946	 3.37877891299892E-02 
947	 0.034022466972004 
948	 3.49807346939872E-02 
949	 3.56188062509861E-02 
950	 3.55723362472852E-02 
951	 3.48410232949105E-02 
952	 3.14261084007537E-02 
953	 3.41759821050403E-02 
954	 0.034809424714869 
955	 2.08873649959083E-02 
956	 3.05752445742788E-02 
957	 3.40613908938184E-02 
958	 2.94302821743503E-02 
959	 3.40161144119855E-02 
960	 3.47700548963615E-02 
961	 3.24992666845069E-02 
962	 3.10260751747579E-02 
963	 3.32427852449343E-02 
964	 3.01188028562861E-02 
965	 3.11680945560792E-02 
966	 3.50972888562745E-02 
967	 3.39775465742152E-02 
968	 3.51950088802126E-02 
969	 3.49154127925594E-02 
970	 3.29317499664025E-02 
971	 3.26594158785658E-02 
972	 3.50067249158449E-02 
973	 3.26392523525794E-02 
974	 2.99918348362334E-02 
975	 3.95423704543668E-02 
976	 3.52758468482561E-02 
977	 3.14020111142525E-02 
978	 3.23360280245611E-02 
979	 3.09983951938049E-02 
980	 0.034618558298633 
981	 0.034903059608758 
982	 3.27561256069687E-02 
983	 3.56774389341995E-02 
984	 3.55485705919069E-02 
985	 3.43021735559794E-02 
986	 3.38383812294218E-02 
987	 0.034821300122772 
988	 3.53751406197526E-02 
989	 3.59251214771411E-02 
990	 3.62428654460746E-02 
991	 0.035498428133552 
992	 3.26274932753282E-02 
993	 3.45968958272901E-02 
994	 3.74840347376061E-02 
995	 3.24190174712215E-02 
996	 3.03561447138381E-02 
997	 3.42899891762356E-02 
998	 3.72382101920687E-02 
999	 3.12867090779581E-02 
1000	 3.53588586323271E-02 
1001	 2.87349523978689E-02 
1002	 2.92197237904956E-02 
1003	 2.95945288839636E-02 
1004	 3.02590954105873E-02 
1005	 3.04476390033246E-02 
1006	 3.03150844427074E-02 
1007	 3.05505969061739E-02 
1008	 3.04962798060526E-02 
1009	 3.02573141528181E-02 
1010	 2.96721497818692E-02 
1011	 2.91882682982064E-02 
1012	 2.90624652292232E-02 
1013	 2.89264022679651E-02 
1014	 2.89718822944653E-02 
1015	 2.97881502837292E-02 
1016	 0.029850850550883 
1017	 2.94174380444805E-02 
1018	 2.92177861266548E-02 
1019	 2.87221717641254E-02 
1020	 2.84468446143187E-02 
1021	 2.80140848352298E-02 
1022	 2.83591903154512E-02 
1023	 2.85642567905511E-02 
1024	 2.95787096249337E-02 
1025	 3.08261964301504E-02 
1026	 3.11540094647998E-02 
1027	 3.12594197689298E-02 
1028	 0.03083037856285 
1029	 3.07063311752829E-02 
1030	 3.04162904355143E-02 
1031	 3.01009022864927E-02 
1032	 2.96150831062971E-02 
1033	 2.96229096297275E-02 
1034	 2.97068516015667E-02 
1035	 2.98357570918198E-02 
1036	 3.06463963894949E-02 
1037	 0.03097866643802 
1038	 3.13517273946678E-02 
1039	 3.08046717475956E-02 
1040	 3.06309402778239E-02 
1041	 3.05427294064934E-02 
1042	 3.06329151175743E-02 
1043	 3.07845019706535E-02 
1044	 3.11138464482531E-02 
1045	 3.18437361080161E-02 
1046	 3.21195478103197E-02 
1047	 3.21862365494833E-02 
1048	 3.24483019439792E-02 
1049	 0.032719891249624 
1050	 3.27540158395817E-02 
1051	 3.28352625902421E-02 
1052	 3.28325434957243E-02 
1053	 3.23744711926955E-02 
1054	 3.22784881289324E-02 
1055	 3.27561285977235E-02 
1056	 0.032687093494795 
1057	 3.24282693345585E-02 
1058	 3.16576224486584E-02 
1059	 3.20652559980118E-02 
1060	 3.27948637493691E-02 
1061	 3.32269513549792E-02 
1062	 3.47468158711054E-02 
1063	 3.50336659819493E-02 
1064	 3.39931875971988E-02 
1065	 3.38375971836095E-02 
1066	 3.39488841152314E-02 
1067	 3.38136511752285E-02 
1068	 3.37899831839754E-02 
1069	 3.36767188814718E-02 
1070	 3.33018621614605E-02 
1071	 3.29846016365442E-02 
1072	 0.032168437083636 
1073	 3.23863289288412E-02 
1074	 3.25250585924628E-02 
1075	 3.29386014052496E-02 
1076	 3.29050378595397E-02 
1077	 3.30238786227945E-02 
1078	 3.29986303869026E-02 
1079	 3.25210477251785E-02 
1080	 3.22770686914435E-02 
1081	 3.23259176013155E-02 
1082	 3.22029892110244E-02 
1083	 3.19610100845091E-02 
1084	 3.16251028522218E-02 
1085	 3.11881956654118E-02 
1086	 3.08603466029176E-02 
1087	 2.99242623634315E-02 
1088	 2.97794219112656E-02 
1089	 0.030520672238853 
1090	 3.10960792893172E-02 
1091	 3.11722470412122E-02 
1092	 3.14262797069468E-02 
1093	 3.15985977205453E-02 
1094	 3.09422160189422E-02 
1095	 3.09179522016383E-02 
1096	 3.19338445644663E-02 
1097	 3.16852915011469E-02 
1098	 3.05219272902428E-02 
1099	 2.99220750803332E-02 
1100	 2.84780306068035E-02 
1101	 2.80570329633717E-02 
1102	 2.90613803893348E-02 
1103	 2.92156294294993E-02 
1104	 2.95412445309081E-02 
1105	 2.95584053511996E-02 
1106	 2.94514797020524E-02 
1107	 2.82567202866828E-02 
1108	 2.68608218355016E-02 
1109	 2.69750993430131E-02 
1110	 2.70148782594531E-02 
1111	 2.75406788774762E-02 
1112	 2.74112899059485E-02 
1113	 2.79656788352796E-02 
1114	 2.69901795392013E-02 
1115	 2.21575984558825E-02 
1116	 2.11820114620307E-02 
1117	 2.35039502360893E-02 
1118	 2.37670496952968E-02 
1119	 3.00319216099046E-02 
1120	 3.04251797155125E-02 
1121	 2.00100429378945E-02 
1122	 9.46331485088936E-03 
1123	 4.00077286873656E-03 
1124	 2.29825739370609E-03 
1125	 1.46849657362566E-02 
1126	 2.92321736923254E-02 
1127	 3.13813995101796E-02 
1128	 2.18287983519381E-02 
1129	 2.18022257374239E-02 
1130	 1.94822574480856E-02 
1131	 2.09911003717357E-02 
1132	 2.97372060058087E-02 
1133	 3.09131091091587E-02 
1134	 2.90531146481287E-02 
1135	 2.44838598599719E-02 
1136	 1.44407239464235E-02 
1137	 1.39633329525343E-02 
1138	 1.70182755981638E-02 
1139	 1.62619193696865E-02 
1140	 1.74349326804181E-02 
1141	 2.12666408720461E-02 
1142	 1.99052534520106E-02 
1143	 1.56704800078199E-02 
1144	 1.87811474405786E-02 
1145	 0.023491946538914 
1146	 2.01175353311488E-02 
1147	 1.90391112333001E-02 
1148	 2.27832957179766E-02 
1149	 2.10580205009392E-02 
1150	 1.94501778982331E-02 
1151	 1.82174064284083E-02 
1152	 1.95684465963576E-02 
1153	 2.10047100383535E-02 
1154	 2.13266487236409E-02 
1155	 2.26598582210813E-02 
1156	 2.32582212574605E-02 
1157	 2.33545961680677E-02 
1158	 2.33998570373973E-02 
1159	 2.46041135742906E-02 
1160	 2.56403120056748E-02 
1161	 2.53411934955909E-02 
1162	 2.54570988655385E-02 
1163	 2.57251658791599E-02 
1164	 2.64316665865583E-02 
1165	 0.028210579815407 
1166	 2.83480690375262E-02 
1167	 2.75541559333861E-02 
1168	 2.72965288361255E-02 
1169	 2.69360676849529E-02 
1170	 2.73545356853403E-02 
1171	 2.73900583321951E-02 
1172	 2.75435121010477E-02 
1173	 2.75762384102955E-02 
1174	 2.74956790193963E-02 
1175	 2.73224489901865E-02 
1176	 2.68583091520451E-02 
1177	 0.026866451302324 
1178	 2.71163740813909E-02 
1179	 2.66854302173319E-02 
1180	 2.65771352867823E-02 
1181	 2.72156994174263E-02 
1182	 2.73599893281351E-02 
1183	 0.026948316592749 
1184	 2.69006387758004E-02 
1185	 2.67914452430604E-02 
1186	 2.64893680063968E-02 
1187	 0.027109389513262 
1188	 2.77409317943435E-02 
1189	 2.75993698479177E-02 
1190	 2.77511898701355E-02 
1191	 2.75423300619277E-02 
1192	 2.73274215353437E-02 
1193	 2.66623031508188E-02 
1194	 0.027236004029748 
1195	 2.80243377364924E-02 
1196	 2.78140450396537E-02 
1197	 2.75290125746816E-02 
1198	 2.70683320649818E-02 
1199	 2.60769125020989E-02 
1200	 2.62944679418081E-02 
1201	 0.027396473991452 
1202	 2.75254188205217E-02 
1203	 2.71685753900526E-02 
1204	 2.76517285728715E-02 
1205	 2.82906152173978E-02 
1206	 2.77816297711644E-02 
1207	 2.74473022740518E-02 
1208	 0.027610613618209 
1209	 2.68719088083734E-02 
1210	 2.68203414695455E-02 
1211	 2.76817847172163E-02 
1212	 0.027560196710759 
1213	 0.027334189253664 
1214	 2.73801874456024E-02 
1215	 0.027816180365753 
1216	 2.80154138682954E-02 
1217	 0.027816095450499 
1218	 2.72174961788464E-02 
1219	 2.69373974896776E-02 
1220	 2.72356293739647E-02 
1221	 2.76857320530529E-02 
1222	 2.80929275368339E-02 
1223	 2.78566775756165E-02 
1224	 2.73117131993799E-02 
1225	 2.71366301335458E-02 
1226	 2.71281072401429E-02 
1227	 2.73598038672811E-02 
1228	 2.76462211561445E-02 
1229	 2.76930776174446E-02 
1230	 2.75924880257086E-02 
1231	 2.74606915391415E-02 
1232	 2.76246037887781E-02 
1233	 2.77890980609343E-02 
1234	 2.78616180949605E-02 
1235	 2.79587505074827E-02 
1236	 2.81806764683165E-02 
1237	 2.80857452289701E-02 
1238	 2.76575013810799E-02 
1239	 2.78045137620895E-02 
1240	 2.77905692509764E-02 
1241	 2.75092267675418E-02 
1242	 2.73743435903294E-02 
1243	 2.73370214841363E-02 
1244	 2.75117739437592E-02 
1245	 2.79822938783455E-02 
1246	 2.80034291491952E-02 
1247	 2.77301328606966E-02 
1248	 2.78270522990055E-02 
1249	 0.027705230076675 
1250	 2.73617218847204E-02 
1251	 0.027466680297568 
1252	 2.76077205739748E-02 
1253	 0.027579100196162 
1254	 2.78821195513956E-02 
1255	 2.82174827930572E-02 
1256	 2.82093241392983E-02 
1257	 2.70915565522176E-02 
1258	 2.70935657343694E-02 
1259	 2.81609898200298E-02 
1260	 2.81240953744535E-02 
1261	 2.77844273000333E-02 
1262	 2.78141786511581E-02 
1263	 2.75346052437835E-02 
1264	 2.68914725732275E-02 
1265	 2.72471108545527E-02 
1266	 2.77104092342504E-02 
1267	 2.76985070735904E-02 
1268	 2.74810762677584E-02 
1269	 2.67924890434354E-02 
1270	 2.65208435459897E-02 
1271	 2.68504362534438E-02 
1272	 2.68668832018497E-02 
1273	 2.71614777812815E-02 
1274	 2.75416713442521E-02 
1275	 2.73343303185654E-02 
1276	 2.69031194124567E-02 
1277	 2.65581152265514E-02 
1278	 2.68573537709719E-02 
1279	 2.70207355547663E-02 
1280	 0.026485121278461 
1281	 2.65711848873894E-02 
1282	 2.73464626741671E-02 
1283	 2.72922744792264E-02 
1284	 2.67682156435183E-02 
1285	 2.69581123206229E-02 
1286	 0.027256006954805 
1287	 2.72283775979241E-02 
1288	 2.74222181896247E-02 
1289	 2.77112371186257E-02 
1290	 2.80625059344932E-02 
1291	 2.76241269847464E-02 
1292	 0.027245221412641 
1293	 2.73732305167626E-02 
1294	 2.71082461593957E-02 
1295	 2.68085566862882E-02 
1296	 2.70786899791922E-02 
1297	 2.72244398258689E-02 
1298	 2.69583058878212E-02 
1299	 2.65814570385383E-02 
1300	 2.62804265828322E-02 
1301	 2.62156174232164E-02 
1302	 2.62496783712071E-02 
1303	 2.61093059634042E-02 
1304	 2.62939034821526E-02 
1305	 2.68146244028729E-02 
1306	 2.68647468145285E-02 
1307	 2.67290466390287E-02 
1308	 2.67800900701465E-02 
1309	 2.64080833977403E-02 
1310	 2.62492459355509E-02 
1311	 2.67061157246199E-02 
1312	 2.67375648823014E-02 
1313	 2.66517169637144E-02 
1314	 0.026485482428764 
1315	 2.55450233912279E-02 
1316	 2.51064002698861E-02 
1317	 2.51804940981532E-02 
1318	 0.025104935370873 
1319	 2.54983150857561E-02 
1320	 2.53892078327265E-02 
1321	 2.49696943148214E-02 
1322	 2.36778210474322E-02 
1323	 2.39518572505157E-02 
1324	 0.024763127815075 
1325	 2.47527795958123E-02 
1326	 2.53074212782777E-02 
1327	 2.47500075862502E-02 
1328	 2.38283533160437E-02 
1329	 2.49706073305884E-02 
1330	 2.52162328433151E-02 
1331	 2.34779405397403E-02 
1332	 2.32206400182541E-02 
1333	 2.35339232838454E-02 
1334	 2.16458931378468E-02 
1335	 0.021106977781511 
1336	 2.08708820279789E-02 
1337	 2.11905602014968E-02 
1338	 2.34326146512304E-02 
1339	 2.30368412814577E-02 
1340	 0.020384474633794 
1341	 2.09191400851661E-02 
1342	 2.19336628815144E-02 
1343	 2.11641690785185E-02 
1344	 2.27685629373093E-02 
1345	 2.35646572689608E-02 
1346	 2.03221085916789E-02 
1347	 1.78033544320806E-02 
1348	 1.57547260320815E-02 
1349	 1.31847068728633E-02 
1350	 1.04955782055808E-02 
1351	 3.69392868438424E-03 
1352	 8.43483260040214E-04 
1353	-1.65107558354733E-02 
1354	-8.12014752386719E-02 
1355	-0.187235111160339 
1356	-0.242690984501252 
1357	-0.115414945316353 
1358	-1.77689344699536E-02 
1359	-0.134514669740531 
1360	-0.2915735502651 
1361	-0.378384341940056 
1362	-0.39640348568538 
1363	-0.222060076499878 
1364	-0.317649079880094 
1365	-1.03311208927312 
1366	-1.28201402688715 
1367	-0.544373099555918 
1368	-0.50751148689379 
1369	-0.451057245150177 
1370	-0.250024433091902 
1371	-0.242523826668242 
1372	-0.376673383046383 
1373	-0.696235889154654 
1374	-0.506467413246602 
1375	-0.519161420177788 
1376	-0.661151005728188 
1377	-0.610671755558121 
1378	-0.405299261068517 
1379	-0.176668292411085 
1380	-0.177030907298559 
1381	-2.41161503886759E-02 
1382	-0.145612110671955 
1383	-1.6849543480007 
1384	-2.63295896145373 
1385	 0.915151499628054 
1386	 0.777811644333399 
1387	 0.427068941056815 
1388	 0.92439861024083 
1389	-0.289447434907001 
1390	-1.15464141135456 
1391	-2.78695482039741 
1392	-1.07842478899491 
1393	-1.36068888238804 
1394	-4.16533878205969 
1395	-0.493559079088768 
1396	 0.672374820697409 
1397	 1.69597927013182 
1398	-0.041144851320129 
1399	-0.546645214904777 
1400	-2.10892583639861 
1401	-1.82139262827299 
1402	 4.96175286332399E-02 
1403	 0.51668105186128 
1404	 1.60062817724406 
1405	 2.5499376934098 
1406	-0.606309016945629 
1407	-0.877488389729116 
1408	-0.209064082147837 
1409	-0.113016171800245 
1410	-0.408658944847627 
1411	-0.446762226226357 
1412	-0.154671513101191 
1413	 8.93199791097104E-02 
1414	 6.25836742245741E-02 
1415	 2.49458521220178E-02 
1416	-0.099820887803948 
1417	-5.39624950290843E-02 
1418	 3.46293401880303E-02 
1419	 2.05977523553033E-02 
1420	 5.13179954371499E-02 
1421	 4.80072932756909E-02 
1422	-3.76083154664368E-02 
1423	-5.45855991927884E-02 
1424	-5.75906149808377E-02 
1425	-2.04605995731755E-02 
1426	 8.48897118448317E-02 
1427	 6.84837512402997E-02 
1428	 7.35735665064258E-03 
1429	-8.63984340143639E-03 
1430	-7.11327271800637E-02 
1431	-0.101543495915488 
1432	-9.77005281996817E-02 
1433	-7.31566557204388E-02 
1434	-3.06237452798484E-02 
1435	-1.23575927818246E-02 
1436	 3.14862206934236E-02 
1437	 8.96131682511681E-02 
1438	 4.37859874624234E-02 
1439	-8.78486238844154E-03 
1440	 8.34105466368012E-03 
1441	 1.91759316904446E-03 
1442	 8.04120799900563E-03 
1443	 0.046395732854889 
1444	 0.038777539727266 
1445	 1.19187467461253E-02 
1446	-1.14530507410479E-02 
1447	-8.2496140645378E-03 
1448	 1.40066752010943E-02 
1449	 1.68290469532476E-02 
1450	 2.51630884338005E-02 
1451	 3.27180636966576E-02 
1452	 0.026464748919539 
1453	 2.43669228066386E-02 
1454	 2.36427958693063E-02 
1455	 0.024755921363022 
1456	 0.023167986627886 
1457	 2.19844768487101E-02 
1458	 1.87034541583253E-02 
1459	 1.18999597299198E-02 
1460	 1.06360987677525E-02 
1461	 1.03979826220964E-02 
1462	 1.15471166384214E-02 
1463	 1.68657872238556E-02 
1464	 1.88114044938482E-02 
1465	 1.93486925469634E-02 
1466	 2.02188767213275E-02 
1467	 2.14039233664772E-02 
1468	 2.25122953074759E-02 
1469	 2.33620541361682E-02 
1470	 2.18250495894489E-02 
1471	 1.77326946157106E-02 
1472	 1.83768957641097E-02 
1473	 2.18040524296857E-02 
1474	 1.94863272345397E-02 
1475	 1.31968928601832E-02 
1476	 1.55726127807127E-02 
1477	 2.25017014937972E-02 
1478	 2.19088222284106E-02 
1479	 2.18510604087575E-02 
1480	 2.21400103325268E-02 
1481	 1.64758510103391E-02 
1482	 1.47615060135646E-02 
1483	 1.66037205600977E-02 
1484	 1.93156328841504E-02 
1485	 2.29629082069696E-02 
1486	 2.34155891285048E-02 
1487	 2.42307499465667E-02 
1488	 2.47657345520414E-02 
1489	 2.32102736470871E-02 
1490	 2.23914382227765E-02 
1491	 2.17039332812774E-02 
1492	 0.022331930005974 
1493	 0.024441910662353 
1494	 2.41803345889831E-02 
1495	 2.29278905436075E-02 
1496	 2.31587366513976E-02 
1497	 2.29438948351542E-02 
1498	 2.24782842334179E-02 
1499	 2.30657284289606E-02 
1500	 2.34365528746954E-02 
1501	 2.28161491511388E-02 
1502	 2.26550719817044E-02 
1503	 0.023320470239855 
1504	 2.36264180710174E-02 
1505	 2.37454454620885E-02 
1506	 2.35703044418488E-02 
1507	 2.40407731992466E-02 
1508	 2.44897837482194E-02 
1509	 2.48893258329738E-02 
1510	 2.50294213996534E-02 
1511	 2.48050032672212E-02 
1512	 2.48394171110882E-02 
1513	 2.49515477149853E-02 
1514	 2.53235933143935E-02 
1515	 2.59878549902435E-02 
1516	 2.58561305479353E-02 
1517	 0.025785294426263 
1518	 2.61841507677403E-02 
1519	 2.62090578113545E-02 
1520	 0.026506305662555 
1521	 0.026402065832713 
1522	 2.58832119160864E-02 
1523	 2.64011342951695E-02 
1524	 2.68484603518885E-02 
1525	 2.65561345098716E-02 
1526	 2.66891982846681E-02 
1527	 2.67271605693171E-02 
1528	 2.64237352055978E-02 
1529	 2.61505528875882E-02 
1530	 2.58143423877041E-02 
1531	 2.58377592857519E-02 
1532	 2.57216449637912E-02 
1533	 2.57696270224977E-02 
1534	 2.61384736335745E-02 
1535	 2.60344196715105E-02 
1536	 2.57542921699536E-02 
1537	 2.57106212610578E-02 
1538	 2.61399026471425E-02 
1539	 2.64536038759354E-02 
1540	 0.026439998941118 
1541	 2.63263761976372E-02 
1542	 2.61441687426778E-02 
1543	 0.026056773912794 
1544	 2.58782437235262E-02 
1545	 0.026037587445584 
1546	 2.62766268318316E-02 
1547	 2.61929398130931E-02 
1548	 2.64067587039861E-02 
1549	 2.67159997960867E-02 
1550	 0.026880186449513 
1551	 2.70783791298461E-02 
1552	 2.73178721007388E-02 
1553	 2.70758038315286E-02 
1554	 2.62144789163758E-02 
1555	 0.025623937334674 
1556	 2.56771891884478E-02 
1557	 2.63077701054929E-02 
1558	 2.67933353370182E-02 
1559	 2.64463202123428E-02 
1560	 2.62438875381757E-02 
1561	 2.67141919672615E-02 
1562	 2.67804959050307E-02 
1563	 2.66375661279462E-02 
1564	 2.69638252701016E-02 
1565	 2.70165076200452E-02 
1566	 2.69685354675259E-02 
1567	 2.75548674673506E-02 
1568	 2.77313117465665E-02 
1569	 2.68713729310505E-02 
1570	 2.62767400579178E-02 
1571	 2.65323480757749E-02 
1572	 2.66312491337479E-02 
1573	 2.63402602923592E-02 
1574	 2.67884476944001E-02 
1575	 2.74683308813884E-02 
1576	 2.74285293370207E-02 
1577	 2.69967045447474E-02 
1578	 2.62512116109944E-02 
1579	 2.57517110012641E-02 
1580	 2.60943977146124E-02 
1581	 2.74967775427102E-02 
1582	 2.86520369697571E-02 
1583	 2.83760035563403E-02 
1584	 0.0280345419457 
1585	 0.027371318331122 
1586	 0.026500180918007 
1587	 2.67659575782526E-02 
1588	 0.026870390332723 
1589	 2.65950172129009E-02 
1590	 2.71592199265684E-02 
1591	 2.79320528058555E-02 
1592	 2.77973152289404E-02 
1593	 2.73466161710297E-02 
1594	 2.75632995272738E-02 
1595	 2.74696771013324E-02 
1596	 2.67606123236851E-02 
1597	 2.66417896027071E-02 
1598	 2.66976688706783E-02 
1599	 2.60049917538441E-02 
1600	 2.55729503119606E-02 
1601	 2.61988028915574E-02 
1602	 0.026423479835503 
1603	 2.64323364385888E-02 
1604	 2.73163079473342E-02 
1605	 2.73098837729044E-02 
1606	 0.026498406073463 
1607	 2.65782807592725E-02 
1608	 2.66395047314408E-02 
1609	 2.64431459468614E-02 
1610	 0.026592235473019 
1611	 0.026296167504559 
1612	 2.57996174213969E-02 
1613	 0.025854442709171 
1614	 2.62793081019021E-02 
1615	 2.67922368812239E-02 
1616	 2.69591955485776E-02 
1617	 2.71392859019137E-02 
1618	 2.73093750040721E-02 
1619	 2.72931065917012E-02 
1620	 2.77665978724126E-02 
1621	 2.81865882950352E-02 
1622	 2.79111699339162E-02 
1623	 2.74010214316169E-02 
1624	 2.74138889236398E-02 
1625	 0.027176230608731 
1626	 2.64975752039493E-02 
1627	 2.70793159792219E-02 
1628	 2.75154988834374E-02 
1629	 0.027004735937144 
1630	 2.72884476629934E-02 
1631	 2.73378958710883E-02 
1632	 2.67069453317894E-02 
1633	 2.66294842347212E-02 
1634	 0.02687649978502 
1635	 0.026956531347191 
1636	 0.027058447977001 
1637	 2.72774894261401E-02 
1638	 2.74874379420841E-02 
1639	 2.76405960930634E-02 
1640	 2.74470699250584E-02 
1641	 2.70340757515819E-02 
1642	 2.66598527374367E-02 
1643	 2.67151748501498E-02 
1644	 2.68165386449552E-02 
1645	 2.63832540214418E-02 
1646	 2.63939269784174E-02 
1647	 2.62399477212018E-02 
1648	 2.61745700679319E-02 
1649	 0.027102336868318 
1650	 2.76500618328659E-02 
1651	 2.74655194595067E-02 
1652	 2.67356142670185E-02 
1653	 2.65564522625444E-02 
1654	 2.64605814188452E-02 
1655	 2.72209065673154E-02 
1656	 2.72768556156727E-02 
1657	 2.60605125214665E-02 
1658	 2.60165001659631E-02 
1659	 2.68569658742771E-02 
1660	 0.026974011991718 
1661	 2.71342002861114E-02 
1662	 2.74747115452166E-02 
1663	 2.77319500466091E-02 
1664	 2.77631189638537E-02 
1665	 2.76895621297924E-02 
1666	 2.76773332144687E-02 
1667	 0.027532793862837 
1668	 2.69596332359113E-02 
1669	 2.66070343827951E-02 
1670	 2.67559188573766E-02 
1671	 2.68696008122291E-02 
1672	 2.68357476282094E-02 
1673	 0.027576701647784 
1674	 2.82470583335205E-02 
1675	 2.79127305033791E-02 
1676	 2.76115006416701E-02 
1677	 2.76817700253698E-02 
1678	 2.76724347688609E-02 
1679	 2.73097794754463E-02 
1680	 2.72699663736735E-02 
1681	 2.74983587945522E-02 
1682	 2.69902663100593E-02 
1683	 2.63165131699752E-02 
1684	 0.026636440748222 
1685	 2.71668622341846E-02 
1686	 0.027364167790862 
1687	 2.79252669750486E-02 
1688	 2.75237878331951E-02 
1689	 2.67228409289156E-02 
1690	 2.73247978897871E-02 
1691	 0.027615591742853 
1692	 2.76814915859799E-02 
1693	 2.80112738909578E-02 
1694	 2.75343575657311E-02 
1695	 2.75606355677754E-02 
1696	 2.80421614830384E-02 
1697	 2.76925369821848E-02 
1698	 2.72555403361411E-02 
1699	 2.73997231208848E-02 
1700	 2.73517373307561E-02 
1701	 2.71931460786976E-02 
1702	 2.74370525012159E-02 
1703	 2.71519399409236E-02 
1704	 2.65076124201769E-02 
1705	 2.63348374673664E-02 
1706	 2.65745570038174E-02 
1707	 2.69915865418142E-02 
1708	 2.75170132133506E-02 
1709	 2.78681944370168E-02 
1710	 2.76738457755688E-02 
1711	 0.027108784888222 
1712	 2.67919941786441E-02 
1713	 2.82694385295796E-02 
1714	 2.85319162160427E-02 
1715	 2.77464461329524E-02 
1716	 2.80018819404751E-02 
1717	 2.66329149706147E-02 
1718	 2.58874809466785E-02 
1719	 2.71565564750861E-02 
1720	 2.64773398885982E-02 
1721	 0.026621258544097 
1722	 2.78302152090642E-02 
1723	 2.58560616554724E-02 
1724	 2.51896280467963E-02 
1725	 2.63516995852567E-02 
1726	 2.55895350258841E-02 
1727	 2.57308412387222E-02 
1728	 2.72645625608013E-02 
1729	 2.75030520429012E-02 
1730	 2.71979129479343E-02 
1731	 2.79207335363506E-02 
1732	 2.70938179840407E-02 
1733	 2.45305417833327E-02 
1734	 2.38176973022159E-02 
1735	 2.41719294946937E-02 
1736	 2.45606392184218E-02 
1737	 2.62521552174774E-02 
1738	 2.74915245303107E-02 
1739	 2.74488301150937E-02 
1740	 2.75588249103132E-02 
1741	 2.61900065260369E-02 
1742	 2.41919993188139E-02 
1743	 2.43223229439129E-02 
1744	 2.50946178264383E-02 
1745	 0.025431057770113 
1746	 2.73633585479837E-02 
1747	 2.78869815028778E-02 
1748	 2.67668378970622E-02 
1749	 2.66735001991349E-02 
1750	 2.65124305339545E-02 
1751	 2.62656947827273E-02 
1752	 0.025930499000481 
1753	 2.62015818676954E-02 
1754	 2.80787124868683E-02 
1755	 0.027547608198174 
1756	 2.47196927127818E-02 
1757	 2.43017703158344E-02 
1758	 2.49683826973074E-02 
1759	 2.68505218357744E-02 
1760	 2.85482626723353E-02 
1761	 2.69484960917395E-02 
1762	 2.40404439750477E-02 
1763	 2.48383476274098E-02 
1764	 2.75911422904171E-02 
1765	 2.95254315136514E-02 
1766	 3.10258496116551E-02 
1767	 2.93733644074257E-02 
1768	 2.61141767805045E-02 
1769	 2.57566295081631E-02 
1770	 2.56437388699516E-02 
1771	 2.29327308774732E-02 
1772	 2.16363413927433E-02 
1773	 2.07581382569939E-02 
1774	 0.020148999582157 
1775	 2.47945513921455E-02 
1776	 2.56942388706929E-02 
1777	 2.42689948663078E-02 
1778	 0.025545773705593 
1779	 2.67801607323616E-02 
1780	 2.73568022539946E-02 
1781	 2.95612428311802E-02 
1782	 2.99499984470593E-02 
1783	 0.027773914669435 
1784	 2.69429361649365E-02 
1785	 2.72302944600133E-02 
1786	 2.68851706160751E-02 
1787	 2.56361598202301E-02 
1788	 2.33500343355976E-02 
1789	 1.97838720028763E-02 
1790	 1.53731321464364E-02 
1791	 1.55477573267565E-02 
1792	 1.41033179882657E-02 
1793	 9.52243562128408E-03 
1794	-4.85342747901021E-04 
1795	-2.41858366484228E-02 
1796	-3.53856460372382E-02 
1797	-2.56188075767768E-02 
1798	 2.56844308416807E-04 
1799	 3.21210977692527E-02 
1800	 2.83695893910885E-02 
1801	 2.10709307186297E-02 
1802	-0.060721098881159 
1803	-9.82408532519456E-02 
1804	-8.54575922092234E-02 
1805	-9.17820552776159E-02 
1806	-2.37942330377198E-02 
1807	 6.58265263138198E-02 
1808	 0.21015976854345 
1809	 0.143606064357248 
1810	-0.11192039456112 
1811	-0.158727454111777 
1812	-0.259375014387834 
1813	-0.318336129345636 
1814	 3.72009542555639E-02 
1815	-0.122566021309792 
1816	 5.79847474833684 
1817	-1.31878900119732 
1818	-0.766516613486756 
1819	-0.792126981990227 
1820	-1.3729203170447 
1821	-0.715097467021314 
1822	-0.877560587830253 
1823	-0.654760044082155 
1824	-1.26362846222086 
1825	-1.46071225938762 
1826	-1.0549678597248 
1827	-9.99164972949561 
1828	-2.27933307553066 
1829	 2.68405645766861 
1830	 1.51025248552964 
1831	 0.814488562439421 
1832	 0.858028663376447 
1833	 0.93562533963342 
1834	 0.935729584700516 
1835	 5.3554448179428 
1836	-49.5589177657525 
1837	-2.17886170787236 
1838	-9.18535799255295 
1839	 0.704995090699557 
1840	 0.197041392771102 
1841	 0.315418139937578 
1842	-1.44737504842941E-02 
1843	-0.238933421485571 
1844	-1.38541355863409 
1845	-5.93332327547513 
1846	-3.06966119789111 
1847	-2.93294797785285 
1848	-2.50620387914645 
1849	-1.246401270551 
1850	-0.328633818283344 
1851	 0.368095198752115 
1852	 1.88540083148515 
1853	 14.8462464693176 
1854	-18.3306050305199 
1855	-2.41746293385929 
1856	-1.03653705368789 
1857	-3.54486637541558E-02 
1858	 1.36342940208322 
1859	 5.18258979065244 
1860	 3.77587080470024 
1861	 2.14097379020775 
1862	-0.766204128493158 
1863	-2.58599708465887 
1864	 5.95090753644155 
1865	 1.80683534418403 
1866	 1.18921366127506 
1867	 1.20708540508208 
1868	 1.02345595228811 
1869	-1.79672517336137 
1870	-0.495063017504665 
1871	-0.53049643750134 
1872	-1.2169054369359 
1873	-1.23840603267828 
1874	-0.683605646594199 
1875	-0.130363878572235 
1876	-4.44268499849928E-02 
1877	-0.322514752016362 
1878	-0.385849322695946 
1879	-0.867624467419745 
1880	-0.670996796876787 
1881	 9.44049631491239E-04 
1882	 0.218508711018418 
1883	 0.818776174825994 
1884	 0.465443815976678 
1885	 1.74684037305781E-02 
1886	-0.765722907848828 
1887	 2.08272880157747 
1888	 3.14252348443535 
1889	 3.69036380846938 
1890	 3.65231127509288 
1891	 2.8467634930297 
1892	 5.67383936106894 
1893	 1.94582969203072 
1894	 1.04620455104886 
1895	 1.09988165862057 
1896	 0.685538337939091 
1897	-0.540596745734728 
1898	-6.16281700496834 
1899	-10.2769248742244 
1900	-5.50585739492008 
1901	-0.775385564764291 
1902	-0.561273548291145 
1903	-1.18489786346164 
1904	-0.703013819702732 
1905	-3.34173007918688E-02 
1906	 0.146810442979394 
1907	 0.385657254899935 
1908	 6.62384391508473E-02 
1909	-0.196209208935674 
1910	-2.29647769697673 
1911	-0.731748213194623 
1912	 0.315758103033697 
1913	 0.933190686621097 
1914	 0.45627738545327 
1915	 0.319945096678806 
1916	 2.14494938440443 
1917	 0.682559837139308 
1918	 0.245805395464053 
1919	 0.461297000311525 
1920	-0.295399132898934 
1921	-0.227879295813564 
1922	-5.60608039288361E-02 
1923	-0.118907195999284 
1924	 0.254412891877775 
1925	 1.28753214163982 
1926	 1.94869687386358 
1927	 1.24193823534191 
1928	-1.44385813999924 
1929	-0.932455630832417 
1930	-0.63852886094117 
1931	-0.580322004536406 
1932	-0.651463825811295 
1933	-0.759254714687163 
1934	-1.04758468407225 
1935	 3.08616647688509 
1936	 2.40666785941348 
1937	-0.215484644683053 
1938	-1.31863583846983 
1939	-2.56484141635321 
1940	 137.943027693695 
1941	-3.06902549113666 
1942	-4.01025174078784 
1943	 7.79606952027295 
1944	 2.61160928317091 
1945	 1.09087989103841 
1946	 0.564870506988456 
1947	 0.210288573353066 
1948	 4.98061846868973E-03 
1949	 0.115806599143462 
1950	-0.023668700910301 
1951	-0.101342116022341 
1952	-6.96528922939179E-02 
1953	 7.19857617844136E-02 
1954	 7.50119813246457E-02 
1955	 9.36606969056451E-02 
1956	 6.45075501316417E-02 
1957	 5.82451739748359E-02 
1958	 3.77727626286635E-02 
1959	-5.06788222419826E-03 
1960	 4.71640882748835E-02 
1961	 0.060332382020565 
1962	 2.27955744384218E-02 
1963	 0.011980069192383 
1964	 6.17361227802248E-03 
1965	 1.14831292573879E-02 
1966	 1.68259208831263E-02 
1967	 3.24480307617453E-02 
1968	 4.21889132337303E-02 
1969	 4.91322148473769E-02 
1970	 4.52110396518032E-02 
1971	 4.08689882811327E-02 
1972	 4.48670348649161E-02 
1973	 3.74707559892543E-02 
1974	 2.67054297465416E-02 
1975	 2.81377648653352E-02 
1976	 2.67447993945987E-02 
1977	 2.22678528461625E-02 
1978	 0.029367009357962 
1979	 3.07107072483894E-02 
1980	 3.07140639477498E-02 
1981	 0.022817193448637 
1982	 2.01669392773603E-02 
1983	 1.68065597459295E-02 
1984	 1.34558746017724E-02 
1985	 0.015610000630306 
1986	 2.25394722348876E-02 
1987	 2.55006870285971E-02 
1988	 2.41825710220137E-02 
1989	 2.87577392343184E-02 
1990	 2.96960781058391E-02 
1991	 0.027663836802237 
1992	 2.92925014334381E-02 
1993	 2.43247312341888E-02 
1994	 2.27329560150712E-02 
1995	 2.03075551218183E-02 
1996	 2.43743842491897E-02 
1997	 2.66788315074381E-02 
1998	 2.96025657645604E-02 
1999	 3.50358016097239E-02 
2000	 3.40850733368895E-02 
2001	 0.021868941123302 
2002	 1.52911351719631E-02 
2003	 1.03605811773033E-02 
2004	 8.64698106803329E-04 
2005	 3.82109866716256E-03 
2006	 2.15919799017345E-02 
2007	 2.61359489233347E-02 
2008	 0.017104946594361 
2009	 0.013580084636839 
2010	 7.7790901389601E-04 
2011	-3.07579128755402E-03 
2012	-4.95119723172293E-03 
2013	 1.15077957024721E-02 
2014	 1.26213992341505E-02 
2015	 9.02223896803798E-03 
2016	 1.19771204965831E-02 
2017	 0.001917425268196 
2018	-2.8619644422275E-03 
2019	 6.23859104373535E-03 
2020	 0.013023283470325 
2021	 1.69471412675957E-02 
2022	 2.17136533345424E-02 
2023	 2.23540826381615E-02 
2024	 1.86959828998165E-02 
2025	 6.24510852492992E-03 
2026	 5.69023862597097E-03 
2027	 7.95055028257916E-03 
2028	 7.32976842181669E-03 
2029	 1.36992538832182E-02 
2030	 2.03711393824665E-02 
2031	 1.97646966432784E-02 
2032	 2.19352689048937E-02 
2033	 2.52363743977808E-02 
2034	 2.23804515695485E-02 
2035	 2.19178898548126E-02 
2036	 2.33614161200773E-02 
2037	 2.22990436002382E-02 
2038	 0.023767617968085 
2039	 0.024137802142923 
2040	 2.55604354773541E-02 
2041	 2.38399181970925E-02 
2042	 1.69646589765589E-02 
2043	 1.54422423255296E-02 
2044	 1.47767777702676E-02 
2045	 1.54014054229641E-02 
2046	 1.94988660857848E-02 
2047	 2.66114047379932E-02 
2048	 2.53362959769021E-02 
2049	 2.18407527748972E-02 
2050	 2.13792162149387E-02 
2051	 1.86635680940754E-02 
2052	 2.37766588616598E-02 
2053	 3.17461664950169E-02 
2054	 2.95611215589822E-02 
2055	 0.026417023798503 
2056	 2.28301510827599E-02 
2057	 9.82038745125633E-03 
2058	 6.31742834927504E-03 
2059	 9.88608772512589E-03 
2060	 1.13002805864561E-02 
2061	 1.43571938418661E-02 
2062	 1.94013066747107E-02 
2063	 2.34833043790976E-02 
2064	 2.38846741942225E-02 
2065	 2.26523737140415E-02 
2066	 2.34384389051197E-02 
2067	 2.29705579180255E-02 
2068	 2.62546440604566E-02 
2069	 3.30192741382985E-02 
2070	 0.035263450717729 
2071	 3.37329066382348E-02 
2072	 2.86948172720995E-02 
2073	 2.65118703511385E-02 
2074	 2.17597746172815E-02 
2075	 2.22936374434225E-02 
2076	 2.86452530721747E-02 
2077	 3.02336265082735E-02 
2078	 0.031246586538885 
2079	 3.11953144745456E-02 
2080	 2.89315205455303E-02 
2081	 0.027956635383506 
2082	 2.53795653763169E-02 
2083	 2.43581986628146E-02 
2084	 2.48922943583348E-02 
2085	 2.19148571140908E-02 
2086	 2.13619831778687E-02 
2087	 2.25524184894328E-02 
2088	 2.22519769519403E-02 
2089	 0.02330874400988 
2090	 2.35293277558996E-02 
2091	 2.31463533991653E-02 
2092	 2.29400388294585E-02 
2093	 2.22768779074061E-02 
2094	 2.23052737363692E-02 
2095	 2.14288572161238E-02 
2096	 2.19988499658884E-02 
2097	 2.52069167975305E-02 
2098	 2.54774445587823E-02 
2099	 2.43511935676671E-02 
2100	 2.55941674218973E-02 
2101	 2.49430543294075E-02 
2102	 2.22463668172703E-02 
2103	 2.06899212134356E-02 
2104	 2.15469011978017E-02 
2105	 2.21817898942582E-02 
2106	 1.98182627522504E-02 
2107	 2.03742086498692E-02 
2108	 2.39300522022875E-02 
2109	 2.61959168904421E-02 
2110	 3.10183822541016E-02 
2111	 3.30063727020679E-02 
2112	 3.09144609858119E-02 
2113	 2.97413841104602E-02 
2114	 2.49839071451404E-02 
2115	 2.42138958387115E-02 
2116	 2.68244724237729E-02 
2117	 2.68769127252877E-02 
2118	 2.76759713888294E-02 
2119	 2.75987319468865E-02 
2120	 2.44415150932144E-02 
2121	 2.42791418556797E-02 
2122	 0.028335821550446 
2123	 3.02409017821582E-02 
2124	 3.31345690335637E-02 
2125	 3.27601066284934E-02 
2126	 2.68226937692285E-02 
2127	 2.44662442811223E-02 
2128	 0.023575532974998 
2129	 2.01699075668525E-02 
2130	 1.71325563176455E-02 
2131	 0.015954145389778 
2132	 1.68315188645697E-02 
2133	 2.00776023088479E-02 
2134	 2.07427057591303E-02 
2135	 2.16819316306949E-02 
2136	 2.28688602317487E-02 
2137	 2.22413578535274E-02 
2138	 2.15934262774784E-02 
2139	 2.27483722929992E-02 
2140	 2.32261367277676E-02 
2141	 2.17643479990315E-02 
2142	 2.17893002562596E-02 
2143	 2.30256807226134E-02 
2144	 2.42685842263391E-02 
2145	 2.61516802191584E-02 
2146	 0.024877282106577 
2147	 0.02352970818536 
2148	 2.30556358329879E-02 
2149	 2.21844120720379E-02 
2150	 2.24091687568289E-02 
2151	 2.25484049696805E-02 
2152	 2.21820665390414E-02 
2153	 2.23680884640647E-02 
2154	 2.04304500809522E-02 
2155	 1.78187688186049E-02 
2156	 1.93892164669877E-02 
2157	 2.06392248505722E-02 
2158	 0.021759427287753 
2159	 2.32648350341813E-02 
2160	 2.71720576231139E-02 
2161	 2.84092863513042E-02 
2162	 2.83159459186721E-02 
2163	 2.87080823616818E-02 
2164	 2.86127595746993E-02 
2165	 2.85179842700739E-02 
2166	 2.79311592575346E-02 
2167	 2.73619938658412E-02 
2168	 2.66930289411264E-02 
2169	 0.025639949532208 
2170	 2.27139180513088E-02 
2171	 2.39049322350758E-02 
2172	 2.61071408284363E-02 
2173	 2.72613450599618E-02 
2174	 3.00528578483248E-02 
2175	 3.13882283482023E-02 
2176	 3.02331618067284E-02 
2177	 2.75008043329294E-02 
2178	 0.02580113283819 
2179	 2.41324653554598E-02 
2180	 2.29710290758545E-02 
2181	 2.69450848841741E-02 
2182	 0.029059560322529 
2183	 3.09805701645052E-02 
2184	 3.21536353965499E-02 
2185	 2.96202592173969E-02 
2186	 2.81160488175323E-02 
2187	 0.025172746936363 
2188	 2.33815955384127E-02 
2189	 2.12660465811363E-02 
2190	 2.05724594648515E-02 
2191	 2.24455353298366E-02 
2192	 2.30633847146249E-02 
2193	 2.27916654893792E-02 
2194	 2.39582951477759E-02 
2195	 2.68826475793539E-02 
2196	 2.59914332299341E-02 
2197	 2.38021700711291E-02 
2198	 2.33130761223029E-02 
2199	 2.17212928972874E-02 
2200	 1.79077718710414E-02 
2201	 1.60435785662333E-02 
2202	 1.85203443590719E-02 
2203	 2.09874252420142E-02 
2204	 2.14144884721249E-02 
2205	 2.53249631818944E-02 
2206	 2.42370669955675E-02 
2207	 2.18251976001979E-02 
2208	 2.68231820588628E-02 
2209	 0.027905944741634 
2210	 2.74788373452554E-02 
2211	 0.030012957080897 
2212	 3.08223794681649E-02 
2213	 3.20423191931102E-02 
2214	 3.37136764366689E-02 
2215	 3.17863575656081E-02 
2216	 2.48641724846941E-02 
2217	 2.35929108476553E-02 
2218	 2.57208049658219E-02 
2219	 2.60730071653898E-02 
2220	 2.78833383733258E-02 
2221	 2.89460780516349E-02 
2222	 2.86708281990657E-02 
2223	 2.69560135873648E-02 
2224	 2.52740108371168E-02 
2225	 2.51420591399483E-02 
2226	 0.022045141024469 
2227	 2.19891077232945E-02 
2228	 2.88590504825269E-02 
2229	 2.97825248352658E-02 
2230	 2.46752116311783E-02 
2231	 2.55071549444417E-02 
2232	 2.82018708198396E-02 
2233	 0.028325471489739 
2234	 3.04635597162224E-02 
2235	 3.30694947574989E-02 
2236	 3.30117786600473E-02 
2237	 3.10170487114551E-02 
2238	 3.04776594967038E-02 
2239	 3.49918481395365E-02 
2240	 3.67661203734262E-02 
2241	 3.75621192009768E-02 
2242	 3.98581833047498E-02 
2243	 0.038361902372308 
2244	 3.67865016553044E-02 
2245	 0.031330404686926 
2246	 2.42986421658786E-02 
2247	 2.58844527036113E-02 
2248	 2.68445101757226E-02 
2249	 2.59033661004994E-02 
2250	 2.61329408593141E-02 
2251	 2.17928814964642E-02 
2252	 1.90236217051443E-02 
2253	 0.021184364496743 
2254	 2.47550074755516E-02 
2255	 2.90872994509528E-02 
2256	 0.024959748140976 
2257	 1.73390339065393E-02 
2258	 1.47069043696103E-02 
2259	 0.01495669221201 
2260	 1.49083570520974E-02 
2261	 2.31958428286455E-02 
2262	 2.10909032579324E-02 
2263	 8.82123658169213E-03 
2264	 5.58953216736479E-03 
2265	 8.15569434237117E-04 
2266	 4.50969295698283E-03 
2267	 0.021096675123366 
2268	 2.63105192375098E-02 
2269	 3.08881134451585E-02 
2270	 3.39276081965189E-02 
2271	 2.90660624909564E-02 
2272	 3.04358898867243E-02 
2273	 3.51259110953146E-02 
2274	 3.66360585789928E-02 
2275	 4.01393509325528E-02 
2276	 3.78391527095027E-02 
2277	 3.06111157981549E-02 
2278	 2.91293961749864E-02 
2279	 2.67281018551892E-02 
2280	 2.56320238932045E-02 
2281	 3.02540974628288E-02 
2282	 2.60938946712364E-02 
2283	 2.44654299280201E-02 
2284	 2.44253090541438E-02 
2285	 3.33315611852694E-02 
2286	 4.14052572840759E-02 
2287	 3.67186600759441E-02 
2288	 3.35875850310639E-02 
2289	 2.65010186795371E-02 
2290	 1.44004604220496E-02 
2291	 1.11389542989081E-02 
2292	 1.01049717873852E-02 
2293	 2.41859715185004E-03 
2294	 2.49403364178204E-03 
2295	 3.00092147242541E-03 
2296	-6.36477850879054E-04 
2297	 1.48520251682956E-03 
2298	 2.68655628497878E-03 
2299	-8.32393662832414E-04 
2300	 1.49738151271689E-03 
2301	 1.32579489953512E-02 
2302	 1.69954623036208E-02 
2303	 1.83746704241451E-02 
2304	 2.44788790232613E-02 
2305	 2.36585390799202E-02 
2306	 2.15326524829019E-02 
2307	 3.11860573555558E-02 
2308	 3.88867232923891E-02 
2309	 3.07940501220651E-02 
2310	 2.80479852774941E-02 
2311	 3.33479169139294E-02 
2312	 3.40352032903851E-02 
2313	 3.48908609980976E-02 
2314	 2.71123543976466E-02 
2315	 9.77223175782929E-04 
2316	-8.58152935967055E-03 
2317	 1.02120666718004E-02 
2318	 2.42258479195621E-02 
2319	 2.86617642367975E-02 
2320	 3.00255034978783E-02 
2321	 2.38626000129187E-02 
2322	 1.29937133234991E-02 
2323	 1.91712413742409E-02 
2324	 3.37405269382419E-02 
2325	 0.02962663798759 
2326	 3.47353423160068E-02 
2327	 4.05307017478874E-02 
2328	 3.03813260820512E-02 
2329	 2.92388066072367E-02 
2330	 3.07037591526623E-02 
2331	 3.66734472847277E-02 
2332	 4.36065153731407E-02 
2333	 5.21618191487487E-02 
2334	 5.36423193140579E-02 
2335	 2.96269189304458E-02 
2336	 1.42180746665246E-02 
2337	 1.41517453369403E-02 
2338	 6.24378833182501E-03 
2339	 5.67142542998531E-03 
2340	 3.59872880673297E-02 
2341	 4.36797799291307E-02 
2342	 1.24553700426191E-02 
2343	 1.50486270341886E-02 
2344	 9.11600420664005E-03 
2345	-3.43535020722241E-02 
2346	-4.86465370661558E-02 
2347	-4.75227110551722E-02 
2348	-5.68926208783794E-02 
2349	-2.42354177009903E-02 
2350	 2.23466876706241E-02 
2351	 3.72011343732943E-02 
2352	 6.48384747607409E-02 
2353	 0.102102551915696 
2354	 9.23008025877448E-02 
2355	 7.26571019672249E-02 
2356	 5.74000101480358E-02 
2357	-5.61754393546457E-03 
2358	-4.18294465348686E-02 
2359	-1.84795085004387E-02 
2360	-1.42020853663172E-02 
2361	 1.70175996044986E-03 
2362	 5.26831701898416E-02 
2363	 4.97877862384521E-02 
2364	 4.14789105208689E-02 
2365	 4.83344464454374E-02 
2366	-2.31726738282429E-03 
2367	-3.51328310136799E-02 
2368	-2.67638017967507E-02 
2369	-1.86432377341737E-02 
2370	-7.86096162889843E-03 
2371	 3.02927858171479E-03 
2372	 7.56857019992668E-03 
2373	-8.14921264665944E-03 
2374	-3.38863722696352E-02 
2375	-0.040996392365709 
2376	-7.23536688673349E-02 
2377	-8.41960745106968E-02 
2378	-2.81833813888324E-02 
2379	-5.29451493669912E-02 
2380	-8.80380844358786E-02 
2381	-8.17628072799854E-02 
2382	-8.40157400586193E-02 
2383	 3.07852167729675E-02 
2384	 0.146387476096693 
2385	 0.225684015085873 
2386	 0.243609709647699 
2387	 8.28487054731041E-02 
2388	 7.84484160624961E-02 
2389	 5.95729035652218E-02 
2390	 4.47394654082779E-03 
2391	 0.042224126945828 
2392	 1.90873957751068E-03 
2393	-0.101821095658879 
2394	-5.01753068405994E-03 
2395	 0.221074531764203 
2396	 0.246676897489324 
2397	 0.167965628458476 
2398	 0.090205899905405 
2399	-6.07862196874805E-02 
2400	-0.146784664129401 
2401	-5.53870444936321E-02 
2402	 0.031004372999975 
2403	 0.082764955764444 
2404	 0.221881259208263 
2405	 0.152118476065792 
2406	 9.31213615228905E-02 
2407	 0.140411359572302 
2408	-3.17908132573769E-02 
2409	 7.05701974383668E-02 
2410	 0.376728199058742 
2411	 0.332717515611487 
2412	 0.427151849566634 
2413	-1.12329973096497E-03 
2414	-0.65699508002927 
2415	-0.531508184312671 
2416	-0.381563064756424 
2417	-0.223708390939669 
2418	-0.278566670626223 
2419	-0.708299952618445 
2420	-1.22037484690151 
2421	-1.86768125618698 
2422	-1.99784113330684 
2423	-4.01699341315399 
2424	-5.26754505441485 
2425	-4.52096066685349 
2426	-5.74333927686603 
2427	-1.06405741272588 
2428	-0.696830984771432 
2429	-0.446145681151056 
2430	-0.604677120371297 
2431	-1.00424940098816 
2432	-0.603050123631618 
2433	-0.220301283703123 
2434	-0.541444205961416 
2435	-0.752548986589102 
2436	-1.07474895679007 
2437	-133.255491289822 
2438	 0.513976869599 
2439	 1.08924103226806 
2440	-2.47474240581595 
2441	-13.7771608783128 
2442	-0.452409715875927 
2443	 0.453126214616542 
2444	-7.77927235483328 
2445	-2.37964107860288 
2446	-0.304115817702778 
2447	-7.09867972401683E-02 
2448	-8.71393441870121E-02 
2449	-0.106789598602904 
2450	-5.17476436601415E-03 
2451	 0.215307739131413 
2452	 0.257900375851192 
2453	 0.357899376211952 
2454	 0.240614574294419 
2455	-1.08022181344549E-03 
2456	 2.83289563121477E-02 
2457	-0.117208100728066 
2458	-0.985057143546405 
2459	-2.59189821913993 
2460	-3.10553083455891 
2461	-1.50269293204864 
2462	-0.528384514580271 
2463	-0.64081377622166 
2464	-0.767244843977067 
2465	-0.655165675204751 
2466	-0.992768987780813 
2467	-1.48323766389334 
2468	-0.573693989014402 
2469	-3.16466646193745 
2470	 3.87898362382512 
2471	 0.540276326246047 
2472	-1.59651705174905 
2473	 5.02232330270564E-02 
2474	-0.672857225539832 
2475	-0.589659312964284 
2476	-0.300546960686138 
2477	-1.11141474259384 
2478	-3.21525038201144 
2479	-0.131921972759842 
2480	-0.216489665197339 
2481	-8.85488701855916E-02 
2482	-2.72774711170615E-02 
2483	 0.254649926064668 
2484	 0.593711510830828 
2485	 0.567456980901949 
2486	 0.929826791470712 
2487	 1.86183087107721 
2488	 0.715989245523846 
2489	 0.375092581118367 
2490	 0.664871381957159 
2491	 0.844791775523318 
2492	 0.760561703288277 
2493	 1.40717826483736 
2494	 1.68121720328255 
2495	 5.08186347289688 
2496	-19.9549889345161 
2497	-4.76130310360841 
2498	-8.54705723840757 
2499	-3.59528127153496 
2500	-0.394035164037068 
