Wavelength	rt0713west_far_sunny_300006.asd
350	 7.66188648765288E-02 
351	 7.53499682829578E-02 
352	 7.54990835567377E-02 
353	 7.59811028090384E-02 
354	 7.57593150878034E-02 
355	 0.075187925315861 
356	 7.45697152087581E-02 
357	 7.43693222918426E-02 
358	 7.47473703220954E-02 
359	 7.46250183552248E-02 
360	 7.43068963746525E-02 
361	 7.40444954347747E-02 
362	 7.39836319126823E-02 
363	 7.39680644508982E-02 
364	 7.39014191667993E-02 
365	 7.37850127792895E-02 
366	 0.073747957466189 
367	 7.37485466147095E-02 
368	 7.36567674838089E-02 
369	 7.33913996129289E-02 
370	 0.073048285340889 
371	 0.073273256991646 
372	 7.35206765269193E-02 
373	 7.28063462299261E-02 
374	 7.28327602229677E-02 
375	 7.31376643035958E-02 
376	 7.31875499081313E-02 
377	 7.27024936662453E-02 
378	 7.24924982953197E-02 
379	 7.25706830999957E-02 
380	 7.27637815255944E-02 
381	 7.30477008116277E-02 
382	 7.30381031956254E-02 
383	 7.29779940377522E-02 
384	 7.32656574260921E-02 
385	 7.30666472825069E-02 
386	 7.28027941127069E-02 
387	 7.28110616186787E-02 
388	 7.31812945911571E-02 
389	 7.33372501558666E-02 
390	 7.33259097453893E-02 
391	 7.33186975825615E-02 
392	 7.34367068413374E-02 
393	 7.35802485093946E-02 
394	 0.073690899867289 
395	 7.37282740114846E-02 
396	 7.36347832893018E-02 
397	 7.35697263777628E-02 
398	 7.35109955465162E-02 
399	 7.32990578523999E-02 
400	 7.34630479213332E-02 
401	 0.073628016717931 
402	 7.35571496047118E-02 
403	 7.36246644254582E-02 
404	 7.36187617613449E-02 
405	 7.36482488045588E-02 
406	 7.38521620348074E-02 
407	 7.38589320321631E-02 
408	 7.38982159793451E-02 
409	 7.39923023066589E-02 
410	 7.39386441844735E-02 
411	 7.38927183387665E-02 
412	 7.39621792826097E-02 
413	 7.41431374992505E-02 
414	 7.41938641894394E-02 
415	 7.43248053423565E-02 
416	 7.45002080215958E-02 
417	 7.46050373202492E-02 
418	 7.46801406126292E-02 
419	 7.48458709738348E-02 
420	 7.50434548552584E-02 
421	 7.50346932137935E-02 
422	 7.52155590769914E-02 
423	 7.55521844500646E-02 
424	 7.58915753852299E-02 
425	 7.60162129671723E-02 
426	 7.61741993581121E-02 
427	 7.63869633420992E-02 
428	 7.65893532664571E-02 
429	 7.69704292499199E-02 
430	 7.72773971415963E-02 
431	 7.74625782086122E-02 
432	 7.77606025117075E-02 
433	 7.79551068016406E-02 
434	 0.078148156172017 
435	 7.84479754292094E-02 
436	 7.87829702635519E-02 
437	 7.90980906677649E-02 
438	 7.93799443664018E-02 
439	 7.96367131797388E-02 
440	 7.98185677387644E-02 
441	 8.00954615009657E-02 
442	 8.04962264916858E-02 
443	 8.08176422121583E-02 
444	 8.10668529277322E-02 
445	 8.12923617328743E-02 
446	 8.15441105757192E-02 
447	 8.18152109707164E-02 
448	 8.20389690028965E-02 
449	 8.22474020275763E-02 
450	 8.25358407343319E-02 
451	 8.28191555413868E-02 
452	 8.30023808729097E-02 
453	 8.30797622511342E-02 
454	 8.32078325255943E-02 
455	 8.34836499213737E-02 
456	 8.37648860816247E-02 
457	 8.38769576866355E-02 
458	 8.40189666794477E-02 
459	 8.41680074548403E-02 
460	 8.43054277070733E-02 
461	 8.44275872811101E-02 
462	 8.45496821944354E-02 
463	 8.47029910993019E-02 
464	 8.48841801390297E-02 
465	 8.49852818399421E-02 
466	 8.51136605832018E-02 
467	 8.52776255456269E-02 
468	 0.085434511479955 
469	 0.085568400384573 
470	 8.56391938565432E-02 
471	 8.56867491004283E-02 
472	 8.58543237458667E-02 
473	 0.086015550007646 
474	 8.62235803343821E-02 
475	 8.65081568014414E-02 
476	 0.086645724720111 
477	 8.68403369332357E-02 
478	 8.71053541387933E-02 
479	 8.73245819207583E-02 
480	 8.75182072223724E-02 
481	 8.77553763240894E-02 
482	 8.80593723177044E-02 
483	 8.83477523361789E-02 
484	 8.86408604276221E-02 
485	 8.89514990989669E-02 
486	 8.92799453901357E-02 
487	 8.95596163766807E-02 
488	 8.98646996934875E-02 
489	 9.02035063946056E-02 
490	 9.05154484325982E-02 
491	 9.07593093773303E-02 
492	 0.091051506102338 
493	 9.14622693213894E-02 
494	 9.18690630952409E-02 
495	 9.22331301843022E-02 
496	 9.25609067541643E-02 
497	 9.28929641756049E-02 
498	 9.32947935655856E-02 
499	 9.36522485654745E-02 
500	 9.39423261268592E-02 
501	 9.43092751934499E-02 
502	 9.46536941435096E-02 
503	 9.50036607528956E-02 
504	 9.54021720529337E-02 
505	 9.57912483233186E-02 
506	 9.62719405565133E-02 
507	 9.68013843516481E-02 
508	 0.097229520318293 
509	 9.76222138989732E-02 
510	 9.80764036101287E-02 
511	 9.86076148045602E-02 
512	 9.90303523383163E-02 
513	 9.95131887034966E-02 
514	 0.10004681987183 
515	 0.100560495792052 
516	 0.101156059443544 
517	 0.101750963372743 
518	 0.102286952530905 
519	 0.102760334863069 
520	 0.103318714715787 
521	 0.103862060081705 
522	 0.104316322127516 
523	 0.104891253279422 
524	 0.105484725713694 
525	 0.106049379135161 
526	 0.106589880867823 
527	 0.107195739934491 
528	 0.107777540270671 
529	 0.108285902585099 
530	 0.108788598163623 
531	 0.109383268114792 
532	 0.110025375593125 
533	 0.110622259853039 
534	 0.111198519889093 
535	 0.111768209113246 
536	 0.112337803559606 
537	 0.112901239119938 
538	 0.113463615941954 
539	 0.114000743067805 
540	 0.114508484516919 
541	 0.115064400617589 
542	 0.115653866956655 
543	 0.116246141172645 
544	 0.116811814151434 
545	 0.117427874559929 
546	 0.118008706650685 
547	 0.118526084723115 
548	 0.11910160609669 
549	 0.11967140266033 
550	 0.120242776206351 
551	 0.120833719201147 
552	 0.121378768450317 
553	 0.121909778715249 
554	 0.122458418136145 
555	 0.123044656139859 
556	 0.123589129326338 
557	 0.124105643451504 
558	 0.124614922626769 
559	 0.125099879010542 
560	 0.125550499611307 
561	 0.125952457742566 
562	 0.126299124448235 
563	 0.126654989304876 
564	 0.12701902190918 
565	 0.12734691056631 
566	 0.127523072130289 
567	 0.127728459940208 
568	 0.127950201840731 
569	 0.128136130712646 
570	 0.128460596095698 
571	 0.128740429686383 
572	 0.128886920197165 
573	 0.128939407701536 
574	 0.129055876682863 
575	 0.129206422894163 
576	 0.129330098860034 
577	 0.129441001150779 
578	 0.129485991262025 
579	 0.129473429715286 
580	 0.12944205950202 
581	 0.1293181446725 
582	 0.129089079230065 
583	 0.128773204236364 
584	 0.128438111255284 
585	 0.127934264625337 
586	 0.127266645193275 
587	 0.126508570938036 
588	 0.125779756811156 
589	 0.125202852693497 
590	 0.124799826055776 
591	 0.124439011581144 
592	 0.123891333584392 
593	 0.123274472319077 
594	 0.122703271820174 
595	 0.122004148327598 
596	 0.121154697090251 
597	 0.120223106350136 
598	 0.119332820408903 
599	 0.118485584869526 
600	 0.117692833810652 
601	 0.117012103494011 
602	 0.116582726999324 
603	 0.116243186188782 
604	 0.115972379695753 
605	 0.115789993429698 
606	 0.115664751523783 
607	 0.115589365323003 
608	 0.115526988133057 
609	 0.115414853321504 
610	 0.115347621160571 
611	 0.115299322038902 
612	 0.115230000592819 
613	 0.115135201551645 
614	 0.115046073437929 
615	 0.114993018261014 
616	 0.114988373489904 
617	 0.114905215630852 
618	 0.114794250097463 
619	 0.114701830224591 
620	 0.114639544430618 
621	 0.114520215870881 
622	 0.114361531528612 
623	 0.11421273775763 
624	 0.114094159493718 
625	 0.113865063488623 
626	 0.113570725493481 
627	 0.113429200626404 
628	 0.113313092275406 
629	 0.113261774376629 
630	 0.113279142966492 
631	 0.113197766054636 
632	 0.113203048595736 
633	 0.113196294777344 
634	 0.112997768161827 
635	 0.112931298717759 
636	 0.112869286711965 
637	 0.112718153923744 
638	 0.112490075623564 
639	 0.112358695819526 
640	 0.112213654803088 
641	 0.111927041724251 
642	 0.111672059651917 
643	 0.111365829180832 
644	 0.11092740390028 
645	 0.110304492557 
646	 0.109801651173879 
647	 0.109472228359108 
648	 0.109278868432463 
649	 0.109113288770005 
650	 0.10886169418314 
651	 0.108553825126161 
652	 0.108257472958118 
653	 0.107770060625176 
654	 0.107134810034928 
655	 0.106450941487059 
656	 0.105952475348598 
657	 0.105435732323765 
658	 0.104938656403868 
659	 0.104517468466251 
660	 0.104189299069312 
661	 0.103840315596258 
662	 0.103490742008847 
663	 0.103246881936605 
664	 0.10308987114195 
665	 0.102894451240664 
666	 0.102622499830713 
667	 0.102415375910582 
668	 0.10223108572459 
669	 0.102107003670112 
670	 0.102065154973389 
671	 0.101940964017256 
672	 0.101826424582421 
673	 0.101737246320755 
674	 0.101611030573259 
675	 0.101498993945376 
676	 0.101440397728337 
677	 0.101428787797566 
678	 0.101353320806888 
679	 0.101263955274722 
680	 0.101234262072898 
681	 0.10130622420943 
682	 0.10121744138282 
683	 0.101171941322561 
684	 0.101155497183136 
685	 0.100790043359192 
686	 0.100304268234492 
687	 0.09999605946505 
688	 9.99919451447917E-02 
689	 9.98375192651071E-02 
690	 9.94477162263786E-02 
691	 9.88363007983494E-02 
692	 9.80981326204702E-02 
693	 0.097479465758306 
694	 9.71641282355567E-02 
695	 9.70477307104473E-02 
696	 9.66621801363404E-02 
697	 9.58263276582273E-02 
698	 9.47501144308829E-02 
699	 9.38027396277842E-02 
700	 9.28930303066427E-02 
701	 9.21475829560647E-02 
702	 9.14758003005678E-02 
703	 0.090604729090832 
704	 8.95516507695963E-02 
705	 8.84727143347327E-02 
706	 8.74608647358466E-02 
707	 8.63512194056956E-02 
708	 8.50316261176889E-02 
709	 8.36236966264602E-02 
710	 8.22737940352723E-02 
711	 8.06800458190482E-02 
712	 7.90338429380939E-02 
713	 7.72949500554711E-02 
714	 7.50998940525287E-02 
715	 7.26663635084203E-02 
716	 7.00008789190633E-02 
717	 6.74590852964309E-02 
718	 6.54045842109921E-02 
719	 6.40814551091478E-02 
720	 6.32033413155233E-02 
721	 0.062135560010761 
722	 6.04597450920224E-02 
723	 5.84680191387078E-02 
724	 5.66693844916155E-02 
725	 5.50793471986713E-02 
726	 5.36897114016127E-02 
727	 5.22055962276092E-02 
728	 5.04953265177354E-02 
729	 0.048941837600733 
730	 4.76063957689032E-02 
731	 4.67038254670491E-02 
732	 4.62402918830992E-02 
733	 4.54724833420236E-02 
734	 4.46515854470138E-02 
735	 4.39752761542509E-02 
736	 4.34864067431585E-02 
737	 4.32656873786952E-02 
738	 4.32137859839379E-02 
739	 4.32111163053914E-02 
740	 4.32122974616904E-02 
741	 0.043245141836226 
742	 4.32781890405392E-02 
743	 4.32598805566483E-02 
744	 4.32319003739081E-02 
745	 4.31902060943337E-02 
746	 4.31410234424567E-02 
747	 4.31090405617655E-02 
748	 4.30507818029842E-02 
749	 0.043018492035414 
750	 4.30372705524101E-02 
751	 4.29575645939566E-02 
752	 4.29321056048307E-02 
753	 4.29566572446637E-02 
754	 4.29358760903533E-02 
755	 4.28266663200323E-02 
756	 4.27010396391543E-02 
757	 4.25032047891544E-02 
758	 4.18307817855404E-02 
759	 4.07312790678544E-02 
760	 3.96733509250306E-02 
761	 3.96511722402283E-02 
762	 3.97904650963997E-02 
763	 4.01895286732436E-02 
764	 4.08137191260207E-02 
765	 4.15356571816433E-02 
766	 4.19499006906014E-02 
767	 4.22594843350223E-02 
768	 4.25355709936723E-02 
769	 0.042703611334382 
770	 4.27708097325877E-02 
771	 4.28580459912477E-02 
772	 4.30187262006099E-02 
773	 4.30564251168641E-02 
774	 4.31505724142723E-02 
775	 4.32608673601014E-02 
776	 4.32821378357029E-02 
777	 4.33199269311794E-02 
778	 4.34610681818909E-02 
779	 4.36632327176276E-02 
780	 4.37639273369266E-02 
781	 4.38092474729446E-02 
782	 0.043829854664996 
783	 4.38683143212413E-02 
784	 4.40114337093587E-02 
785	 4.39961165911263E-02 
786	 4.39002640805013E-02 
787	 4.39068820350234E-02 
788	 4.39873209233371E-02 
789	 4.41233296713717E-02 
790	 4.43407322659718E-02 
791	 4.46849447360612E-02 
792	 4.50264916493484E-02 
793	 4.52208557218156E-02 
794	 4.52595716454438E-02 
795	 4.53339434316418E-02 
796	 4.55328597045224E-02 
797	 4.57321612749431E-02 
798	 4.58122754137884E-02 
799	 4.58692356757114E-02 
800	 4.59839215453639E-02 
801	 4.61304078308592E-02 
802	 4.62476199186155E-02 
803	 0.046535490276534 
804	 4.67204456933233E-02 
805	 0.046738740518944 
806	 0.046788320962828 
807	 4.67686555172792E-02 
808	 4.65120844508758E-02 
809	 4.59937008466208E-02 
810	 4.55719756614311E-02 
811	 4.52887493334701E-02 
812	 4.48216866176736E-02 
813	 0.043856941444892 
814	 4.33452910215262E-02 
815	 4.29686068644597E-02 
816	 0.042630282588796 
817	 4.24807549882502E-02 
818	 4.27122313821216E-02 
819	 4.27144195313648E-02 
820	 4.22994588713294E-02 
821	 4.18204372361139E-02 
822	 4.11287676046227E-02 
823	 4.05301634733037E-02 
824	 4.01636985295059E-02 
825	 3.95540999296288E-02 
826	 3.87929674093197E-02 
827	 3.79316919175137E-02 
828	 3.71243800355752E-02 
829	 3.66268717704519E-02 
830	 3.62923355532217E-02 
831	 0.036027265571549 
832	 3.58128923181622E-02 
833	 3.56062602170491E-02 
834	 3.55445402047104E-02 
835	 3.55910192361025E-02 
836	 3.54777827933832E-02 
837	 3.53470474779955E-02 
838	 3.53732325932211E-02 
839	 3.55713242935219E-02 
840	 3.55598212464374E-02 
841	 3.54079973751175E-02 
842	 3.53364337072523E-02 
843	 3.54966034139302E-02 
844	 3.54286476686793E-02 
845	 3.53177888399283E-02 
846	 3.52425857215791E-02 
847	 3.51855113359609E-02 
848	 3.51057178038981E-02 
849	 3.50771930052717E-02 
850	 3.50389885640616E-02 
851	 3.47694651923229E-02 
852	 3.46560820059991E-02 
853	 3.47748973825411E-02 
854	 3.49628952832403E-02 
855	 3.47396671744605E-02 
856	 3.46003560646103E-02 
857	 3.46296901905438E-02 
858	 3.47466562272222E-02 
859	 3.47665554533392E-02 
860	 3.46267209310388E-02 
861	 3.44506062386808E-02 
862	 3.44220234147843E-02 
863	 3.44673918043104E-02 
864	 3.43520801100633E-02 
865	 0.034130976549013 
866	 3.40969402679107E-02 
867	 3.39579263470352E-02 
868	 3.39712604117818E-02 
869	 0.034110721305491 
870	 3.39209495154253E-02 
871	 3.37698830930914E-02 
872	 3.36227296292615E-02 
873	 3.34706989080744E-02 
874	 0.033557122671555 
875	 3.35768566102448E-02 
876	 0.033495291212707 
877	 3.33668729920969E-02 
878	 3.32130297673896E-02 
879	 3.30723149166874E-02 
880	 3.29476171561011E-02 
881	 3.28101849028758E-02 
882	 3.25427363210775E-02 
883	 0.032600526739058 
884	 3.27987190352743E-02 
885	 0.032550120546403 
886	 3.23685480605395E-02 
887	 3.22611994665017E-02 
888	 3.21727617344057E-02 
889	 3.20367831347508E-02 
890	 3.18009318867273E-02 
891	 3.13122737186624E-02 
892	 3.06880837177848E-02 
893	 3.05833967512113E-02 
894	 3.00646946651472E-02 
895	 2.93970041713929E-02 
896	 2.89884287708102E-02 
897	 2.83704151189984E-02 
898	 2.85606581581606E-02 
899	 2.89672184132041E-02 
900	 2.87455437824316E-02 
901	 2.83357154933144E-02 
902	 2.84526659385375E-02 
903	 2.87387346096522E-02 
904	 2.85724449365508E-02 
905	 2.82173906463633E-02 
906	 2.81363514240199E-02 
907	 2.83261695872481E-02 
908	 0.028329895089808 
909	 2.73960225646838E-02 
910	 2.68472203005042E-02 
911	 2.68822799956822E-02 
912	 2.65863330619289E-02 
913	 2.67806077335844E-02 
914	 2.67715622877949E-02 
915	 2.65632216702124E-02 
916	 2.70061175025571E-02 
917	 2.70510619660318E-02 
918	 2.68082980675113E-02 
919	 2.66774433137727E-02 
920	 2.71339978779082E-02 
921	 2.72377967894039E-02 
922	 2.69902065743816E-02 
923	 2.65531932184865E-02 
924	 2.60170158578045E-02 
925	 2.56296434909453E-02 
926	 2.55451930870903E-02 
927	 2.55377329682812E-02 
928	 2.40919941049474E-02 
929	 2.27955895801132E-02 
930	 2.28866380412363E-02 
931	 2.48971029019727E-02 
932	 2.54401657359671E-02 
933	 0.023596735617151 
934	 0.020614726466903 
935	 1.91660912894688E-02 
936	 0.020243931214096 
937	 1.96956078662459E-02 
938	 1.89867929323372E-02 
939	 2.00881067270477E-02 
940	 2.00273885678197E-02 
941	 1.95390474405667E-02 
942	 1.99401981239482E-02 
943	 2.18459132279279E-02 
944	 0.020151725849743 
945	 0.018336564081242 
946	 1.80683235891448E-02 
947	 1.90600817931261E-02 
948	 2.07097334124464E-02 
949	 2.13173371265897E-02 
950	 1.91856996638802E-02 
951	 1.46481428800813E-02 
952	 1.84545339475735E-02 
953	 2.26538159553136E-02 
954	 0.022855707853547 
955	 1.94752610825396E-02 
956	 1.77648247434334E-02 
957	 1.92082400687758E-02 
958	 2.24687222494652E-02 
959	 2.45297300066267E-02 
960	 2.23903087682713E-02 
961	 2.01261475238689E-02 
962	 2.08515418735106E-02 
963	 2.48238549769078E-02 
964	 2.42829941273937E-02 
965	 2.36416969379447E-02 
966	 0.023681099685165 
967	 2.24716707581029E-02 
968	 2.35812627147127E-02 
969	 0.024992146527591 
970	 2.53107923068897E-02 
971	 2.44309484969087E-02 
972	 2.41619495371594E-02 
973	 2.52220819580579E-02 
974	 2.60148991322911E-02 
975	 2.37717323515134E-02 
976	 2.33127803400171E-02 
977	 2.37150603935823E-02 
978	 2.44396314307325E-02 
979	 0.025696631476944 
980	 2.59784155212621E-02 
981	 2.54940050157104E-02 
982	 2.52456113330311E-02 
983	 2.62552568751892E-02 
984	 2.63430602579566E-02 
985	 2.76239770980986E-02 
986	 2.89965246461106E-02 
987	 2.73972519251614E-02 
988	 0.026249032450887 
989	 0.02601149240646 
990	 2.62244370205165E-02 
991	 2.62013860588003E-02 
992	 2.74404984156537E-02 
993	 2.82292234752164E-02 
994	 2.84366184565831E-02 
995	 0.028828242623625 
996	 2.70953236776608E-02 
997	 2.66434543204321E-02 
998	 2.76006691296108E-02 
999	 2.79730907294972E-02 
1000	 2.82665268218646E-02 
1001	 2.81708254881007E-02 
1002	 2.80841017497397E-02 
1003	 2.80272197222865E-02 
1004	 2.80533390488781E-02 
1005	 0.028007401065903 
1006	 2.78326601347043E-02 
1007	 2.78658569922117E-02 
1008	 2.78685103595812E-02 
1009	 2.77963815253169E-02 
1010	 2.78806679257239E-02 
1011	 2.80335328354839E-02 
1012	 2.81583316452607E-02 
1013	 2.82071111765145E-02 
1014	 2.82544423496558E-02 
1015	 2.81740937497712E-02 
1016	 2.82592190436376E-02 
1017	 2.85552248490421E-02 
1018	 2.85753643206905E-02 
1019	 2.84463188870621E-02 
1020	 2.84662616379187E-02 
1021	 2.85021117707199E-02 
1022	 2.83212833825527E-02 
1023	 2.82171829261016E-02 
1024	 0.028389004316929 
1025	 2.85473044207858E-02 
1026	 0.028742037496085 
1027	 2.89108060150241E-02 
1028	 0.029415154874026 
1029	 2.93871511764986E-02 
1030	 2.89492527648692E-02 
1031	 2.87811619333021E-02 
1032	 2.84308816945563E-02 
1033	 2.83415428336795E-02 
1034	 0.028570311107199 
1035	 2.85124968456725E-02 
1036	 2.83638366530516E-02 
1037	 0.028292778783068 
1038	 2.79159375624464E-02 
1039	 2.79790895388025E-02 
1040	 2.83869246131441E-02 
1041	 2.86544513793329E-02 
1042	 2.87516036203372E-02 
1043	 2.89593816339526E-02 
1044	 2.88609797765301E-02 
1045	 2.82201900797491E-02 
1046	 2.81776199206505E-02 
1047	 2.83682314779904E-02 
1048	 2.83887885872581E-02 
1049	 2.87135112457441E-02 
1050	 2.87387106905789E-02 
1051	 2.84425650592346E-02 
1052	 2.82637444461429E-02 
1053	 2.78368337536166E-02 
1054	 2.77947174638469E-02 
1055	 2.81270245738012E-02 
1056	 2.82204927966661E-02 
1057	 2.83272021008129E-02 
1058	 2.86857101213436E-02 
1059	 2.87273618549351E-02 
1060	 0.028411706830064 
1061	 2.83852420804995E-02 
1062	 2.85632785087298E-02 
1063	 2.84412881114497E-02 
1064	 0.028162680875874 
1065	 2.80111125220838E-02 
1066	 2.76857643472307E-02 
1067	 2.75236886264415E-02 
1068	 2.75897592915634E-02 
1069	 2.75677722616821E-02 
1070	 2.74634550816287E-02 
1071	 2.74451169205663E-02 
1072	 2.75268447285142E-02 
1073	 2.75919755642741E-02 
1074	 2.75191503239606E-02 
1075	 2.74450439188807E-02 
1076	 2.73309389995226E-02 
1077	 2.70196079271752E-02 
1078	 0.026867530577686 
1079	 2.67467936077096E-02 
1080	 2.67145459965959E-02 
1081	 2.68292108222451E-02 
1082	 2.68108680121715E-02 
1083	 2.68623860717169E-02 
1084	 2.67742249224879E-02 
1085	 0.026354011242741 
1086	 2.62648913940702E-02 
1087	 2.64243182184822E-02 
1088	 2.64005232197876E-02 
1089	 2.65508017163407E-02 
1090	 2.65001552465132E-02 
1091	 2.63715799146442E-02 
1092	 2.59639194188479E-02 
1093	 2.58332899061077E-02 
1094	 2.59287278790419E-02 
1095	 2.55558888102896E-02 
1096	 2.47985882157509E-02 
1097	 2.44096586695371E-02 
1098	 2.38696158581493E-02 
1099	 2.35989337182929E-02 
1100	 0.023816991890354 
1101	 2.38419634701208E-02 
1102	 0.023836569905566 
1103	 2.36868291758458E-02 
1104	 2.32989741368159E-02 
1105	 2.34347909424918E-02 
1106	 2.32580213409994E-02 
1107	 2.29097700859527E-02 
1108	 2.26304534978272E-02 
1109	 0.022259493288339 
1110	 2.21340787435297E-02 
1111	 2.21512079379534E-02 
1112	 2.20584180757899E-02 
1113	 2.26387842845051E-02 
1114	 0.022272804019037 
1115	 2.02980646703291E-02 
1116	 1.92488542009859E-02 
1117	 1.76051602837225E-02 
1118	 1.67601917154063E-02 
1119	 1.88196937725364E-02 
1120	 1.95760175258436E-02 
1121	 0.020759005317133 
1122	 2.05236048971806E-02 
1123	 1.89774365349588E-02 
1124	 0.019411072573369 
1125	 1.85240238313316E-02 
1126	 1.59235139029364E-02 
1127	 1.72460605229265E-02 
1128	 1.90555311902595E-02 
1129	 1.78759468397232E-02 
1130	 1.58876306808494E-02 
1131	 1.61440262659228E-02 
1132	 1.51611452263058E-02 
1133	 1.53267059855153E-02 
1134	 1.93029122914315E-02 
1135	 0.019571247713955 
1136	 1.59767489964264E-02 
1137	 1.58660831102775E-02 
1138	 1.63193042097569E-02 
1139	 1.77042233409874E-02 
1140	 1.97727171882746E-02 
1141	 1.90124757410081E-02 
1142	 1.63184953414162E-02 
1143	 1.61000051360853E-02 
1144	 1.56283002067503E-02 
1145	 1.56823431274693E-02 
1146	 1.90685483840642E-02 
1147	 0.017973240729817 
1148	 1.52751541331152E-02 
1149	 0.019197939145027 
1150	 1.98940759642436E-02 
1151	 1.85446245414372E-02 
1152	 1.87137125493935E-02 
1153	 1.94487902642226E-02 
1154	 1.89710901153842E-02 
1155	 0.017332095551426 
1156	 1.91804043488111E-02 
1157	 2.04279571186605E-02 
1158	 2.04870189884066E-02 
1159	 2.13966904970155E-02 
1160	 2.15449182020429E-02 
1161	 2.12872601114296E-02 
1162	 2.18159124233516E-02 
1163	 2.21318159222686E-02 
1164	 2.23950835962355E-02 
1165	 2.28329334225126E-02 
1166	 2.27239785261205E-02 
1167	 2.25438946455052E-02 
1168	 2.27434261375786E-02 
1169	 2.30155380004627E-02 
1170	 2.33249892318638E-02 
1171	 2.35873253196073E-02 
1172	 2.41736320264836E-02 
1173	 2.43357137329275E-02 
1174	 2.42305034087536E-02 
1175	 2.40767823172291E-02 
1176	 2.41082283421116E-02 
1177	 2.39384509592581E-02 
1178	 2.36342697388332E-02 
1179	 2.37015977144561E-02 
1180	 2.39860873965075E-02 
1181	 2.42205571067903E-02 
1182	 2.44934332927645E-02 
1183	 2.44983218476394E-02 
1184	 0.023849314780359 
1185	 2.35255146620348E-02 
1186	 2.40921280533292E-02 
1187	 2.42941473192495E-02 
1188	 2.41140926721435E-02 
1189	 2.42541040390799E-02 
1190	 2.40580820636165E-02 
1191	 2.37532336567894E-02 
1192	 2.37956727096459E-02 
1193	 2.44339449479523E-02 
1194	 2.46830882031986E-02 
1195	 2.42687090169259E-02 
1196	 0.024075579154192 
1197	 0.024230178219244 
1198	 2.41989423552085E-02 
1199	 2.41599664649199E-02 
1200	 2.44912354048644E-02 
1201	 2.45927606330647E-02 
1202	 0.024462672155137 
1203	 2.45804562455843E-02 
1204	 2.47097174223846E-02 
1205	 2.47775438368325E-02 
1206	 2.47688564066654E-02 
1207	 2.47049877678865E-02 
1208	 2.46774932361782E-02 
1209	 2.46740354648679E-02 
1210	 2.47163272715252E-02 
1211	 2.47402075070055E-02 
1212	 2.47489675085828E-02 
1213	 2.46585992992263E-02 
1214	 2.46284330169378E-02 
1215	 2.45137609774902E-02 
1216	 2.46412792023543E-02 
1217	 2.47637010325312E-02 
1218	 2.48192200412799E-02 
1219	 2.47925307112455E-02 
1220	 2.46249309455968E-02 
1221	 2.47420256875863E-02 
1222	 2.50398590383167E-02 
1223	 2.51500966270482E-02 
1224	 2.52206250894425E-02 
1225	 2.51013843449822E-02 
1226	 2.48143222545498E-02 
1227	 2.48757361553052E-02 
1228	 0.025172031385861 
1229	 2.53233771987758E-02 
1230	 2.54268022101653E-02 
1231	 2.55026221166674E-02 
1232	 2.54827218117102E-02 
1233	 2.54560536447777E-02 
1234	 0.025446801832562 
1235	 2.55182502418162E-02 
1236	 2.56161808463223E-02 
1237	 2.56656409682454E-02 
1238	 2.57842854484052E-02 
1239	 2.58657111158058E-02 
1240	 2.57816122971115E-02 
1241	 2.56589068231949E-02 
1242	 2.57277649464025E-02 
1243	 2.58384907642323E-02 
1244	 2.59158902854398E-02 
1245	 2.58246356175838E-02 
1246	 0.025745443669935 
1247	 2.58791903182771E-02 
1248	 2.58334704059873E-02 
1249	 2.57750096744918E-02 
1250	 2.58058617427566E-02 
1251	 2.55888155676466E-02 
1252	 0.025454703611717 
1253	 2.55285276202921E-02 
1254	 2.53123882645225E-02 
1255	 2.50849769245397E-02 
1256	 2.50701875518172E-02 
1257	 2.52535846029584E-02 
1258	 0.025177925736215 
1259	 2.51011780600826E-02 
1260	 2.51382999592684E-02 
1261	 2.51682211802391E-02 
1262	 2.50033043268573E-02 
1263	 0.024827388774638 
1264	 2.47195618214223E-02 
1265	 2.46070321367501E-02 
1266	 2.44213832371441E-02 
1267	 2.45631079282702E-02 
1268	 0.024880496912364 
1269	 2.46835685334055E-02 
1270	 0.024377740482965 
1271	 2.43122972520882E-02 
1272	 2.42910891758421E-02 
1273	 2.44314468262323E-02 
1274	 2.44967811291232E-02 
1275	 2.45085705179582E-02 
1276	 2.46299501906239E-02 
1277	 2.45243782099847E-02 
1278	 2.45179526590946E-02 
1279	 0.024729852164225 
1280	 2.47457443374208E-02 
1281	 2.46966150106376E-02 
1282	 2.45264519682193E-02 
1283	 2.44907805004942E-02 
1284	 2.44185524050367E-02 
1285	 2.43702583493931E-02 
1286	 2.45586547867213E-02 
1287	 2.45478327190305E-02 
1288	 2.42698597256886E-02 
1289	 2.41465014137384E-02 
1290	 2.40693073078308E-02 
1291	 2.39035805698237E-02 
1292	 0.02374114659776 
1293	 2.36957247222838E-02 
1294	 2.36316798827579E-02 
1295	 0.023604590422666 
1296	 2.35378875470201E-02 
1297	 2.34403735252892E-02 
1298	 2.33975581901517E-02 
1299	 2.31448735345613E-02 
1300	 2.27464312292374E-02 
1301	 2.26085300738378E-02 
1302	 2.27096149445757E-02 
1303	 2.26637386468001E-02 
1304	 2.24522907576564E-02 
1305	 2.23946951015889E-02 
1306	 2.23649849024722E-02 
1307	 2.21300268688463E-02 
1308	 2.18599866616397E-02 
1309	 2.17448660151497E-02 
1310	 2.17089700746855E-02 
1311	 2.14881091650917E-02 
1312	 2.12922510091538E-02 
1313	 2.14841396809711E-02 
1314	 2.14235034806817E-02 
1315	 2.09115897559049E-02 
1316	 2.06089453176662E-02 
1317	 2.04742723066798E-02 
1318	 2.02603222699227E-02 
1319	 1.99188409058497E-02 
1320	 1.97720593459813E-02 
1321	 1.97264347961207E-02 
1322	 1.98748168561548E-02 
1323	 1.98706734083503E-02 
1324	 1.98221436792552E-02 
1325	 1.98751761837771E-02 
1326	 1.96314809629553E-02 
1327	 1.90608051489187E-02 
1328	 1.86943206215413E-02 
1329	 1.88346464189414E-02 
1330	 1.85734134291549E-02 
1331	 1.77664754186272E-02 
1332	 1.78082030562458E-02 
1333	 0.018367820374047 
1334	 1.83428163709791E-02 
1335	 1.77455596931238E-02 
1336	 1.68404582195913E-02 
1337	 1.70313349791255E-02 
1338	 1.72447902669637E-02 
1339	 0.0166352416175 
1340	 1.66382238863711E-02 
1341	 1.70348470209069E-02 
1342	 1.62333608972295E-02 
1343	 0.015730198704981 
1344	 1.71448134837039E-02 
1345	 1.78955462384666E-02 
1346	 0.017307470983857 
1347	 1.56066824441745E-02 
1348	 1.27174547992539E-02 
1349	 1.28749070846084E-02 
1350	 1.11357098722996E-02 
1351	 6.5779273176099E-03 
1352	 0.017058420528272 
1353	 2.08427961337342E-02 
1354	 5.27879171060455E-03 
1355	-3.81251060409515E-02 
1356	-6.04112319685552E-02 
1357	-4.74700241206811E-02 
1358	-6.00288060495119E-02 
1359	-6.46961563342831E-02 
1360	 4.62068728095585E-02 
1361	 0.024524259675348 
1362	-0.139026089947588 
1363	-7.80533078564972E-02 
1364	 5.64938798333879E-02 
1365	 9.05927821311377E-02 
1366	 0.152707625951887 
1367	 0.21867558824979 
1368	 0.284286258649567 
1369	 0.130755075252353 
1370	 9.18366193998864E-02 
1371	 0.342678378113938 
1372	 0.34549327720472 
1373	 6.92114752602518E-02 
1374	-1.56981788521597E-02 
1375	 6.38340809414359E-02 
1376	-6.50474824108158E-03 
1377	-0.211854621393951 
1378	 9.24619704000506E-02 
1379	 0.367300820024607 
1380	 0.281803713283112 
1381	-1.29153287891346E-02 
1382	-0.111548418434728 
1383	-0.615792142389119 
1384	-0.987168078516548 
1385	-0.501763461831436 
1386	-0.194483720949006 
1387	 0.164857755177727 
1388	 0.274270256484325 
1389	 0.480808306412347 
1390	 0.5452272892906 
1391	 0.30110918661971 
1392	 6.15002894047155E-02 
1393	-9.27227928422601E-02 
1394	-0.215919496116025 
1395	-0.105951476804298 
1396	-0.328959168805021 
1397	-0.56543518471726 
1398	-4.47369337812847E-02 
1399	 0.156719611936773 
1400	 5.06079542814744E-02 
1401	 0.281220048540023 
1402	 0.561175457526892 
1403	 0.353977199985418 
1404	 1.26889882163013E-02 
1405	-2.27191183343831E-03 
1406	 0.078050699353216 
1407	-1.53065295035145E-02 
1408	-7.38412236426663E-02 
1409	-2.63078776645336E-02 
1410	-3.61826877595734E-02 
1411	-0.041959685641125 
1412	 0.105165413941839 
1413	 0.151439693316547 
1414	 4.56853435748549E-02 
1415	 2.97113527198119E-03 
1416	 4.15124069316901E-02 
1417	 1.71814871981074E-02 
1418	-6.53846293078507E-02 
1419	-4.71129790894614E-02 
1420	 1.90316724124153E-02 
1421	-1.99089498486879E-03 
1422	-5.52683047345621E-02 
1423	-3.40250370650029E-02 
1424	-3.04890657110269E-03 
1425	-7.61883104226083E-03 
1426	 5.60619013166346E-03 
1427	 0.014749128965383 
1428	-3.74819209843729E-03 
1429	-8.79960948285052E-03 
1430	 9.28963687996604E-03 
1431	 1.24799088514822E-02 
1432	-2.75920075894212E-03 
1433	-7.50444272891846E-03 
1434	-8.62511687101829E-03 
1435	-6.30880654405541E-03 
1436	-3.80326792726895E-03 
1437	 1.04332253898642E-02 
1438	 2.00400624496753E-02 
1439	 2.34601225419298E-02 
1440	 2.17876795595017E-02 
1441	 1.33514226981523E-02 
1442	 6.25197651471429E-03 
1443	 3.87329629874578E-03 
1444	 6.3620079055056E-03 
1445	 8.97438011707801E-03 
1446	 7.27943130243329E-03 
1447	 9.27507861067934E-03 
1448	 1.54849117817096E-02 
1449	 0.013467153067102 
1450	 9.22036619744916E-03 
1451	 1.01954737672787E-02 
1452	 1.08313341293694E-02 
1453	 1.14276670426285E-02 
1454	 1.17397649191658E-02 
1455	 1.39803632228017E-02 
1456	 1.43297788969935E-02 
1457	 1.29479031651323E-02 
1458	 1.26477175210384E-02 
1459	 1.27926814288416E-02 
1460	 1.33139912785999E-02 
1461	 1.39702614460657E-02 
1462	 1.41107928578502E-02 
1463	 0.014921487746135 
1464	 1.50258481025093E-02 
1465	 1.37349917869374E-02 
1466	 1.35523709742198E-02 
1467	 1.42799467575993E-02 
1468	 1.40887879775778E-02 
1469	 1.34162680819875E-02 
1470	 1.35080368754165E-02 
1471	 1.33648146919714E-02 
1472	 1.33826686012182E-02 
1473	 0.014384508121067 
1474	 1.47849695829562E-02 
1475	 1.50072746669322E-02 
1476	 1.46720221051025E-02 
1477	 1.36001139781743E-02 
1478	 1.36003295285611E-02 
1479	 1.31905574287239E-02 
1480	 1.37011990999499E-02 
1481	 1.59829663865144E-02 
1482	 1.62446161901594E-02 
1483	 1.53702003145567E-02 
1484	 0.015718348807187 
1485	 1.63816411499427E-02 
1486	 1.60463130642778E-02 
1487	 1.50875542605863E-02 
1488	 1.55975112677458E-02 
1489	 1.65237618775602E-02 
1490	 1.66914584650179E-02 
1491	 1.73269398805379E-02 
1492	 1.77715464790699E-02 
1493	 1.74775178505694E-02 
1494	 1.73729133259938E-02 
1495	 1.75024462176703E-02 
1496	 1.78853892658817E-02 
1497	 1.84580113813448E-02 
1498	 1.85284324434109E-02 
1499	 1.84793442591466E-02 
1500	 1.87098181107666E-02 
1501	 1.85788774803174E-02 
1502	 1.86703910950256E-02 
1503	 1.94986698906225E-02 
1504	 1.98342511401123E-02 
1505	 1.97728382291395E-02 
1506	 1.97777896734161E-02 
1507	 2.00198234975106E-02 
1508	 1.99140833718628E-02 
1509	 1.96453213510062E-02 
1510	 1.97211789840733E-02 
1511	 2.01118183327187E-02 
1512	 2.01174441927733E-02 
1513	 2.01288016275777E-02 
1514	 2.05917985034943E-02 
1515	 0.020628454146049 
1516	 0.020393802679867 
1517	 2.05475691313077E-02 
1518	 2.05395830091739E-02 
1519	 2.04776330252164E-02 
1520	 2.08488508791623E-02 
1521	 2.11070493963817E-02 
1522	 2.10949181340413E-02 
1523	 2.12422145064599E-02 
1524	 2.13654223612194E-02 
1525	 2.11952649960444E-02 
1526	 2.10783576208204E-02 
1527	 2.11398765160828E-02 
1528	 2.12346536868793E-02 
1529	 2.13690102924319E-02 
1530	 2.14610386851271E-02 
1531	 2.14443262596684E-02 
1532	 2.15144864581202E-02 
1533	 2.15946030835908E-02 
1534	 2.15585867134977E-02 
1535	 2.15462230113757E-02 
1536	 2.15154248225114E-02 
1537	 2.15796106105559E-02 
1538	 2.17962385611603E-02 
1539	 2.20571744086936E-02 
1540	 2.19491867179362E-02 
1541	 2.15629411710881E-02 
1542	 2.16776089355662E-02 
1543	 2.16741355255532E-02 
1544	 2.14061017100987E-02 
1545	 2.16793698130457E-02 
1546	 2.18675925415882E-02 
1547	 2.18017670933258E-02 
1548	 2.18795752557321E-02 
1549	 0.021903040645088 
1550	 2.19052421899097E-02 
1551	 2.19774768528506E-02 
1552	 2.20251556409435E-02 
1553	 2.19854862378837E-02 
1554	 2.19630658767016E-02 
1555	 2.19674746832846E-02 
1556	 2.19946091748007E-02 
1557	 2.21159570640067E-02 
1558	 2.21481096713648E-02 
1559	 2.19151145126879E-02 
1560	 2.17318948847074E-02 
1561	 2.18082869638926E-02 
1562	 0.021806388976543 
1563	 0.021709737608988 
1564	 2.17456713161724E-02 
1565	 2.18656521056566E-02 
1566	 2.18899016992469E-02 
1567	 2.18441548245001E-02 
1568	 2.18327841348498E-02 
1569	 2.17563282034893E-02 
1570	 2.16158276388437E-02 
1571	 2.15752404405471E-02 
1572	 2.17044664795317E-02 
1573	 2.17191089339936E-02 
1574	 2.16960248083621E-02 
1575	 2.18251546227824E-02 
1576	 2.18005858168015E-02 
1577	 2.18050565370162E-02 
1578	 0.021840697181258 
1579	 2.15950660598155E-02 
1580	 2.15296330496394E-02 
1581	 2.16033468237146E-02 
1582	 0.021531894268102 
1583	 2.14837756535716E-02 
1584	 0.021488990561147 
1585	 0.021645317636333 
1586	 0.021562893423573 
1587	 2.14052521399319E-02 
1588	 2.17170911008669E-02 
1589	 2.18693882748412E-02 
1590	 2.17263651518957E-02 
1591	 2.18378751055953E-02 
1592	 2.18918100147405E-02 
1593	 2.17547277206075E-02 
1594	 2.17093373294936E-02 
1595	 2.15679254144698E-02 
1596	 2.14448642468157E-02 
1597	 2.15537142730487E-02 
1598	 2.17125360292546E-02 
1599	 2.15829757501307E-02 
1600	 2.13644779094977E-02 
1601	 2.14526410873017E-02 
1602	 2.13779934180596E-02 
1603	 2.12855909189233E-02 
1604	 2.16080907283483E-02 
1605	 2.18337417870854E-02 
1606	 2.17795273011284E-02 
1607	 2.17099593854196E-02 
1608	 2.16057941031647E-02 
1609	 0.021378697747379 
1610	 0.02145189170323 
1611	 0.021795040183366 
1612	 2.17556824131846E-02 
1613	 2.17157973747354E-02 
1614	 2.17207665715088E-02 
1615	 2.15020910046164E-02 
1616	 2.16439957498016E-02 
1617	 2.17617798691671E-02 
1618	 2.16076934710639E-02 
1619	 2.14723303399011E-02 
1620	 2.13704496421098E-02 
1621	 2.16600584628776E-02 
1622	 2.19314704440663E-02 
1623	 2.19423207458098E-02 
1624	 2.19449322919134E-02 
1625	 2.17391505195571E-02 
1626	 2.14721662486052E-02 
1627	 2.13085264408429E-02 
1628	 2.13850888254755E-02 
1629	 2.15617524953317E-02 
1630	 2.14025128382603E-02 
1631	 2.14190962521554E-02 
1632	 2.17944764322671E-02 
1633	 2.17161027569921E-02 
1634	 2.13716024041715E-02 
1635	 2.13076833692397E-02 
1636	 2.13780767239994E-02 
1637	 2.14564343804777E-02 
1638	 2.16497369694986E-02 
1639	 0.021917882376989 
1640	 2.18734274742545E-02 
1641	 2.17118694763213E-02 
1642	 2.17219587082732E-02 
1643	 0.021703147835492 
1644	 2.13669525171799E-02 
1645	 2.10165859771382E-02 
1646	 2.11457090960176E-02 
1647	 2.11963458576708E-02 
1648	 2.11857131403846E-02 
1649	 2.14863200539615E-02 
1650	 2.14760101864315E-02 
1651	 2.11992230478565E-02 
1652	 2.12911075008512E-02 
1653	 2.13615770307814E-02 
1654	 2.13708020443035E-02 
1655	 2.13687387984968E-02 
1656	 2.13279341133623E-02 
1657	 2.12425296541028E-02 
1658	 2.12389173114163E-02 
1659	 2.12791818726973E-02 
1660	 2.13093165044793E-02 
1661	 2.13372708189822E-02 
1662	 2.14792278342999E-02 
1663	 2.18114073780245E-02 
1664	 0.021662816434254 
1665	 2.12521448996196E-02 
1666	 2.12764035105448E-02 
1667	 2.12220527149165E-02 
1668	 2.11054230471644E-02 
1669	 2.11195371859064E-02 
1670	 2.09812990421412E-02 
1671	 2.08699580626937E-02 
1672	 2.11135023828968E-02 
1673	 2.13154180338137E-02 
1674	 2.10767690506066E-02 
1675	 2.09505755383658E-02 
1676	 2.11711105505988E-02 
1677	 2.11877036543169E-02 
1678	 2.11892490676555E-02 
1679	 2.14842375464346E-02 
1680	 2.14194071353082E-02 
1681	 2.11375123772551E-02 
1682	 2.12401537799703E-02 
1683	 2.12152140578689E-02 
1684	 2.08628823505175E-02 
1685	 2.09143281402478E-02 
1686	 2.12582607268695E-02 
1687	 2.11821688013232E-02 
1688	 2.10242369007773E-02 
1689	 2.11030245304163E-02 
1690	 2.11446486755215E-02 
1691	 2.11563571457024E-02 
1692	 2.14339904914098E-02 
1693	 2.15986486670275E-02 
1694	 2.09595125698499E-02 
1695	 2.05045018307304E-02 
1696	 2.07085517353684E-02 
1697	 2.07895394786718E-02 
1698	 2.08979961228152E-02 
1699	 0.020792666967634 
1700	 2.06554140731757E-02 
1701	 2.08459364404286E-02 
1702	 2.07729145934939E-02 
1703	 2.09026903565617E-02 
1704	 2.11850753196857E-02 
1705	 2.06354779892465E-02 
1706	 2.02345668255796E-02 
1707	 2.07005640033668E-02 
1708	 2.05546773128864E-02 
1709	 0.020180213377968 
1710	 2.06168740945876E-02 
1711	 2.06398997591579E-02 
1712	 0.020402750919808 
1713	 2.09976553075227E-02 
1714	 2.10623645350525E-02 
1715	 2.09717006467788E-02 
1716	 2.07629655607404E-02 
1717	 2.06189393711261E-02 
1718	 2.04599783181893E-02 
1719	 0.020471880422231 
1720	 2.08594068928914E-02 
1721	 2.07106402577331E-02 
1722	 2.04002458516768E-02 
1723	 2.06716922302722E-02 
1724	 2.05662481706813E-02 
1725	 2.03238207142628E-02 
1726	 2.07172041259337E-02 
1727	 2.05868095221971E-02 
1728	 2.01491757524482E-02 
1729	 2.00873196667735E-02 
1730	 1.99006868619732E-02 
1731	 1.99953515163835E-02 
1732	 2.00536520272538E-02 
1733	 1.97399117721746E-02 
1734	 1.97715274623677E-02 
1735	 0.019825643877353 
1736	 1.98182539376148E-02 
1737	 2.02777436315444E-02 
1738	 2.05292726822588E-02 
1739	 2.02689417082376E-02 
1740	 1.98036730723345E-02 
1741	 1.94815212224552E-02 
1742	 0.019905770660367 
1743	 0.020232422543848 
1744	 2.00271936891471E-02 
1745	 1.99879442981332E-02 
1746	 1.93535418016037E-02 
1747	 1.90734423455422E-02 
1748	 1.96976436194326E-02 
1749	 1.97913354999479E-02 
1750	 1.93868303366455E-02 
1751	 0.019477748596193 
1752	 1.98593270660807E-02 
1753	 1.97909417252985E-02 
1754	 1.96568835272372E-02 
1755	 1.93215956725846E-02 
1756	 1.83407327895606E-02 
1757	 0.01864260020647 
1758	 1.89932752969512E-02 
1759	 1.92062074572134E-02 
1760	 1.95419371686066E-02 
1761	 1.88953846756589E-02 
1762	 1.79723202297835E-02 
1763	 1.78552328554383E-02 
1764	 1.76006050977733E-02 
1765	 1.74414166159109E-02 
1766	 1.77693027526055E-02 
1767	 1.82948975595399E-02 
1768	 1.83933390862822E-02 
1769	 1.78136614118189E-02 
1770	 1.76559066651655E-02 
1771	 1.74251518144877E-02 
1772	 1.64474910621556E-02 
1773	 1.64510048129729E-02 
1774	 1.72363213478616E-02 
1775	 1.80161441174595E-02 
1776	 1.79181258328963E-02 
1777	 1.76405240273997E-02 
1778	 1.69929533191156E-02 
1779	 1.38698896559232E-02 
1780	 1.31131937664777E-02 
1781	 1.42750729729979E-02 
1782	 1.52588739838016E-02 
1783	 1.87137473587353E-02 
1784	 1.93527180519242E-02 
1785	 1.76251042270632E-02 
1786	 0.016750554973841 
1787	 1.38121978997334E-02 
1788	 1.32499774400926E-02 
1789	 1.56082047751528E-02 
1790	 1.62040525244386E-02 
1791	 1.79335282616258E-02 
1792	 1.98025209598029E-02 
1793	 1.87791131707583E-02 
1794	 1.81479513271076E-02 
1795	 1.53477600473383E-02 
1796	 1.39449331947122E-02 
1797	 1.57310425280667E-02 
1798	 0.017248691376414 
1799	 2.29024431860701E-02 
1800	 1.65074008167212E-02 
1801	 1.54165509909017E-02 
1802	 1.79369508805678E-02 
1803	 0.016724328523865 
1804	 2.54076248950319E-02 
1805	 2.76108112866079E-02 
1806	 2.90313594503503E-03 
1807	 2.29881078865186E-03 
1808	 2.87357418313259E-02 
1809	 3.63057423299912E-02 
1810	 6.00172729613482E-02 
1811	 9.58025295527213E-02 
1812	 0.124242844324961 
1813	 0.118255040485336 
1814	 0.105413370627157 
1815	 2.51734041527171E-02 
1816	-0.396063332841024 
1817	-0.298168636530121 
1818	-8.70196964787342E-02 
1819	 0.138788291932579 
1820	 0.507339565158772 
1821	 0.252447974704532 
1822	 0.28531899005655 
1823	 0.501154224465073 
1824	 0.551493958614346 
1825	 1.37163676738337 
1826	 1.45852114223211 
1827	 0.157357245598518 
1828	 8.26177405099381E-02 
1829	 0.323114692493454 
1830	 0.286852276292151 
1831	 2.45577794427728 
1832	-39.1155726066434 
1833	 0.325577933211881 
1834	 0.51042458780139 
1835	 1.17654318998812 
1836	 3.42230319106616 
1837	-0.616308311917703 
1838	-0.407362204579384 
1839	-0.368241267291563 
1840	-0.413691153751943 
1841	-0.773816412251805 
1842	-1.97068537896263 
1843	-1.70527364619644 
1844	-0.472460255713947 
1845	-0.25524573598929 
1846	 0.126654230785213 
1847	 0.192996103244962 
1848	 0.162182182340926 
1849	 0.146576654644841 
1850	-0.214251965858449 
1851	-0.586438972665243 
1852	-0.421054313864538 
1853	-0.395579288434632 
1854	-0.310909379148685 
1855	 0.181604697926004 
1856	 0.164851996491382 
1857	 2.50260898746187 
1858	 2.38607977721443 
1859	-2.50842450406937 
1860	-2.18737230837769 
1861	-2.22953315411101 
1862	-1.29311935281202 
1863	-1.47406564712732 
1864	-20.965500068077 
1865	 3.27437575437261 
1866	-1.48709530697998 
1867	-0.634997037735773 
1868	-1.43268442392573 
1869	-4.31868474853744 
1870	-1.59636680034264 
1871	-2.05669062333541 
1872	 0.725943311681407 
1873	-0.233107782186633 
1874	 7.73644793497069E-02 
1875	-0.150476028378076 
1876	-0.23729250767573 
1877	-0.457242857452637 
1878	-0.843530847540897 
1879	 7.03638758801417 
1880	 2.25707926960042 
1881	 1.6141086626952 
1882	 1.39434280948884 
1883	 2.86166846114091 
1884	 3.74112437334133 
1885	 1.65897548792508 
1886	 2.47082258819909 
1887	-6.51589698226434 
1888	-1.46313333966076 
1889	-1.31692092408666 
1890	-3.21549980579144 
1891	-2.82280675895054 
1892	-5.22460368001158 
1893	-1.11694427600789 
1894	-0.662473354838154 
1895	-0.426370760155131 
1896	-1.12102264687345 
1897	-29.7043175688178 
1898	 4.40181362867441 
1899	-15.4119712281515 
1900	 1.08600342245601 
1901	 0.719811023393885 
1902	 0.46594491588388 
1903	-0.105100978884566 
1904	-0.149171882606642 
1905	-0.495490190932933 
1906	-0.424803175605434 
1907	-0.137625055857807 
1908	-0.312716972613745 
1909	-0.926861785340007 
1910	-7.78749915487828 
1911	 1.66508787687177 
1912	 1.36571650362872 
1913	 1.75886455224483 
1914	-1.22625562137936 
1915	-0.713136306761232 
1916	-0.654684924222515 
1917	-0.628273953697378 
1918	-0.197518084010787 
1919	-5.27574228602825E-02 
1920	 1.06443377545243E-02 
1921	-4.21642389211584E-02 
1922	-0.122354798700232 
1923	-0.460115218366865 
1924	-1.4485216476742 
1925	-2.69440685800441 
1926	-4.9508109266384 
1927	-18.4767084232163 
1928	 5.05645536434662 
1929	 1.33645550351678 
1930	 0.142364159051215 
1931	 0.50545535928208 
1932	 1.16956058058749 
1933	 9.87170995934027E-02 
1934	 3.96079643967921E-02 
1935	 0.242220033953876 
1936	 0.240750448297523 
1937	 0.238598099525077 
1938	 0.193884252061109 
1939	 0.163201623673642 
1940	 9.00629425019842E-02 
1941	 2.88621773325086E-02 
1942	 4.15494337928021E-02 
1943	 7.29169440954706E-02 
1944	 3.84446907021493E-02 
1945	 7.97983796687632E-02 
1946	 0.126511090535687 
1947	 0.10719153607402 
1948	 9.88022798193861E-02 
1949	 8.45670772637485E-02 
1950	 2.65099370350323E-02 
1951	 1.26035052450161E-02 
1952	 1.25285714636565E-02 
1953	 3.32902496291219E-02 
1954	 2.70529136694744E-02 
1955	 4.24584508956624E-02 
1956	 5.32529725108713E-02 
1957	 4.32728784048026E-02 
1958	 3.19339705119044E-02 
1959	 2.01620512270844E-02 
1960	 1.58885370002371E-02 
1961	 2.06627801224062E-02 
1962	 2.53199013874948E-02 
1963	 2.82392226568204E-02 
1964	 3.02911375800457E-02 
1965	 2.83845918841895E-02 
1966	 2.64240862326869E-02 
1967	 2.42103905711667E-02 
1968	 0.023476401207429 
1969	 2.08395061639641E-02 
1970	 1.89060856633098E-02 
1971	 1.88798883580937E-02 
1972	 1.89845832844274E-02 
1973	 1.81549148717669E-02 
1974	 1.76244596846887E-02 
1975	 1.68869888311766E-02 
1976	 1.59047532404727E-02 
1977	 1.68106215945432E-02 
1978	 1.87611199459358E-02 
1979	 1.93157304036414E-02 
1980	 1.99700730206499E-02 
1981	 1.91343048773187E-02 
1982	 1.86178792577462E-02 
1983	 1.80381409417424E-02 
1984	 1.66530477875029E-02 
1985	 1.76114524030904E-02 
1986	 1.87279733988992E-02 
1987	 1.78428088552676E-02 
1988	 1.85296859312965E-02 
1989	 1.95331991992924E-02 
1990	 1.88873357550238E-02 
1991	 1.89245752912066E-02 
1992	 1.89265251416443E-02 
1993	 1.74532489186091E-02 
1994	 1.65650255456243E-02 
1995	 1.54626628389382E-02 
1996	 1.52243484633749E-02 
1997	 0.015499999504366 
1998	 1.63492633351922E-02 
1999	 1.65434211828197E-02 
2000	 1.62228322136025E-02 
2001	 1.52527836577274E-02 
2002	 1.49886957275494E-02 
2003	 1.70366305922617E-02 
2004	 1.91956226525612E-02 
2005	 2.22284159621158E-02 
2006	 2.21078112386479E-02 
2007	 1.86279891165969E-02 
2008	 1.69382723123631E-02 
2009	 1.60529000857674E-02 
2010	 1.47570413664787E-02 
2011	 1.41333896600051E-02 
2012	 1.53036617347865E-02 
2013	 1.59938407294005E-02 
2014	 0.015502377975475 
2015	 0.014090307711622 
2016	 1.47416044416262E-02 
2017	 0.015710791442431 
2018	 1.48933004077237E-02 
2019	 1.67215461931067E-02 
2020	 1.88358966692271E-02 
2021	 1.74980133278496E-02 
2022	 1.71231132588161E-02 
2023	 1.78598609220694E-02 
2024	 1.82058887002397E-02 
2025	 1.88476545544874E-02 
2026	 1.90112947846237E-02 
2027	 1.93287247208647E-02 
2028	 1.86412113998374E-02 
2029	 1.81811581691136E-02 
2030	 1.84631273948157E-02 
2031	 1.91425077109139E-02 
2032	 1.97847987574904E-02 
2033	 1.95289071213074E-02 
2034	 1.88726998881054E-02 
2035	 0.018871265988793 
2036	 1.90696288377251E-02 
2037	 1.99381545256357E-02 
2038	 2.08076033800846E-02 
2039	 2.09542481579525E-02 
2040	 2.05244359128359E-02 
2041	 2.02573663813527E-02 
2042	 1.91170456394473E-02 
2043	 1.90579968842083E-02 
2044	 1.98694400946172E-02 
2045	 2.00309338504227E-02 
2046	 1.98523791446885E-02 
2047	 0.019722166648814 
2048	 1.94008691650432E-02 
2049	 1.92346794949313E-02 
2050	 1.97492473895624E-02 
2051	 2.03838645706701E-02 
2052	 1.89847726949496E-02 
2053	 0.017695048928519 
2054	 1.81135553454263E-02 
2055	 1.82655016020303E-02 
2056	 0.018426042239875 
2057	 2.01269211295117E-02 
2058	 2.02609515273962E-02 
2059	 1.88239010752318E-02 
2060	 1.83091490993546E-02 
2061	 1.75350938288882E-02 
2062	 1.78284648971588E-02 
2063	 1.87491357840804E-02 
2064	 0.018942732131335 
2065	 1.89463563072475E-02 
2066	 1.88697598716731E-02 
2067	 1.94408202893783E-02 
2068	 1.97477709905983E-02 
2069	 1.98017544016166E-02 
2070	 2.04249825804986E-02 
2071	 2.07870914112157E-02 
2072	 2.13586534049532E-02 
2073	 2.15603584166272E-02 
2074	 2.25014685462246E-02 
2075	 2.24560385415614E-02 
2076	 2.11580935387129E-02 
2077	 2.05565958981434E-02 
2078	 1.99203911541287E-02 
2079	 1.96001771148833E-02 
2080	 0.019211288003995 
2081	 1.97554253269743E-02 
2082	 2.01946680929102E-02 
2083	 2.06264191082536E-02 
2084	 2.12307325765011E-02 
2085	 2.12345039880462E-02 
2086	 0.02039376112388 
2087	 2.00001565694561E-02 
2088	 2.03546640738912E-02 
2089	 2.03248951069523E-02 
2090	 0.019988235609708 
2091	 1.99736707299769E-02 
2092	 1.98748547332567E-02 
2093	 0.018789964585113 
2094	 1.87799600313929E-02 
2095	 0.019896973823743 
2096	 0.020225359303017 
2097	 2.06065584038557E-02 
2098	 2.07327931562393E-02 
2099	 2.04377609907194E-02 
2100	 0.020194511075569 
2101	 2.04081125381768E-02 
2102	 2.11376215815861E-02 
2103	 2.18181572050308E-02 
2104	 2.18029059559648E-02 
2105	 2.16056251807093E-02 
2106	 2.13629214022739E-02 
2107	 2.08932485409986E-02 
2108	 2.09788835872161E-02 
2109	 2.12367901621423E-02 
2110	 2.04842450104653E-02 
2111	 1.97169892655658E-02 
2112	 1.99735308835832E-02 
2113	 2.01760756794954E-02 
2114	 2.10092445418367E-02 
2115	 2.08694873938424E-02 
2116	 2.00914441785796E-02 
2117	 1.99689528124289E-02 
2118	 1.95939789046832E-02 
2119	 1.94185714919645E-02 
2120	 1.95829834209652E-02 
2121	 2.06143865838839E-02 
2122	 2.10126207215748E-02 
2123	 2.07210856552419E-02 
2124	 2.04669120418332E-02 
2125	 1.95700352471462E-02 
2126	 1.85891624638687E-02 
2127	 1.90776487113513E-02 
2128	 2.05546476567096E-02 
2129	 2.10579540963294E-02 
2130	 2.05606304606981E-02 
2131	 1.99332602888233E-02 
2132	 1.90199848458911E-02 
2133	 1.85040791668513E-02 
2134	 1.87964457878997E-02 
2135	 2.05708193679872E-02 
2136	 2.09742950826817E-02 
2137	 2.15002200154478E-02 
2138	 2.13877225786349E-02 
2139	 1.97036646749574E-02 
2140	 1.91782175247483E-02 
2141	 1.92266729679675E-02 
2142	 1.92393839097604E-02 
2143	 1.98282131017016E-02 
2144	 2.01491827276189E-02 
2145	 1.94031887093862E-02 
2146	 1.85123362759891E-02 
2147	 1.82422291317904E-02 
2148	 1.83287851951304E-02 
2149	 1.89638772241454E-02 
2150	 1.96341542159854E-02 
2151	 0.018944487620426 
2152	 1.85213442488463E-02 
2153	 1.92154828240432E-02 
2154	 1.93519944808959E-02 
2155	 1.93573389191993E-02 
2156	 1.94547913838627E-02 
2157	 1.95753605174735E-02 
2158	 1.92748454945948E-02 
2159	 1.91172542949766E-02 
2160	 1.94215491153591E-02 
2161	 1.93341866195131E-02 
2162	 1.84501251663863E-02 
2163	 1.87418356543079E-02 
2164	 1.96890939687951E-02 
2165	 2.01584044084728E-02 
2166	 2.14302490826176E-02 
2167	 2.15858165623713E-02 
2168	 2.06581915737974E-02 
2169	 2.05784090531764E-02 
2170	 2.05525554024542E-02 
2171	 2.04167972325353E-02 
2172	 2.02899221140779E-02 
2173	 1.99920103331959E-02 
2174	 1.95558027691163E-02 
2175	 1.81451812937962E-02 
2176	 0.018095689579684 
2177	 1.90891851469106E-02 
2178	 1.90434718989081E-02 
2179	 1.94740517217276E-02 
2180	 2.00372037180674E-02 
2181	 1.89430203483514E-02 
2182	 1.81121083539908E-02 
2183	 1.88408230801367E-02 
2184	 1.90991773771562E-02 
2185	 1.86158235244295E-02 
2186	 1.86603240587789E-02 
2187	 1.90759272197822E-02 
2188	 0.019392524894351 
2189	 1.95239554304309E-02 
2190	 1.99417349085123E-02 
2191	 2.10121069385656E-02 
2192	 2.10936700526232E-02 
2193	 2.07985720179674E-02 
2194	 2.06865974330177E-02 
2195	 1.98301348816021E-02 
2196	 1.97808678765886E-02 
2197	 2.06356169238101E-02 
2198	 2.06295509451306E-02 
2199	 2.09909919658407E-02 
2200	 1.98927216389968E-02 
2201	 1.78393277410132E-02 
2202	 1.74793549254521E-02 
2203	 1.91763343184249E-02 
2204	 2.02826499995888E-02 
2205	 2.14529576054753E-02 
2206	 2.24164359243407E-02 
2207	 2.09225651634845E-02 
2208	 1.95689556561996E-02 
2209	 1.89317734453078E-02 
2210	 1.80787630167228E-02 
2211	 0.019621900246028 
2212	 0.02079667180407 
2213	 2.02858208503554E-02 
2214	 2.08771628493921E-02 
2215	 2.13459544860285E-02 
2216	 2.13998870468792E-02 
2217	 2.12631598268928E-02 
2218	 2.19116638633681E-02 
2219	 0.021794516809336 
2220	 2.00707262825554E-02 
2221	 1.97366785497607E-02 
2222	 2.08723051925932E-02 
2223	 2.07896722629677E-02 
2224	 1.98856983968394E-02 
2225	 1.98182826252371E-02 
2226	 1.98254045391818E-02 
2227	 1.94847665401057E-02 
2228	 1.94709202632829E-02 
2229	 1.92733221471095E-02 
2230	 1.86644100620885E-02 
2231	 1.86256646380548E-02 
2232	 1.89638908865618E-02 
2233	 1.93405531020156E-02 
2234	 0.020317953930464 
2235	 2.00503114174036E-02 
2236	 1.96677225126924E-02 
2237	 1.94819938949134E-02 
2238	 1.99672742783684E-02 
2239	 1.95322568464693E-02 
2240	 1.84010796841777E-02 
2241	 1.78561471410738E-02 
2242	 1.73526318712081E-02 
2243	 1.67508138696124E-02 
2244	 1.73802083038558E-02 
2245	 1.93328917989107E-02 
2246	 2.00079334905351E-02 
2247	 1.99241841409673E-02 
2248	 2.08379768729836E-02 
2249	 2.20576681038827E-02 
2250	 0.022522095153403 
2251	 2.22925858367005E-02 
2252	 2.15599750780583E-02 
2253	 0.020725510660435 
2254	 2.07942972624335E-02 
2255	 0.022887062792086 
2256	 0.024552966604106 
2257	 2.35378372482193E-02 
2258	 2.30643800758339E-02 
2259	 2.20673278534715E-02 
2260	 0.021260478148829 
2261	 2.10487678511516E-02 
2262	 2.04307561662554E-02 
2263	 1.84079425875791E-02 
2264	 1.89540618072053E-02 
2265	 2.13079664535526E-02 
2266	 2.05447877672888E-02 
2267	 2.04592116515188E-02 
2268	 2.01997560656586E-02 
2269	 1.64353830625732E-02 
2270	 1.56065249788248E-02 
2271	 0.017563589805446 
2272	 1.75854363490369E-02 
2273	 1.69683663044369E-02 
2274	 1.73955979984034E-02 
2275	 0.018208216865711 
2276	 1.80548351493105E-02 
2277	 1.82224528921736E-02 
2278	 1.74764139005766E-02 
2279	 1.45309780683446E-02 
2280	 1.44594097529163E-02 
2281	 1.54806601598247E-02 
2282	 0.017074675863744 
2283	 1.85958401882176E-02 
2284	 1.81096158128457E-02 
2285	 1.57299493616016E-02 
2286	 1.36379372976008E-02 
2287	 1.28725842033064E-02 
2288	 1.41121297230798E-02 
2289	 1.69755893575265E-02 
2290	 1.61564982431235E-02 
2291	 1.44958213026618E-02 
2292	 1.69062431556783E-02 
2293	 1.80257121922773E-02 
2294	 1.66318180024328E-02 
2295	 1.38627461635381E-02 
2296	 1.06334085140961E-02 
2297	 9.54329969933152E-03 
2298	 0.011171647685208 
2299	 1.63141833008349E-02 
2300	 1.88257508622545E-02 
2301	 1.78030401400987E-02 
2302	 1.86645794016718E-02 
2303	 1.79874289568973E-02 
2304	 1.68862362660936E-02 
2305	 1.80296267946014E-02 
2306	 1.80771237490955E-02 
2307	 1.73923079320068E-02 
2308	 1.97372680379287E-02 
2309	 2.00131149460378E-02 
2310	 1.60803825394752E-02 
2311	 1.50478302345385E-02 
2312	 1.50356287629305E-02 
2313	 1.72785477653023E-02 
2314	 1.91479332599562E-02 
2315	 1.63961898338574E-02 
2316	 1.69092746341469E-02 
2317	 1.38978029810675E-02 
2318	 0.010435750742139 
2319	 0.016445693043206 
2320	 1.91594955395565E-02 
2321	 1.76592356136855E-02 
2322	 0.018918593580485 
2323	 2.11596166758391E-02 
2324	 2.16287460740204E-02 
2325	 2.36221495458306E-02 
2326	 2.92514110045217E-02 
2327	 2.86208646306238E-02 
2328	 2.41984515312639E-02 
2329	 2.50113125403766E-02 
2330	 2.67525940073025E-02 
2331	 2.55019190223198E-02 
2332	 2.21110988350423E-02 
2333	 2.10231567519727E-02 
2334	 2.15130939810786E-02 
2335	 2.08603293483047E-02 
2336	 2.23771576706688E-02 
2337	 2.25700399557399E-02 
2338	 1.67044437541105E-02 
2339	 1.23105335618193E-02 
2340	 0.0143732804164 
2341	 1.46496919179038E-02 
2342	 1.57285371460366E-02 
2343	 2.01043908010317E-02 
2344	 1.60526591410197E-02 
2345	 1.28705471902652E-02 
2346	 0.023040116925882 
2347	 2.89751345582218E-02 
2348	 2.94108682667857E-02 
2349	 3.40880239625399E-02 
2350	 2.70467669286469E-02 
2351	 1.52777033238141E-02 
2352	 1.50384659692596E-02 
2353	 1.70865884033956E-02 
2354	 1.59467891534405E-02 
2355	 1.62560380091858E-02 
2356	 2.06764722545435E-02 
2357	 1.74647381906553E-02 
2358	 1.01500241878314E-02 
2359	 1.16223825666611E-02 
2360	 1.25412470825232E-02 
2361	 1.22765521822477E-02 
2362	 1.56665561379115E-02 
2363	 1.03069694979678E-02 
2364	 2.9610812801223E-03 
2365	 7.43891938255052E-03 
2366	 1.39090152964998E-02 
2367	 2.26235714447998E-02 
2368	 2.12409642033632E-02 
2369	 7.7207184435309E-03 
2370	 3.61173951562989E-03 
2371	 3.80891968562396E-03 
2372	 9.09049056989572E-03 
2373	 1.60760449951742E-02 
2374	 1.53609013615043E-02 
2375	 6.18513807212023E-03 
2376	 3.25827300499925E-03 
2377	 7.12347479739479E-03 
2378	-3.35764212667242E-03 
2379	-5.30683656866961E-04 
2380	 1.09392070009834E-02 
2381	 1.31777892257407E-02 
2382	 1.76922118701207E-02 
2383	 6.61225958179222E-03 
2384	 3.69804811375173E-03 
2385	 1.8458209490037E-03 
2386	 1.12412358096703E-02 
2387	 3.86293533282652E-02 
2388	 1.15819092941198E-02 
2389	-2.07144635484926E-02 
2390	-2.04014039713916E-02 
2391	-2.19055920008919E-02 
2392	-1.85759200808996E-02 
2393	-4.71637834733743E-03 
2394	-7.12506985997017E-03 
2395	-1.11821051601383E-02 
2396	 1.13773211727141E-02 
2397	 0.044527067095683 
2398	 5.96178444871997E-02 
2399	 5.76708928089109E-02 
2400	 5.88866311039402E-02 
2401	 5.57204612206918E-02 
2402	 5.85215121118915E-02 
2403	 6.93252066401967E-02 
2404	 7.17616798151414E-02 
2405	 0.109915057961699 
2406	 0.158459961624999 
2407	 0.134125808889155 
2408	 0.121122448678509 
2409	 0.103924315580596 
2410	 3.64780957599313E-02 
2411	 5.29716058641077E-02 
2412	 0.173224491547342 
2413	 0.271215834676928 
2414	 0.252470231661659 
2415	 0.210485122119594 
2416	 0.197146405157484 
2417	 7.42514723967034E-02 
2418	 4.51407629529584E-02 
2419	 0.148279239729697 
2420	 0.109945312371066 
2421	 0.163543678446885 
2422	 0.237229356297913 
2423	 0.165603389178523 
2424	 9.76292978469161E-02 
2425	 5.69190027341494E-02 
2426	 4.76315856050873E-02 
2427	 0.022003819493369 
2428	-6.02476599507549E-03 
2429	 9.13672681012379E-03 
2430	 7.0197109827559E-03 
2431	 6.26499769554362E-02 
2432	 0.183612235010279 
2433	 0.218272578107351 
2434	 0.15183145731532 
2435	 0.121223547159002 
2436	 0.262506438574499 
2437	 0.317226222207192 
2438	 0.215462759327508 
2439	 0.117803121556529 
2440	 4.32822556830018E-02 
2441	-6.71729261689551E-02 
2442	 3.32697451474527E-03 
2443	 0.239177442644538 
2444	 0.148212801725652 
2445	-5.67249551131377E-02 
2446	-8.68908818530467E-02 
2447	 1.00995886061116E-02 
2448	 0.306758160964878 
2449	 1.43426227342423 
2450	 2.09801578667283 
2451	 3.18648393239967 
2452	 1.94868318597145 
2453	 0.164452220573158 
2454	-2.68679544635868E-02 
2455	-8.70061154922606E-02 
2456	-0.165072675028635 
2457	 0.044183906120782 
2458	-0.181754561651298 
2459	-0.464887477426125 
2460	 0.101335520581024 
2461	 0.142949410423447 
2462	 0.138492234112279 
2463	 0.289675387676603 
2464	-3.20956748991613E-02 
2465	-3.21393635711779E-02 
2466	 0.718485216674251 
2467	-7.35743351608855 
2468	-0.550400081130736 
2469	 4.49378719412955E-02 
2470	-0.480141787695183 
2471	-38.3090478621709 
2472	-3.43583697417519 
2473	-0.71833820284359 
2474	-0.269512086435883 
2475	-3.32957557891616E-02 
2476	 0.193105845201367 
2477	-0.028295747085248 
2478	-0.364850615340373 
2479	-5.44896157346004 
2480	-1.8171458080569 
2481	-1.51481327933399 
2482	-0.702360435600115 
2483	-0.621279550493857 
2484	-1.76343304327289 
2485	-22.2792228720437 
2486	-12.4038567001781 
2487	-0.48542743150995 
2488	-3.0401313022493 
2489	 1.34085536066507 
2490	-0.472151295214823 
2491	-0.697477999115439 
2492	-1.07490472574825 
2493	-0.383654764267425 
2494	-0.474816952613919 
2495	-0.271481596724957 
2496	-1.69559279161211E-02 
2497	-0.182397168770229 
2498	-0.254621791924735 
2499	-0.336538672931281 
2500	-1.77729928040505 
