Wavelength	rt0713east_close200003.asd
350	 0.073507671834757 
351	 7.26797293349518E-02 
352	 7.22800736703736E-02 
353	 7.20624635209716E-02 
354	 7.17223514960553E-02 
355	 7.18250505138595E-02 
356	 7.15933276790468E-02 
357	 0.071362478692014 
358	 7.15614472732846E-02 
359	 7.14900095250075E-02 
360	 7.12631502308792E-02 
361	 7.10112357976193E-02 
362	 0.070865998430123 
363	 7.11387424800614E-02 
364	 7.09086183936003E-02 
365	 7.01592206070007E-02 
366	 7.04241980413149E-02 
367	 7.05288144189919E-02 
368	 7.06648741543558E-02 
369	 7.10894989537405E-02 
370	 7.10435271561472E-02 
371	 7.08459428205159E-02 
372	 7.06684905662199E-02 
373	 7.06037159745868E-02 
374	 7.08852798614497E-02 
375	 7.09699724668225E-02 
376	 7.08046376898394E-02 
377	 7.10905058066101E-02 
378	 7.12953317761311E-02 
379	 7.12694648162917E-02 
380	 7.10776519123351E-02 
381	 7.11077590575763E-02 
382	 0.071315262328458 
383	 7.14973828291342E-02 
384	 7.14153226217945E-02 
385	 7.11049486062947E-02 
386	 7.14691107889897E-02 
387	 0.072087569309311 
388	 7.11715763594092E-02 
389	 7.16145649099766E-02 
390	 0.072275077582759 
391	 7.21271394100376E-02 
392	 7.24520174496338E-02 
393	 7.23666552169429E-02 
394	 7.21640965746514E-02 
395	 7.23508930099169E-02 
396	 0.07208413092191 
397	 7.22286348077881E-02 
398	 7.26840454656436E-02 
399	 7.25291206024428E-02 
400	 7.26676059077302E-02 
401	 7.27842516422498E-02 
402	 7.26371069779738E-02 
403	 7.25093124666905E-02 
404	 7.28156241854232E-02 
405	 7.31233809087795E-02 
406	 7.29157882946292E-02 
407	 7.32299792461966E-02 
408	 7.33827130434038E-02 
409	 7.32579764335121E-02 
410	 0.073368751166042 
411	 7.32836660035712E-02 
412	 7.33359213475364E-02 
413	 7.37049182564935E-02 
414	 7.39199769813682E-02 
415	 7.39752837979891E-02 
416	 7.40351736223658E-02 
417	 7.42816075647053E-02 
418	 0.074468368485979 
419	 7.46697608300755E-02 
420	 7.48473019119016E-02 
421	 7.48325547795559E-02 
422	 7.50188381229722E-02 
423	 7.52505547535592E-02 
424	 0.075408649252544 
425	 0.075836330284781 
426	 7.61197875774438E-02 
427	 7.63593176247246E-02 
428	 7.68204513959463E-02 
429	 7.70027583892554E-02 
430	 7.73020030062967E-02 
431	 7.77143852104944E-02 
432	 7.76898072133214E-02 
433	 7.79977871416915E-02 
434	 7.84296941226361E-02 
435	 7.86982851331341E-02 
436	 7.89626488003743E-02 
437	 7.92030170075186E-02 
438	 7.94889641179719E-02 
439	 7.98957239575008E-02 
440	 8.01229589331715E-02 
441	 8.04003499394043E-02 
442	 8.08112939698173E-02 
443	 8.11484601124853E-02 
444	 8.12807812542694E-02 
445	 8.14771406490981E-02 
446	 8.19335472972532E-02 
447	 8.20889412368582E-02 
448	 8.24206070786012E-02 
449	 8.28360524195223E-02 
450	 8.28734578938232E-02 
451	 8.31797990466384E-02 
452	 8.34788504957983E-02 
453	 8.35905888977645E-02 
454	 8.37903695767168E-02 
455	 8.41847571204464E-02 
456	 8.44391633670718E-02 
457	 8.42833237534852E-02 
458	 8.47422715082538E-02 
459	 8.50150607713804E-02 
460	 8.49867918819745E-02 
461	 8.52956739659366E-02 
462	 8.55237478705504E-02 
463	 8.56150916225434E-02 
464	 8.56706593992136E-02 
465	 8.60474478106018E-02 
466	 8.62616488442293E-02 
467	 8.63216309646381E-02 
468	 8.64771634549191E-02 
469	 0.086753846511501 
470	 8.69705496887843E-02 
471	 8.70992895184067E-02 
472	 8.73425238594226E-02 
473	 8.73417306907563E-02 
474	 8.74915842106012E-02 
475	 0.088062465218516 
476	 8.81760231000058E-02 
477	 8.83338744866265E-02 
478	 8.85962970698781E-02 
479	 8.87374303711461E-02 
480	 8.90199282169331E-02 
481	 8.92747679849024E-02 
482	 8.94630397492127E-02 
483	 0.08994449316953 
484	 9.02268118287976E-02 
485	 9.04124709128157E-02 
486	 9.07702058923517E-02 
487	 9.11551732142898E-02 
488	 9.14767127510359E-02 
489	 0.091760056860485 
490	 9.21314405876986E-02 
491	 9.24375649794607E-02 
492	 9.27327399480911E-02 
493	 9.30714930485197E-02 
494	 9.34004288779898E-02 
495	 9.37562324069123E-02 
496	 9.41072650518287E-02 
497	 9.44044177539192E-02 
498	 9.47304256092196E-02 
499	 9.51954429045077E-02 
500	 0.095742955131531 
501	 9.60654144187754E-02 
502	 9.63679456867067E-02 
503	 9.67057584995834E-02 
504	 9.70952371541681E-02 
505	 9.75702008770664E-02 
506	 9.80515266960861E-02 
507	 9.85175744720826E-02 
508	 9.89895139371043E-02 
509	 9.93566193794336E-02 
510	 0.099720367259385 
511	 0.100167891055463 
512	 0.100681200202132 
513	 0.101229575163153 
514	 0.101739288699114 
515	 0.102162244745525 
516	 0.102795895111264 
517	 0.103361705288518 
518	 0.103741386487613 
519	 0.104080427974382 
520	 0.10454653988098 
521	 0.105102441776117 
522	 0.105656123046951 
523	 0.106113825035529 
524	 0.106612517321672 
525	 0.107161480396565 
526	 0.10768496745618 
527	 0.108234596958507 
528	 0.108820479306774 
529	 0.109422389451167 
530	 0.109976490018028 
531	 0.110534896197249 
532	 0.111089472183685 
533	 0.11160789051242 
534	 0.112044205719628 
535	 0.112565826597233 
536	 0.113209773079516 
537	 0.11384972903588 
538	 0.114302998290989 
539	 0.114820662660877 
540	 0.115572860983719 
541	 0.116111779410192 
542	 0.116567286280216 
543	 0.117069497895445 
544	 0.117715359040223 
545	 0.118217798632472 
546	 0.118791739334017 
547	 0.119498592234405 
548	 0.119975601155458 
549	 0.120502843315595 
550	 0.121055461880867 
551	 0.121546197614904 
552	 0.122163489567687 
553	 0.122738221880882 
554	 0.123220614884058 
555	 0.123715543664995 
556	 0.124322158447617 
557	 0.124927190304175 
558	 0.125431194267777 
559	 0.126004730830801 
560	 0.126443496154749 
561	 0.126801098211412 
562	 0.127275285529288 
563	 0.127710527689423 
564	 0.12817716290029 
565	 0.128632872634236 
566	 0.128735648328839 
567	 0.129062354830387 
568	 0.129485552622538 
569	 0.129711994265168 
570	 0.130155580682254 
571	 0.130542650145523 
572	 0.130790278013638 
573	 0.131058587035005 
574	 0.131232258774827 
575	 0.131409503831628 
576	 0.131677872952611 
577	 0.13194879911201 
578	 0.13216449433266 
579	 0.13236780453275 
580	 0.132655922374386 
581	 0.132995777731188 
582	 0.133213709031789 
583	 0.133238166569592 
584	 0.133206103615279 
585	 0.133075147511981 
586	 0.132870027046486 
587	 0.132628139332288 
588	 0.132321576595499 
589	 0.132153707727442 
590	 0.132167852609805 
591	 0.132204345429985 
592	 0.132128176493067 
593	 0.132016416295193 
594	 0.131956641465091 
595	 0.131922632667707 
596	 0.131750959859351 
597	 0.131520004645506 
598	 0.131421744086022 
599	 0.131268313487827 
600	 0.131130234067578 
601	 0.131053210533426 
602	 0.130999019319645 
603	 0.130760397891759 
604	 0.130646382316272 
605	 0.130930831614681 
606	 0.130764885312326 
607	 0.130791683056957 
608	 0.131075561857073 
609	 0.131029006633527 
610	 0.130950877938688 
611	 0.130953282963839 
612	 0.131051020604147 
613	 0.131081906935258 
614	 0.131138711011142 
615	 0.131189306661712 
616	 0.131154447505198 
617	 0.131182753858659 
618	 0.131257884072161 
619	 0.131356018282625 
620	 0.131482334515 
621	 0.131413507888894 
622	 0.131338524519656 
623	 0.131471734438684 
624	 0.131421180627137 
625	 0.13142484588719 
626	 0.131467823980434 
627	 0.131299123183194 
628	 0.131378017051499 
629	 0.131560165817584 
630	 0.131645840656729 
631	 0.131604636552682 
632	 0.131606544449955 
633	 0.131634371144085 
634	 0.131613006569901 
635	 0.131804443024399 
636	 0.131927734140767 
637	 0.131926062218567 
638	 0.132140660708591 
639	 0.13208910634983 
640	 0.131912191246969 
641	 0.131877622570608 
642	 0.131983061384438 
643	 0.131852390347687 
644	 0.131438712789919 
645	 0.130993086107167 
646	 0.130845800650593 
647	 0.130709169373268 
648	 0.130473458345759 
649	 0.130788968624058 
650	 0.130769212304964 
651	 0.130504384594634 
652	 0.130404019127895 
653	 0.130236220579768 
654	 0.129831803678294 
655	 0.129287478418108 
656	 0.129120691422058 
657	 0.128886510384075 
658	 0.128637669624143 
659	 0.128467624951336 
660	 0.128289448150757 
661	 0.128110208495836 
662	 0.127912718297201 
663	 0.127670771125259 
664	 0.127351187998481 
665	 0.127195685730357 
666	 0.127248010519693 
667	 0.127161365020293 
668	 0.126906874988424 
669	 0.126691660399103 
670	 0.126730196753502 
671	 0.12678900554128 
672	 0.126886536135229 
673	 0.12696110396431 
674	 0.126889196853343 
675	 0.127014665334033 
676	 0.12713541899978 
677	 0.127104412919269 
678	 0.12715866328775 
679	 0.127425735764868 
680	 0.12772677909141 
681	 0.12780355759734 
682	 0.128018257797273 
683	 0.128099029623495 
684	 0.127961531491951 
685	 0.127825563916075 
686	 0.127622949201452 
687	 0.127525779071049 
688	 0.127678885580982 
689	 0.127996574864566 
690	 0.128006633888149 
691	 0.127645574778057 
692	 0.127130906544144 
693	 0.126824223462041 
694	 0.126892106429577 
695	 0.127208552450704 
696	 0.127403234394316 
697	 0.126833000006286 
698	 0.125971013955659 
699	 0.125565045011837 
700	 0.125271766575912 
701	 0.125090870937429 
702	 0.124890521956765 
703	 0.124458766961768 
704	 0.123953027059119 
705	 0.123493501851675 
706	 0.12305785677551 
707	 0.122268548291357 
708	 0.121604444012303 
709	 0.120961218967491 
710	 0.120086056107636 
711	 0.119215645351583 
712	 0.118159125933405 
713	 0.116843104213553 
714	 0.115291178178406 
715	 0.113293463459771 
716	 0.111045570778543 
717	 0.109107974506839 
718	 0.107410209620621 
719	 0.106522067676907 
720	 0.105937754727562 
721	 0.10485702360979 
722	 0.103495186010307 
723	 0.101471584684728 
724	 9.93301570381512E-02 
725	 9.83086421891882E-02 
726	 9.68656165249157E-02 
727	 9.50881006666399E-02 
728	 0.093336149726106 
729	 9.15609610645226E-02 
730	 8.97007280698156E-02 
731	 8.81581972080186E-02 
732	 8.71606143082639E-02 
733	 8.58450155598636E-02 
734	 8.45034136535138E-02 
735	 8.33819263407808E-02 
736	 8.25694028289305E-02 
737	 8.21140748432465E-02 
738	 8.18055870231296E-02 
739	 8.14879752767915E-02 
740	 8.13025222159849E-02 
741	 8.14357484703975E-02 
742	 8.15210107301556E-02 
743	 8.10734338605703E-02 
744	 8.10904726115165E-02 
745	 8.11619406590789E-02 
746	 8.11015811778173E-02 
747	 0.08121284389294 
748	 8.11326059594477E-02 
749	 8.10134202063536E-02 
750	 8.10296844639942E-02 
751	 8.09791314926123E-02 
752	 0.080877048995981 
753	 8.08017985219281E-02 
754	 8.08437539645279E-02 
755	 8.08894067861463E-02 
756	 0.080880360537971 
757	 8.06995103736522E-02 
758	 7.99571527240576E-02 
759	 7.93852398374624E-02 
760	 7.89558118829875E-02 
761	 0.078513364595218 
762	 7.87668759618943E-02 
763	 7.93524240240508E-02 
764	 7.99856204512987E-02 
765	 8.05098483979422E-02 
766	 8.08943825234304E-02 
767	 8.11569087004424E-02 
768	 8.13835755471391E-02 
769	 8.17103654467388E-02 
770	 8.17312360093283E-02 
771	 8.18753923469575E-02 
772	 8.23581825152856E-02 
773	 8.23323322222088E-02 
774	 8.25506852841216E-02 
775	 8.28628712077809E-02 
776	 8.28683544987985E-02 
777	 8.31954802233107E-02 
778	 8.34946313458103E-02 
779	 8.36821661547454E-02 
780	 8.39950100976582E-02 
781	 8.41353124715419E-02 
782	 8.43724687671412E-02 
783	 8.48265770550174E-02 
784	 8.50590065474118E-02 
785	 8.52140531844221E-02 
786	 8.53455585930381E-02 
787	 8.54996641264925E-02 
788	 8.57695010720927E-02 
789	 8.61916862455004E-02 
790	 8.66427552321178E-02 
791	 8.69454818548014E-02 
792	 8.77202871524354E-02 
793	 8.82074098599217E-02 
794	 8.81491391316082E-02 
795	 0.088368208250983 
796	 8.86925206581773E-02 
797	 8.90498924829164E-02 
798	 8.94142655598952E-02 
799	 8.98829263880722E-02 
800	 8.99418724963771E-02 
801	 8.99273862690196E-02 
802	 9.05012069328922E-02 
803	 9.07736095750839E-02 
804	 9.09747997040553E-02 
805	 9.12017235045627E-02 
806	 9.12968973699668E-02 
807	 9.11066600558533E-02 
808	 9.07208885558393E-02 
809	 9.02950289838974E-02 
810	 9.00192451495807E-02 
811	 8.94975404124451E-02 
812	 8.86934708502677E-02 
813	 8.78212783437117E-02 
814	 8.73866393000038E-02 
815	 8.68474538980289E-02 
816	 8.62621441951456E-02 
817	 8.61416991189711E-02 
818	 8.60143299563528E-02 
819	 8.57911635016554E-02 
820	 8.53572886059215E-02 
821	 8.44843979123967E-02 
822	 8.33962468815979E-02 
823	 0.082146380239135 
824	 8.09042431568694E-02 
825	 8.01289106608811E-02 
826	 7.84758096978168E-02 
827	 7.66713650522391E-02 
828	 0.075926623065371 
829	 7.41607823226746E-02 
830	 7.24508401389286E-02 
831	 7.12922478936914E-02 
832	 7.06247531403429E-02 
833	 7.02957060466492E-02 
834	 6.98600180716892E-02 
835	 6.91778138356618E-02 
836	 6.85274183014397E-02 
837	 6.84299809730364E-02 
838	 6.83248662613165E-02 
839	 6.77865837469046E-02 
840	 6.72843757045667E-02 
841	 6.73552283501818E-02 
842	 6.74956299782295E-02 
843	 6.70824671786852E-02 
844	 6.70103784603588E-02 
845	 6.65260981425969E-02 
846	 6.59745769751694E-02 
847	 6.62726029249938E-02 
848	 6.60106599537245E-02 
849	 6.56856784663015E-02 
850	 6.55707288675056E-02 
851	 6.53699607655765E-02 
852	 6.50063055654884E-02 
853	 6.48313206177398E-02 
854	 6.49029581721151E-02 
855	 6.44795571463938E-02 
856	 6.40896256231943E-02 
857	 6.38317319028568E-02 
858	 6.37010036266935E-02 
859	 6.38498058650508E-02 
860	 6.35152107143866E-02 
861	 6.30197293793013E-02 
862	 6.30697020519886E-02 
863	 6.29460928091164E-02 
864	 6.29484959070449E-02 
865	 6.28633165018745E-02 
866	 0.062157280382349 
867	 0.062533718013235 
868	 6.24626164437417E-02 
869	 6.15252621300834E-02 
870	 0.061261115381124 
871	 6.13315665313061E-02 
872	 6.11070785868568E-02 
873	 6.04681023932355E-02 
874	 6.06270691355072E-02 
875	 6.03501010005812E-02 
876	 5.97624191416771E-02 
877	 5.93110200910197E-02 
878	 5.88964990434093E-02 
879	 5.87797744370366E-02 
880	 5.87884632823576E-02 
881	 5.85761894715303E-02 
882	 5.81835623928632E-02 
883	 0.057537563010625 
884	 5.68563912523607E-02 
885	 5.65479953556248E-02 
886	 5.66945634496435E-02 
887	 5.66158967252815E-02 
888	 0.056353919116666 
889	 5.67263382403918E-02 
890	 5.56755344215378E-02 
891	 5.51504651384784E-02 
892	 5.58453385261775E-02 
893	 5.45873629386059E-02 
894	 5.35117564042987E-02 
895	 5.31644982752917E-02 
896	 5.32373299897873E-02 
897	 5.22673440846255E-02 
898	 5.15849904318254E-02 
899	 5.13326236269855E-02 
900	 5.11780492407563E-02 
901	 5.09366337777223E-02 
902	 5.13584074817734E-02 
903	 0.051693224426765 
904	 5.10129675192118E-02 
905	 5.02141888504107E-02 
906	 5.09669594886865E-02 
907	 5.19507450082674E-02 
908	 5.01663129981683E-02 
909	 4.90455596805683E-02 
910	 4.88910945771029E-02 
911	 4.93526865422166E-02 
912	 4.97367265797389E-02 
913	 4.94255129897072E-02 
914	 4.88597318263451E-02 
915	 4.84793904094972E-02 
916	 4.84031874279532E-02 
917	 4.77964142858079E-02 
918	 4.68343097095124E-02 
919	 0.045968361863969 
920	 4.57286255379653E-02 
921	 4.57083851285751E-02 
922	 4.55347145452858E-02 
923	 4.50203866775517E-02 
924	 4.43381060971366E-02 
925	 4.48848948510053E-02 
926	 4.50353977426282E-02 
927	 4.29352875793243E-02 
928	 4.02402693105422E-02 
929	 0.04098070383545 
930	 4.34542608686408E-02 
931	 4.22942026700584E-02 
932	 4.27194055983074E-02 
933	 4.19405095429942E-02 
934	 3.81383937952646E-02 
935	 3.41996276476959E-02 
936	 0.042020832563985 
937	 4.90963543762722E-02 
938	 4.62292777640787E-02 
939	 3.33788748478254E-02 
940	 3.57964916610646E-02 
941	 3.78032939765588E-02 
942	 3.52208663993749E-02 
943	 3.14172211963689E-02 
944	 3.43393562432642E-02 
945	 4.03548355510793E-02 
946	 4.07210403139772E-02 
947	 3.06900649344465E-02 
948	 3.45941462578925E-02 
949	 3.91968729238725E-02 
950	 3.86948144575293E-02 
951	 3.49501363485305E-02 
952	 0.033107958051431 
953	 3.56622646199791E-02 
954	 3.57243470544136E-02 
955	 2.57389809130022E-02 
956	 3.18488542707764E-02 
957	 3.43839907046716E-02 
958	 3.21900140713273E-02 
959	 3.65386928300274E-02 
960	 3.57849017979919E-02 
961	 3.73801469926417E-02 
962	 3.93434594722928E-02 
963	 3.48146911581286E-02 
964	 3.28786943970316E-02 
965	 3.51986243135589E-02 
966	 3.87595879028601E-02 
967	 3.88969872784584E-02 
968	 3.83126844287256E-02 
969	 3.66180699595466E-02 
970	 3.57319105576149E-02 
971	 3.85684087742583E-02 
972	 3.79062813754154E-02 
973	 0.036301780563518 
974	 3.65447922906518E-02 
975	 3.92783204206131E-02 
976	 3.58250355390655E-02 
977	 3.33520172144558E-02 
978	 0.034654717611218 
979	 3.67230001898859E-02 
980	 3.74639319581546E-02 
981	 0.0369294345857 
982	 0.037253862744553 
983	 4.05135562304803E-02 
984	 3.86894098827823E-02 
985	 3.58479199315844E-02 
986	 3.49636222642675E-02 
987	 3.65267880019495E-02 
988	 3.80348639383604E-02 
989	 0.037986494442007 
990	 3.78326074233742E-02 
991	 3.96948007030354E-02 
992	 3.52516082920342E-02 
993	 3.63937439607522E-02 
994	 4.03907386003078E-02 
995	 3.62324275677866E-02 
996	 3.47677645399314E-02 
997	 3.72316795205654E-02 
998	 3.87610423431416E-02 
999	 3.44470858517161E-02 
1000	 3.75122116824094E-02 
1001	 3.27957967443168E-02 
1002	 3.30513474453429E-02 
1003	 3.32160622235262E-02 
1004	 3.40899266450565E-02 
1005	 3.42861206858056E-02 
1006	 3.39879539843021E-02 
1007	 3.35408156496309E-02 
1008	 3.36544756045919E-02 
1009	 3.32796000993595E-02 
1010	 3.29337694481644E-02 
1011	 3.36355031068126E-02 
1012	 3.42259441525715E-02 
1013	 3.44099209263553E-02 
1014	 3.45012607228748E-02 
1015	 3.46550692957115E-02 
1016	 3.44932903766223E-02 
1017	 3.37001394182569E-02 
1018	 3.35396515472775E-02 
1019	 3.37600920912542E-02 
1020	 3.35922216533169E-02 
1021	 3.31965464670259E-02 
1022	 3.32754783324776E-02 
1023	 3.32943484937208E-02 
1024	 3.35262260649306E-02 
1025	 3.44536860366953E-02 
1026	 3.52039574072935E-02 
1027	 3.54322875501464E-02 
1028	 3.52437561542902E-02 
1029	 3.51943366524589E-02 
1030	 3.48215724760655E-02 
1031	 3.45900379257057E-02 
1032	 3.42390405438466E-02 
1033	 3.44199046795747E-02 
1034	 3.47489449417788E-02 
1035	 3.52734384573656E-02 
1036	 3.69030386918362E-02 
1037	 3.71928407689352E-02 
1038	 3.65824518743192E-02 
1039	 3.63584686966424E-02 
1040	 3.55134515152982E-02 
1041	 3.56358226777474E-02 
1042	 3.60351188114495E-02 
1043	 3.77404970657465E-02 
1044	 0.037761723222691 
1045	 3.70567515707812E-02 
1046	 3.70542894879527E-02 
1047	 3.67387692146657E-02 
1048	 0.036427667676872 
1049	 3.64924966796602E-02 
1050	 3.65622528041043E-02 
1051	 0.036131528420535 
1052	 3.61255352968558E-02 
1053	 3.67527454495786E-02 
1054	 3.72199005754945E-02 
1055	 0.037938642858312 
1056	 3.81797939273916E-02 
1057	 3.82221372034576E-02 
1058	 3.83173310826524E-02 
1059	 3.79040509148943E-02 
1060	 3.64080950680041E-02 
1061	 3.63418847949773E-02 
1062	 3.67946976493314E-02 
1063	 3.70248226426865E-02 
1064	 3.80471753668373E-02 
1065	 3.84645340247092E-02 
1066	 3.84347745920414E-02 
1067	 3.84008784307909E-02 
1068	 3.82743917015146E-02 
1069	 3.81690963995491E-02 
1070	 3.76947626295232E-02 
1071	 3.75582620670284E-02 
1072	 3.75349739327504E-02 
1073	 3.80155002502565E-02 
1074	 3.77561303547422E-02 
1075	 3.71427309768404E-02 
1076	 3.71492755550117E-02 
1077	 3.70205403177684E-02 
1078	 3.70560454355132E-02 
1079	 3.80446139861994E-02 
1080	 0.037932263642687 
1081	 3.68701222401914E-02 
1082	 3.64306681743239E-02 
1083	 3.57380909240532E-02 
1084	 3.54968689900945E-02 
1085	 3.60052962050864E-02 
1086	 3.60256473932058E-02 
1087	 3.57891368992915E-02 
1088	 3.56729135745637E-02 
1089	 3.52571081604068E-02 
1090	 3.52537173779188E-02 
1091	 3.52526236956256E-02 
1092	 3.56171712197914E-02 
1093	 3.57337218402012E-02 
1094	 3.56448146683879E-02 
1095	 3.58661884551802E-02 
1096	 3.68360885018791E-02 
1097	 3.64623076743648E-02 
1098	 3.50814131450686E-02 
1099	 0.034495041905456 
1100	 3.26835414302362E-02 
1101	 0.03206583895011 
1102	 0.033938297606158 
1103	 3.42007908552523E-02 
1104	 3.35777681642177E-02 
1105	 3.32442752545853E-02 
1106	 3.35976446373779E-02 
1107	 3.28540360250532E-02 
1108	 3.28478371178588E-02 
1109	 3.43441304263134E-02 
1110	 3.46274962990911E-02 
1111	 3.36582975601037E-02 
1112	 3.31784919411065E-02 
1113	 3.25369022250604E-02 
1114	 3.19693337821934E-02 
1115	 3.16168882134888E-02 
1116	 3.13748152951065E-02 
1117	 0.031085970895681 
1118	 3.13205850599217E-02 
1119	 3.19875865490214E-02 
1120	 3.13186252376323E-02 
1121	 2.81914375300875E-02 
1122	 3.13901062203444E-02 
1123	 3.50098865632556E-02 
1124	 4.17395879998506E-02 
1125	 4.95869872664525E-02 
1126	 4.37243569414626E-02 
1127	 2.90473905552687E-02 
1128	 2.53580182687847E-02 
1129	 2.57099870585378E-02 
1130	 3.18661993108952E-02 
1131	 3.48536905609491E-02 
1132	 4.11765228491907E-02 
1133	 3.94968255493281E-02 
1134	 3.42052105758633E-02 
1135	 0.032456837908158 
1136	 0.027311252065801 
1137	 2.86002488623884E-02 
1138	 3.63718454965587E-02 
1139	 3.67504225081697E-02 
1140	 3.49325124036792E-02 
1141	 3.40424725140577E-02 
1142	 2.98471636503661E-02 
1143	 3.05987719427365E-02 
1144	 3.33898506898712E-02 
1145	 3.15795722029048E-02 
1146	 3.31765961898664E-02 
1147	 3.25241418336657E-02 
1148	 2.85475733695909E-02 
1149	 3.06279913794725E-02 
1150	 3.17231627841739E-02 
1151	 3.16347980926395E-02 
1152	 0.030681605624622 
1153	 3.05375835312478E-02 
1154	 2.99662916534371E-02 
1155	 2.75466873793516E-02 
1156	 2.83717635453112E-02 
1157	 0.028928533676269 
1158	 2.89318350694183E-02 
1159	 0.030769648184782 
1160	 3.03765886479197E-02 
1161	 2.87370845172272E-02 
1162	 2.94605810645812E-02 
1163	 2.99503519521027E-02 
1164	 2.96218008279472E-02 
1165	 3.08253738831549E-02 
1166	 3.20007515506125E-02 
1167	 0.031585128205774 
1168	 3.10655257871806E-02 
1169	 3.11467560140175E-02 
1170	 3.16737572593448E-02 
1171	 3.18548064052639E-02 
1172	 3.24616130715164E-02 
1173	 3.23804067051537E-02 
1174	 3.18293489192193E-02 
1175	 3.12868999157843E-02 
1176	 3.04288120308111E-02 
1177	 0.03043232913196 
1178	 3.14355156028558E-02 
1179	 3.16153608595245E-02 
1180	 3.13289571436026E-02 
1181	 3.11124329170885E-02 
1182	 3.07600438004089E-02 
1183	 0.030873961420048 
1184	 0.031271158606512 
1185	 3.14436783803584E-02 
1186	 3.17371184058525E-02 
1187	 3.21031969774011E-02 
1188	 0.031701657759215 
1189	 3.13451191538208E-02 
1190	 3.19506357047973E-02 
1191	 3.21486728196429E-02 
1192	 3.19559240931455E-02 
1193	 3.18494897242333E-02 
1194	 3.22641968324619E-02 
1195	 3.17962215807782E-02 
1196	 3.14177684391223E-02 
1197	 3.15473399970839E-02 
1198	 3.15723548536423E-02 
1199	 0.031740694572244 
1200	 3.14948713858773E-02 
1201	 3.13018654564626E-02 
1202	 3.17150136901341E-02 
1203	 3.19130735912547E-02 
1204	 3.15478287059435E-02 
1205	 3.13160697422306E-02 
1206	 3.15339070524583E-02 
1207	 3.17019541073313E-02 
1208	 3.17568582309277E-02 
1209	 3.21119182818093E-02 
1210	 3.24587482941814E-02 
1211	 3.21931181479418E-02 
1212	 3.22550840598568E-02 
1213	 3.29467792661486E-02 
1214	 3.29686657851632E-02 
1215	 3.25756868697191E-02 
1216	 3.22608488342127E-02 
1217	 3.22258562945506E-02 
1218	 3.18640772208144E-02 
1219	 3.19376701994441E-02 
1220	 0.032419186929369 
1221	 3.27072453795227E-02 
1222	 3.25708824064192E-02 
1223	 3.21668649061593E-02 
1224	 3.20245098171777E-02 
1225	 0.031991320935746 
1226	 3.18130867820991E-02 
1227	 3.15974799917536E-02 
1228	 0.031490928735573 
1229	 3.14373185392737E-02 
1230	 3.14341274817035E-02 
1231	 3.16303500880218E-02 
1232	 0.031868879855257 
1233	 3.18862057225774E-02 
1234	 3.20315852078694E-02 
1235	 3.21043656512151E-02 
1236	 3.20344738359761E-02 
1237	 3.20177997612497E-02 
1238	 3.20832575934333E-02 
1239	 3.19867440945896E-02 
1240	 3.20378635427091E-02 
1241	 3.24237561160267E-02 
1242	 3.22840129745667E-02 
1243	 3.22487697724879E-02 
1244	 3.23296230798683E-02 
1245	 3.21811177541699E-02 
1246	 3.23044384493429E-02 
1247	 3.24599507592366E-02 
1248	 3.23341208392929E-02 
1249	 3.17784650391624E-02 
1250	 3.17750894560146E-02 
1251	 3.23113186050133E-02 
1252	 3.20982779114418E-02 
1253	 3.22520683431851E-02 
1254	 3.26591093087815E-02 
1255	 3.22866780389854E-02 
1256	 3.22705434958288E-02 
1257	 3.29858474964144E-02 
1258	 3.29636475787155E-02 
1259	 3.20732011648789E-02 
1260	 3.18834786579007E-02 
1261	 3.18853829536289E-02 
1262	 3.17312704209236E-02 
1263	 3.16328844048983E-02 
1264	 3.20783401266312E-02 
1265	 3.22028241054001E-02 
1266	 3.23081606274371E-02 
1267	 3.23337529830375E-02 
1268	 3.18911264378085E-02 
1269	 3.16880991188113E-02 
1270	 3.12168515522823E-02 
1271	 3.06429721816323E-02 
1272	 3.10647897220972E-02 
1273	 3.15226355329035E-02 
1274	 3.14853972037034E-02 
1275	 3.17479948040879E-02 
1276	 3.22553476104665E-02 
1277	 3.23199599320982E-02 
1278	 0.032041132716949 
1279	 3.19432139576877E-02 
1280	 3.17899118461634E-02 
1281	 3.17459473621768E-02 
1282	 3.19916019197418E-02 
1283	 3.20627072812163E-02 
1284	 0.032034316830972 
1285	 3.19984732113242E-02 
1286	 3.17638765094063E-02 
1287	 3.15542319574211E-02 
1288	 3.16094407665404E-02 
1289	 3.15137448511927E-02 
1290	 3.12589082434608E-02 
1291	 3.09454330956187E-02 
1292	 0.031145002580675 
1293	 3.09526920465333E-02 
1294	 0.031198626470147 
1295	 3.20398790482851E-02 
1296	 3.17936306566402E-02 
1297	 3.14201164692388E-02 
1298	 3.13346330931813E-02 
1299	 3.06606893861713E-02 
1300	 0.03072052641175 
1301	 3.12951663926687E-02 
1302	 3.10158654112539E-02 
1303	 3.06761431142488E-02 
1304	 3.08327564690735E-02 
1305	 3.13491381057761E-02 
1306	 3.13511858998815E-02 
1307	 0.031131482714411 
1308	 0.030971158127117 
1309	 3.04414712461946E-02 
1310	 0.030280855483565 
1311	 3.06576260949017E-02 
1312	 3.07125876524344E-02 
1313	 3.04461975137819E-02 
1314	 3.01858936228375E-02 
1315	 2.99947250271479E-02 
1316	 2.97492500957535E-02 
1317	 2.91465739582094E-02 
1318	 2.92093596431765E-02 
1319	 3.00073363716069E-02 
1320	 2.99730183876855E-02 
1321	 3.00984458386956E-02 
1322	 2.98493233313737E-02 
1323	 2.89826693527824E-02 
1324	 2.84573128057056E-02 
1325	 2.89913998445902E-02 
1326	 2.96524550825396E-02 
1327	 0.030088523045982 
1328	 3.00021392305747E-02 
1329	 2.89621339419574E-02 
1330	 2.90458210319117E-02 
1331	 2.92877374559169E-02 
1332	 2.79340967602188E-02 
1333	 2.86010270989599E-02 
1334	 3.04203133340857E-02 
1335	 3.02204206457405E-02 
1336	 2.91722938367529E-02 
1337	 2.91976929918318E-02 
1338	 2.82779516446581E-02 
1339	 2.74281306039111E-02 
1340	 2.71954857382173E-02 
1341	 2.91094048464957E-02 
1342	 3.29285074413153E-02 
1343	 3.31274597357281E-02 
1344	 3.31997129501575E-02 
1345	 0.035118271265261 
1346	 0.032527724078278 
1347	 3.18600743870823E-02 
1348	 4.35351376513596E-02 
1349	 5.10057292444482E-02 
1350	 4.12942353786049E-02 
1351	 4.08822334931749E-02 
1352	 5.96458955216122E-02 
1353	 6.70359523264997E-02 
1354	 5.16100322373977E-02 
1355	 7.70258099901223E-02 
1356	 0.117294025867805 
1357	 0.110556412985178 
1358	 0.148844314336176 
1359	 0.177293546781885 
1360	 0.276900877411131 
1361	 0.498221491610469 
1362	 0.577189675602991 
1363	 0.307319483864082 
1364	 0.260043715245663 
1365	 0.734898084622306 
1366	 1.4125168356065 
1367	 1.12805031830902 
1368	 1.37474638329098 
1369	 1.43056727399008 
1370	 1.07047815720067 
1371	 0.928217156734159 
1372	 0.967616819643846 
1373	 0.188067415207915 
1374	 4.93573594401266E-02 
1375	 0.592320531834188 
1376	 0.811591375821903 
1377	 1.10578661860473 
1378	 1.00102095650956 
1379	 0.701612386214739 
1380	 0.791008598249352 
1381	 1.19142016599632 
1382	 1.15811144641666 
1383	 1.67182640191283 
1384	 2.7498727398141 
1385	 1.56252404545449 
1386	 0.965602235945275 
1387	 0.70297768551821 
1388	 0.997100273875909 
1389	 1.98140267928654 
1390	 2.0282145910205 
1391	 4.72581041725398 
1392	 7.81263879074845 
1393	 9.71092845076723 
1394	 16.6919282803954 
1395	 2.86193794550844 
1396	 2.86195832128253 
1397	 1.02289378752897 
1398	 0.245871460808251 
1399	 1.05085607112636 
1400	 1.80629807696147 
1401	 1.95748265356187 
1402	 2.68604361083271 
1403	 2.90342091966818 
1404	 1.88670229567846 
1405	 0.805530740343698 
1406	-8.93527546657694E-02 
1407	 0.229562885214427 
1408	 0.453488886659456 
1409	 0.405820967388823 
1410	 0.574038691790719 
1411	 0.70398283695095 
1412	 0.834488413594201 
1413	 0.910263164925041 
1414	 1.72766252783528 
1415	 1.27898177386298 
1416	 0.313675889348535 
1417	 0.269724996664168 
1418	 0.359690282444444 
1419	 0.283086903741204 
1420	 0.328623793660621 
1421	 0.324072629024394 
1422	 0.148725646112988 
1423	 0.125347255138889 
1424	 0.259570509477945 
1425	 0.254247410696326 
1426	 0.173802130470417 
1427	 0.165092409663816 
1428	 0.185498292943902 
1429	 0.14899147299878 
1430	 7.74245119869557E-02 
1431	 7.65329697640569E-02 
1432	 9.20796608837064E-02 
1433	 6.24072914761468E-02 
1434	 2.06061520299173E-02 
1435	 3.97056093408082E-02 
1436	 6.86877962262419E-02 
1437	 8.22159452397169E-02 
1438	 7.69342425960482E-02 
1439	 0.111145504164619 
1440	 0.103067557263431 
1441	 5.68824442006639E-02 
1442	 7.97615536883143E-02 
1443	 9.76235513820606E-02 
1444	 6.47807433884199E-02 
1445	 4.43647989281235E-02 
1446	 3.63257918774111E-02 
1447	 2.89199981855263E-02 
1448	 0.037255237523689 
1449	 5.11114735072455E-02 
1450	 0.055031030715046 
1451	 4.51983915041335E-02 
1452	 3.62870142205748E-02 
1453	 3.83358809758388E-02 
1454	 3.54015363190095E-02 
1455	 3.42799493392572E-02 
1456	 3.32682164304065E-02 
1457	 3.05228395021949E-02 
1458	 2.91198418042466E-02 
1459	 2.71753587798139E-02 
1460	 3.05433732505273E-02 
1461	 3.97359190174331E-02 
1462	 4.01310236708455E-02 
1463	 3.85090167733521E-02 
1464	 4.13702497623667E-02 
1465	 4.32927669947469E-02 
1466	 3.79961836969542E-02 
1467	 2.97899268869507E-02 
1468	 3.03253974533032E-02 
1469	 2.92055599333153E-02 
1470	 2.43919260260094E-02 
1471	 2.45056356987864E-02 
1472	 2.92219821027478E-02 
1473	 3.33602063050228E-02 
1474	 2.98845707763583E-02 
1475	 2.59701374676005E-02 
1476	 3.02346155675134E-02 
1477	 3.60234626712054E-02 
1478	 3.08828678316482E-02 
1479	 0.024939749540413 
1480	 2.59981418344577E-02 
1481	 2.01105241900192E-02 
1482	 1.81386805558675E-02 
1483	 2.58235310193283E-02 
1484	 3.01328493969652E-02 
1485	 0.031681477393764 
1486	 3.08083797771204E-02 
1487	 3.00442874262186E-02 
1488	 3.00797130696288E-02 
1489	 2.83752690113991E-02 
1490	 2.72635524681662E-02 
1491	 2.64250299173518E-02 
1492	 0.027491247249162 
1493	 3.00191477485014E-02 
1494	 2.97406246670044E-02 
1495	 2.90241583200004E-02 
1496	 2.94423264113312E-02 
1497	 2.87118013438143E-02 
1498	 2.83327364681348E-02 
1499	 2.94883161803724E-02 
1500	 2.99236562128072E-02 
1501	 2.93935598782137E-02 
1502	 2.90965283644691E-02 
1503	 2.89495584226199E-02 
1504	 2.88616445564185E-02 
1505	 2.85462884268163E-02 
1506	 2.87111377308621E-02 
1507	 2.88356940200423E-02 
1508	 2.95397017703618E-02 
1509	 2.97347292977823E-02 
1510	 2.91514516907316E-02 
1511	 2.89506368308143E-02 
1512	 2.90170478863958E-02 
1513	 2.97264060362864E-02 
1514	 3.02826055620863E-02 
1515	 0.029852126591194 
1516	 2.95778702407986E-02 
1517	 2.95096939029619E-02 
1518	 2.93155700799612E-02 
1519	 2.98335003324079E-02 
1520	 3.02142488120859E-02 
1521	 2.91657138741765E-02 
1522	 2.85748746727904E-02 
1523	 2.90582166286213E-02 
1524	 2.87714766523141E-02 
1525	 2.86455331296894E-02 
1526	 2.95065392767565E-02 
1527	 2.98361155733451E-02 
1528	 2.94779329976254E-02 
1529	 2.91248804462887E-02 
1530	 2.89055694371793E-02 
1531	 2.89036425131541E-02 
1532	 2.91385695818188E-02 
1533	 2.96119297094292E-02 
1534	 3.01224787463377E-02 
1535	 3.03935522654175E-02 
1536	 3.04558849262757E-02 
1537	 3.06209477566712E-02 
1538	 0.030735472391737 
1539	 0.030406811487726 
1540	 2.99969236674689E-02 
1541	 2.99024209604855E-02 
1542	 3.02522157988644E-02 
1543	 3.03184830047949E-02 
1544	 3.00009371612536E-02 
1545	 3.00543617672205E-02 
1546	 2.99172318039012E-02 
1547	 3.01545291817681E-02 
1548	 3.08157497671982E-02 
1549	 3.07197348009212E-02 
1550	 3.04751570157317E-02 
1551	 3.05076161522222E-02 
1552	 3.07063285691617E-02 
1553	 3.09546040557049E-02 
1554	 3.07920647807291E-02 
1555	 3.03418779850718E-02 
1556	 3.01005551728525E-02 
1557	 2.99988520995782E-02 
1558	 3.00575452701892E-02 
1559	 3.03239863758943E-02 
1560	 3.02233986419646E-02 
1561	 3.00562193539595E-02 
1562	 3.04514253968236E-02 
1563	 0.031180849442394 
1564	 3.15566419323648E-02 
1565	 0.03125672875914 
1566	 3.11827130390566E-02 
1567	 3.11336829110206E-02 
1568	 3.04978091523098E-02 
1569	 3.03230741595911E-02 
1570	 3.04380587310278E-02 
1571	 3.01733073725001E-02 
1572	 2.97489735132578E-02 
1573	 2.94698023626229E-02 
1574	 2.98701239332068E-02 
1575	 3.01600245432854E-02 
1576	 0.029947450341295 
1577	 3.02532810456157E-02 
1578	 3.02373283302951E-02 
1579	 0.029740942175684 
1580	 2.96571323343724E-02 
1581	 2.96219163799203E-02 
1582	 2.97407757410042E-02 
1583	 2.96988934924162E-02 
1584	 2.96654455543618E-02 
1585	 3.01381912690915E-02 
1586	 3.03834814867025E-02 
1587	 3.02777279982665E-02 
1588	 3.02798808914113E-02 
1589	 3.03938546871297E-02 
1590	 3.01437494316072E-02 
1591	 2.98932246381963E-02 
1592	 3.05150020120529E-02 
1593	 3.12671605195977E-02 
1594	 3.09424849168815E-02 
1595	 3.00738162373995E-02 
1596	 2.97568688088717E-02 
1597	 2.93978801725135E-02 
1598	 2.93335681552446E-02 
1599	 3.02540604744773E-02 
1600	 3.05850744235304E-02 
1601	 3.06457674341303E-02 
1602	 3.07852973630724E-02 
1603	 0.03041609184352 
1604	 3.01135266233748E-02 
1605	 2.98138641266258E-02 
1606	 2.98036909359935E-02 
1607	 3.00110344766409E-02 
1608	 3.06946530049765E-02 
1609	 3.10319597705462E-02 
1610	 2.99868787581922E-02 
1611	 2.92374274693289E-02 
1612	 2.90910990256053E-02 
1613	 2.93044079921873E-02 
1614	 2.97871113202666E-02 
1615	 3.01912177832555E-02 
1616	 3.03874023828068E-02 
1617	 2.99889527282988E-02 
1618	 3.02945738956933E-02 
1619	 3.09386842576423E-02 
1620	 3.04581437036718E-02 
1621	 3.02053175991348E-02 
1622	 3.04975990695856E-02 
1623	 3.05179659748979E-02 
1624	 3.07297920178209E-02 
1625	 3.12614776487633E-02 
1626	 3.11353750444994E-02 
1627	 3.06383142276003E-02 
1628	 3.08012194226452E-02 
1629	 3.08043702576156E-02 
1630	 3.06985636905403E-02 
1631	 3.10083853923379E-02 
1632	 3.08795756822068E-02 
1633	 3.08115453393963E-02 
1634	 3.08473503853289E-02 
1635	 3.03250099817738E-02 
1636	 3.03535278085168E-02 
1637	 3.04206392568454E-02 
1638	 0.030026366694945 
1639	 3.04766042945926E-02 
1640	 3.09652229741134E-02 
1641	 3.12889404985034E-02 
1642	 3.19094184027968E-02 
1643	 3.19007569310207E-02 
1644	 3.19052998054059E-02 
1645	 3.16538841037942E-02 
1646	 3.07148610142678E-02 
1647	 3.07495786548251E-02 
1648	 3.10451263334014E-02 
1649	 3.08354806986939E-02 
1650	 3.11003325992495E-02 
1651	 3.13582366007311E-02 
1652	 3.12174845832983E-02 
1653	 3.07408107282678E-02 
1654	 3.10199572296751E-02 
1655	 3.11594754725083E-02 
1656	 3.07481058264558E-02 
1657	 0.030991361147134 
1658	 3.14328612687189E-02 
1659	 3.12610293922902E-02 
1660	 3.09572474204521E-02 
1661	 0.03116844337394 
1662	 3.12219616922172E-02 
1663	 3.05303078451083E-02 
1664	 3.05575947935372E-02 
1665	 3.10884676667797E-02 
1666	 3.12757893687626E-02 
1667	 3.17146143056145E-02 
1668	 3.20860975493341E-02 
1669	 3.18049925849478E-02 
1670	 3.20340048985467E-02 
1671	 3.21873840612525E-02 
1672	 3.15821867417282E-02 
1673	 3.18995072538258E-02 
1674	 3.26045940952848E-02 
1675	 3.21295661033528E-02 
1676	 3.15362638936235E-02 
1677	 3.14531022391501E-02 
1678	 3.09567758799936E-02 
1679	 3.01989850136335E-02 
1680	 3.03985720308287E-02 
1681	 3.07006906540547E-02 
1682	 3.06951882518509E-02 
1683	 3.15030613969686E-02 
1684	 0.032284900438559 
1685	 3.19671492404723E-02 
1686	 0.031576766334809 
1687	 3.13422692126451E-02 
1688	 3.04859042948181E-02 
1689	 3.01891738209335E-02 
1690	 3.05407883473425E-02 
1691	 3.05463480234219E-02 
1692	 3.04572429423872E-02 
1693	 3.03340490753542E-02 
1694	 3.06637414263583E-02 
1695	 3.07761785378927E-02 
1696	 3.05199178858935E-02 
1697	 0.03101137089401 
1698	 3.09493554936764E-02 
1699	 0.030632458536991 
1700	 3.14426079100283E-02 
1701	 3.22454162165616E-02 
1702	 0.031869451823685 
1703	 3.10525381677345E-02 
1704	 3.08155834149459E-02 
1705	 3.10502827133888E-02 
1706	 0.031234045883333 
1707	 3.12850711371841E-02 
1708	 3.11971797139237E-02 
1709	 3.06474935581658E-02 
1710	 3.08083207123629E-02 
1711	 3.14974150585744E-02 
1712	 3.15694116236535E-02 
1713	 3.09016637841224E-02 
1714	 3.07722061593862E-02 
1715	 0.031560876950091 
1716	 3.16582079020048E-02 
1717	 3.17194917193199E-02 
1718	 3.16840424579338E-02 
1719	 0.031088163439429 
1720	 3.09024669995445E-02 
1721	 3.12564225806127E-02 
1722	 3.16145961802187E-02 
1723	 3.22616572670663E-02 
1724	 3.28120843246534E-02 
1725	 3.21620980158653E-02 
1726	 3.09510365819509E-02 
1727	 0.030322079113317 
1728	 3.07231855370923E-02 
1729	 3.14124589308639E-02 
1730	 3.06554937149175E-02 
1731	 3.00746925997613E-02 
1732	 3.00024087974672E-02 
1733	 2.93060375633936E-02 
1734	 3.05030231630833E-02 
1735	 3.15138495117801E-02 
1736	 0.03022248175313 
1737	 2.99636755878375E-02 
1738	 3.10620008944561E-02 
1739	 3.14642733514236E-02 
1740	 0.031232677626313 
1741	 3.08381268135034E-02 
1742	 0.030556570758732 
1743	 3.12585587637805E-02 
1744	 3.21274624440588E-02 
1745	 3.28114527480055E-02 
1746	 3.16784889679622E-02 
1747	 3.11398609505997E-02 
1748	 3.15498730615775E-02 
1749	 3.17747262955037E-02 
1750	 3.20923389138468E-02 
1751	 3.19820969369034E-02 
1752	 3.13531211613754E-02 
1753	 3.13707559966888E-02 
1754	 0.031480907136729 
1755	 3.09272390747419E-02 
1756	 3.10814318638936E-02 
1757	 2.86148380850625E-02 
1758	 2.66635851553059E-02 
1759	 2.80732371708892E-02 
1760	 2.93695330137719E-02 
1761	 3.11131676942463E-02 
1762	 3.38078518352292E-02 
1763	 0.032638983554705 
1764	 2.97330582835086E-02 
1765	 2.92274281189825E-02 
1766	 2.70584710525018E-02 
1767	 2.63832614804137E-02 
1768	 3.15568577693477E-02 
1769	 3.39390726975862E-02 
1770	 0.034033565514012 
1771	 3.43632962003163E-02 
1772	 2.80615456156483E-02 
1773	 2.11940145867574E-02 
1774	 2.30307467246796E-02 
1775	 0.02894741573656 
1776	 3.20398600256047E-02 
1777	 4.11865091287025E-02 
1778	 4.12190769235139E-02 
1779	 2.70945456446077E-02 
1780	 2.47468085642324E-02 
1781	 2.37776168609517E-02 
1782	 2.43386240981435E-02 
1783	 3.88807161415653E-02 
1784	 4.21350078233454E-02 
1785	 3.54381271859147E-02 
1786	 3.46377432334009E-02 
1787	 3.23025813841533E-02 
1788	 3.09263989437098E-02 
1789	 3.29094005807561E-02 
1790	 2.71042907131574E-02 
1791	 2.78371518793385E-02 
1792	 3.08457295909482E-02 
1793	 3.42382834008298E-02 
1794	 3.75161724359575E-02 
1795	 2.98134770650555E-02 
1796	 1.91541472266811E-02 
1797	 1.95947029305344E-02 
1798	 3.75473837749954E-02 
1799	 0.060366129151248 
1800	 7.08910311108193E-02 
1801	 8.79215164366694E-02 
1802	 7.61891165311079E-02 
1803	 8.03279382306531E-02 
1804	 0.119047456732234 
1805	 0.138118730717337 
1806	 0.138734508637444 
1807	 0.178840491636228 
1808	 0.320038662630692 
1809	 0.288000072717048 
1810	 0.132110764704904 
1811	 9.79038164245099E-02 
1812	-8.46490900109772E-02 
1813	-9.62811118862881E-02 
1814	-0.996346317374914 
1815	-0.833190226205662 
1816	 98.8191694283813 
1817	 1.7187163192051 
1818	 0.803399789149462 
1819	 1.62708507708395 
1820	 2.48879603740443 
1821	 0.061638981790857 
1822	 0.186431776293197 
1823	 0.367569485681437 
1824	 1.02161235232516 
1825	 1.40426029558998 
1826	 1.46136250500107 
1827	-56.3334775608847 
1828	-7.10540257864193 
1829	 3.93687939930193 
1830	 1.59633438989492 
1831	-2.56888409658716E-02 
1832	 0.685325476139213 
1833	 1.51106284068771 
1834	 1.7082541371943 
1835	 10.3827830147204 
1836	-69.4228865035547 
1837	 2.22674026094423 
1838	 18.1487318927546 
1839	-0.902997300917865 
1840	-0.800808334644896 
1841	-1.07318803090546 
1842	-0.843844420205349 
1843	-0.995342496662226 
1844	-4.66823851781771 
1845	-16.4396657969927 
1846	-6.11362410871718 
1847	-4.0568979143524 
1848	-0.730983411517854 
1849	 7.64443228767604E-02 
1850	-0.364671429464027 
1851	 0.259956916203272 
1852	 1.30183865617982 
1853	 0.215854060041437 
1854	 0.941575690704966 
1855	-0.261297736547921 
1856	-0.159122427414328 
1857	-0.555658415387921 
1858	-0.01147538985132 
1859	 1.67762878585592 
1860	 3.15591747963192 
1861	 15.769389630079 
1862	-2.99232825565223 
1863	-1.15569683262961 
1864	-4.67721068111049 
1865	-2.20104404239438 
1866	-0.802840097139272 
1867	-0.953032003700098 
1868	-4.42725568607272 
1869	 6.93089220123872 
1870	 0.184076468000187 
1871	-0.425780287492295 
1872	-1.01556577392492 
1873	-0.879475784712433 
1874	 0.367619056899363 
1875	 0.893105318935336 
1876	 1.03302535111238 
1877	 0.885873081958431 
1878	 0.90019516842911 
1879	 1.62237808128757 
1880	 0.887598846425626 
1881	-0.268674669278844 
1882	-0.823704523195526 
1883	-1.59991313876151 
1884	-1.34088202149962 
1885	-3.03032547652883 
1886	 0.510397300473283 
1887	 0.428040773386208 
1888	-0.104387974817848 
1889	-0.673976539165596 
1890	-3.06236826264079 
1891	-2.5213625268959 
1892	-5.13011390662564 
1893	-1.24975881855806 
1894	-0.342401205852591 
1895	 0.248500487971509 
1896	 0.825450409197511 
1897	 2.18794075905257 
1898	 10.353241376378 
1899	 9.83800568580703 
1900	 3.13108372942295 
1901	-0.574600635803801 
1902	-0.742669762095131 
1903	-0.439658743591321 
1904	-0.10358095604873 
1905	 8.19631030881142E-02 
1906	 0.248768610632764 
1907	-0.22677720221308 
1908	-0.768209669117847 
1909	-2.13819830850452 
1910	 6.43199075959622 
1911	-1.5453772139104 
1912	-1.69971794882733 
1913	-1.79202189478315 
1914	-2.6360557636108 
1915	-2.86156245033933 
1916	-5.86933864991481 
1917	-2.14487521167426 
1918	-1.64934945923063 
1919	-3.77005287475392 
1920	-2.55646957922675 
1921	-1.55838983221829 
1922	-0.862556004571108 
1923	-0.288842850443197 
1924	 0.129876431058545 
1925	 0.661125553215497 
1926	 1.37402862217529 
1927	 1.65940548662982 
1928	-1.60438529923048 
1929	-4.08890599652624 
1930	-0.863618077462759 
1931	-0.409381787212711 
1932	-1.09400812633817 
1933	-3.37984085920037 
1934	-5.2528560552845 
1935	-11.3480541109429 
1936	-5.76903319366022 
1937	-1.59732469631355 
1938	-1.98030063968872 
1939	-2.1210406633501 
1940	 126.680700545306 
1941	-2.58246066937413 
1942	-1.9345461874608 
1943	 4.6172662176996 
1944	 2.77976991631763 
1945	 0.927672500950111 
1946	 0.734290010036852 
1947	 0.698725789200253 
1948	 0.585432438514157 
1949	 0.516052789429287 
1950	 0.122412670632232 
1951	-8.28359829442506E-02 
1952	-0.155995002274555 
1953	-9.60039128663549E-02 
1954	-0.227863377751791 
1955	-0.241803090872607 
1956	-0.122254314731432 
1957	-0.107270942528089 
1958	-5.70796688367292E-03 
1959	 2.07095229065771E-02 
1960	-1.54098620186351E-02 
1961	-2.54513450315828E-02 
1962	-2.51029461873856E-02 
1963	 4.14603110672544E-03 
1964	 1.76109740683261E-02 
1965	-6.65456376165078E-03 
1966	-8.56338085926123E-03 
1967	-1.01296974990514E-02 
1968	-2.65402543283115E-03 
1969	 4.28711088016783E-03 
1970	 2.61635327336321E-02 
1971	 3.39151018955615E-02 
1972	 1.99530310535732E-02 
1973	 1.04261443864566E-02 
1974	 1.01062392393567E-02 
1975	 1.38071018209344E-02 
1976	 1.65614347779497E-02 
1977	 1.80008195343749E-02 
1978	 1.38158910833814E-02 
1979	 1.40028066145725E-02 
1980	 1.22259988492213E-02 
1981	 1.99862473661571E-02 
1982	 2.24769350302491E-02 
1983	 0.023437033671335 
1984	 2.60432354584551E-02 
1985	 0.02330033412593 
1986	 2.43223651592099E-02 
1987	 2.67585273011293E-02 
1988	 2.72799733579949E-02 
1989	 2.57275109984239E-02 
1990	 0.02170516765231 
1991	 1.85293898763055E-02 
1992	 2.33744851881166E-02 
1993	 3.15560874304974E-02 
1994	 3.18607964403712E-02 
1995	 0.030610261176891 
1996	 3.18354987111302E-02 
1997	 2.66149272295684E-02 
1998	 1.74683005656484E-02 
1999	 1.97745755326446E-02 
2000	 2.44624882896149E-02 
2001	 2.01542443424562E-02 
2002	 1.02642578554995E-02 
2003	 6.24646588203606E-03 
2004	 8.09835638008524E-03 
2005	 2.66068657822941E-02 
2006	 3.49977645874979E-02 
2007	 3.48700440945063E-02 
2008	 4.74742702615807E-02 
2009	 0.051681459948364 
2010	 4.93552891110634E-02 
2011	 4.68253820444386E-02 
2012	 4.74619523683456E-02 
2013	 3.25056544386861E-02 
2014	 1.94131912389057E-02 
2015	 1.41728120804101E-02 
2016	 0.023267338024619 
2017	 2.85728502438897E-02 
2018	 3.10018479867667E-02 
2019	 3.44113976506122E-02 
2020	 2.81330648162618E-02 
2021	 2.65620193620475E-02 
2022	 0.029994601279876 
2023	 2.86091227704296E-02 
2024	 2.60357802151498E-02 
2025	 1.99241028953606E-02 
2026	 0.019652403498302 
2027	 2.04609292003414E-02 
2028	 2.04520679298556E-02 
2029	 2.41607938294191E-02 
2030	 2.90281322262785E-02 
2031	 2.72785119798073E-02 
2032	 2.73377811784172E-02 
2033	 2.92779644143264E-02 
2034	 2.90625173525813E-02 
2035	 2.80239608518479E-02 
2036	 2.85320445859811E-02 
2037	 3.08622834268779E-02 
2038	 3.26719840163211E-02 
2039	 3.31379550029852E-02 
2040	 3.53329810760253E-02 
2041	 3.45079878866608E-02 
2042	 2.90709677969213E-02 
2043	 2.69353872873359E-02 
2044	 0.025252248792903 
2045	 2.49793192895458E-02 
2046	 2.62102770953024E-02 
2047	 2.71519966429332E-02 
2048	 2.60736828766517E-02 
2049	 2.86024841873765E-02 
2050	 2.89229171082313E-02 
2051	 2.67769639926284E-02 
2052	 2.74214533236994E-02 
2053	 2.59427118944428E-02 
2054	 2.71633473222333E-02 
2055	 2.84718898585989E-02 
2056	 2.84574122957935E-02 
2057	 2.76658567297891E-02 
2058	 0.028238923519292 
2059	 2.89817867194479E-02 
2060	 2.82369894459213E-02 
2061	 2.78301793711061E-02 
2062	 2.69458356814745E-02 
2063	 2.34801471100244E-02 
2064	 0.022822054144877 
2065	 2.28162042858166E-02 
2066	 2.25957878652966E-02 
2067	 2.38180388638527E-02 
2068	 0.024115912057206 
2069	 2.53935082975742E-02 
2070	 0.024882275044774 
2071	 2.33800502481083E-02 
2072	 2.18046241077945E-02 
2073	 2.05497368979881E-02 
2074	 1.92351302118892E-02 
2075	 1.92785709065907E-02 
2076	 1.96462156203842E-02 
2077	 1.99438079214829E-02 
2078	 2.07393221543018E-02 
2079	 2.12022251433999E-02 
2080	 2.16622515463939E-02 
2081	 2.20596924572284E-02 
2082	 2.36419502305374E-02 
2083	 2.48824947582731E-02 
2084	 2.48035240358859E-02 
2085	 0.026646014295901 
2086	 2.55788986236969E-02 
2087	 2.28930085730419E-02 
2088	 2.38720938562198E-02 
2089	 2.36668601768288E-02 
2090	 2.49150500481602E-02 
2091	 3.01625631160746E-02 
2092	 3.20402068663275E-02 
2093	 3.28445616214137E-02 
2094	 3.18879327102062E-02 
2095	 2.77691240094731E-02 
2096	 2.71260257701209E-02 
2097	 2.68388006322647E-02 
2098	 2.64313119930354E-02 
2099	 2.78651584062053E-02 
2100	 2.93594689496224E-02 
2101	 2.85136962324761E-02 
2102	 2.84246368048064E-02 
2103	 2.99932173619647E-02 
2104	 2.95837581445375E-02 
2105	 2.87517703632954E-02 
2106	 2.90495649547665E-02 
2107	 3.03165120469945E-02 
2108	 0.031209132699424 
2109	 2.94136966780615E-02 
2110	 2.87406053346186E-02 
2111	 3.20966754301199E-02 
2112	 3.37322830333498E-02 
2113	 3.37222588176408E-02 
2114	 3.47639785273593E-02 
2115	 3.40854013522367E-02 
2116	 0.028487217554189 
2117	 2.68131667310222E-02 
2118	 2.74139216818766E-02 
2119	 2.77781824757134E-02 
2120	 2.93203218164758E-02 
2121	 2.98033843939993E-02 
2122	 2.95552372867026E-02 
2123	 2.81772907307476E-02 
2124	 2.89616841295892E-02 
2125	 2.99995855366945E-02 
2126	 2.66978397455225E-02 
2127	 2.56794930896219E-02 
2128	 2.50281830082687E-02 
2129	 2.28311984543732E-02 
2130	 2.84815576817728E-02 
2131	 3.31173155974148E-02 
2132	 3.14555820482415E-02 
2133	 3.33675252909201E-02 
2134	 3.35907009840811E-02 
2135	 3.09947705045203E-02 
2136	 3.03217418591619E-02 
2137	 3.07902831846477E-02 
2138	 2.95103424299433E-02 
2139	 2.72931548126577E-02 
2140	 2.64774783129359E-02 
2141	 2.64071965642485E-02 
2142	 2.62318428191637E-02 
2143	 2.57449340188281E-02 
2144	 2.63332080234236E-02 
2145	 3.02840091985133E-02 
2146	 3.13181672837087E-02 
2147	 3.33185190596569E-02 
2148	 0.035343792924118 
2149	 3.19667596873238E-02 
2150	 3.04858444222571E-02 
2151	 3.07999901979037E-02 
2152	 0.028411312194443 
2153	 2.73488041142339E-02 
2154	 2.75829693276884E-02 
2155	 0.026686113801021 
2156	 2.96372166850116E-02 
2157	 3.02020731412927E-02 
2158	 3.02942685652408E-02 
2159	 2.84675137516755E-02 
2160	 2.45618486491596E-02 
2161	 2.23000682960159E-02 
2162	 1.87233070378167E-02 
2163	 1.90107960406582E-02 
2164	 2.14445593231818E-02 
2165	 2.40091746854424E-02 
2166	 3.06570223242581E-02 
2167	 3.39006111761475E-02 
2168	 3.74566050822739E-02 
2169	 3.78380401532567E-02 
2170	 3.45082654016679E-02 
2171	 3.09255013964519E-02 
2172	 0.029324185775329 
2173	 2.82536834622931E-02 
2174	 3.08537776297981E-02 
2175	 3.44986314154594E-02 
2176	 3.56996440791581E-02 
2177	 3.66097597477784E-02 
2178	 3.55749876992843E-02 
2179	 3.37839390340076E-02 
2180	 3.31391687819932E-02 
2181	 3.37345743237501E-02 
2182	 3.59402506691478E-02 
2183	 3.55706201980341E-02 
2184	 3.30712701868239E-02 
2185	 3.23210032906054E-02 
2186	 3.27805499424291E-02 
2187	 3.46091465632492E-02 
2188	 3.56968496236698E-02 
2189	 3.75073545810796E-02 
2190	 0.037956897012488 
2191	 3.93267548033913E-02 
2192	 3.79452506858643E-02 
2193	 3.27915349947789E-02 
2194	 3.23979224981768E-02 
2195	 3.33086837805009E-02 
2196	 3.06753081736934E-02 
2197	 2.92309032224976E-02 
2198	 2.78006348642478E-02 
2199	 2.29789405290244E-02 
2200	 1.80654140976922E-02 
2201	 2.03938150803561E-02 
2202	 2.32453476893335E-02 
2203	 1.99477478432532E-02 
2204	 1.96442371710636E-02 
2205	 1.91956315451323E-02 
2206	 1.71585091007122E-02 
2207	 2.31364773886818E-02 
2208	 2.75673493586428E-02 
2209	 2.67682267846936E-02 
2210	 0.028135593611747 
2211	 2.43665032733867E-02 
2212	 1.82696778192562E-02 
2213	 1.78841986642304E-02 
2214	 1.83715381615329E-02 
2215	 1.78645490385117E-02 
2216	 1.96866173256345E-02 
2217	 2.16819146549188E-02 
2218	 0.022318345120893 
2219	 2.41212487999781E-02 
2220	 2.81687328602466E-02 
2221	 3.00271263206162E-02 
2222	 0.03089533265212 
2223	 3.14550930606502E-02 
2224	 3.25950294100222E-02 
2225	 3.30512662030294E-02 
2226	 3.13958680671811E-02 
2227	 3.01284906554515E-02 
2228	 2.85402701789814E-02 
2229	 2.66034743848545E-02 
2230	 2.50356827205395E-02 
2231	 2.44734266326919E-02 
2232	 2.36958712507915E-02 
2233	 2.31412375018888E-02 
2234	 2.36457657115048E-02 
2235	 0.023036098315247 
2236	 2.24824823823092E-02 
2237	 2.51298316168018E-02 
2238	 2.96903818145857E-02 
2239	 3.12411060435477E-02 
2240	 3.19783098392136E-02 
2241	 3.41939749657282E-02 
2242	 0.032757225838444 
2243	 2.79626145216423E-02 
2244	 2.64085357309289E-02 
2245	 2.84165519413037E-02 
2246	 0.031412410297054 
2247	 3.29700143489637E-02 
2248	 3.41680316505541E-02 
2249	 3.17337481927444E-02 
2250	 2.81578882577203E-02 
2251	 2.70762730932654E-02 
2252	 2.43426231829982E-02 
2253	 2.31394835570136E-02 
2254	 2.05278924983151E-02 
2255	 0.021515839611934 
2256	 3.02330496431761E-02 
2257	 3.36220549813337E-02 
2258	 3.23079780806164E-02 
2259	 3.70057783317359E-02 
2260	 4.02736391916164E-02 
2261	 3.91788975103347E-02 
2262	 3.64089873567041E-02 
2263	 3.94996083160722E-02 
2264	 0.034205269248647 
2265	 1.50735262494605E-02 
2266	 0.010462047301241 
2267	 8.66858105110201E-03 
2268	 7.13825288238588E-03 
2269	 1.55055651572126E-02 
2270	 2.03584505594681E-02 
2271	 2.53884473883939E-02 
2272	 2.82744104724003E-02 
2273	 2.62207681792814E-02 
2274	 2.66580216556846E-02 
2275	 2.81816111075062E-02 
2276	 2.89007134490113E-02 
2277	 3.24087392413195E-02 
2278	 3.51477133379555E-02 
2279	 3.37515186849816E-02 
2280	 0.033569869618772 
2281	 3.67265119938057E-02 
2282	 3.53520538556498E-02 
2283	 0.03099048680324 
2284	 2.75475774939264E-02 
2285	 2.06115768258073E-02 
2286	 1.82808583752943E-02 
2287	 1.53556057766238E-02 
2288	 1.80652686485825E-02 
2289	 2.17745029155825E-02 
2290	 1.81795200822401E-02 
2291	 1.80489411426787E-02 
2292	 1.97738746759169E-02 
2293	 2.20234414281543E-02 
2294	 1.95744562234037E-02 
2295	 1.54357267254234E-02 
2296	 1.39423392441736E-02 
2297	 9.69297300167367E-03 
2298	 1.43481285778266E-02 
2299	 1.66777062508576E-02 
2300	 0.013106029497711 
2301	 2.22335581549513E-02 
2302	 3.12554122695421E-02 
2303	 3.85210867432713E-02 
2304	 0.047685071781418 
2305	 4.52613476329768E-02 
2306	 4.20523813006011E-02 
2307	 4.55593616775797E-02 
2308	 4.65271331162603E-02 
2309	 4.89880706207164E-02 
2310	 4.22679883304163E-02 
2311	 3.52572634010482E-02 
2312	 4.06453797251073E-02 
2313	 4.05429942018435E-02 
2314	 3.65565378306283E-02 
2315	 2.10502571396622E-02 
2316	 7.66345641350904E-03 
2317	 1.48386887922265E-03 
2318	-3.80648098866056E-03 
2319	 1.36974069326985E-02 
2320	 0.01221976954123 
2321	 5.54392704853621E-03 
2322	 0.023755987466644 
2323	 2.72398862685108E-02 
2324	 0.034603441692312 
2325	 0.04464043210664 
2326	 3.04007213218707E-02 
2327	 2.94126000487849E-02 
2328	 4.28716048428943E-02 
2329	 2.74530986762632E-02 
2330	 1.38488354114392E-02 
2331	 1.75131685353141E-02 
2332	 1.28662973686848E-02 
2333	 1.97478340141878E-02 
2334	 2.11299124733717E-02 
2335	-3.58125506111233E-03 
2336	-1.16070860875172E-02 
2337	-9.15060865413938E-03 
2338	-1.19357147204792E-02 
2339	 1.67834695546477E-02 
2340	 4.19982305230927E-02 
2341	 5.74821788454611E-02 
2342	 7.86689663860827E-02 
2343	 5.60960629372816E-02 
2344	 1.86097176691382E-02 
2345	-5.0108035891858E-03 
2346	-3.27658983464168E-02 
2347	-2.89652125158039E-02 
2348	-8.49399268090249E-03 
2349	 5.67532596700236E-03 
2350	 3.76272042513687E-02 
2351	 5.54800275275953E-02 
2352	 2.86208621750685E-02 
2353	-2.44842073553037E-02 
2354	-7.56245041262847E-02 
2355	-8.27436394426377E-02 
2356	-3.43552035011797E-02 
2357	 1.59899046620579E-02 
2358	 3.93312091640875E-02 
2359	 5.07824198701469E-02 
2360	 4.02684963560556E-02 
2361	 2.02422986981032E-02 
2362	 2.75346325734997E-02 
2363	 1.03612486643232E-02 
2364	-1.25094570297011E-02 
2365	 3.18990936094512E-02 
2366	 7.70935782825167E-02 
2367	 0.107336080345789 
2368	 0.114328874915426 
2369	 7.54779288141491E-02 
2370	 6.01345348710057E-02 
2371	 5.75461911532652E-02 
2372	 2.00949135616715E-03 
2373	-2.78913243262196E-02 
2374	-1.37997027395516E-02 
2375	-5.95818817435375E-02 
2376	-8.13691995322677E-03 
2377	 0.114869113163718 
2378	 6.70434580132529E-02 
2379	-2.53818191718053E-02 
2380	-5.23390991687549E-02 
2381	-0.102508038661898 
2382	-0.121487708189997 
2383	-2.01917140454935E-03 
2384	 5.12793899006761E-02 
2385	 5.97325682328549E-02 
2386	 0.157447594390622 
2387	 0.036207975523253 
2388	-4.11066784310583E-02 
2389	-3.46599485369299E-02 
2390	-0.129447562798695 
2391	-0.115448549360704 
2392	-0.040718623797882 
2393	-3.25476938565989E-02 
2394	-0.063774624901875 
2395	-8.72318431282655E-02 
2396	 2.53799773977968E-02 
2397	 0.130642832413603 
2398	 0.154663103759923 
2399	 0.209341263078033 
2400	 0.190475086816656 
2401	 9.18997367504592E-02 
2402	 0.171969427631909 
2403	 0.19463145925405 
2404	 0.183616418748367 
2405	 0.212071250305662 
2406	 0.135252306962421 
2407	 6.70248419671836E-02 
2408	-2.61330510996762E-02 
2409	-0.15454449589587 
2410	-0.187019429344478 
2411	-0.223358916990966 
2412	-0.167038837301161 
2413	-0.311372148576149 
2414	-0.279786762357584 
2415	 7.34378968130349E-02 
2416	-3.04026760844057E-02 
2417	 2.55679463485845E-02 
2418	 0.200961940892215 
2419	 0.232866766078267 
2420	 0.380198293276126 
2421	 0.422994109245018 
2422	 0.386075816038052 
2423	 1.2539862274806 
2424	 1.2887747136082 
2425	 0.716101204800769 
2426	 0.731102827972951 
2427	-0.735525250814537 
2428	-0.87895262094862 
2429	-0.365740472891272 
2430	-0.384719843042001 
2431	-0.320654176175291 
2432	-0.261845803943753 
2433	-1.01087559800886 
2434	-1.1242963801062 
2435	-0.939206961120866 
2436	-0.88548228944474 
2437	-12.374823575645 
2438	-0.537941070481067 
2439	-1.25289906758237 
2440	 19.8305748232598 
2441	 30.8770784887219 
2442	 1.31613471080638 
2443	 1.76364286672387 
2444	-19.6547161652057 
2445	-2.27228122616644 
2446	-0.315802984556922 
2447	-0.125347578102815 
2448	 0.148638333136372 
2449	 0.113737536804385 
2450	 0.28913607344315 
2451	 0.843534821173233 
2452	 0.857651979898687 
2453	 0.842880481018004 
2454	 0.505914133634344 
2455	 0.104150558386154 
2456	 2.42609845606971E-02 
2457	 0.150420907053888 
2458	 0.359375011617686 
2459	 0.614796259427562 
2460	 0.376193849413004 
2461	 0.573604166262258 
2462	 0.2413828562171 
2463	 3.42963493381704E-02 
2464	 0.375652574736221 
2465	 0.11646257041949 
2466	-0.459808560527597 
2467	-1.12102230210616 
2468	-3.1479941851588 
2469	-11.7091179608666 
2470	 6.58581276968857 
2471	 7.39457849734517 
2472	 2.64557837337581 
2473	 0.506325694304304 
2474	-0.668230440992551 
2475	-0.299896918771856 
2476	 3.10919442701836E-02 
2477	 0.654221572206206 
2478	 5.90213872383065 
2479	-1.37654402124224 
2480	-0.648169469505058 
2481	-0.603564748158884 
2482	 5.39726556763435E-02 
2483	 8.34474828546057E-02 
2484	-0.040236775950337 
2485	 3.19984200611528E-02 
2486	-0.283360933787006 
2487	-0.545225337139182 
2488	 0.234853766882607 
2489	 0.108823412827719 
2490	 0.23163442582317 
2491	 0.490963740950205 
2492	 0.238723907920663 
2493	 0.047320685206628 
2494	-0.106677214273683 
2495	-0.919902887712048 
2496	-3.00806657898786 
2497	-3.82146015101799 
2498	-7.10858807833622 
2499	-1.40766700674075 
2500	-0.227003345214513 
