Wavelength	rt0713west_far_sunny_200004.asd
350	 6.12307631292728E-02 
351	 6.03718140989569E-02 
352	 6.01553018508444E-02 
353	 6.04918645594803E-02 
354	 6.08009735749692E-02 
355	 6.01093137418704E-02 
356	 5.93966633212393E-02 
357	 5.91359334706891E-02 
358	 5.93916603449879E-02 
359	 0.059399917139888 
360	 5.91905834680274E-02 
361	 5.88503900322365E-02 
362	 5.84781262872432E-02 
363	 5.79631990774846E-02 
364	 5.78778586664965E-02 
365	 5.82593230904453E-02 
366	 5.82619939657816E-02 
367	 5.81432355195338E-02 
368	 5.78368969654064E-02 
369	 5.73839471249205E-02 
370	 5.73781226682433E-02 
371	 5.77565193331467E-02 
372	 0.057862882180066 
373	 5.70175083981495E-02 
374	 5.73718682838534E-02 
375	 5.77948698740855E-02 
376	 5.75162560964166E-02 
377	 5.67634602680962E-02 
378	 5.67994166416045E-02 
379	 5.70220540747882E-02 
380	 5.68321507481373E-02 
381	 5.71903794563976E-02 
382	 5.72748480735341E-02 
383	 5.71120076604829E-02 
384	 5.71055161892054E-02 
385	 5.71430751558474E-02 
386	 5.69978863622665E-02 
387	 5.68256129291901E-02 
388	 5.71622164342878E-02 
389	 0.057051528439059 
390	 5.69458562750206E-02 
391	 0.057214853122608 
392	 5.73800020956859E-02 
393	 5.73952000864875E-02 
394	 5.73213035390718E-02 
395	 5.72612537652434E-02 
396	 5.72108085377241E-02 
397	 5.72638498894581E-02 
398	 5.73567732693554E-02 
399	 5.73069256836096E-02 
400	 0.057241472857315 
401	 5.72676600182188E-02 
402	 5.73933916665374E-02 
403	 5.74301537968565E-02 
404	 5.74725805297591E-02 
405	 5.75061208325302E-02 
406	 0.057495154229509 
407	 5.74941059509295E-02 
408	 5.76120496179934E-02 
409	 5.77241037885428E-02 
410	 5.75164724310449E-02 
411	 5.76414111278196E-02 
412	 5.78124832957907E-02 
413	 5.77810028319542E-02 
414	 5.77845777548958E-02 
415	 0.057934278471496 
416	 5.81035837199268E-02 
417	 5.81361800824018E-02 
418	 5.83900872677367E-02 
419	 5.85532591635569E-02 
420	 5.85737929205432E-02 
421	 0.058717581043885 
422	 0.058833811851617 
423	 5.89913525367781E-02 
424	 5.92358171575548E-02 
425	 5.94311536358567E-02 
426	 5.96587369830869E-02 
427	 5.99238430966762E-02 
428	 6.01982839659731E-02 
429	 6.05190878254109E-02 
430	 0.060721151275933 
431	 6.08509060982022E-02 
432	 6.12110534361356E-02 
433	 6.14681596400353E-02 
434	 6.16985145872646E-02 
435	 6.20112040254931E-02 
436	 6.23497909005321E-02 
437	 6.25770485167082E-02 
438	 6.27833303046221E-02 
439	 6.31436089085008E-02 
440	 6.33831683837663E-02 
441	 6.36369284782275E-02 
442	 6.39724687322314E-02 
443	 6.42977778712286E-02 
444	 6.45379697349425E-02 
445	 6.47722973532563E-02 
446	 6.50799917956687E-02 
447	 6.53663029277931E-02 
448	 6.55833901348223E-02 
449	 6.57592875041972E-02 
450	 6.59742577656253E-02 
451	 6.62042739929755E-02 
452	 0.066419263216914 
453	 0.066598294452238 
454	 0.066729402687694 
455	 6.69632505215075E-02 
456	 6.71908031999921E-02 
457	 6.72732712355454E-02 
458	 6.74722275465021E-02 
459	 6.76203912634056E-02 
460	 6.77066923260096E-02 
461	 6.78875866794923E-02 
462	 6.80066669607673E-02 
463	 6.81092831605863E-02 
464	 6.82594333050518E-02 
465	 6.84695576596648E-02 
466	 6.86385109748851E-02 
467	 6.87142690152242E-02 
468	 6.87169353785709E-02 
469	 6.89468243075058E-02 
470	 6.91568955349852E-02 
471	 6.92364074338819E-02 
472	 6.93231948325884E-02 
473	 6.94822955763898E-02 
474	 6.96886976373322E-02 
475	 6.98958526135634E-02 
476	 0.070094181022514 
477	 7.02825361646115E-02 
478	 7.05008962117102E-02 
479	 7.07952353097581E-02 
480	 7.09312660922369E-02 
481	 7.11445852339702E-02 
482	 7.15313244507873E-02 
483	 7.17781242259626E-02 
484	 7.20376498148395E-02 
485	 7.23396082452802E-02 
486	 7.26684043949653E-02 
487	 7.29900024400296E-02 
488	 7.33266852950873E-02 
489	 7.36669194473154E-02 
490	 7.39681620848085E-02 
491	 7.42542719867067E-02 
492	 7.46127174286591E-02 
493	 7.50599725704359E-02 
494	 7.53945153754158E-02 
495	 7.57692254584551E-02 
496	 7.61585704891522E-02 
497	 7.64687167123855E-02 
498	 7.68326871590896E-02 
499	 7.71887657641719E-02 
500	 7.75190761379852E-02 
501	 7.79027828818039E-02 
502	 7.82963987422803E-02 
503	 7.87090158804228E-02 
504	 7.91507072885658E-02 
505	 7.95657824567523E-02 
506	 8.00551235265286E-02 
507	 8.05815763623863E-02 
508	 8.10042392296359E-02 
509	 8.13718125677848E-02 
510	 8.18313136679652E-02 
511	 8.24211379476716E-02 
512	 8.29037863301978E-02 
513	 8.33791885300649E-02 
514	 8.38855361182964E-02 
515	 8.44378222610374E-02 
516	 8.50631603843537E-02 
517	 8.56620985096147E-02 
518	 8.61957154111553E-02 
519	 8.67160789415622E-02 
520	 8.72611087428254E-02 
521	 8.77941215933537E-02 
522	 8.82972726657216E-02 
523	 0.088863341935613 
524	 8.94973527698033E-02 
525	 9.01381240328445E-02 
526	 9.06989751543264E-02 
527	 9.13612320699227E-02 
528	 0.091975887806849 
529	 9.24817025446474E-02 
530	 9.30771681728669E-02 
531	 9.37121413913625E-02 
532	 9.43515914349131E-02 
533	 0.094968331872047 
534	 9.56076860536037E-02 
535	 9.62081996968302E-02 
536	 9.67731091155198E-02 
537	 9.73795159597678E-02 
538	 9.79501163700627E-02 
539	 0.098550082743612 
540	 9.92236891506563E-02 
541	 9.98403252608935E-02 
542	 0.100461726234412 
543	 0.101074096904694 
544	 0.101635168531641 
545	 0.102298311494978 
546	 0.102994220292138 
547	 0.103637737081896 
548	 0.104160058040453 
549	 0.104758131485174 
550	 0.105413835648193 
551	 0.106038018854282 
552	 0.10662798427578 
553	 0.107196047175856 
554	 0.107787895229984 
555	 0.108476421562195 
556	 0.109015544405441 
557	 0.109537886030077 
558	 0.110167624675642 
559	 0.110704912466058 
560	 0.111225270767884 
561	 0.111714542082098 
562	 0.112117780418656 
563	 0.112525707583152 
564	 0.112941246579671 
565	 0.113336046353921 
566	 0.113645748701341 
567	 0.113939710198918 
568	 0.114207167870174 
569	 0.114435521617039 
570	 0.114779144914954 
571	 0.115074874524275 
572	 0.1152409662535 
573	 0.115309026752274 
574	 0.115534298328132 
575	 0.115775101924171 
576	 0.115884720153086 
577	 0.116037037134275 
578	 0.116118703506592 
579	 0.116131093551022 
580	 0.116139800107486 
581	 0.116095922638777 
582	 0.115965943219679 
583	 0.115735249685337 
584	 0.115422805673745 
585	 0.11495140942525 
586	 0.114380877676282 
587	 0.113794772649047 
588	 0.113100861635669 
589	 0.112530961186679 
590	 0.112171765696721 
591	 0.111880096707892 
592	 0.111457015417143 
593	 0.110913135562233 
594	 0.110302840379334 
595	 0.109614796147811 
596	 0.108822606412587 
597	 0.107924691071211 
598	 0.106960005541335 
599	 0.106114511181792 
600	 0.105353408017469 
601	 0.104686107243114 
602	 0.104250051911045 
603	 0.10391393575564 
604	 0.103648254938277 
605	 0.103462150933384 
606	 0.10337488926118 
607	 0.103323635320951 
608	 0.103276032843704 
609	 0.103235397161699 
610	 0.103176708428824 
611	 0.103107438017063 
612	 0.103050215508173 
613	 0.103060233287171 
614	 0.102990600105752 
615	 0.10289603764275 
616	 0.102921048438609 
617	 0.102889756960664 
618	 0.102781641561007 
619	 0.102637954062544 
620	 0.102570397058719 
621	 0.102494908727061 
622	 0.102417874180055 
623	 0.102346364231366 
624	 0.102156267912549 
625	 0.101942067729256 
626	 0.101759690437246 
627	 0.101619793893132 
628	 0.101536421983532 
629	 0.101540319850709 
630	 0.101596315164143 
631	 0.101493860668575 
632	 0.101426909278538 
633	 0.101370263609682 
634	 0.101231136464868 
635	 0.101270896433482 
636	 0.101229961737773 
637	 0.101027416750094 
638	 0.100901465597045 
639	 0.100773544246334 
640	 0.100576627535665 
641	 0.100293357860506 
642	 0.100104264547109 
643	 9.98446355770132E-02 
644	 9.94402822523295E-02 
645	 9.89146300923964E-02 
646	 9.85040594120691E-02 
647	 9.81976443021143E-02 
648	 9.79555338854659E-02 
649	 9.77975931655057E-02 
650	 9.75973631628976E-02 
651	 0.097319087670081 
652	 9.69722484800469E-02 
653	 9.65143601619332E-02 
654	 9.59387712642228E-02 
655	 9.52543341431328E-02 
656	 9.45840026716588E-02 
657	 0.094084482944534 
658	 9.36675036698676E-02 
659	 9.32399709590957E-02 
660	 9.29003029408375E-02 
661	 0.092574303116622 
662	 9.22695254926575E-02 
663	 9.20444897632175E-02 
664	 9.18588199864378E-02 
665	 9.16497518300937E-02 
666	 9.14191525193874E-02 
667	 0.09129872101708 
668	 9.10877924509163E-02 
669	 9.08972726884087E-02 
670	 9.08676383430053E-02 
671	 9.07306522050901E-02 
672	 9.06514906885105E-02 
673	 0.090616473434491 
674	 9.04434761269987E-02 
675	 9.03433473229627E-02 
676	 0.090341965851307 
677	 0.090382126814021 
678	 9.02940223456232E-02 
679	 9.01875952532875E-02 
680	 9.01570496982931E-02 
681	 9.02462288766152E-02 
682	 9.01999527897894E-02 
683	 9.01837953320163E-02 
684	 9.01912086043089E-02 
685	 8.99243166851803E-02 
686	 8.95026427836569E-02 
687	 8.92253882006271E-02 
688	 8.92499871368447E-02 
689	 8.90955874442872E-02 
690	 8.87828991184338E-02 
691	 8.82857884709553E-02 
692	 8.75787317054594E-02 
693	 8.70037832853983E-02 
694	 8.66402128938649E-02 
695	 0.08638677860445 
696	 8.59558779524685E-02 
697	 8.52068042933693E-02 
698	 8.41979192782654E-02 
699	 8.31504117417007E-02 
700	 8.22558079974005E-02 
701	 8.14821196182249E-02 
702	 0.080729351912431 
703	 7.98391835256928E-02 
704	 7.87663367549051E-02 
705	 7.76485507644489E-02 
706	 7.65825837728632E-02 
707	 7.54319378985986E-02 
708	 0.074135190186766 
709	 7.27513724227031E-02 
710	 7.13469159250361E-02 
711	 6.97166527898086E-02 
712	 6.79729602346891E-02 
713	 6.61407402992427E-02 
714	 6.40774102577904E-02 
715	 6.18349503270739E-02 
716	 5.93413660193565E-02 
717	 5.68563506906891E-02 
718	 5.47401210747848E-02 
719	 5.30882307355895E-02 
720	 5.19309963693809E-02 
721	 5.08680923254477E-02 
722	 4.91402067049922E-02 
723	 0.047090337810393 
724	 0.045269486361693 
725	 4.36585236295388E-02 
726	 4.20965203138033E-02 
727	 0.04040189849636 
728	 3.85407063254208E-02 
729	 0.036762623803832 
730	 3.52164420211862E-02 
731	 3.40932200108794E-02 
732	 3.33494590024969E-02 
733	 3.24225698549341E-02 
734	 3.14809247157379E-02 
735	 3.07057711630056E-02 
736	 0.030220797845421 
737	 2.99109690096422E-02 
738	 0.029733464589386 
739	 0.029650553450195 
740	 2.95694693447922E-02 
741	 2.95556065624823E-02 
742	 2.95736460734888E-02 
743	 2.95444168289894E-02 
744	 2.94887336429189E-02 
745	 2.94498396790879E-02 
746	 2.94360044804979E-02 
747	 2.94049292941644E-02 
748	 2.94192267202889E-02 
749	 2.94102459940189E-02 
750	 2.93263525212992E-02 
751	 2.92771478224916E-02 
752	 0.029242057994059 
753	 2.92313976189289E-02 
754	 2.92530349875821E-02 
755	 2.91814365122006E-02 
756	 2.90493719423461E-02 
757	 2.88399024879646E-02 
758	 2.83359812298777E-02 
759	 2.76169692444686E-02 
760	 2.69360332869699E-02 
761	 0.02683782246925 
762	 2.68627301538288E-02 
763	 2.70719040308459E-02 
764	 2.75328295809255E-02 
765	 2.81948427562608E-02 
766	 2.85656177881476E-02 
767	 2.88698391361766E-02 
768	 2.91735268092832E-02 
769	 2.93663545677676E-02 
770	 2.94262001860733E-02 
771	 2.94787441189401E-02 
772	 2.95921450164058E-02 
773	 2.95776622932654E-02 
774	 2.96798259701997E-02 
775	 2.98506450813503E-02 
776	 2.99440897276445E-02 
777	 3.00732870131778E-02 
778	 3.02139726472089E-02 
779	 3.03578520876297E-02 
780	 3.05185997667863E-02 
781	 3.06313120652445E-02 
782	 3.07045966947307E-02 
783	 3.07798229913442E-02 
784	 3.09473367445044E-02 
785	 3.10355779853667E-02 
786	 0.031065059914134 
787	 3.11270098455109E-02 
788	 0.031255657350945 
789	 3.14278276302599E-02 
790	 3.16674946448788E-02 
791	 3.20254557564866E-02 
792	 3.23986417796241E-02 
793	 3.26483981897692E-02 
794	 3.27766110344851E-02 
795	 3.29996575624276E-02 
796	 3.32546859332636E-02 
797	 3.33942925988652E-02 
798	 3.33798796429825E-02 
799	 3.35911354101047E-02 
800	 0.03378489124441 
801	 3.39068586620717E-02 
802	 3.40358618334412E-02 
803	 3.43228522311878E-02 
804	 3.45201507069894E-02 
805	 3.45666273875957E-02 
806	 3.46339883538405E-02 
807	 3.46361190551683E-02 
808	 3.44200605225407E-02 
809	 3.39744271527229E-02 
810	 0.033670668662271 
811	 3.35251453797635E-02 
812	 3.31882245728264E-02 
813	 3.23139892438516E-02 
814	 3.18229132281189E-02 
815	 3.15723819104586E-02 
816	 3.13130401300076E-02 
817	 3.08611095932143E-02 
818	 3.08017252766777E-02 
819	 3.07225695592654E-02 
820	 3.03451754303435E-02 
821	 2.96433644108627E-02 
822	 2.89072641338785E-02 
823	 2.82728036947109E-02 
824	 2.77507656405735E-02 
825	 2.72284503225755E-02 
826	 2.63140910340129E-02 
827	 2.52460994648149E-02 
828	 2.45191857183387E-02 
829	 2.38815810231102E-02 
830	 0.023443571355386 
831	 2.31723150575588E-02 
832	 2.29234837604733E-02 
833	 2.24642764297131E-02 
834	 2.22264011466869E-02 
835	 2.22906910701777E-02 
836	 2.22104835426482E-02 
837	 2.19965351587931E-02 
838	 2.19109884382189E-02 
839	 2.20838819951861E-02 
840	 2.21987363602611E-02 
841	 2.20542115848459E-02 
842	 2.18344932314809E-02 
843	 0.021792801819098 
844	 2.16922374068956E-02 
845	 2.16340878390094E-02 
846	 2.16269370208091E-02 
847	 2.15987795540052E-02 
848	 2.14187972560542E-02 
849	 2.13609071019309E-02 
850	 2.14602684402789E-02 
851	 2.14018914683596E-02 
852	 2.12737625244978E-02 
853	 2.11883904294695E-02 
854	 2.11883631380291E-02 
855	 2.11547827411057E-02 
856	 2.09982766463006E-02 
857	 2.09060593621891E-02 
858	 2.10140189031485E-02 
859	 2.10218049496376E-02 
860	 2.08381099518303E-02 
861	 2.06557338426769E-02 
862	 0.020716946860177 
863	 2.05920939060969E-02 
864	 2.05828678564554E-02 
865	 2.06491466803296E-02 
866	 2.04501695785722E-02 
867	 2.03474011090278E-02 
868	 2.03185923938631E-02 
869	 2.02599343147753E-02 
870	 2.00488291566023E-02 
871	 2.00232694908341E-02 
872	 1.99961773458164E-02 
873	 1.98629536306748E-02 
874	 1.99749562780638E-02 
875	 1.99300123136626E-02 
876	 1.97223999959398E-02 
877	 1.94978906913268E-02 
878	 1.94292168945161E-02 
879	 1.94246405070754E-02 
880	 1.93481045112959E-02 
881	 1.91274571061816E-02 
882	 1.91168400474706E-02 
883	 1.91226243370564E-02 
884	 1.90125285228044E-02 
885	 1.87731823830227E-02 
886	 1.87417555124251E-02 
887	 1.86324793421415E-02 
888	 1.84209822728504E-02 
889	 1.84179783697069E-02 
890	 1.81097526009558E-02 
891	 1.76823607372256E-02 
892	 1.73831690374783E-02 
893	 0.017326200077979 
894	 1.69160264439449E-02 
895	 1.63540664146647E-02 
896	 1.60300192876365E-02 
897	 1.59916567048351E-02 
898	 1.60813206844847E-02 
899	 1.60010657183878E-02 
900	 1.56605066544875E-02 
901	 1.56434555774821E-02 
902	 1.60029457119303E-02 
903	 1.61917479461034E-02 
904	 1.57295944743404E-02 
905	 1.55485307242071E-02 
906	 0.015529846271118 
907	 1.55988998047625E-02 
908	 1.56656637234406E-02 
909	 1.53155425407115E-02 
910	 1.49354524108577E-02 
911	 1.48459242484705E-02 
912	 1.51245096111961E-02 
913	 1.52225113118811E-02 
914	 0.015107054904765 
915	 1.50059793770768E-02 
916	 0.015234392537235 
917	 1.47626135261566E-02 
918	 1.42350486046025E-02 
919	 1.42824476467595E-02 
920	 1.51282760998051E-02 
921	 1.49988419762931E-02 
922	 1.44573488783218E-02 
923	 1.42011938887839E-02 
924	 1.42138822408786E-02 
925	 1.33437119182299E-02 
926	 1.24816710839277E-02 
927	 1.26114921793042E-02 
928	 1.21538727611773E-02 
929	 1.19982706315603E-02 
930	 1.28309039775019E-02 
931	 1.48293756556983E-02 
932	 1.53910606518843E-02 
933	 0.013908567655565 
934	 1.16111882606685E-02 
935	 1.04422949687862E-02 
936	 9.62106866025936E-03 
937	 9.34868600826375E-03 
938	 9.95223556536219E-03 
939	 1.12544517536314E-02 
940	 1.12182834799739E-02 
941	 9.43473592710662E-03 
942	 8.81425047989558E-03 
943	 1.20786012329709E-02 
944	 1.01328334016445E-02 
945	 7.81787858067056E-03 
946	 7.99758765889499E-03 
947	 1.02714642486081E-02 
948	 9.26897459243462E-03 
949	 8.74548308377223E-03 
950	 8.85366933378356E-03 
951	 7.99349151987266E-03 
952	 1.07561201899198E-02 
953	 0.011171183218832 
954	 9.10372780540716E-03 
955	 8.61083521245336E-03 
956	 1.00531806290365E-02 
957	 1.09161797792828E-02 
958	 1.10865027385215E-02 
959	 1.18658024458403E-02 
960	 1.08939921600277E-02 
961	 1.07647296877221E-02 
962	 1.17280257859108E-02 
963	 1.22198077542496E-02 
964	 1.23103313010166E-02 
965	 1.21484414311656E-02 
966	 1.15956063490402E-02 
967	 1.05824932478234E-02 
968	 1.11111480925894E-02 
969	 0.012312756290373 
970	 1.29277242426168E-02 
971	 1.20058405712048E-02 
972	 1.14471156190772E-02 
973	 1.25566244354403E-02 
974	 1.41055094204903E-02 
975	 1.31667959531856E-02 
976	 1.29856087736785E-02 
977	 1.24683325701928E-02 
978	 1.20099197209461E-02 
979	 1.30804284155523E-02 
980	 1.23806175557561E-02 
981	 1.21227854377557E-02 
982	 1.28630536395102E-02 
983	 1.34442569762488E-02 
984	 1.39808318137993E-02 
985	 1.45104766661564E-02 
986	 1.51724047796881E-02 
987	 1.58905592003784E-02 
988	 1.45422329863825E-02 
989	 1.41019443232364E-02 
990	 1.46564156622313E-02 
991	 0.014122139780124 
992	 1.39609805792495E-02 
993	 0.014177399117936 
994	 1.45656098723419E-02 
995	 0.014867341405041 
996	 1.49947154810008E-02 
997	 1.56995616767704E-02 
998	 1.61561304424541E-02 
999	 1.51634581005859E-02 
1000	 1.51485714017979E-02 
1001	 1.25739470451336E-02 
1002	 1.26276881857321E-02 
1003	 1.28193366987185E-02 
1004	 1.32259545686204E-02 
1005	 0.013426671857127 
1006	 1.36533307393089E-02 
1007	 1.37811400865245E-02 
1008	 0.01382717812981 
1009	 1.37922667677809E-02 
1010	 1.38781100961543E-02 
1011	 1.39334430222198E-02 
1012	 1.39062705746527E-02 
1013	 1.38925718573199E-02 
1014	 0.013828499094921 
1015	 1.36994649949064E-02 
1016	 1.36982383614136E-02 
1017	 0.013707570117581 
1018	 1.36972648821306E-02 
1019	 1.37710198938106E-02 
1020	 1.37777041620994E-02 
1021	 1.37356257126506E-02 
1022	 1.36893396085781E-02 
1023	 1.36575221285048E-02 
1024	 0.01366270495187 
1025	 1.34909652891303E-02 
1026	 1.35063701974461E-02 
1027	 1.34389607872926E-02 
1028	 1.32870667968275E-02 
1029	 1.32672962870493E-02 
1030	 1.32233154494304E-02 
1031	 1.33138219022419E-02 
1032	 1.36356796512161E-02 
1033	 1.37444486722139E-02 
1034	 1.38522899754401E-02 
1035	 1.40041653145903E-02 
1036	 1.40169089621728E-02 
1037	 1.41283067192039E-02 
1038	 1.45586595107373E-02 
1039	 1.45604856108264E-02 
1040	 1.45719633312457E-02 
1041	 1.44427989496745E-02 
1042	 1.41943731155947E-02 
1043	 1.35917098653414E-02 
1044	 1.34848329748029E-02 
1045	 1.34239429514872E-02 
1046	 1.35497800379559E-02 
1047	 1.42195535049362E-02 
1048	 1.43205482921174E-02 
1049	 1.42882857677924E-02 
1050	 0.014142756114289 
1051	 1.33477815422874E-02 
1052	 1.32486770821867E-02 
1053	 1.36079929268688E-02 
1054	 1.36986018164027E-02 
1055	 1.42454841974103E-02 
1056	 1.43823114661706E-02 
1057	 1.42741028021747E-02 
1058	 0.013605889333638 
1059	 1.35412335278339E-02 
1060	 1.35538802906044E-02 
1061	 1.35406437200611E-02 
1062	 1.37966989161055E-02 
1063	 1.38568513123968E-02 
1064	 1.37347926300422E-02 
1065	 1.36959094462038E-02 
1066	 1.37070291036633E-02 
1067	 0.013703765133296 
1068	 1.36235607468371E-02 
1069	 1.36280521179132E-02 
1070	 1.38061523620683E-02 
1071	 1.38127642960184E-02 
1072	 1.38015717808063E-02 
1073	 0.013675774754894 
1074	 1.35698557528217E-02 
1075	 1.33110904278883E-02 
1076	 1.32355907170684E-02 
1077	 1.32358148499243E-02 
1078	 1.32649869778991E-02 
1079	 1.33906092066941E-02 
1080	 1.34017647545081E-02 
1081	 1.35161875246153E-02 
1082	 1.33969004429798E-02 
1083	 1.29281574850298E-02 
1084	 1.28261013720724E-02 
1085	 1.28884547928738E-02 
1086	 1.27487224451181E-02 
1087	 1.25355603653221E-02 
1088	 1.25671720960639E-02 
1089	 1.26156940918486E-02 
1090	 0.012709071853449 
1091	 1.26287776601291E-02 
1092	 1.27794124706351E-02 
1093	 1.27220423955608E-02 
1094	 1.22141762254743E-02 
1095	 1.20336583987485E-02 
1096	 1.22565851131794E-02 
1097	 1.20303607474118E-02 
1098	 1.12575094833265E-02 
1099	 1.11112305446539E-02 
1100	 1.13284205942307E-02 
1101	 1.11843190235537E-02 
1102	 1.14540502635757E-02 
1103	 1.13625035405703E-02 
1104	 1.05908933396142E-02 
1105	 9.70680807018072E-03 
1106	 1.01734505920679E-02 
1107	 1.03865933469301E-02 
1108	 1.02406347833185E-02 
1109	 1.04228131842634E-02 
1110	 1.02980774856953E-02 
1111	 9.05216344082254E-03 
1112	 8.86135577372253E-03 
1113	 1.00431833281433E-02 
1114	 9.79294351859798E-03 
1115	 8.6055818761824E-03 
1116	 7.78669358452105E-03 
1117	 5.20631363715238E-03 
1118	 4.38914038608587E-03 
1119	 6.98928024409026E-03 
1120	 7.60455779211483E-03 
1121	 8.90904145569887E-03 
1122	 8.09643141353785E-03 
1123	 5.68535631349855E-03 
1124	 7.09274847498308E-03 
1125	 8.71385535472948E-03 
1126	 8.81451334872243E-03 
1127	 6.93882476736598E-03 
1128	 3.83755529511829E-03 
1129	 3.32726999518781E-03 
1130	 3.33764058768536E-03 
1131	 3.87404419817247E-03 
1132	 7.26428294473896E-03 
1133	 7.31483721101541E-03 
1134	 4.77470406095324E-03 
1135	 5.11637965141493E-03 
1136	 6.0156286373158E-03 
1137	 5.34725501701455E-03 
1138	 3.71835595175492E-03 
1139	 6.4060092511151E-03 
1140	 6.82668324994978E-03 
1141	 6.41160431373189E-03 
1142	 8.75765855772204E-03 
1143	 8.81974318100155E-03 
1144	 6.98366842860199E-03 
1145	 6.83506071846368E-03 
1146	 5.84079696841811E-03 
1147	 4.32442739866343E-03 
1148	 5.18103770327326E-03 
1149	 6.86217496244208E-03 
1150	 7.2717789550185E-03 
1151	 7.60051296671682E-03 
1152	 8.01810226156758E-03 
1153	 7.59669667038146E-03 
1154	 7.62255116058225E-03 
1155	 7.6703601704364E-03 
1156	 8.8200878757747E-03 
1157	 9.58599671847108E-03 
1158	 9.56476176956004E-03 
1159	 0.009437397882218 
1160	 9.37210120953768E-03 
1161	 9.09599065167631E-03 
1162	 9.23187899286059E-03 
1163	 9.66099108059152E-03 
1164	 9.69710847000011E-03 
1165	 9.70874630803929E-03 
1166	 9.98179734848843E-03 
1167	 1.02963089797847E-02 
1168	 1.04044555396336E-02 
1169	 1.06200879207481E-02 
1170	 1.07780480442318E-02 
1171	 1.07349100383479E-02 
1172	 1.04647481156437E-02 
1173	 1.05411963773476E-02 
1174	 1.07324430346099E-02 
1175	 1.05507193329161E-02 
1176	 1.08013291388722E-02 
1177	 1.11418087276771E-02 
1178	 1.09998682729013E-02 
1179	 1.09946885440689E-02 
1180	 1.10281865681386E-02 
1181	 1.08073562431149E-02 
1182	 1.08161276088725E-02 
1183	 1.10137232082737E-02 
1184	 1.10300557987207E-02 
1185	 1.10551325570632E-02 
1186	 1.11060247566201E-02 
1187	 1.10690976713704E-02 
1188	 1.10849334163809E-02 
1189	 1.10857585116713E-02 
1190	 1.11878118936954E-02 
1191	 1.12329768016003E-02 
1192	 1.12028871946628E-02 
1193	 1.10627422768335E-02 
1194	 1.11794601822753E-02 
1195	 1.13503291937576E-02 
1196	 1.14033137936077E-02 
1197	 1.14816085617109E-02 
1198	 1.15100830002956E-02 
1199	 0.011336654015113 
1200	 1.11802674872308E-02 
1201	 1.14146775241045E-02 
1202	 1.15664595219098E-02 
1203	 0.011315535869345 
1204	 1.13107558003485E-02 
1205	 1.14953037215897E-02 
1206	 1.14129610252062E-02 
1207	 1.14410666447292E-02 
1208	 1.15959262072399E-02 
1209	 1.15760525698052E-02 
1210	 1.14616745133268E-02 
1211	 1.14798185916538E-02 
1212	 1.16360959277064E-02 
1213	 0.011695682115544 
1214	 1.17205056036173E-02 
1215	 1.17749454836341E-02 
1216	 1.18910939897868E-02 
1217	 1.20606127638189E-02 
1218	 1.20732997548192E-02 
1219	 1.20360738054616E-02 
1220	 0.012317224330478 
1221	 1.22954141528396E-02 
1222	 1.20374212456296E-02 
1223	 1.21940004654573E-02 
1224	 1.24356383037864E-02 
1225	 1.23671111592438E-02 
1226	 1.23407469416817E-02 
1227	 1.24980570858473E-02 
1228	 1.22990772409866E-02 
1229	 0.012214323296214 
1230	 1.27035895282624E-02 
1231	 0.012889578195792 
1232	 1.26757143571569E-02 
1233	 1.25261188889971E-02 
1234	 1.24637659947394E-02 
1235	 1.25211592283237E-02 
1236	 1.28570733626629E-02 
1237	 1.29526611814366E-02 
1238	 1.31082276192733E-02 
1239	 0.012992991975619 
1240	 1.28584682793169E-02 
1241	 1.29228811277099E-02 
1242	 1.29861136310995E-02 
1243	 1.29998763490974E-02 
1244	 1.30011021154653E-02 
1245	 1.29552168088245E-02 
1246	 1.30043800522839E-02 
1247	 1.29848696688647E-02 
1248	 1.29433761366736E-02 
1249	 1.29842634824975E-02 
1250	 1.27611484735457E-02 
1251	 1.27318999119071E-02 
1252	 1.30193355534035E-02 
1253	 1.28859185882508E-02 
1254	 1.27656803256105E-02 
1255	 1.29749899727484E-02 
1256	 1.29496382635948E-02 
1257	 1.25216753421994E-02 
1258	 1.24465513440469E-02 
1259	 1.26598059189665E-02 
1260	 1.25548929545337E-02 
1261	 1.22531706964892E-02 
1262	 1.22491288992459E-02 
1263	 1.23246946930579E-02 
1264	 1.23240780723029E-02 
1265	 0.01215962692559 
1266	 0.012113123285513 
1267	 1.21630856324381E-02 
1268	 1.19105055839302E-02 
1269	 0.012070906894414 
1270	 1.26127112836723E-02 
1271	 1.24509514773706E-02 
1272	 0.012092335235926 
1273	 1.21415378426261E-02 
1274	 1.20828307349769E-02 
1275	 1.19765586021573E-02 
1276	 1.21785866329867E-02 
1277	 1.24329628654729E-02 
1278	 1.25436852071093E-02 
1279	 1.25114828578605E-02 
1280	 1.24979305069736E-02 
1281	 1.25991684307469E-02 
1282	 1.26756615592261E-02 
1283	 1.25616526165593E-02 
1284	 1.24842144818016E-02 
1285	 1.25446147448199E-02 
1286	 1.23884233784247E-02 
1287	 1.22787910522456E-02 
1288	 1.25153244347531E-02 
1289	 1.25739681505823E-02 
1290	 1.24504793934796E-02 
1291	 1.22112711426789E-02 
1292	 1.21072443013285E-02 
1293	 1.21727643320708E-02 
1294	 1.21651845012865E-02 
1295	 1.20487986435697E-02 
1296	 1.20612587797586E-02 
1297	 1.19021106179989E-02 
1298	 1.16731523748618E-02 
1299	 1.17224197380009E-02 
1300	 0.011901027235417 
1301	 1.18029023206662E-02 
1302	 1.12646426962879E-02 
1303	 1.10558219977603E-02 
1304	 1.12013493223453E-02 
1305	 1.09133668991398E-02 
1306	 1.07675596446558E-02 
1307	 1.08789078014809E-02 
1308	 1.09177061712697E-02 
1309	 1.08113916708724E-02 
1310	 1.06024576960293E-02 
1311	 1.04354593661453E-02 
1312	 1.02609267311746E-02 
1313	 9.82843230642213E-03 
1314	 9.61324956638348E-03 
1315	 9.5345216593177E-03 
1316	 9.54148770067671E-03 
1317	 9.90819422163364E-03 
1318	 9.77616365929658E-03 
1319	 9.06368473115026E-03 
1320	 9.1353165701959E-03 
1321	 9.31118527059401E-03 
1322	 9.64013925646598E-03 
1323	 9.85726192304696E-03 
1324	 9.86299508398114E-03 
1325	 9.29507248757753E-03 
1326	 8.0390201716543E-03 
1327	 7.24360558986893E-03 
1328	 7.68857709538932E-03 
1329	 8.38962289195031E-03 
1330	 8.31781273680361E-03 
1331	 7.85681754636711E-03 
1332	 7.78093020880901E-03 
1333	 7.69854783072185E-03 
1334	 7.38936225444428E-03 
1335	 6.94889894060666E-03 
1336	 6.96903243325464E-03 
1337	 7.28274577289419E-03 
1338	 7.47548070922174E-03 
1339	 7.08902862789843E-03 
1340	 7.12696399573829E-03 
1341	 7.20177606801681E-03 
1342	 6.08013581902198E-03 
1343	 5.42823203388856E-03 
1344	 6.37278784583435E-03 
1345	 6.05102025459187E-03 
1346	 2.45458697914572E-03 
1347	 8.93360827881419E-04 
1348	 2.25553339904705E-03 
1349	 1.97242294714511E-03 
1350	 4.27674661819401E-03 
1351	 4.39899523459282E-03 
1352	-5.78818277885872E-03 
1353	-1.48003344159247E-02 
1354	-1.97590782671319E-02 
1355	-0.040125650249095 
1356	-5.60822179445368E-02 
1357	-5.90335056415967E-02 
1358	-8.19318914270169E-02 
1359	-0.093448862133225 
1360	-9.91123487445747E-02 
1361	-0.140050287107505 
1362	-7.13343748915069E-02 
1363	 0.052140154183062 
1364	-4.25899626620837E-02 
1365	-0.107924819504217 
1366	-0.169301940018962 
1367	-0.336205765679448 
1368	-0.315909321828311 
1369	 8.24147769584773E-02 
1370	 0.137063863110298 
1371	-0.120017601527432 
1372	-0.140811485223277 
1373	-0.204146644460734 
1374	-0.381133444832617 
1375	-0.408869564665957 
1376	-0.323470753004294 
1377	-0.387127416254381 
1378	-0.214895000245637 
1379	 0.154583431338835 
1380	 0.166115260594166 
1381	-0.132377263152781 
1382	-0.291611426502765 
1383	-0.490424410955776 
1384	-0.704549115608717 
1385	-0.668535167505613 
1386	-0.536960670844396 
1387	-0.2683246582737 
1388	-0.237055046968461 
1389	-0.32493499453613 
1390	-0.249382318245056 
1391	-0.247846632338155 
1392	-0.285993903641432 
1393	-0.562226097077736 
1394	-0.624443202594394 
1395	-9.44857196235621E-02 
1396	 0.119127545350917 
1397	-0.158275546009835 
1398	-0.015650960704097 
1399	 5.41880294045128E-02 
1400	-0.191622410344146 
1401	-0.258121828880581 
1402	 5.63690399136644E-02 
1403	 0.184236098022961 
1404	-7.35025840872132E-02 
1405	-0.124620294092989 
1406	-0.024236879567299 
1407	-7.19369868806494E-02 
1408	-0.250516176493949 
1409	-0.165273789328336 
1410	 9.28076395911421E-02 
1411	 7.52762558679845E-02 
1412	 7.00946543643481E-02 
1413	 6.45960628653409E-02 
1414	-6.39740267325083E-02 
1415	-0.120842823820226 
1416	-0.121391407833706 
1417	-0.107403501008238 
1418	-0.136175255149943 
1419	-0.11082311611467 
1420	-2.27891875884975E-02 
1421	-1.43430284866132E-02 
1422	-4.21407676195883E-02 
1423	-3.22464604441124E-02 
1424	-2.23924675706158E-02 
1425	-2.26244171988824E-02 
1426	-1.45090061397549E-02 
1427	-7.0514903257347E-03 
1428	-4.4909715688176E-03 
1429	-7.38107098051227E-03 
1430	-8.48527161956637E-03 
1431	-8.83261251672567E-03 
1432	-2.10121189281634E-02 
1433	-2.10616301910109E-02 
1434	-5.29514937626409E-03 
1435	-2.70646549905687E-03 
1436	-7.79328594985305E-03 
1437	-2.8270938945873E-03 
1438	-6.9363693564195E-03 
1439	-1.96306250677074E-03 
1440	 6.96588314772447E-03 
1441	 4.37127448998984E-03 
1442	 4.94448337730701E-03 
1443	 6.15383742989544E-03 
1444	 6.39185278508348E-03 
1445	 5.8323624819564E-03 
1446	 1.59922386668699E-03 
1447	 3.76817496238848E-04 
1448	 2.23625249137037E-03 
1449	 4.39076017328083E-03 
1450	 4.53449606057576E-03 
1451	 1.5642191383823E-03 
1452	 1.49642796573882E-03 
1453	 3.34060419929562E-03 
1454	 2.70599796018478E-03 
1455	 2.64604180825697E-03 
1456	 3.72694129924898E-03 
1457	 4.03548857140809E-03 
1458	 3.77853089536847E-03 
1459	 4.94589884461355E-03 
1460	 5.63843274910386E-03 
1461	 4.25846927032033E-03 
1462	 4.19702943684272E-03 
1463	 6.57317944652026E-03 
1464	 6.65527166375941E-03 
1465	 4.05377263754574E-03 
1466	 4.89013875116865E-03 
1467	 8.29946137369023E-03 
1468	 8.43452116882905E-03 
1469	 8.77566581719149E-03 
1470	 8.39268407758958E-03 
1471	 4.16345071874664E-03 
1472	 2.96790786579088E-03 
1473	 4.10397885459506E-03 
1474	 4.65313631326137E-03 
1475	 5.44406223897381E-03 
1476	 5.71839018343517E-03 
1477	 6.02749652418873E-03 
1478	 6.34581552482949E-03 
1479	 6.01658614225591E-03 
1480	 6.2429269780937E-03 
1481	 7.58580767166683E-03 
1482	 7.61020342346075E-03 
1483	 6.47383434205507E-03 
1484	 6.57642496458016E-03 
1485	 7.16057832549221E-03 
1486	 7.06970283283946E-03 
1487	 6.6961852390845E-03 
1488	 7.04712642295885E-03 
1489	 7.63845876635401E-03 
1490	 7.80599380557944E-03 
1491	 8.16021870293069E-03 
1492	 8.47860956481673E-03 
1493	 8.50419833910278E-03 
1494	 8.35999173857715E-03 
1495	 8.19319227134673E-03 
1496	 8.33350326549664E-03 
1497	 8.40921907633197E-03 
1498	 8.51109028701863E-03 
1499	 8.86523594860503E-03 
1500	 9.15111754297771E-03 
1501	 9.45556074908622E-03 
1502	 9.53243423241775E-03 
1503	 9.43586573055939E-03 
1504	 9.52769944864167E-03 
1505	 9.58007631506453E-03 
1506	 9.63712697948384E-03 
1507	 9.70921299254268E-03 
1508	 9.80771127778109E-03 
1509	 1.00661243959936E-02 
1510	 1.01851727836182E-02 
1511	 1.00768333205111E-02 
1512	 0.010140390656918 
1513	 0.010250243799379 
1514	 1.02932088819604E-02 
1515	 0.010508087062325 
1516	 1.08332464141882E-02 
1517	 1.08869750196437E-02 
1518	 1.06322143456411E-02 
1519	 1.05507457041464E-02 
1520	 1.06806612550091E-02 
1521	 1.07334773908812E-02 
1522	 1.08566408792604E-02 
1523	 1.09518633624171E-02 
1524	 0.010890825545107 
1525	 1.09641655090185E-02 
1526	 1.09789949746805E-02 
1527	 1.09309203202962E-02 
1528	 1.10814379897854E-02 
1529	 0.011266927111516 
1530	 0.011417247011557 
1531	 1.13455674472195E-02 
1532	 1.12573698285935E-02 
1533	 1.13850241092312E-02 
1534	 1.14016296647769E-02 
1535	 1.14358432028117E-02 
1536	 1.16134556299182E-02 
1537	 1.16641049340648E-02 
1538	 1.15140900863738E-02 
1539	 1.14072239350142E-02 
1540	 1.14440625807833E-02 
1541	 1.14981211863206E-02 
1542	 1.15072107010378E-02 
1543	 1.14626407791062E-02 
1544	 1.15749282330853E-02 
1545	 1.16984658061129E-02 
1546	 1.15173509810447E-02 
1547	 1.13809038195718E-02 
1548	 1.15268907831058E-02 
1549	 1.18232319090815E-02 
1550	 1.19518557272727E-02 
1551	 1.17361000722445E-02 
1552	 1.16005230362719E-02 
1553	 1.16251272593915E-02 
1554	 1.15766214979208E-02 
1555	 1.17705861749346E-02 
1556	 1.20730143373082E-02 
1557	 1.19585229763896E-02 
1558	 1.17373344561405E-02 
1559	 1.17873459194194E-02 
1560	 1.18983411584954E-02 
1561	 1.18939423271684E-02 
1562	 1.19003303320249E-02 
1563	 0.012029963430838 
1564	 1.20718083214361E-02 
1565	 1.19151196593575E-02 
1566	 1.18904255297289E-02 
1567	 1.18290396041735E-02 
1568	 1.15791336355462E-02 
1569	 1.15974875427644E-02 
1570	 1.18137379409978E-02 
1571	 1.19338561421652E-02 
1572	 1.19418879036649E-02 
1573	 0.011908090021096 
1574	 1.18122663833842E-02 
1575	 1.16405134842493E-02 
1576	 1.15234213882329E-02 
1577	 1.15054352870301E-02 
1578	 1.16066156560901E-02 
1579	 1.15607590326393E-02 
1580	 1.15223174331469E-02 
1581	 1.18759704114365E-02 
1582	 1.18993721759155E-02 
1583	 1.17146103546172E-02 
1584	 1.19788154179986E-02 
1585	 1.20946651651164E-02 
1586	 1.18852382157149E-02 
1587	 1.18083053037639E-02 
1588	 1.20200649723689E-02 
1589	 1.22374551032706E-02 
1590	 1.21435970224885E-02 
1591	 1.19202170723298E-02 
1592	 0.011804216064999 
1593	 1.17024406426594E-02 
1594	 1.16480655169216E-02 
1595	 1.18524715306888E-02 
1596	 1.19389922256577E-02 
1597	 1.17676203511952E-02 
1598	 1.16680563183681E-02 
1599	 1.14826408321708E-02 
1600	 1.15596510894766E-02 
1601	 1.18265349721097E-02 
1602	 1.16652263120922E-02 
1603	 1.16595285402017E-02 
1604	 1.19233283231598E-02 
1605	 0.011968398941819 
1606	 1.19465535062426E-02 
1607	 1.19880808742372E-02 
1608	 1.18699691703395E-02 
1609	 1.15297657211631E-02 
1610	 1.15189402044137E-02 
1611	 1.18338554745774E-02 
1612	 1.20134359332834E-02 
1613	 1.19640450348413E-02 
1614	 1.18709105292514E-02 
1615	 1.20535340250788E-02 
1616	 1.20110368894937E-02 
1617	 1.17314911975919E-02 
1618	 1.18543399388803E-02 
1619	 1.20647285158733E-02 
1620	 1.20197112837537E-02 
1621	 1.19721484440162E-02 
1622	 1.19727095348106E-02 
1623	 1.16939664617076E-02 
1624	 1.15576822902545E-02 
1625	 1.19675706561666E-02 
1626	 1.22567123169542E-02 
1627	 1.22884057278611E-02 
1628	 1.22957712765284E-02 
1629	 1.22105814015869E-02 
1630	 1.22011578158398E-02 
1631	 1.21865114459171E-02 
1632	 1.20738714196391E-02 
1633	 1.19147403230644E-02 
1634	 1.18395491355154E-02 
1635	 1.19769985883982E-02 
1636	 1.19978457380227E-02 
1637	 0.011984998510001 
1638	 1.20630357360267E-02 
1639	 1.19149800168361E-02 
1640	 1.19082087648187E-02 
1641	 1.19776968386573E-02 
1642	 1.17856823120216E-02 
1643	 1.18739960588351E-02 
1644	 1.19856469893639E-02 
1645	 1.18571680331036E-02 
1646	 1.18544509163826E-02 
1647	 0.01177939929807 
1648	 1.16710609380124E-02 
1649	 0.011750732084787 
1650	 1.18667598632911E-02 
1651	 1.19744863611959E-02 
1652	 1.20024792381294E-02 
1653	 1.17497111203291E-02 
1654	 1.17817959355711E-02 
1655	 1.19947227147983E-02 
1656	 1.19348901995054E-02 
1657	 1.18149237718317E-02 
1658	 1.18410704793157E-02 
1659	 1.18281470133979E-02 
1660	 1.17632957530099E-02 
1661	 1.17828813746598E-02 
1662	 1.18181778381121E-02 
1663	 1.16982285066265E-02 
1664	 0.011624887521394 
1665	 1.17330507027806E-02 
1666	 1.17611670192867E-02 
1667	 1.15829980902924E-02 
1668	 1.18551061942192E-02 
1669	 1.22433028632852E-02 
1670	 1.21478914755381E-02 
1671	 1.18732972189971E-02 
1672	 1.18424190845792E-02 
1673	 1.17408233502156E-02 
1674	 1.16898177452836E-02 
1675	 1.16963103277501E-02 
1676	 1.15866790581959E-02 
1677	 1.16533324148374E-02 
1678	 1.16200622325709E-02 
1679	 0.011572532439148 
1680	 1.18560891650966E-02 
1681	 1.20072414001323E-02 
1682	 0.012001426553248 
1683	 1.20138403595293E-02 
1684	 1.18763784562376E-02 
1685	 1.15904213483045E-02 
1686	 1.13360254775598E-02 
1687	 1.12906457894052E-02 
1688	 1.14364797583971E-02 
1689	 1.17635401046119E-02 
1690	 1.19183452520281E-02 
1691	 1.17076551348568E-02 
1692	 1.16111238025519E-02 
1693	 1.14388518226736E-02 
1694	 1.13941984724712E-02 
1695	 1.18526260849345E-02 
1696	 1.19621552824846E-02 
1697	 0.011514871950968 
1698	 1.10964710497071E-02 
1699	 1.10988144970229E-02 
1700	 1.11999538791336E-02 
1701	 1.10417565322502E-02 
1702	 1.10921287082196E-02 
1703	 1.12891340442982E-02 
1704	 1.12050889949646E-02 
1705	 1.11238641413665E-02 
1706	 1.13172424407242E-02 
1707	 1.12121665031054E-02 
1708	 0.010814541358825 
1709	 1.08948956532158E-02 
1710	 0.01110317215359 
1711	 1.10976239765379E-02 
1712	 1.12277917457232E-02 
1713	 1.11237893252876E-02 
1714	 1.10809074661677E-02 
1715	 1.07494911659653E-02 
1716	 1.11978030239239E-02 
1717	 1.16889967278444E-02 
1718	 1.15553271344243E-02 
1719	 1.14086231593355E-02 
1720	 1.15104230522297E-02 
1721	 1.11375867797319E-02 
1722	 1.09293795653295E-02 
1723	 1.15152239200467E-02 
1724	 1.13180569658956E-02 
1725	 1.05707416856147E-02 
1726	 1.05471222018642E-02 
1727	 1.04999904263057E-02 
1728	 0.010443394029453 
1729	 1.06919525307899E-02 
1730	 1.08392120294237E-02 
1731	 1.08663486368794E-02 
1732	 0.010826157588418 
1733	 1.09841970752661E-02 
1734	 1.10296380530149E-02 
1735	 1.04706208616675E-02 
1736	 1.03446643305444E-02 
1737	 1.09692363068367E-02 
1738	 0.011276738581782 
1739	 1.12674129589349E-02 
1740	 1.06701125901641E-02 
1741	 9.63137373159883E-03 
1742	 9.90843750751707E-03 
1743	 1.03128527525716E-02 
1744	 1.00118103063405E-02 
1745	 1.06822003355976E-02 
1746	 9.89389436616496E-03 
1747	 9.58778583633848E-03 
1748	 1.03431976585311E-02 
1749	 0.010423431555597 
1750	 9.97469391903999E-03 
1751	 1.00410581826894E-02 
1752	 0.010282019295801 
1753	 1.03078305085624E-02 
1754	 1.04683177311083E-02 
1755	 1.05226546631924E-02 
1756	 1.03899125508084E-02 
1757	 9.81987013053871E-03 
1758	 9.70232340783116E-03 
1759	 9.58525626493356E-03 
1760	 0.009755045533396 
1761	 1.02559298047827E-02 
1762	 9.9595209211958E-03 
1763	 9.46427091307041E-03 
1764	 9.35447480481435E-03 
1765	 9.40225968566339E-03 
1766	 9.46214703269639E-03 
1767	 9.24031231651069E-03 
1768	 9.12710668774337E-03 
1769	 8.42875867696132E-03 
1770	 7.76782319949475E-03 
1771	 8.69016544878923E-03 
1772	 8.47402334991449E-03 
1773	 7.14336950339505E-03 
1774	 7.86034992254087E-03 
1775	 7.58092913138149E-03 
1776	 7.39203767804806E-03 
1777	 8.91554032748266E-03 
1778	 9.04486087548092E-03 
1779	 6.98640077456446E-03 
1780	 7.01473174662491E-03 
1781	 8.59427713454351E-03 
1782	 0.009208773555593 
1783	 1.10593849389699E-02 
1784	 1.08762670146342E-02 
1785	 7.73548794847099E-03 
1786	 6.67245915105721E-03 
1787	 5.35716480924681E-03 
1788	 5.29605646260379E-03 
1789	 8.0101263482276E-03 
1790	 7.24590377372932E-03 
1791	 6.64708309673233E-03 
1792	 4.06314969339752E-03 
1793	 3.10543206839051E-03 
1794	 4.1720449096495E-03 
1795	 2.51897225973974E-03 
1796	 6.66488413406335E-03 
1797	 9.05407643291405E-03 
1798	 8.1930145705805E-03 
1799	 0.013194146142574 
1800	 3.1104344687394E-03 
1801	-1.86677717036538E-03 
1802	-5.98185420556676E-03 
1803	-6.88108179206473E-03 
1804	 6.91761487740798E-03 
1805	 2.01518183609791E-02 
1806	 5.21975013989253E-02 
1807	 5.59600257042562E-02 
1808	 7.61576546273543E-03 
1809	-1.17693806030737E-02 
1810	-7.01213689039442E-02 
1811	-7.29063426828195E-02 
1812	 9.41997857682609E-02 
1813	 0.130867394734911 
1814	 0.138588768935892 
1815	-7.34851040366748E-02 
1816	-0.83805730255869 
1817	-0.928565814515115 
1818	-0.791714963201645 
1819	-4.18395087645109E-02 
1820	 0.497951475140238 
1821	 0.251343780457277 
1822	 0.239016275413025 
1823	-1.85239057530055E-02 
1824	-0.359851154603852 
1825	-0.519153593344482 
1826	-0.527305155027711 
1827	-0.454440670334144 
1828	-0.347536032364347 
1829	 0.118862813778831 
1830	 8.62533037594917E-02 
1831	-2.24679131357774 
1832	 5.47880389149742 
1833	-1.62477903146729 
1834	-1.35490387100253 
1835	-0.224099515043107 
1836	-0.927170357332179 
1837	 0.834634327223343 
1838	 0.658969735704324 
1839	 0.834833744034096 
1840	 0.639571679555628 
1841	 0.387933667230545 
1842	 0.336861048682274 
1843	 0.471425040229681 
1844	 0.79414841363447 
1845	 0.777539494981911 
1846	 0.515836218627836 
1847	 0.593634534178486 
1848	 0.988048153835674 
1849	 1.33039555930634 
1850	 1.79413352254336 
1851	 2.05509126347597 
1852	 0.887616090902372 
1853	 0.513278416709485 
1854	 0.45381610835425 
1855	 0.581075778367241 
1856	 0.639542341698484 
1857	-5.56332956124645 
1858	-4.06566313134672 
1859	 2.40469302399902 
1860	 1.23648114645912 
1861	 1.7544085707709 
1862	 1.33811278401741 
1863	 1.26488784320661 
1864	 19.7078496639093 
1865	-2.46099202759949 
1866	-0.885680135320199 
1867	-0.463760274423555 
1868	-0.036580083305162 
1869	 4.04151398360912 
1870	 2.90607682914823 
1871	 8.1427227284564 
1872	-3.19459439728146 
1873	-70.3405357332828 
1874	 3.28477473631567 
1875	 2.57727435477356 
1876	 2.11329038380727 
1877	 0.836848477929653 
1878	 0.982205353561957 
1879	-15.6028189966383 
1880	-4.67190337154875 
1881	-2.13867140078019 
1882	-1.38569724864901 
1883	-2.54384871613403 
1884	-3.26488798836131 
1885	-2.3587280406264 
1886	-4.67465245431843 
1887	 9.83039413964529 
1888	 3.17495618274769 
1889	 2.51903487243824 
1890	 2.58723127142031 
1891	 1.84991038184146 
1892	 3.01340778662876 
1893	 0.464752175574173 
1894	-2.22270048700115E-02 
1895	 4.66383825681887E-02 
1896	 0.650175982548511 
1897	 13.8059077035778 
1898	-2.05203078769886 
1899	 17.3726205597187 
1900	 0.670511783515122 
1901	-0.760496895949653 
1902	-0.537121884244656 
1903	-8.42574927512023E-02 
1904	 0.246453158994063 
1905	 0.520222955671568 
1906	 0.396533742964862 
1907	 0.230237997521324 
1908	 0.191588119027959 
1909	-0.292395310686138 
1910	 1.50428449638881 
1911	-0.591662804947412 
1912	 0.793828009080918 
1913	 1.10830503867163 
1914	-0.550238000142884 
1915	-0.342688804014467 
1916	-0.425104589463928 
1917	-4.79045383279764E-02 
1918	 0.304361105444601 
1919	 0.46182450976278 
1920	 0.209568000607052 
1921	-9.83123955645452E-02 
1922	-0.184945708939207 
1923	-0.436945068831782 
1924	-2.96940412414051E-02 
1925	 1.1354599702876 
1926	 3.10931258469991 
1927	 15.2616044581899 
1928	-4.15556917417312 
1929	-1.86895932829413 
1930	-1.02130714996777 
1931	-0.424048032946272 
1932	-0.32469242887777 
1933	-0.369174364426254 
1934	-0.661896591902595 
1935	-1.07754210238096 
1936	-0.824135502873258 
1937	-0.573111767274826 
1938	-0.274304229796484 
1939	-0.130160485309873 
1940	-7.29262326507422E-03 
1941	-0.2030346138939 
1942	-0.203471622551501 
1943	-0.104224228050699 
1944	-0.156317077005159 
1945	-0.11323604479021 
1946	-9.38936619695861E-02 
1947	-0.125186068148685 
1948	-0.106411124650817 
1949	-8.87165000056825E-02 
1950	-3.63199116079641E-02 
1951	 9.25868137777967E-03 
1952	 9.03452661047298E-03 
1953	-1.69517421092844E-02 
1954	-0.013452787508465 
1955	-8.51882430603168E-03 
1956	-2.69294275757988E-02 
1957	-0.01776148064231 
1958	-3.24823981754429E-03 
1959	-7.47431268666954E-03 
1960	-5.65438358520509E-03 
1961	 7.16226111443287E-04 
1962	-5.37478630698653E-04 
1963	-4.00491943080719E-03 
1964	-1.74863655487863E-03 
1965	 2.16784775910143E-03 
1966	 1.74306167472344E-03 
1967	 1.12803629622902E-03 
1968	-3.96132742968286E-04 
1969	-1.12844362542286E-03 
1970	-1.10471196184902E-03 
1971	 7.31087073366531E-04 
1972	 4.87087648659621E-03 
1973	 7.13696596148689E-03 
1974	 6.23133641463762E-03 
1975	 5.01739775653775E-03 
1976	 5.10337821223226E-03 
1977	 5.40237621439964E-03 
1978	 5.0916211273865E-03 
1979	 5.1757379651475E-03 
1980	 5.89082922569809E-03 
1981	 5.90849316236931E-03 
1982	 5.37103022706074E-03 
1983	 6.54054978335118E-03 
1984	 7.56475885076256E-03 
1985	 6.72881305525366E-03 
1986	 6.42724222077338E-03 
1987	 6.15052381202514E-03 
1988	 5.23336432948343E-03 
1989	 5.46144752986617E-03 
1990	 5.49194499248779E-03 
1991	 5.28548439651852E-03 
1992	 5.88089818211709E-03 
1993	 6.71499881845774E-03 
1994	 7.10158711128467E-03 
1995	 7.79333735695138E-03 
1996	 7.92344806787678E-03 
1997	 7.81167515423705E-03 
1998	 7.54476817072257E-03 
1999	 6.92060798495612E-03 
2000	 5.78126862140748E-03 
2001	 3.58673092908878E-03 
2002	-6.18296272027557E-04 
2003	-1.84734027081786E-03 
2004	 1.80956992712457E-03 
2005	 3.52505252017118E-03 
2006	 3.94600120370786E-03 
2007	 3.63492608755618E-03 
2008	 2.27639827749243E-03 
2009	 1.80484698698364E-03 
2010	 1.70493697778128E-03 
2011	 3.05931763004832E-03 
2012	 6.34863144282533E-03 
2013	 6.5730445734966E-03 
2014	 7.27878246780146E-03 
2015	 9.1887154353396E-03 
2016	 8.18909670343241E-03 
2017	 7.05821826671327E-03 
2018	 8.10650889098055E-03 
2019	 8.89791977051215E-03 
2020	 9.68232636489137E-03 
2021	 1.01351187942691E-02 
2022	 8.46894193278597E-03 
2023	 7.19652136289341E-03 
2024	 6.89818638740478E-03 
2025	 6.89996279111052E-03 
2026	 6.97698949615805E-03 
2027	 7.6969654023741E-03 
2028	 8.12831896891449E-03 
2029	 8.19606798216381E-03 
2030	 8.61572801536379E-03 
2031	 8.69062265855226E-03 
2032	 8.96747945324729E-03 
2033	 9.27673920792205E-03 
2034	 8.70472470910367E-03 
2035	 8.42667893284414E-03 
2036	 8.35579194466808E-03 
2037	 8.18176642864567E-03 
2038	 8.01806474005666E-03 
2039	 7.92419829403178E-03 
2040	 8.2611740172468E-03 
2041	 8.26767978431038E-03 
2042	 7.7330445712716E-03 
2043	 7.7696797739623E-03 
2044	 8.52043531737988E-03 
2045	 8.08557661816966E-03 
2046	 7.12691588568605E-03 
2047	 7.30306607466948E-03 
2048	 7.1267301015723E-03 
2049	 6.76616882383382E-03 
2050	 7.34795481119501E-03 
2051	 7.89191288213363E-03 
2052	 8.25213343115629E-03 
2053	 8.44238513253616E-03 
2054	 7.9088335174665E-03 
2055	 7.98243238374107E-03 
2056	 8.35939611051827E-03 
2057	 8.75711428492113E-03 
2058	 8.93235673299749E-03 
2059	 0.010117826064521 
2060	 1.00291702324408E-02 
2061	 8.6215511709992E-03 
2062	 8.02682257762367E-03 
2063	 8.12506843281542E-03 
2064	 7.96382184173066E-03 
2065	 8.00239672852049E-03 
2066	 8.06704248786261E-03 
2067	 7.85564710850697E-03 
2068	 7.12364870922888E-03 
2069	 6.48066157990451E-03 
2070	 6.72966652664321E-03 
2071	 6.76390602235452E-03 
2072	 6.46324792407997E-03 
2073	 6.70971982537079E-03 
2074	 7.38175316623062E-03 
2075	 7.8986590298148E-03 
2076	 8.65302660714773E-03 
2077	 9.27558730578308E-03 
2078	 1.00491050103034E-02 
2079	 1.01420292082337E-02 
2080	 9.91692199272723E-03 
2081	 9.7158243760845E-03 
2082	 9.06505370826126E-03 
2083	 8.53671448786607E-03 
2084	 7.85208254165598E-03 
2085	 7.26511375264036E-03 
2086	 7.46322168981998E-03 
2087	 7.68975735266543E-03 
2088	 7.77672837625203E-03 
2089	 7.85595947824577E-03 
2090	 7.78802046488643E-03 
2091	 8.07697271759142E-03 
2092	 8.24374051204605E-03 
2093	 8.84847348318811E-03 
2094	 9.16479754397184E-03 
2095	 9.29119787441453E-03 
2096	 9.00207343832859E-03 
2097	 8.39822404962515E-03 
2098	 8.22082607055546E-03 
2099	 7.82352999160547E-03 
2100	 7.57152533165558E-03 
2101	 8.05239032162911E-03 
2102	 8.30408029950042E-03 
2103	 8.62765431675481E-03 
2104	 9.1233241782296E-03 
2105	 9.24824681167869E-03 
2106	 8.91759991263535E-03 
2107	 8.2354333128341E-03 
2108	 8.01585157462304E-03 
2109	 7.65851838215591E-03 
2110	 7.32564247141853E-03 
2111	 7.62497458268041E-03 
2112	 7.38519369701821E-03 
2113	 7.33893958386598E-03 
2114	 7.44685926055355E-03 
2115	 7.77065389971424E-03 
2116	 8.34491282114341E-03 
2117	 8.63694836102734E-03 
2118	 8.9104997307502E-03 
2119	 9.06990308246662E-03 
2120	 9.05705022976459E-03 
2121	 9.00592855203632E-03 
2122	 8.58044753268539E-03 
2123	 8.54181054966566E-03 
2124	 8.76863626254553E-03 
2125	 9.08715605321652E-03 
2126	 9.7811987550371E-03 
2127	 1.00028069110534E-02 
2128	 1.04281427809665E-02 
2129	 0.010266670582744 
2130	 8.9814843609083E-03 
2131	 9.03167528944378E-03 
2132	 9.64813477868732E-03 
2133	 9.34013119079632E-03 
2134	 9.06760680780432E-03 
2135	 8.91728472037004E-03 
2136	 9.38374296541275E-03 
2137	 9.91009156748605E-03 
2138	 9.98606522144361E-03 
2139	 1.05935714933794E-02 
2140	 1.07620900133981E-02 
2141	 1.00972030872763E-02 
2142	 9.60966103893841E-03 
2143	 9.22601739996615E-03 
2144	 9.30284008545701E-03 
2145	 8.56713146078767E-03 
2146	 8.33615920216526E-03 
2147	 8.81344435228878E-03 
2148	 8.51118384047701E-03 
2149	 9.12299944711154E-03 
2150	 9.87209730748371E-03 
2151	 9.38061228779741E-03 
2152	 9.72523853866338E-03 
2153	 9.98978887847477E-03 
2154	 9.05988913225931E-03 
2155	 9.33711158805082E-03 
2156	 9.86750538035037E-03 
2157	 9.52289485677254E-03 
2158	 8.38183251439572E-03 
2159	 7.72429633066743E-03 
2160	 6.60684543282436E-03 
2161	 6.59498467983396E-03 
2162	 7.20191442680672E-03 
2163	 7.71127686722477E-03 
2164	 9.01518990479576E-03 
2165	 9.41849320583314E-03 
2166	 9.47265901261884E-03 
2167	 9.5420303169592E-03 
2168	 9.21596577744038E-03 
2169	 9.03138285091143E-03 
2170	 8.60632513143854E-03 
2171	 8.67340852136217E-03 
2172	 9.32318536022979E-03 
2173	 9.46927479145464E-03 
2174	 8.8802627168194E-03 
2175	 9.21955715968453E-03 
2176	 9.42276484101012E-03 
2177	 9.30052013638459E-03 
2178	 9.49512690527795E-03 
2179	 9.75492289506519E-03 
2180	 9.08199304755862E-03 
2181	 7.88240641316181E-03 
2182	 8.54655081308176E-03 
2183	 8.49699261815316E-03 
2184	 8.21758014332728E-03 
2185	 8.99358989084458E-03 
2186	 8.95768013369977E-03 
2187	 7.84532739816714E-03 
2188	 7.85494921810381E-03 
2189	 8.63562681688228E-03 
2190	 8.59587092846279E-03 
2191	 8.1547353765175E-03 
2192	 7.80576491452636E-03 
2193	 7.13289349287098E-03 
2194	 6.93553102870625E-03 
2195	 7.62408775302382E-03 
2196	 7.62012130044775E-03 
2197	 6.79355303689772E-03 
2198	 6.45056202959908E-03 
2199	 5.72704769114008E-03 
2200	 5.98665365364285E-03 
2201	 6.15856541070899E-03 
2202	 6.44055811932896E-03 
2203	 6.38254040519189E-03 
2204	 6.03533199003845E-03 
2205	 6.78480173689394E-03 
2206	 6.39294595062164E-03 
2207	 6.59295279749379E-03 
2208	 7.72274609146326E-03 
2209	 7.28941136875805E-03 
2210	 8.19916546350322E-03 
2211	 9.18767127239436E-03 
2212	 9.43876367976442E-03 
2213	 9.93985553489885E-03 
2214	 9.61134191079429E-03 
2215	 0.010419830273674 
2216	 1.17611412948393E-02 
2217	 1.16796344435461E-02 
2218	 1.18588266817145E-02 
2219	 1.12142279671059E-02 
2220	 8.31500749381869E-03 
2221	 6.69436079616227E-03 
2222	 5.4722585172016E-03 
2223	 5.20863802298461E-03 
2224	 5.70715996233886E-03 
2225	 5.2894476960892E-03 
2226	 4.81933131852492E-03 
2227	 5.4416091763147E-03 
2228	 6.18481483377612E-03 
2229	 6.9719513087409E-03 
2230	 9.29894504675705E-03 
2231	 1.02523808323903E-02 
2232	 9.99151762668266E-03 
2233	 9.72208834320774E-03 
2234	 9.08525107472049E-03 
2235	 9.10459915776772E-03 
2236	 7.75853717032308E-03 
2237	 7.06460350023516E-03 
2238	 9.11651454502298E-03 
2239	 9.31736270837071E-03 
2240	 7.87183904930371E-03 
2241	 7.09741642974878E-03 
2242	 5.68663607641985E-03 
2243	 5.32860498174164E-03 
2244	 6.65648899482647E-03 
2245	 8.61790836681045E-03 
2246	 9.94147383022888E-03 
2247	 7.64144805435145E-03 
2248	 5.33896814615331E-03 
2249	 5.95056083841779E-03 
2250	 5.1087817603336E-03 
2251	 4.39410039326782E-03 
2252	 7.00492159884575E-03 
2253	 7.91562343762471E-03 
2254	 7.51081050772354E-03 
2255	 8.51915520293909E-03 
2256	 6.03256050569174E-03 
2257	 3.68224001056404E-03 
2258	 5.16770912737408E-03 
2259	 6.68711909802743E-03 
2260	 7.48867899160315E-03 
2261	 9.82792621691153E-03 
2262	 1.03698319274146E-02 
2263	 8.57997956059695E-03 
2264	 8.58419282082992E-03 
2265	 9.78032773104627E-03 
2266	 9.93609049723161E-03 
2267	 9.5901977315666E-03 
2268	 9.04800265069854E-03 
2269	 7.82287353871283E-03 
2270	 7.2240435046745E-03 
2271	 7.58709859356299E-03 
2272	 6.14856508201367E-03 
2273	 3.19514041384398E-03 
2274	 2.76962535174196E-03 
2275	 2.75449150287526E-03 
2276	 1.81530693192932E-03 
2277	 1.09596759010547E-03 
2278	 2.02029081475208E-03 
2279	 3.19414658059483E-03 
2280	 3.86910962956915E-03 
2281	 6.41402151844873E-03 
2282	 8.73542041523727E-03 
2283	 8.78745488600608E-03 
2284	 0.009587930580145 
2285	 0.012083544897329 
2286	 0.013281604272404 
2287	 1.08906633049967E-02 
2288	 7.61199248422867E-03 
2289	 6.58629533652986E-03 
2290	 5.73456876006875E-03 
2291	 4.58925114176246E-03 
2292	 6.28841391440378E-03 
2293	 6.4565338819837E-03 
2294	 3.47750832375919E-03 
2295	 4.27995591754666E-03 
2296	 6.60111262260343E-03 
2297	 5.21148972091582E-03 
2298	 4.41556305055924E-03 
2299	 6.18324924813901E-03 
2300	 6.29975968817635E-03 
2301	 6.12656835744862E-03 
2302	 9.98010556173263E-03 
2303	 1.39554550668775E-02 
2304	 1.17945390822382E-02 
2305	 8.30693890875066E-03 
2306	 8.21417382603182E-03 
2307	 7.96942527426934E-03 
2308	 8.49248126502545E-03 
2309	 1.25901563654562E-02 
2310	 1.60296249909357E-02 
2311	 1.28622438158965E-02 
2312	 7.56959262556026E-03 
2313	 7.58325394571475E-03 
2314	 7.19294264664029E-03 
2315	 4.25957874171489E-03 
2316	 2.80782962390675E-03 
2317	-1.78452482001462E-03 
2318	-7.53142671046534E-03 
2319	-7.51932686376213E-03 
2320	-3.6381039022857E-03 
2321	 8.48979458570411E-04 
2322	 3.33323386747864E-03 
2323	 3.17879609033528E-03 
2324	 3.14424362366638E-03 
2325	 6.30139053906115E-03 
2326	 7.94837802285572E-03 
2327	 5.23645040281789E-03 
2328	 8.33576818404178E-03 
2329	 1.20232528649306E-02 
2330	 9.02649472730684E-03 
2331	 9.82373884411811E-03 
2332	 1.01117372479226E-02 
2333	 6.00836654263611E-03 
2334	 3.64685361534488E-03 
2335	 1.91150101742611E-04 
2336	-1.77762690101493E-03 
2337	-9.84044573703123E-04 
2338	-3.15471245560614E-03 
2339	-5.07337539355704E-03 
2340	-7.09216595233969E-03 
2341	-0.012785566154453 
2342	-1.20412252899535E-02 
2343	-4.63059122783826E-03 
2344	-2.25565514497016E-03 
2345	-2.30928873794414E-03 
2346	-1.20399832253158E-03 
2347	-1.43409243865772E-03 
2348	 2.20751138080393E-03 
2349	 0.013902589997431 
2350	 1.94361667438034E-02 
2351	 1.21938851320005E-02 
2352	 1.02978980960078E-02 
2353	 3.87237195947182E-03 
2354	-5.85168955366643E-03 
2355	-1.55160268776949E-03 
2356	-7.30368628817788E-03 
2357	-1.15780469425908E-02 
2358	-4.11621341118043E-03 
2359	-9.02868497032553E-03 
2360	-8.64278520416476E-03 
2361	 3.18571363221621E-04 
2362	-9.57722070112291E-05 
2363	-1.26845816719516E-03 
2364	-3.15029270001475E-03 
2365	-1.18151877177963E-02 
2366	-1.75784420063037E-02 
2367	-1.86869206366017E-02 
2368	-0.019585283895662 
2369	-1.62446022512585E-02 
2370	-1.50215850101234E-02 
2371	-2.36717637774014E-02 
2372	-2.20529548500014E-02 
2373	-1.37338841489909E-02 
2374	-1.99570386018711E-02 
2375	-1.89626774624945E-02 
2376	-1.74683840706869E-02 
2377	-2.84950128614037E-02 
2378	-2.30078310085823E-02 
2379	-1.16994184037929E-02 
2380	-3.86990238890941E-03 
2381	-6.17287148233599E-03 
2382	-3.47786046708356E-02 
2383	-4.12804380940002E-02 
2384	-3.70948744500315E-02 
2385	-4.63782536222625E-02 
2386	-2.50407953306387E-02 
2387	-2.31490289217803E-02 
2388	-2.38044972248289E-02 
2389	 5.21118014364032E-03 
2390	 1.00047352889689E-02 
2391	-7.15989821829646E-03 
2392	-6.66578730281772E-03 
2393	-0.010274551292008 
2394	-3.41130860172017E-02 
2395	-3.90345456403302E-02 
2396	-4.83281504953829E-02 
2397	-4.98799556726425E-02 
2398	-3.15121607069228E-02 
2399	-2.64523035362559E-02 
2400	-1.55469134418836E-02 
2401	-8.34735371676649E-03 
2402	 1.14286230440184E-02 
2403	 4.39464242759895E-02 
2404	 4.76752768563701E-02 
2405	 3.76014102392793E-02 
2406	 2.96725104750782E-02 
2407	 1.86371998804264E-02 
2408	-2.33521536141016E-02 
2409	-5.61643422415051E-02 
2410	-8.41043663478485E-02 
2411	-9.36859499404912E-02 
2412	-3.28186556184957E-02 
2413	-1.95216273707962E-02 
2414	-5.86121521615755E-02 
2415	-4.15357420709087E-02 
2416	 2.15224510566478E-02 
2417	 8.88119343902688E-02 
2418	 0.132149497135738 
2419	 9.66249690464303E-02 
2420	-1.14740013132639E-02 
2421	-6.90626181773819E-02 
2422	-6.37404436670026E-02 
2423	-3.50398456356368E-03 
2424	 2.71814671837636E-02 
2425	-3.10281631765136E-02 
2426	-7.87788055218658E-02 
2427	-8.29892927650293E-02 
2428	-0.10835942557364 
2429	-0.13640530985895 
2430	-0.14525590495206 
2431	-0.192518798277146 
2432	-0.26372366030514 
2433	-0.231361423770267 
2434	-0.114633488662444 
2435	-5.38094972447786E-02 
2436	-8.94610091710255E-02 
2437	-7.30560333756366E-02 
2438	-6.28181275471656E-02 
2439	-0.113410180547069 
2440	-0.100292963399359 
2441	-0.154210553665622 
2442	-0.293739418846257 
2443	-0.29672419410596 
2444	-0.312028163372219 
2445	-0.257118027108335 
2446	-7.61759333723016E-02 
2447	-0.213361177234332 
2448	-0.360899264513035 
2449	-0.888349943242966 
2450	-1.12261444792318 
2451	-0.970509904676373 
2452	-0.332813902267962 
2453	-4.44678712394254E-02 
2454	-0.345504091935574 
2455	-0.296964883451729 
2456	-0.251415419707622 
2457	-0.425795959675212 
2458	-0.185248182636934 
2459	-0.194562667534678 
2460	-0.613940467067868 
2461	-0.666429332844584 
2462	-0.923693968074143 
2463	-1.09449939130134 
2464	-0.865231944696198 
2465	-0.756083854842192 
2466	-0.880599997786998 
2467	 4.94351607419851 
2468	 9.31479735377998E-03 
2469	-0.646817455958939 
2470	-0.852268016368276 
2471	 37.4645285220797 
2472	 2.54957924869561 
2473	 2.11826883303875 
2474	 2.5872627317373 
2475	 10.981699594406 
2476	 4.49171052693217 
2477	 1.92665603382951 
2478	 3.84675880849784 
2479	 11.1445468619835 
2480	 3.37169773867311 
2481	-33.1470819026332 
2482	 1.88640663061649 
2483	 0.933523440503922 
2484	 7.74052023440947 
2485	 6.94853556619459 
2486	-2.74996803990322 
2487	 0.279157287508199 
2488	-0.592372620177886 
2489	 0.233477911140648 
2490	-0.142893586411634 
2491	 5.50996767808784E-02 
2492	 1.73028101789988E-03 
2493	 0.28454574341894 
2494	 0.592265672313333 
2495	 0.659503317384514 
2496	 0.258742873069848 
2497	 0.309703569016954 
2498	 0.38559484222387 
2499	 0.319711823611115 
2500	 0.221957793643281 
