Wavelength	rt0713west_far_sunny00001.asd
350	 4.90050616142249E-02 
351	 4.80703293597576E-02 
352	 4.79275292794763E-02 
353	 4.77851826404349E-02 
354	 4.71172542089077E-02 
355	 4.66114023974341E-02 
356	 4.72569870811708E-02 
357	 4.78349735356828E-02 
358	 4.71389357284196E-02 
359	 4.71355335074195E-02 
360	 4.67347236662521E-02 
361	 4.63274741208403E-02 
362	 4.70646839380275E-02 
363	 4.65566982245539E-02 
364	 4.62291445733124E-02 
365	 0.046625974664892 
366	 4.62823190579289E-02 
367	 4.60328210673522E-02 
368	 4.59632926870023E-02 
369	 4.59894481939246E-02 
370	 4.61507753448828E-02 
371	 4.61082885112837E-02 
372	 4.58938378609539E-02 
373	 4.57636170242621E-02 
374	 4.57924907437604E-02 
375	 4.56906692493689E-02 
376	 4.55333027393015E-02 
377	 0.045913485677945 
378	 4.59264707265785E-02 
379	 4.58880868394868E-02 
380	 4.60625996211314E-02 
381	 4.55612090087386E-02 
382	 4.55956361151489E-02 
383	 4.60540821785865E-02 
384	 4.62480016462148E-02 
385	 4.65365889502087E-02 
386	 4.63309729616135E-02 
387	 4.58164715992274E-02 
388	 4.60328754879486E-02 
389	 0.046302251921676 
390	 4.62178415813376E-02 
391	 4.58561886361384E-02 
392	 4.62876395855453E-02 
393	 4.66182935008731E-02 
394	 4.66719769942747E-02 
395	 4.65745943064366E-02 
396	 4.63746889821968E-02 
397	 4.64034315223858E-02 
398	 4.66145067232328E-02 
399	 4.66563060875296E-02 
400	 4.66939417209375E-02 
401	 4.66639225769972E-02 
402	 4.66001194361432E-02 
403	 4.68423405788671E-02 
404	 4.70200109126749E-02 
405	 4.70939347660672E-02 
406	 0.047147621063781 
407	 4.71906772594101E-02 
408	 4.71888417781576E-02 
409	 4.72188448087203E-02 
410	 4.74478065879832E-02 
411	 4.76141960880372E-02 
412	 4.76341784469633E-02 
413	 4.75617573963961E-02 
414	 4.76757519407736E-02 
415	 4.78333135545922E-02 
416	 4.79632216929769E-02 
417	 4.80506653678151E-02 
418	 4.82388294038277E-02 
419	 4.85069619176841E-02 
420	 4.87716848619901E-02 
421	 4.89043003530923E-02 
422	 4.89294286024299E-02 
423	 4.90143361338064E-02 
424	 4.92805626696285E-02 
425	 4.96805433241643E-02 
426	 4.98855053315653E-02 
427	 5.00024030465094E-02 
428	 5.03065889126658E-02 
429	 5.05557239294088E-02 
430	 5.08681124248112E-02 
431	 5.12344015913437E-02 
432	 5.14678657735596E-02 
433	 5.16951646545014E-02 
434	 0.051955136812353 
435	 5.22512831432143E-02 
436	 5.25539938356571E-02 
437	 5.27956643565279E-02 
438	 5.30374990475291E-02 
439	 5.33833400405581E-02 
440	 5.36398226081075E-02 
441	 5.39641601340507E-02 
442	 5.43614390999598E-02 
443	 5.45607108088267E-02 
444	 5.47780720543361E-02 
445	 5.50302804355756E-02 
446	 5.52956190572924E-02 
447	 5.56422675193649E-02 
448	 5.58827922661019E-02 
449	 5.60491262574243E-02 
450	 5.63206775396642E-02 
451	 5.65061391802538E-02 
452	 5.66706622060939E-02 
453	 5.68836862628398E-02 
454	 5.71597671712653E-02 
455	 5.73143708744589E-02 
456	 5.73980256675902E-02 
457	 5.75440721151706E-02 
458	 0.057800482257045 
459	 0.058019183839886 
460	 5.81572666432149E-02 
461	 5.82864037593178E-02 
462	 5.83875149055734E-02 
463	 0.058458267744377 
464	 5.85325336798803E-02 
465	 5.87477760472658E-02 
466	 5.88984356235533E-02 
467	 5.90108268175625E-02 
468	 5.92026557542348E-02 
469	 0.059325402742291 
470	 5.94989157630323E-02 
471	 5.97084820321748E-02 
472	 5.97314943757727E-02 
473	 5.98375682782017E-02 
474	 6.00110093912674E-02 
475	 6.02019911429209E-02 
476	 6.05525051779442E-02 
477	 6.07191061963855E-02 
478	 6.08044483928875E-02 
479	 6.11721147176704E-02 
480	 6.13984154228352E-02 
481	 0.061563969722285 
482	 6.17798382552988E-02 
483	 6.20812437022415E-02 
484	 6.23859092780292E-02 
485	 6.26741946602906E-02 
486	 6.29603233520149E-02 
487	 6.32944287232559E-02 
488	 6.36172165204642E-02 
489	 6.39003555835427E-02 
490	 6.41570219679336E-02 
491	 6.44858194556844E-02 
492	 6.48665780700481E-02 
493	 6.52519933737071E-02 
494	 6.56027478159324E-02 
495	 6.59153135416514E-02 
496	 6.62760248648967E-02 
497	 6.67791429169112E-02 
498	 6.71793426408151E-02 
499	 0.067479186129787 
500	 6.77483545984943E-02 
501	 6.81108805731208E-02 
502	 6.85362131005036E-02 
503	 0.068957090900502 
504	 6.93273008607063E-02 
505	 6.97222914509837E-02 
506	 7.01856232707125E-02 
507	 7.07024421053169E-02 
508	 7.12090483923587E-02 
509	 7.16340344010125E-02 
510	 7.20710029461007E-02 
511	 7.25795993002532E-02 
512	 7.30850275807464E-02 
513	 7.35590645477717E-02 
514	 7.40364330836011E-02 
515	 7.45743356742619E-02 
516	 7.51736638107286E-02 
517	 0.075747724228056 
518	 7.62714904904656E-02 
519	 7.68075690582848E-02 
520	 7.73817757556425E-02 
521	 7.79264418174575E-02 
522	 7.84206634287114E-02 
523	 7.90858442014593E-02 
524	 7.96266145175026E-02 
525	 8.00826996802121E-02 
526	 8.07144604727972E-02 
527	 8.13256047287113E-02 
528	 8.19282823113595E-02 
529	 8.25296486093061E-02 
530	 8.30654986159412E-02 
531	 8.36157128396133E-02 
532	 8.42063003526951E-02 
533	 8.48298455110112E-02 
534	 8.54243816552399E-02 
535	 8.60319312923522E-02 
536	 8.66591447133264E-02 
537	 8.72620824133889E-02 
538	 8.78295584656275E-02 
539	 8.83935422635614E-02 
540	 8.89843436984178E-02 
541	 8.95856088479312E-02 
542	 9.02226244996443E-02 
543	 9.08284733180605E-02 
544	 9.13117863000777E-02 
545	 9.19319212376989E-02 
546	 9.25779923465956E-02 
547	 9.31650459029442E-02 
548	 9.37553000735339E-02 
549	 9.43286387659197E-02 
550	 9.49001191036561E-02 
551	 9.54965511936956E-02 
552	 9.61461674920882E-02 
553	 9.67099350390258E-02 
554	 9.72065180384073E-02 
555	 9.78325790664718E-02 
556	 9.83946013312921E-02 
557	 9.89134050357877E-02 
558	 9.94441628851672E-02 
559	 0.100008303956346 
560	 0.100479088136533 
561	 0.100902330310309 
562	 0.101416359175998 
563	 0.101866426804044 
564	 0.102284082558029 
565	 0.10267367210964 
566	 0.102932609466445 
567	 0.10322674374039 
568	 0.103547945182892 
569	 0.103836378575061 
570	 0.104160719552796 
571	 0.104395297818481 
572	 0.104560487386978 
573	 0.104836280179188 
574	 0.105021991714984 
575	 0.105172156224589 
576	 0.105357105438361 
577	 0.105512659706636 
578	 0.105614604021376 
579	 0.105660606643201 
580	 0.105669121558043 
581	 0.105690977729752 
582	 0.10567522869893 
583	 0.105578022513724 
584	 0.105389958596359 
585	 0.105144122920131 
586	 0.104805935116303 
587	 0.104351141704895 
588	 0.103983455355942 
589	 0.103689520400373 
590	 0.103443165077531 
591	 0.10320063059311 
592	 0.10291914246707 
593	 0.102534510140443 
594	 0.10202845327715 
595	 0.101496339401343 
596	 0.100888497614647 
597	 0.100209076523339 
598	 9.95009556366651E-02 
599	 9.88129720187864E-02 
600	 9.82164485034475E-02 
601	 9.77501556474844E-02 
602	 0.097397119178906 
603	 9.71397110171692E-02 
604	 9.69552844610442E-02 
605	 9.68252711983787E-02 
606	 9.67496367876326E-02 
607	 9.66965756283215E-02 
608	 9.66547000690668E-02 
609	 9.66351701715324E-02 
610	 9.66356112751068E-02 
611	 9.66407811630691E-02 
612	 9.66274145524421E-02 
613	 9.65556376013211E-02 
614	 9.64552841351155E-02 
615	 9.63999449610886E-02 
616	 9.64529706189035E-02 
617	 9.63536673748095E-02 
618	 9.62794042737811E-02 
619	 9.63060883719487E-02 
620	 9.62731937023629E-02 
621	 9.62231803570505E-02 
622	 9.61994752622316E-02 
623	 9.62121801549168E-02 
624	 9.60971815187925E-02 
625	 9.59551020183999E-02 
626	 9.58451035807456E-02 
627	 9.57761129906487E-02 
628	 9.57718311611458E-02 
629	 9.57775958227115E-02 
630	 9.57366990553585E-02 
631	 9.56125499346205E-02 
632	 0.095584375368796 
633	 9.56067931985783E-02 
634	 9.55403548802218E-02 
635	 9.54673131258086E-02 
636	 9.53884205421265E-02 
637	 9.52947495197203E-02 
638	 9.51735151139066E-02 
639	 9.49812543090197E-02 
640	 9.47758787625896E-02 
641	 9.46287492454343E-02 
642	 0.094541258222252 
643	 9.43320682077352E-02 
644	 9.39889273420861E-02 
645	 9.36469802523373E-02 
646	 9.33711021523361E-02 
647	 9.31593346080348E-02 
648	 9.29766322202845E-02 
649	 0.092749912980584 
650	 9.25081316958075E-02 
651	 0.092244747917136 
652	 9.19514795052251E-02 
653	 9.16229518902652E-02 
654	 0.091210525913902 
655	 9.06821907707422E-02 
656	 9.01104517648458E-02 
657	 8.96606368119736E-02 
658	 8.92760847967514E-02 
659	 8.88874510483076E-02 
660	 0.088581246318704 
661	 8.83137227815514E-02 
662	 8.80615937566092E-02 
663	 8.78199953291916E-02 
664	 8.75860366952144E-02 
665	 8.73820417279498E-02 
666	 8.72099420975278E-02 
667	 8.70333777787019E-02 
668	 0.086915004899232 
669	 8.67807893624457E-02 
670	 8.65749678274345E-02 
671	 8.65616939254312E-02 
672	 0.086561623913796 
673	 8.64966508369583E-02 
674	 8.64088548813525E-02 
675	 8.63852343225895E-02 
676	 8.64053802326419E-02 
677	 8.64338681238038E-02 
678	 8.64543836032386E-02 
679	 8.65220495052662E-02 
680	 8.66104086412613E-02 
681	 8.66614870354056E-02 
682	 0.086683472826544 
683	 8.67625068386487E-02 
684	 0.086868804014041 
685	 8.68106660607523E-02 
686	 8.66783594760022E-02 
687	 8.66446846874178E-02 
688	 8.67758753268615E-02 
689	 8.67410304096718E-02 
690	 8.66505444327945E-02 
691	 8.64481340984405E-02 
692	 8.59994647095455E-02 
693	 8.55745144750644E-02 
694	 8.53205548415368E-02 
695	 8.52017511478267E-02 
696	 8.49565702370637E-02 
697	 8.44219449123094E-02 
698	 8.36714301187643E-02 
699	 8.29174075949669E-02 
700	 8.22833871575045E-02 
701	 0.08171840926105 
702	 8.11492633716416E-02 
703	 8.04764312622643E-02 
704	 7.95607691922738E-02 
705	 7.86094361729179E-02 
706	 7.77661491924788E-02 
707	 7.68644990223148E-02 
708	 7.57710924583518E-02 
709	 7.45367141657221E-02 
710	 0.073261205740858 
711	 7.18341774798872E-02 
712	 0.070360825411318 
713	 6.88144874490924E-02 
714	 0.066977118343735 
715	 6.51117470665893E-02 
716	 0.062994671588195 
717	 6.06561780691711E-02 
718	 5.87302167618672E-02 
719	 5.71352533322932E-02 
720	 5.59273964139453E-02 
721	 5.48191569842912E-02 
722	 0.053238612495388 
723	 5.12956600590525E-02 
724	 4.94026239766172E-02 
725	 4.76635226248661E-02 
726	 0.046154739484415 
727	 4.44974306994747E-02 
728	 4.24918285127191E-02 
729	 4.06419453514386E-02 
730	 3.88174404952867E-02 
731	 3.72769956683682E-02 
732	 3.61870154913749E-02 
733	 3.51188276245651E-02 
734	 3.40651132650876E-02 
735	 3.31335605411705E-02 
736	 3.25241331210375E-02 
737	 3.21638527218639E-02 
738	 3.19278128091542E-02 
739	 3.17212398500238E-02 
740	 3.15605292687958E-02 
741	 3.14436938911711E-02 
742	 0.031343232366844 
743	 3.12357206736375E-02 
744	 3.12549277203054E-02 
745	 3.12841531669998E-02 
746	 3.12419178206369E-02 
747	 3.11288603592784E-02 
748	 3.10987418389775E-02 
749	 3.10977626494184E-02 
750	 3.10572833902622E-02 
751	 3.10609861572555E-02 
752	 3.10137959834375E-02 
753	 0.030947838283486 
754	 3.09497192930126E-02 
755	 3.09334881292596E-02 
756	 0.030874972938103 
757	 3.07637131181501E-02 
758	 3.05575297688136E-02 
759	 3.02306982859026E-02 
760	 2.98645086661403E-02 
761	 2.97495257946493E-02 
762	 2.96756137254384E-02 
763	 2.99094136407842E-02 
764	 3.02771696454476E-02 
765	 3.05464086055848E-02 
766	 3.08815389603587E-02 
767	 3.10491728699654E-02 
768	 3.10807578133827E-02 
769	 3.12470376585513E-02 
770	 3.13910262480719E-02 
771	 3.14835288417234E-02 
772	 3.15650359329265E-02 
773	 3.18179047401021E-02 
774	 3.18987725855514E-02 
775	 3.19216441705044E-02 
776	 3.21284556024307E-02 
777	 3.21715940459645E-02 
778	 3.23611393822073E-02 
779	 3.26516672385976E-02 
780	 3.26386174141402E-02 
781	 3.28922720065414E-02 
782	 3.32115750365081E-02 
783	 3.34010348125923E-02 
784	 3.36150837781156E-02 
785	 3.36775035892317E-02 
786	 3.37770760775336E-02 
787	 3.41185020127866E-02 
788	 3.42422347913072E-02 
789	 0.034494193071486 
790	 3.48886115293098E-02 
791	 3.51668017093623E-02 
792	 3.55043529175186E-02 
793	 3.58049624238959E-02 
794	 3.60344234749602E-02 
795	 3.63049769555957E-02 
796	 3.64655706737965E-02 
797	 3.66706006721787E-02 
798	 3.70200192958573E-02 
799	 3.70926457626398E-02 
800	 3.72979200309265E-02 
801	 3.75760058660431E-02 
802	 0.037663396941545 
803	 3.79560309257648E-02 
804	 3.81700068029694E-02 
805	 3.82189237462876E-02 
806	 3.82880468224545E-02 
807	 0.038306969128099 
808	 3.82220933263008E-02 
809	 3.80061799639193E-02 
810	 3.76868715390981E-02 
811	 3.73579241065145E-02 
812	 3.69467645744604E-02 
813	 3.63825979572529E-02 
814	 3.60763166338362E-02 
815	 3.57457233712395E-02 
816	 3.53620449715042E-02 
817	 3.51057793805207E-02 
818	 0.034762266223745 
819	 3.44490989140521E-02 
820	 3.40999160110069E-02 
821	 3.33977981820053E-02 
822	 3.25073924880391E-02 
823	 3.16295456366787E-02 
824	 3.09085058444551E-02 
825	 3.03270919291667E-02 
826	 2.93384996627456E-02 
827	 2.81994949488263E-02 
828	 0.027416666389284 
829	 2.63113768616747E-02 
830	 2.55576599300894E-02 
831	 2.51364814674718E-02 
832	 0.024547875378128 
833	 2.40933680016405E-02 
834	 2.38832397580089E-02 
835	 2.37844096148875E-02 
836	 2.34140808674198E-02 
837	 2.32223789053093E-02 
838	 2.32705999372767E-02 
839	 2.33960469589715E-02 
840	 2.30894451918271E-02 
841	 2.29110654091137E-02 
842	 2.28470164372978E-02 
843	 2.27169099418904E-02 
844	 2.26349420505609E-02 
845	 2.25746413517104E-02 
846	 2.24903869513499E-02 
847	 2.23428416560523E-02 
848	 2.22441936346842E-02 
849	 2.21250516872134E-02 
850	 2.20107225340294E-02 
851	 2.20511551177727E-02 
852	 2.18778105426851E-02 
853	 2.17147391350558E-02 
854	 2.17213405059576E-02 
855	 2.16403818631458E-02 
856	 2.16334629343873E-02 
857	 2.15682997856149E-02 
858	 2.13477331675939E-02 
859	 2.12692476781642E-02 
860	 2.12489233471785E-02 
861	 2.12291262446383E-02 
862	 2.11610818243975E-02 
863	 2.09675806563954E-02 
864	 2.08608922320857E-02 
865	 2.08488619860563E-02 
866	 2.07367411083951E-02 
867	 2.04635932080806E-02 
868	 2.04421725231675E-02 
869	 2.06232046791299E-02 
870	 2.03260121269793E-02 
871	 2.02548982831639E-02 
872	 2.01387499054218E-02 
873	 1.98501854172801E-02 
874	 0.020063516641526 
875	 0.019971297822575 
876	 1.97394311586052E-02 
877	 1.96777904326589E-02 
878	 1.94175555494196E-02 
879	 1.92620726321042E-02 
880	 1.92901949388234E-02 
881	 1.93951340251844E-02 
882	 1.91937460434631E-02 
883	 1.90132754569778E-02 
884	 1.89790707865039E-02 
885	 1.90210847095864E-02 
886	 0.019132478269507 
887	 1.90322831700463E-02 
888	 1.86593145576784E-02 
889	 1.82496663507356E-02 
890	 1.82332472967249E-02 
891	 1.81483312386586E-02 
892	 1.77596639828474E-02 
893	 1.75962431371473E-02 
894	 1.73506671071624E-02 
895	 1.69460743798649E-02 
896	 1.65389766537539E-02 
897	 1.67762969759755E-02 
898	 1.67143108306619E-02 
899	 0.016626035420207 
900	 1.68300614540547E-02 
901	 1.61292072888276E-02 
902	 1.63111144199058E-02 
903	 1.67636762242194E-02 
904	 1.63683742914064E-02 
905	 1.64079370113254E-02 
906	 1.60784139386697E-02 
907	 1.56599108426543E-02 
908	 1.59711728450243E-02 
909	 0.014976967894485 
910	 1.48582238876453E-02 
911	 1.58013039811749E-02 
912	 1.59557798939445E-02 
913	 1.59296532766322E-02 
914	 0.01539862413153 
915	 1.47625700980346E-02 
916	 1.51084935523287E-02 
917	 1.53033542370656E-02 
918	 1.51896266015039E-02 
919	 1.48848766746342E-02 
920	 1.46425125259739E-02 
921	 1.48702047673437E-02 
922	 1.51133405229436E-02 
923	 1.49662637362629E-02 
924	 0.014488568141979 
925	 1.42395046233034E-02 
926	 1.43885273474591E-02 
927	 1.45670627816256E-02 
928	 0.012912290559397 
929	 1.13386007910884E-02 
930	 1.16220748770579E-02 
931	 1.44083138390863E-02 
932	 1.24282288191991E-02 
933	 1.07754505933281E-02 
934	 1.04685729714103E-02 
935	 9.53160992077369E-03 
936	 8.01122763523446E-03 
937	 9.80156331088942E-03 
938	 1.17763059337695E-02 
939	 1.07882299901323E-02 
940	 1.09782141340443E-02 
941	 1.11672274192138E-02 
942	 1.15019938840445E-02 
943	 1.21688110149057E-02 
944	 9.38701342050124E-03 
945	 9.3929418716431E-03 
946	 1.21605668636751E-02 
947	 1.32587648969504E-02 
948	 0.010572614962974 
949	 1.06385786836007E-02 
950	 1.21729994874894E-02 
951	 1.02485517998966E-02 
952	 1.15271623608345E-02 
953	 8.80468633418836E-03 
954	 5.53327643177357E-03 
955	 1.03963420039834E-02 
956	 1.47318542495391E-02 
957	 1.32759052187265E-02 
958	 1.02226719347621E-02 
959	 1.34443311822715E-02 
960	 1.26864706076263E-02 
961	 1.19276666812174E-02 
962	 1.22678810595302E-02 
963	 0.012019239926691 
964	 1.12061698645876E-02 
965	 1.09025237368224E-02 
966	 1.18329476103915E-02 
967	 1.38339559319639E-02 
968	 1.29509627899295E-02 
969	 1.12050502737652E-02 
970	 1.06808054688247E-02 
971	 1.24641573018301E-02 
972	 1.36120543051522E-02 
973	 1.35223852472833E-02 
974	 1.29922027999325E-02 
975	 1.35623211269548E-02 
976	 1.34045442695986E-02 
977	 1.39312522113633E-02 
978	 1.41877525909977E-02 
979	 1.19924940358251E-02 
980	 1.35523956221707E-02 
981	 1.41928298662824E-02 
982	 1.34162937750591E-02 
983	 1.42145072896822E-02 
984	 1.24227482048492E-02 
985	 1.25645757105508E-02 
986	 0.01427213281679 
987	 1.35522294790363E-02 
988	 1.37601883048284E-02 
989	 1.44837431761056E-02 
990	 1.49052766696633E-02 
991	 1.44052348588948E-02 
992	 0.013726487432032 
993	 1.45767003775533E-02 
994	 1.55711440462246E-02 
995	 1.40620302848729E-02 
996	 0.013413588354748 
997	 1.39804374115998E-02 
998	 0.01519049683462 
999	 1.58866243498996E-02 
1000	 1.46327496226397E-02 
1001	 1.28524679809834E-02 
1002	 1.27117530402255E-02 
1003	 1.28673478760423E-02 
1004	 1.35109632172865E-02 
1005	 1.35870799261946E-02 
1006	 0.013469544311982 
1007	 1.32908251769274E-02 
1008	 1.30479156286966E-02 
1009	 1.30060290490283E-02 
1010	 1.32486008228263E-02 
1011	 1.35387116096961E-02 
1012	 1.34799976360881E-02 
1013	 1.32922473854664E-02 
1014	 1.33085891389462E-02 
1015	 1.34458199085619E-02 
1016	 1.33883609511002E-02 
1017	 0.013206977188361 
1018	 1.32884355712608E-02 
1019	 1.34514107042377E-02 
1020	 1.35551243429132E-02 
1021	 1.38557668072501E-02 
1022	 1.41462532997124E-02 
1023	 1.40609361881084E-02 
1024	 1.36410116734005E-02 
1025	 1.32162038755949E-02 
1026	 1.26708376698073E-02 
1027	 1.24593456593968E-02 
1028	 0.012213128345429 
1029	 1.23608245127943E-02 
1030	 1.30757740037204E-02 
1031	 1.33361635581269E-02 
1032	 1.36245534534085E-02 
1033	 1.38172402381729E-02 
1034	 1.37303232824422E-02 
1035	 1.37689458202306E-02 
1036	 1.39980884503522E-02 
1037	 1.40265605858669E-02 
1038	 1.38449187184736E-02 
1039	 1.37924371580657E-02 
1040	 1.37308959079603E-02 
1041	 1.36139029416691E-02 
1042	 1.36796724792422E-02 
1043	 1.40406078861527E-02 
1044	 1.39059909585672E-02 
1045	 1.35762235447684E-02 
1046	 1.34412798902427E-02 
1047	 1.29504846657847E-02 
1048	 1.29157770008883E-02 
1049	 1.33744604954597E-02 
1050	 1.35244328595712E-02 
1051	 1.37712390145702E-02 
1052	 1.38495322182511E-02 
1053	 0.013719150823361 
1054	 1.36443529143452E-02 
1055	 1.35126389289233E-02 
1056	 1.33753131513103E-02 
1057	 1.32323726357153E-02 
1058	 1.30113526811007E-02 
1059	 1.30470264837376E-02 
1060	 1.31516499702175E-02 
1061	 1.33184004521903E-02 
1062	 1.38319155297414E-02 
1063	 1.39608866297491E-02 
1064	 1.39967725901104E-02 
1065	 1.39008360033404E-02 
1066	 1.34176400839714E-02 
1067	 1.32689538918819E-02 
1068	 1.32532670605318E-02 
1069	 1.31433918611424E-02 
1070	 1.30625327104468E-02 
1071	 1.30974765866769E-02 
1072	 1.33002273308033E-02 
1073	 1.30933341298927E-02 
1074	 1.32268382823789E-02 
1075	 0.013718518396457 
1076	 0.013731203703599 
1077	 1.35207372866703E-02 
1078	 1.34560268212068E-02 
1079	 1.32274837306493E-02 
1080	 1.30962443211702E-02 
1081	 1.30396876631613E-02 
1082	 1.30700745054964E-02 
1083	 1.31697103027906E-02 
1084	 1.31843019571243E-02 
1085	 1.33161787466236E-02 
1086	 1.33362010557551E-02 
1087	 1.32400047099488E-02 
1088	 1.30922824278972E-02 
1089	 1.27234837975217E-02 
1090	 1.26379276884794E-02 
1091	 1.26224085491053E-02 
1092	 1.26196191553754E-02 
1093	 1.25841637639439E-02 
1094	 1.28069243188246E-02 
1095	 1.27889030627524E-02 
1096	 1.26578623146284E-02 
1097	 1.23826213319594E-02 
1098	 1.17372455556387E-02 
1099	 1.15079572543099E-02 
1100	 1.12450017613153E-02 
1101	 0.011170666882982 
1102	 1.18702216921349E-02 
1103	 1.20145026995328E-02 
1104	 1.20196792929837E-02 
1105	 1.15667649207614E-02 
1106	 1.09406769592898E-02 
1107	 1.06288471249901E-02 
1108	 0.010481247286506 
1109	 1.05992226034281E-02 
1110	 1.04709319472691E-02 
1111	 1.03986256737344E-02 
1112	 9.91056605060395E-03 
1113	 8.42447685754258E-03 
1114	 8.24979863169086E-03 
1115	 9.24849465539821E-03 
1116	 9.62924801434822E-03 
1117	 0.011157533523743 
1118	 1.19576806172733E-02 
1119	 1.04602325329504E-02 
1120	 0.010115404366707 
1121	 9.96541989051571E-03 
1122	 1.32376748692005E-02 
1123	 1.40774724925546E-02 
1124	 1.05767681946538E-02 
1125	 9.94864748080824E-03 
1126	 1.05849594158232E-02 
1127	 8.17596112964283E-03 
1128	 9.11666007828353E-03 
1129	 8.97816469574821E-03 
1130	 5.35136954372175E-03 
1131	 4.8698892162714E-03 
1132	 9.00379213310807E-03 
1133	 8.77521952204702E-03 
1134	 5.77280845949049E-03 
1135	 6.15772561958977E-03 
1136	 6.66092813314176E-03 
1137	 6.42554102812301E-03 
1138	 6.83555487550688E-03 
1139	 8.83458083749543E-03 
1140	 9.01753992783036E-03 
1141	 7.61199177432768E-03 
1142	 6.28313061363356E-03 
1143	 5.54977569496972E-03 
1144	 0.004612983372911 
1145	 5.13338292453214E-03 
1146	 6.56852313474547E-03 
1147	 7.18959287969944E-03 
1148	 7.16392287429732E-03 
1149	 5.8603669151669E-03 
1150	 6.02799580825839E-03 
1151	 7.30644076484422E-03 
1152	 7.72604837152889E-03 
1153	 7.51112141496633E-03 
1154	 7.76346383744245E-03 
1155	 8.03212513675094E-03 
1156	 8.15884748368034E-03 
1157	 7.73393732695989E-03 
1158	 8.39960757031128E-03 
1159	 9.30889970390412E-03 
1160	 9.43942131446963E-03 
1161	 9.4832786714567E-03 
1162	 0.010173821434651 
1163	 1.05786130345459E-02 
1164	 1.00370471235431E-02 
1165	 9.92102813835908E-03 
1166	 1.00808267204687E-02 
1167	 1.00330045695769E-02 
1168	 1.05707269029245E-02 
1169	 1.09621527213833E-02 
1170	 0.010824737875554 
1171	 1.08597747606001E-02 
1172	 1.07365372497203E-02 
1173	 1.07096721787614E-02 
1174	 1.06836251944135E-02 
1175	 1.08563108073873E-02 
1176	 1.11141564508451E-02 
1177	 1.11809564287888E-02 
1178	 1.09930949329335E-02 
1179	 1.10428946123765E-02 
1180	 1.11497017601318E-02 
1181	 1.09181925699321E-02 
1182	 1.09002701701408E-02 
1183	 0.011245399474362 
1184	 1.12465848476906E-02 
1185	 1.09496583438358E-02 
1186	 1.08789222765601E-02 
1187	 1.10497524088014E-02 
1188	 1.12669226356918E-02 
1189	 1.13436874028716E-02 
1190	 1.13465603116337E-02 
1191	 1.13588392193247E-02 
1192	 1.12977688137179E-02 
1193	 1.10544348287727E-02 
1194	 1.10710983502392E-02 
1195	 1.13663665981615E-02 
1196	 1.13444388486365E-02 
1197	 1.11298728493077E-02 
1198	 1.12356965024078E-02 
1199	 1.13971610727674E-02 
1200	 1.13819381500592E-02 
1201	 1.13699251167767E-02 
1202	 0.011539714207216 
1203	 1.15879098419832E-02 
1204	 1.12980635685215E-02 
1205	 1.11934602200794E-02 
1206	 1.13280588926306E-02 
1207	 0.011360758676109 
1208	 1.13277406417376E-02 
1209	 1.13613117739765E-02 
1210	 1.14756577257843E-02 
1211	 1.13867277020574E-02 
1212	 1.13158404150084E-02 
1213	 0.011568198312242 
1214	 1.16617979150603E-02 
1215	 1.16135438619341E-02 
1216	 1.15098545859087E-02 
1217	 0.011662093430353 
1218	 1.17607182308583E-02 
1219	 1.16327591860391E-02 
1220	 1.15016868015317E-02 
1221	 1.16767097515889E-02 
1222	 1.18148725288112E-02 
1223	 1.17634276262649E-02 
1224	 1.18724959649947E-02 
1225	 1.19502798610145E-02 
1226	 1.18268815739658E-02 
1227	 1.18471953832205E-02 
1228	 1.19658340231753E-02 
1229	 1.18616480156515E-02 
1230	 1.17500885540941E-02 
1231	 1.17593954310546E-02 
1232	 1.18033976839978E-02 
1233	 1.19104986370572E-02 
1234	 0.01196205685505 
1235	 1.20289567285935E-02 
1236	 0.012179283931911 
1237	 1.22054111884391E-02 
1238	 1.21748882632992E-02 
1239	 1.21227486795406E-02 
1240	 0.012011526911157 
1241	 1.19061006885355E-02 
1242	 1.19649200506906E-02 
1243	 1.20603095048967E-02 
1244	 1.20063560859222E-02 
1245	 0.012003100955588 
1246	 0.012089693490219 
1247	 1.19767696028509E-02 
1248	 1.19457812344995E-02 
1249	 1.21615682723668E-02 
1250	 1.22529099810501E-02 
1251	 1.21787983942423E-02 
1252	 1.21476450297384E-02 
1253	 1.21536777427749E-02 
1254	 0.012055379710752 
1255	 1.20176737583013E-02 
1256	 1.20349851636159E-02 
1257	 1.21905967781852E-02 
1258	 1.21632699553532E-02 
1259	 1.20158963171711E-02 
1260	 1.20247131167574E-02 
1261	 1.21099466393577E-02 
1262	 1.19627195652408E-02 
1263	 1.16413045604025E-02 
1264	 0.011753011177116 
1265	 0.011766924021984 
1266	 1.14435889923689E-02 
1267	 1.16267152592646E-02 
1268	 1.18979246439892E-02 
1269	 1.15752866396529E-02 
1270	 1.14940493078224E-02 
1271	 1.16930858411955E-02 
1272	 0.011599570781763 
1273	 1.14618475661446E-02 
1274	 1.16585961937308E-02 
1275	 1.20208560045184E-02 
1276	 0.011882032908131 
1277	 1.16135340371828E-02 
1278	 1.18313306092091E-02 
1279	 1.19715684540951E-02 
1280	 1.19287843791106E-02 
1281	 1.18691401736929E-02 
1282	 1.19185046363585E-02 
1283	 1.18932059618499E-02 
1284	 0.011604840834073 
1285	 0.011567391224733 
1286	 1.18087425582564E-02 
1287	 1.19350372969638E-02 
1288	 1.20454568454948E-02 
1289	 1.20303801780062E-02 
1290	 1.20072793556764E-02 
1291	 1.19335230592232E-02 
1292	 1.16411052710613E-02 
1293	 1.15169391982968E-02 
1294	 1.15039594025513E-02 
1295	 1.13281475595986E-02 
1296	 1.13168067577004E-02 
1297	 1.14999511359656E-02 
1298	 1.14154061818069E-02 
1299	 1.12326781290159E-02 
1300	 1.12918427359465E-02 
1301	 1.12945244459488E-02 
1302	 1.09141030443859E-02 
1303	 1.05816227433324E-02 
1304	 1.06813974180782E-02 
1305	 1.06912769375564E-02 
1306	 1.06218668847765E-02 
1307	 1.11648870189239E-02 
1308	 1.12552826715633E-02 
1309	 1.05225167348805E-02 
1310	 1.04068662943588E-02 
1311	 1.08708878270523E-02 
1312	 1.08192798113066E-02 
1313	 1.04957357520167E-02 
1314	 1.04814448866695E-02 
1315	 1.04788570190958E-02 
1316	 1.03553047499198E-02 
1317	 1.02524121791709E-02 
1318	 1.03154165461241E-02 
1319	 1.06735349131863E-02 
1320	 1.05153112138558E-02 
1321	 1.02126599300382E-02 
1322	 9.76999527602147E-03 
1323	 9.86182451182816E-03 
1324	 9.79696738500991E-03 
1325	 9.58295895481414E-03 
1326	 9.61154551953307E-03 
1327	 9.76079365948464E-03 
1328	 9.39094300115056E-03 
1329	 9.50845217204181E-03 
1330	 1.04055174955107E-02 
1331	 9.60575848575289E-03 
1332	 8.3623616210119E-03 
1333	 8.47113502670739E-03 
1334	 8.55064096544162E-03 
1335	 8.61014486060277E-03 
1336	 9.12881262338373E-03 
1337	 9.31531641829592E-03 
1338	 9.46709263264763E-03 
1339	 9.32601375972062E-03 
1340	 9.0514637046533E-03 
1341	 8.56961292604061E-03 
1342	 6.7608090535067E-03 
1343	 6.2014095928739E-03 
1344	 6.76494309562662E-03 
1345	 6.56746619323934E-03 
1346	 6.90035733642292E-03 
1347	 7.16134308675215E-03 
1348	 6.39186430459261E-03 
1349	 6.46144373093084E-03 
1350	 6.67709568878496E-03 
1351	 9.63077125868863E-03 
1352	 2.67808541521738E-02 
1353	 3.44731338163098E-02 
1354	 2.70407616811205E-02 
1355	 0.016443378640499 
1356	-8.99032639341723E-04 
1357	-3.69601320054141E-02 
1358	-5.19901086641894E-02 
1359	-4.77147587706659E-02 
1360	-4.73678331255207E-04 
1361	 3.73745406360392E-02 
1362	-3.30540206074581E-02 
1363	-6.56077937487676E-02 
1364	-8.37512976193759E-02 
1365	-0.198552207221844 
1366	-0.283035235830189 
1367	-0.251966616526016 
1368	-0.223304844043199 
1369	-0.475164689965879 
1370	-0.638733723393701 
1371	-0.336308978149821 
1372	-0.208359680830999 
1373	-5.06932368076067E-02 
1374	-4.50953065428032E-02 
1375	-0.142540944719016 
1376	-7.05333651758135E-02 
1377	 4.85744175750574E-02 
1378	-9.58890755819825E-02 
1379	-0.43552893898032 
1380	-0.387969068014496 
1381	-0.491033023618192 
1382	-0.588124944246802 
1383	-0.355731840070078 
1384	-0.100728235678979 
1385	 0.254484120079635 
1386	 0.279391475175531 
1387	-0.207226924673746 
1388	-0.169533792145207 
1389	-6.44245486958568E-02 
1390	-0.185392447628832 
1391	-8.21931832647065E-02 
1392	 0.145699497121331 
1393	 0.338318730705075 
1394	 0.234827301901771 
1395	 0.013879928794895 
1396	-2.26816352907352E-02 
1397	-0.154787882369241 
1398	-0.483087939288033 
1399	-0.379112723153161 
1400	 9.35094024093443E-02 
1401	 0.115540171312267 
1402	-0.184603178992094 
1403	-0.125632244884403 
1404	-1.24211970060419E-02 
1405	 6.33385065977893E-03 
1406	 5.59888214567198E-02 
1407	 0.166477630637522 
1408	 0.206095114462952 
1409	 0.118116688474977 
1410	-2.19756971610259E-02 
1411	 3.23027300219531E-02 
1412	 0.10569942398353 
1413	 7.67510890693665E-02 
1414	 0.073364005108212 
1415	 7.96350294187678E-02 
1416	-7.56068317283634E-03 
1417	-5.99851655612511E-02 
1418	-3.19053081873909E-02 
1419	-0.010876706031039 
1420	-2.94185854663734E-02 
1421	-3.56963748623112E-02 
1422	-1.15361289829466E-02 
1423	 4.5600063635168E-03 
1424	 1.35155834641466E-02 
1425	 8.01241028808291E-03 
1426	 1.63460687192757E-03 
1427	 1.34638192275277E-03 
1428	-9.2128835177621E-03 
1429	-1.33344189339953E-02 
1430	-2.48893603771403E-03 
1431	-2.5196773983135E-03 
1432	-2.24242600053149E-02 
1433	-0.021056539093464 
1434	 4.08828300060324E-04 
1435	 6.45757384986908E-03 
1436	 9.29808998586711E-03 
1437	 2.13530510821458E-02 
1438	 2.45547029841686E-02 
1439	 1.77519852455897E-02 
1440	 1.55601656315037E-02 
1441	 1.16355041423311E-02 
1442	 7.69324517473876E-03 
1443	 3.27356647928849E-03 
1444	 8.86296957024031E-04 
1445	 6.5606738660725E-03 
1446	 8.65441323849629E-03 
1447	 4.55544984169699E-03 
1448	 2.56760506187718E-03 
1449	 4.33238486547305E-03 
1450	 6.4886776954683E-03 
1451	 7.80618123007797E-03 
1452	 7.99109402451232E-03 
1453	 6.41865727885907E-03 
1454	 6.49842082093874E-03 
1455	 5.89923438950671E-03 
1456	 6.2854921537975E-03 
1457	 8.53568639029919E-03 
1458	 8.15502947265674E-03 
1459	 6.01598644672284E-03 
1460	 5.75239390267529E-03 
1461	 5.66004780829806E-03 
1462	 5.32113138785115E-03 
1463	 5.61048464036786E-03 
1464	 6.07179136862528E-03 
1465	 5.32920511484331E-03 
1466	 6.25010863072179E-03 
1467	 1.07824763387127E-02 
1468	 1.08634031735691E-02 
1469	 7.7464883254617E-03 
1470	 8.25482053055285E-03 
1471	 9.27204127727775E-03 
1472	 7.4578540784763E-03 
1473	 5.09897394980037E-03 
1474	 6.36182240360004E-03 
1475	 7.29149855826361E-03 
1476	 7.1919235991494E-03 
1477	 1.00708838455643E-02 
1478	 1.08307880645613E-02 
1479	 8.91276711604933E-03 
1480	 7.80087208367963E-03 
1481	 7.19177423245566E-03 
1482	 7.40530173588438E-03 
1483	 6.97322774948078E-03 
1484	 6.78457127102705E-03 
1485	 8.08544782710937E-03 
1486	 8.38132439781513E-03 
1487	 7.6633941758355E-03 
1488	 7.56019722808562E-03 
1489	 7.73122885544708E-03 
1490	 7.79934918580913E-03 
1491	 7.68591311215276E-03 
1492	 8.00439518191617E-03 
1493	 8.77313108018125E-03 
1494	 8.90159073984422E-03 
1495	 8.95589066101374E-03 
1496	 8.93887255756728E-03 
1497	 8.24536631897526E-03 
1498	 8.26920062859727E-03 
1499	 9.03838772451131E-03 
1500	 9.16851869673105E-03 
1501	 9.12298958223016E-03 
1502	 9.23500349781283E-03 
1503	 9.08086920826053E-03 
1504	 9.02641218570414E-03 
1505	 9.17092905260143E-03 
1506	 9.33134066183991E-03 
1507	 9.38799096774146E-03 
1508	 9.47095971115439E-03 
1509	 9.50392617917856E-03 
1510	 9.66712891447551E-03 
1511	 9.94905595112169E-03 
1512	 9.89529799911445E-03 
1513	 9.78894776091759E-03 
1514	 9.99753351680125E-03 
1515	 1.01583851994025E-02 
1516	 1.00623227326826E-02 
1517	 1.00348099998639E-02 
1518	 1.02277795659929E-02 
1519	 1.01395914123356E-02 
1520	 9.93459602554089E-03 
1521	 1.00724105129069E-02 
1522	 1.01609332916265E-02 
1523	 1.00734316563668E-02 
1524	 0.010171059178842 
1525	 1.03100886082454E-02 
1526	 1.02655085653816E-02 
1527	 1.02584224754198E-02 
1528	 1.03539578888484E-02 
1529	 1.05622340372015E-02 
1530	 1.06264055799526E-02 
1531	 1.05544276547229E-02 
1532	 1.07050997021731E-02 
1533	 0.010827275920033 
1534	 0.010810748465703 
1535	 1.07589969950392E-02 
1536	 1.07189848989691E-02 
1537	 1.08452015711109E-02 
1538	 1.09423130372982E-02 
1539	 1.07419412889789E-02 
1540	 1.06672624095779E-02 
1541	 1.08355145875127E-02 
1542	 0.010828327692909 
1543	 1.08051682211265E-02 
1544	 1.09625684358499E-02 
1545	 1.10782993074769E-02 
1546	 1.08809549671256E-02 
1547	 0.010813065750049 
1548	 1.11419370672638E-02 
1549	 1.11220168473095E-02 
1550	 1.08988821607123E-02 
1551	 1.11498797557407E-02 
1552	 0.011373405756332 
1553	 1.11748593349924E-02 
1554	 1.10787433499605E-02 
1555	 1.11168217566016E-02 
1556	 1.09790348418992E-02 
1557	 1.09397519902367E-02 
1558	 1.11027957077178E-02 
1559	 1.11071457785647E-02 
1560	 1.10112748527055E-02 
1561	 1.09979449877376E-02 
1562	 1.09457705599468E-02 
1563	 0.010866847712896 
1564	 1.08428284798517E-02 
1565	 1.08444449261348E-02 
1566	 1.09074642434983E-02 
1567	 0.011096994226264 
1568	 0.011137570708297 
1569	 1.10581399353354E-02 
1570	 1.11295574278723E-02 
1571	 1.11470512045551E-02 
1572	 1.11011234023202E-02 
1573	 1.12140546710214E-02 
1574	 1.12362944253197E-02 
1575	 1.10772617521009E-02 
1576	 1.11800507723826E-02 
1577	 1.13172680560649E-02 
1578	 1.11011294474868E-02 
1579	 1.09411083140272E-02 
1580	 0.011038128344095 
1581	 0.011082839175839 
1582	 1.11438573551269E-02 
1583	 1.13584103601152E-02 
1584	 1.13644163940208E-02 
1585	 1.12346170251854E-02 
1586	 1.12535831204681E-02 
1587	 1.13742813974778E-02 
1588	 1.13707758487227E-02 
1589	 1.11794440584639E-02 
1590	 1.12881054203276E-02 
1591	 1.15040650025947E-02 
1592	 1.14608006790196E-02 
1593	 1.14314339440651E-02 
1594	 1.12977684062226E-02 
1595	 1.10692571250314E-02 
1596	 1.11111838494599E-02 
1597	 1.13035674763014E-02 
1598	 0.011316456967792 
1599	 1.11817222247199E-02 
1600	 1.10284251290388E-02 
1601	 1.08028174824439E-02 
1602	 1.07701189007891E-02 
1603	 0.01119044996511 
1604	 1.13070269179328E-02 
1605	 1.10408569594982E-02 
1606	 1.12219671011119E-02 
1607	 1.14329303330678E-02 
1608	 1.13458014082452E-02 
1609	 1.13650410553184E-02 
1610	 0.011442051126928 
1611	 1.14137370935206E-02 
1612	 1.11551994640857E-02 
1613	 1.09273786018036E-02 
1614	 1.10418255529423E-02 
1615	 1.11254536932723E-02 
1616	 1.11420742823377E-02 
1617	 1.14566522633286E-02 
1618	 1.15535633458669E-02 
1619	 0.011152239486133 
1620	 1.12010874368325E-02 
1621	 1.16252121987397E-02 
1622	 1.14866932840918E-02 
1623	 1.12074001902349E-02 
1624	 1.10791133122459E-02 
1625	 1.07729346276605E-02 
1626	 1.08544927725184E-02 
1627	 1.12943647106349E-02 
1628	 0.011392997715266 
1629	 1.12221072992633E-02 
1630	 1.11523891451138E-02 
1631	 1.12857372092336E-02 
1632	 0.011412810230943 
1633	 1.14312881481251E-02 
1634	 1.14535798104412E-02 
1635	 1.14725610967462E-02 
1636	 1.13747227399025E-02 
1637	 1.15483250068257E-02 
1638	 1.17077118721795E-02 
1639	 1.12143275148247E-02 
1640	 1.10444745313475E-02 
1641	 1.12934952309562E-02 
1642	 1.13017125763536E-02 
1643	 1.15052246327854E-02 
1644	 1.16500954202335E-02 
1645	 1.14922062957051E-02 
1646	 1.14006248275568E-02 
1647	 1.14450846351954E-02 
1648	 1.16058866867393E-02 
1649	 1.15087163937993E-02 
1650	 1.11498389258814E-02 
1651	 1.11573035889869E-02 
1652	 1.12580277725941E-02 
1653	 1.11514494464023E-02 
1654	 1.12058863327187E-02 
1655	 1.12243806659552E-02 
1656	 0.011084198135645 
1657	 1.09214587008311E-02 
1658	 1.09745987242903E-02 
1659	 1.10322620875727E-02 
1660	 1.10286698496666E-02 
1661	 1.13313210643291E-02 
1662	 0.011298276961959 
1663	 1.07712025655361E-02 
1664	 1.07214598623471E-02 
1665	 1.08785089740038E-02 
1666	 1.08870315583961E-02 
1667	 1.10006896753848E-02 
1668	 1.13240280801133E-02 
1669	 1.14443776569075E-02 
1670	 0.011362608140218 
1671	 1.12248189845048E-02 
1672	 1.09927283545295E-02 
1673	 1.10963590583696E-02 
1674	 1.14335208519672E-02 
1675	 1.14602774626235E-02 
1676	 1.13084432812089E-02 
1677	 1.11677200979131E-02 
1678	 0.010902461003956 
1679	 1.07749120485543E-02 
1680	 1.10876304278717E-02 
1681	 1.11869625401953E-02 
1682	 0.011056099648019 
1683	 1.12859971714138E-02 
1684	 1.12840813149657E-02 
1685	 1.09096164081068E-02 
1686	 1.09846215154014E-02 
1687	 0.011314838650009 
1688	 0.011333948582998 
1689	 1.11696432867505E-02 
1690	 1.10941765503803E-02 
1691	 1.09905918803756E-02 
1692	 1.07567972130362E-02 
1693	 1.08100262625666E-02 
1694	 1.09565053563873E-02 
1695	 1.07321326691616E-02 
1696	 1.07445538481293E-02 
1697	 1.11558258811348E-02 
1698	 1.11501753740373E-02 
1699	 1.08847371910323E-02 
1700	 1.07293937274747E-02 
1701	 1.04887170535158E-02 
1702	 1.05206200692388E-02 
1703	 1.07708814794404E-02 
1704	 1.06504467363685E-02 
1705	 1.05592584548325E-02 
1706	 1.08897158712755E-02 
1707	 0.011044551141878 
1708	 0.011011749970126 
1709	 1.11984025823752E-02 
1710	 1.10086368877116E-02 
1711	 0.010590959044457 
1712	 1.07978672853404E-02 
1713	 1.07002660837341E-02 
1714	 0.010645231823148 
1715	 1.08879346637409E-02 
1716	 1.10832836099829E-02 
1717	 0.010741981127558 
1718	 0.010406526074517 
1719	 1.02750837821151E-02 
1720	 1.02946500600543E-02 
1721	 0.010680077095791 
1722	 1.08534650636964E-02 
1723	 1.07679581332113E-02 
1724	 0.010710553452161 
1725	 1.03920631670059E-02 
1726	 1.02111685702035E-02 
1727	 1.05043484999154E-02 
1728	 1.05412853948477E-02 
1729	 1.03672165875918E-02 
1730	 1.03686796123119E-02 
1731	 1.02162567981841E-02 
1732	 1.01509372718208E-02 
1733	 1.03026777862081E-02 
1734	 1.01781347166221E-02 
1735	 1.01093048511818E-02 
1736	 1.01243922074447E-02 
1737	 1.02056475708076E-02 
1738	 1.06479469581187E-02 
1739	 1.06391681945118E-02 
1740	 1.03054163166652E-02 
1741	 1.01920541315802E-02 
1742	 1.00509193786116E-02 
1743	 0.010253431704881 
1744	 1.04194685096218E-02 
1745	 1.00991676140335E-02 
1746	 1.00261902930232E-02 
1747	 9.93973303645275E-03 
1748	 9.95690622662151E-03 
1749	 1.00978847213402E-02 
1750	 1.03053782153731E-02 
1751	 1.04076610492837E-02 
1752	 1.06683675576389E-02 
1753	 0.010344673508862 
1754	 9.33337335097113E-03 
1755	 9.16975834674186E-03 
1756	 9.26414335036889E-03 
1757	 9.64263565378295E-03 
1758	 9.84655934732613E-03 
1759	 9.58708229552486E-03 
1760	 9.07934668703194E-03 
1761	 9.07156218089007E-03 
1762	 9.2508641518441E-03 
1763	 9.10270477917766E-03 
1764	 9.2403161379311E-03 
1765	 9.27521921752256E-03 
1766	 8.96488914630938E-03 
1767	 8.76189006550359E-03 
1768	 8.18079456951829E-03 
1769	 7.89146292321683E-03 
1770	 8.33022960774071E-03 
1771	 8.86928132330936E-03 
1772	 9.71880707355671E-03 
1773	 9.96541358402456E-03 
1774	 8.88925155342712E-03 
1775	 6.91617874094888E-03 
1776	 6.66840626178833E-03 
1777	 8.17354078207699E-03 
1778	 8.55513123491162E-03 
1779	 9.98562691650587E-03 
1780	 0.010229928474199 
1781	 7.89378864106893E-03 
1782	 7.21072194779793E-03 
1783	 7.44386122486844E-03 
1784	 7.29581809100899E-03 
1785	 7.31096045285941E-03 
1786	 7.57473596758138E-03 
1787	 7.94704973824121E-03 
1788	 8.3271183492293E-03 
1789	 9.57674071411028E-03 
1790	 1.03158222439294E-02 
1791	 9.43281519633599E-03 
1792	 1.23652270850166E-02 
1793	 1.33268216363198E-02 
1794	 7.40291680294926E-03 
1795	 5.87457304350501E-03 
1796	 2.64009178449198E-03 
1797	-4.80071589548992E-03 
1798	 5.32975047209062E-03 
1799	 8.18943239888464E-03 
1800	 6.4405166125531E-03 
1801	 5.92220740100853E-03 
1802	-6.47648312628601E-03 
1803	-1.12242854246059E-02 
1804	-7.81858528611522E-03 
1805	-1.71240869162043E-02 
1806	-3.25754794389698E-02 
1807	-3.85708387959755E-02 
1808	-7.13842378887835E-02 
1809	-4.49484911761516E-02 
1810	 0.163478767008908 
1811	 0.232828625357336 
1812	 0.190716069456433 
1813	 0.200468563525418 
1814	-0.026106626176721 
1815	-6.76230897914227E-02 
1816	 0.181111789331872 
1817	 0.225323839474981 
1818	-3.54964497630849E-02 
1819	-0.325211377660064 
1820	-0.390855922604385 
1821	-0.256095749678627 
1822	-0.104019153275783 
1823	 0.211869182335278 
1824	 0.158097649707758 
1825	-0.270984611410758 
1826	-0.347605927852047 
1827	-0.312255881993796 
1828	-0.739031589445285 
1829	 0.948262941920182 
1830	 0.742224666243235 
1831	-0.208218370857512 
1832	-9.93143074308136E-02 
1833	 1.3678085264959 
1834	 3.91723239746527 
1835	-6.77203163973317 
1836	-12.0369339761482 
1837	 0.281113454092646 
1838	 9.21114407533705E-02 
1839	-1.65510283132563 
1840	-0.338173875808919 
1841	-0.524981196854599 
1842	-0.599043712568016 
1843	-0.491136375022267 
1844	-0.531638306476992 
1845	-0.577471219632708 
1846	 0.315373117830032 
1847	 0.383082090675625 
1848	-2.15444218859135 
1849	 0.686922170159347 
1850	-0.158262596274222 
1851	 1.7506617881117 
1852	 0.605111053723208 
1853	 0.808827631558904 
1854	-0.827358524397193 
1855	-0.952893932414423 
1856	-0.657010767266869 
1857	-2.45553201250641E-02 
1858	 0.072412732850759 
1859	 0.314838772147779 
1860	 0.757789704464654 
1861	 0.522392093963828 
1862	-6.41668389942721E-02 
1863	-7.42303630208655E-02 
1864	 1.52764987983341 
1865	 1.03615373703603 
1866	 3.63798271022191E-02 
1867	 0.455829071149499 
1868	 8.15236189441399E-02 
1869	-0.189795702394271 
1870	-0.152727763350476 
1871	 1.34538692452234 
1872	 0.726674012663791 
1873	-1.30331157578173 
1874	-19.5857579528544 
1875	 8.43464542225201 
1876	 9.61028958570348 
1877	-3.85888866118079 
1878	-0.949712447554217 
1879	 0.881312937490971 
1880	 1.30273110864146 
1881	 7.31996532825473 
1882	-7.44717871662186 
1883	-0.616246663757518 
1884	-6.19224669275517 
1885	-0.56843339940677 
1886	-1.95526904109496 
1887	-246.289065265416 
1888	 666.915630405509 
1889	-32.7708162288533 
1890	-3.26881351533768 
1891	-1.98683702410257 
1892	 0.148494161694028 
1893	 0.410374625290498 
1894	 0.105561489166598 
1895	-0.504515538494223 
1896	-0.472103586794778 
1897	-4.90009528275163E-02 
1898	 0.83439904575528 
1899	 2.30595945873544 
1900	 3.70706201586831 
1901	 0.150739409257032 
1902	 1.16549999738925 
1903	-2.54135021821985 
1904	-1.12607511775855 
1905	-0.66387218698089 
1906	-0.513989025119387 
1907	-0.479401859677288 
1908	-1.26091638538409 
1909	 0.587034976905765 
1910	 0.371060934623478 
1911	 1.2841630319419 
1912	 1.62115692489085 
1913	 1.94447986101296 
1914	 62.7228439389074 
1915	-3.7308609325172 
1916	-1.21795218252317 
1917	-0.179286305447128 
1918	-0.161261262232178 
1919	-0.131389039543967 
1920	-3.94731349546407 
1921	-7.73963508939136 
1922	-2.49839514921771 
1923	-0.288767754144123 
1924	-0.326178099963917 
1925	-0.156194706318422 
1926	 1.64051699990726E-02 
1927	 0.107710351572202 
1928	-5.28025755970463E-02 
1929	 7.21022966625312E-02 
1930	 0.116662665458555 
1931	 0.130699625759832 
1932	 0.301238633749608 
1933	 0.624471908335715 
1934	 0.564653570350422 
1935	-8.16419499378557E-02 
1936	-5.44031886594193E-02 
1937	-0.13025956854756 
1938	-0.110752489077906 
1939	-0.109630178540635 
1940	-5.11689534575379E-02 
1941	-8.50467634023774E-02 
1942	-0.115809492155607 
1943	-0.122493728537909 
1944	-0.116522275632358 
1945	-9.92238920191006E-02 
1946	-7.82414001884998E-02 
1947	-9.38531822256407E-02 
1948	-0.122171768376874 
1949	-0.105058840066203 
1950	-9.04658186579996E-02 
1951	-5.64148743089182E-02 
1952	-3.01087021888182E-02 
1953	 1.79262931713473E-02 
1954	 7.43241218012595E-03 
1955	 5.90604966942919E-03 
1956	-3.03393736535449E-03 
1957	-2.58111411608723E-02 
1958	-6.78245555192554E-03 
1959	 1.01490259105027E-02 
1960	 1.63547571631624E-02 
1961	 2.33259042411737E-02 
1962	 2.08607295153334E-02 
1963	 1.32354876501516E-02 
1964	 7.48191248155634E-03 
1965	 4.48172821490105E-03 
1966	 3.42432771346443E-03 
1967	 3.74634274428886E-03 
1968	 4.10188796148903E-03 
1969	 2.99937424110856E-03 
1970	 3.34671653885126E-03 
1971	 2.02036247935022E-03 
1972	 4.98971939266788E-04 
1973	 3.29334826707305E-03 
1974	 4.01355003814692E-03 
1975	 4.27957701063683E-03 
1976	 6.40249548140088E-03 
1977	 5.4452096397811E-03 
1978	 4.65697376596171E-03 
1979	 5.11423172658649E-03 
1980	 6.75402075481084E-03 
1981	 6.71014808554952E-03 
1982	 6.50112304635274E-03 
1983	 6.44807857467477E-03 
1984	 6.01527774234502E-03 
1985	 5.7079910350131E-03 
1986	 5.72154474202488E-03 
1987	 6.07827710120943E-03 
1988	 6.10506554794271E-03 
1989	 5.59763987452852E-03 
1990	 5.16092219377538E-03 
1991	 5.86356390293884E-03 
1992	 6.73932946358896E-03 
1993	 6.8104508136563E-03 
1994	 7.02737762514372E-03 
1995	 7.86487605347838E-03 
1996	 7.51571366213144E-03 
1997	 5.57894023829203E-03 
1998	 5.63981425924327E-03 
1999	 5.22729038684614E-03 
2000	 3.05875064603643E-03 
2001	 3.57619580683856E-03 
2002	 4.40328004517722E-03 
2003	 3.87652542759433E-03 
2004	 0.006600385183831 
2005	 8.8623236684471E-03 
2006	 7.59681402022477E-03 
2007	 7.77865665721466E-03 
2008	 5.35371665211646E-03 
2009	 4.26383953375467E-03 
2010	 3.52082282936012E-03 
2011	 3.6599862671934E-03 
2012	 3.97602316878198E-03 
2013	 5.96649202555642E-03 
2014	 6.41861484676212E-03 
2015	 3.66827061660669E-03 
2016	 0.002474888596984 
2017	 2.28536694278118E-03 
2018	 4.60763405102402E-03 
2019	 7.75981702963561E-03 
2020	 8.13349494115419E-03 
2021	 8.32940790283706E-03 
2022	 8.01798412478666E-03 
2023	 6.93077027207832E-03 
2024	 6.69232100091327E-03 
2025	 7.66550870512227E-03 
2026	 7.44033473449084E-03 
2027	 6.66719388769893E-03 
2028	 6.18463034737993E-03 
2029	 6.08347876317722E-03 
2030	 6.20590470509895E-03 
2031	 6.84690281045067E-03 
2032	 7.89879637868073E-03 
2033	 8.50486715611138E-03 
2034	 7.79164690767822E-03 
2035	 7.18623996260087E-03 
2036	 7.25319023183942E-03 
2037	 6.82591316529453E-03 
2038	 6.64236315567161E-03 
2039	 6.84720791514486E-03 
2040	 7.45800524578572E-03 
2041	 7.5919010396911E-03 
2042	 7.95299187627219E-03 
2043	 8.14101879491453E-03 
2044	 8.12103173002084E-03 
2045	 7.78485206785152E-03 
2046	 7.66316155906242E-03 
2047	 7.81421225461905E-03 
2048	 7.87891950609635E-03 
2049	 7.88086792042504E-03 
2050	 7.53778933698647E-03 
2051	 7.44967899801075E-03 
2052	 8.26054166319792E-03 
2053	 8.64751736247828E-03 
2054	 8.5154666771143E-03 
2055	 8.61190422867736E-03 
2056	 8.55163149880873E-03 
2057	 7.28540008912613E-03 
2058	 7.47216751180539E-03 
2059	 8.89015924541433E-03 
2060	 9.55743395451226E-03 
2061	 1.06428554173599E-02 
2062	 1.11460947547424E-02 
2063	 1.03964353205056E-02 
2064	 9.97655864493113E-03 
2065	 8.98159823985431E-03 
2066	 8.49371311099024E-03 
2067	 9.18657712868724E-03 
2068	 8.31882098494861E-03 
2069	 7.52859838491769E-03 
2070	 8.23494618085768E-03 
2071	 8.62394129999955E-03 
2072	 8.40107135260683E-03 
2073	 8.18083953838181E-03 
2074	 7.88040991690969E-03 
2075	 7.41878981966548E-03 
2076	 6.48298249077714E-03 
2077	 6.65133058281118E-03 
2078	 7.70084107810717E-03 
2079	 7.8447438003097E-03 
2080	 7.93042981018972E-03 
2081	 7.77744752047849E-03 
2082	 7.78278083300862E-03 
2083	 7.77191771555791E-03 
2084	 0.008288601428311 
2085	 8.38177208584105E-03 
2086	 7.5070991559342E-03 
2087	 7.39823639134843E-03 
2088	 7.83538630366288E-03 
2089	 8.32048006526478E-03 
2090	 8.90281696378909E-03 
2091	 9.0586998336932E-03 
2092	 9.26093072475893E-03 
2093	 9.06863438432869E-03 
2094	 9.11746540432499E-03 
2095	 9.57205682976247E-03 
2096	 9.31615707506665E-03 
2097	 8.31654150964011E-03 
2098	 8.10741286015503E-03 
2099	 7.87249404518274E-03 
2100	 0.008022219431846 
2101	 8.57804437540147E-03 
2102	 8.12151352045211E-03 
2103	 7.53013184966618E-03 
2104	 7.49653871053313E-03 
2105	 7.60345237684987E-03 
2106	 8.23448893296049E-03 
2107	 8.39171814921065E-03 
2108	 8.10552365373316E-03 
2109	 8.72982668100574E-03 
2110	 9.48574737199602E-03 
2111	 9.62082005805163E-03 
2112	 9.85709294081649E-03 
2113	 1.00523452818876E-02 
2114	 9.57828913219045E-03 
2115	 9.3237856657955E-03 
2116	 9.55195241077924E-03 
2117	 9.3894701410182E-03 
2118	 8.54955196006074E-03 
2119	 8.18842290687787E-03 
2120	 7.89802485725108E-03 
2121	 8.19386359832097E-03 
2122	 8.35028009418562E-03 
2123	 7.95067506560746E-03 
2124	 7.25962920648467E-03 
2125	 7.31832208847748E-03 
2126	 7.85369506172475E-03 
2127	 8.45625590352351E-03 
2128	 9.43301330948363E-03 
2129	 9.34858803465683E-03 
2130	 8.68360922575952E-03 
2131	 8.64006072842451E-03 
2132	 8.53523841306927E-03 
2133	 8.85466844139838E-03 
2134	 8.96642429052949E-03 
2135	 9.08527450976342E-03 
2136	 8.86445187248958E-03 
2137	 8.59258760843563E-03 
2138	 8.06137958670412E-03 
2139	 6.59867326652519E-03 
2140	 6.4365656380982E-03 
2141	 7.20037349855821E-03 
2142	 7.54395517696492E-03 
2143	 8.56034528274958E-03 
2144	 8.85753837844031E-03 
2145	 8.72504550026281E-03 
2146	 7.88107644871497E-03 
2147	 7.14297344293362E-03 
2148	 7.46191119423036E-03 
2149	 7.97239056032671E-03 
2150	 7.96039314638022E-03 
2151	 8.26474793003522E-03 
2152	 8.67260613519283E-03 
2153	 8.1126419683405E-03 
2154	 7.24360393551826E-03 
2155	 6.43875578432167E-03 
2156	 5.40183865695637E-03 
2157	 5.51235408343354E-03 
2158	 7.27652825920674E-03 
2159	 7.65675422707468E-03 
2160	 7.99850343598664E-03 
2161	 8.24882423259414E-03 
2162	 7.42102000401602E-03 
2163	 7.5578001192508E-03 
2164	 8.61476446930115E-03 
2165	 9.07725854554061E-03 
2166	 9.76000563382394E-03 
2167	 9.95552239685591E-03 
2168	 9.63102008844205E-03 
2169	 9.21975694625912E-03 
2170	 8.32930876117681E-03 
2171	 7.7483820661665E-03 
2172	 7.99913430495776E-03 
2173	 8.46366523169922E-03 
2174	 9.1505327747627E-03 
2175	 9.61456174592291E-03 
2176	 9.06826769511958E-03 
2177	 8.77467772702629E-03 
2178	 9.23352182942843E-03 
2179	 8.87485642733424E-03 
2180	 8.19339040013016E-03 
2181	 7.27513434069464E-03 
2182	 6.38617052186995E-03 
2183	 6.89059690794834E-03 
2184	 6.65403798156222E-03 
2185	 6.72387624585191E-03 
2186	 7.57858788733032E-03 
2187	 9.05177899495851E-03 
2188	 9.03074052383502E-03 
2189	 9.10962984645931E-03 
2190	 9.08510432376286E-03 
2191	 7.64382932385255E-03 
2192	 7.0888509742364E-03 
2193	 7.66792250791144E-03 
2194	 7.55346771573964E-03 
2195	 6.52951618898533E-03 
2196	 6.0497355184416E-03 
2197	 5.98419371075531E-03 
2198	 5.93001989172081E-03 
2199	 6.40708455232925E-03 
2200	 5.98930414342507E-03 
2201	 4.91062358454354E-03 
2202	 5.64486886032171E-03 
2203	 6.8834281082953E-03 
2204	 6.56488899452797E-03 
2205	 7.41644348787055E-03 
2206	 8.74301774528924E-03 
2207	 8.48010027291938E-03 
2208	 9.42134899006205E-03 
2209	 1.01038755180828E-02 
2210	 8.7442987814188E-03 
2211	 6.78744039388968E-03 
2212	 6.03416627573378E-03 
2213	 7.54815693311819E-03 
2214	 8.45183059684959E-03 
2215	 8.84446565158736E-03 
2216	 9.83971709607742E-03 
2217	 1.01487534143706E-02 
2218	 8.39304985552623E-03 
2219	 8.04332042873895E-03 
2220	 9.36959012770738E-03 
2221	 9.19311119817494E-03 
2222	 7.46124292770164E-03 
2223	 7.10117230229835E-03 
2224	 6.86300131323394E-03 
2225	 7.19855261498033E-03 
2226	 9.14741650799291E-03 
2227	 9.49533038244308E-03 
2228	 9.34145895778957E-03 
2229	 8.68883926175726E-03 
2230	 6.21251289181542E-03 
2231	 5.78096470526148E-03 
2232	 6.54359097975547E-03 
2233	 6.93028360337084E-03 
2234	 8.41348964336783E-03 
2235	 8.82010341166569E-03 
2236	 7.26797288490504E-03 
2237	 0.006819159940879 
2238	 6.15428026265617E-03 
2239	 5.24191868376159E-03 
2240	 5.81438047038472E-03 
2241	 6.09061154103302E-03 
2242	 7.14038020911638E-03 
2243	 8.50285978110355E-03 
2244	 8.50692575347148E-03 
2245	 9.2158617355234E-03 
2246	 9.27370705785162E-03 
2247	 7.61112036356141E-03 
2248	 8.2690672418934E-03 
2249	 8.82019063148961E-03 
2250	 8.30295213217512E-03 
2251	 9.8270598383951E-03 
2252	 1.10822232553015E-02 
2253	 1.13147634884217E-02 
2254	 0.010499955453346 
2255	 8.83460602743889E-03 
2256	 8.70796317289133E-03 
2257	 9.89483998782363E-03 
2258	 1.12714500209945E-02 
2259	 1.29433999914501E-02 
2260	 1.29891588044352E-02 
2261	 9.81644051260174E-03 
2262	 9.59214132812337E-03 
2263	 1.04768242211813E-02 
2264	 1.02795313499787E-02 
2265	 1.07047615351273E-02 
2266	 1.05713323259051E-02 
2267	 9.6808962406511E-03 
2268	 9.36763019728306E-03 
2269	 9.46555810259389E-03 
2270	 9.09578688841359E-03 
2271	 8.78059575502562E-03 
2272	 7.94476799181269E-03 
2273	 5.19161430259303E-03 
2274	 5.10812432206873E-03 
2275	 7.55570927174658E-03 
2276	 7.28890693530439E-03 
2277	 6.96140446941628E-03 
2278	 7.10208230667408E-03 
2279	 3.68652748931732E-03 
2280	 3.29001672727094E-03 
2281	 4.91044655073153E-03 
2282	 9.53608649334187E-03 
2283	 1.05284400860858E-02 
2284	 1.06742030585606E-02 
2285	 1.06512923274035E-02 
2286	 7.92928503982441E-03 
2287	 6.20662241031455E-03 
2288	 5.79357353298329E-03 
2289	 2.67987424854531E-03 
2290	 1.92520696641059E-03 
2291	 4.58240876160331E-03 
2292	 6.56325752624265E-03 
2293	 8.09955457146214E-03 
2294	 1.03220712462719E-02 
2295	 1.23186992075983E-02 
2296	 1.19924150671397E-02 
2297	 0.011755992731972 
2298	 1.14902579985919E-02 
2299	 9.33019294133208E-03 
2300	 7.34306885318177E-03 
2301	 6.27697544754467E-03 
2302	 4.37236189379801E-03 
2303	 1.08382134514812E-03 
2304	-2.21483544715902E-03 
2305	-2.81053472385118E-03 
2306	-1.1320376009128E-03 
2307	 3.08077808396285E-03 
2308	 7.52949220639041E-03 
2309	 7.67398206001273E-03 
2310	 5.84319427417981E-03 
2311	 8.30923895429334E-04 
2312	-1.80355729922657E-03 
2313	 2.04640736189171E-03 
2314	 4.08983241014945E-03 
2315	 1.89770294674032E-03 
2316	 1.4902515632637E-03 
2317	 2.41965539914929E-03 
2318	-1.38523613698555E-03 
2319	 5.34787101490366E-04 
2320	 6.57169235484653E-03 
2321	 4.63366665680857E-03 
2322	 3.9052010008773E-03 
2323	 5.92801122419607E-03 
2324	 3.25904469737581E-03 
2325	 2.15512155735827E-03 
2326	 3.00013152886334E-03 
2327	 1.98662448207562E-03 
2328	 2.12589844083158E-03 
2329	-2.40007081586059E-03 
2330	-6.63112157442526E-03 
2331	-4.24217022247113E-03 
2332	-0.003197946396354 
2333	 1.57568070501971E-04 
2334	 7.4349616558053E-03 
2335	 5.77751631450497E-03 
2336	 5.15593537023965E-04 
2337	 5.43095074330073E-03 
2338	 8.35826281268142E-03 
2339	 8.97298279511691E-03 
2340	 1.55747697068268E-02 
2341	 1.16603658431627E-02 
2342	 4.02839996962581E-04 
2343	-7.12468787307981E-04 
2344	 2.90526102641152E-03 
2345	 5.45944778391573E-03 
2346	 1.28669451065334E-02 
2347	 1.74501781520427E-02 
2348	 2.11700660612121E-02 
2349	 0.024207635728889 
2350	 1.12037060756244E-02 
2351	 5.9041254964216E-03 
2352	 7.70550004336643E-03 
2353	 2.63303084599797E-03 
2354	 1.31956473129879E-02 
2355	 2.07525253190903E-02 
2356	 7.07795333119553E-03 
2357	-3.07453303176749E-04 
2358	 3.11303996791677E-03 
2359	-7.85414211734568E-05 
2360	-1.30636037519187E-03 
2361	-6.0952502777001E-04 
2362	-3.19738125981269E-03 
2363	-4.53840169486203E-03 
2364	-8.48074773245724E-03 
2365	-8.27063589325164E-03 
2366	-2.77593945350121E-03 
2367	 6.03338255885766E-03 
2368	 1.73371140559914E-02 
2369	 2.60743476543649E-02 
2370	 2.27601752734787E-02 
2371	 7.29710987463416E-03 
2372	-4.67556069030395E-03 
2373	-1.67115102606735E-02 
2374	-2.07792444668575E-02 
2375	-1.85824851384612E-02 
2376	-1.94768379615101E-02 
2377	-1.28066288749927E-02 
2378	-7.95990808655662E-03 
2379	 1.12040567349071E-03 
2380	 8.07760946245095E-03 
2381	 2.08045658861762E-02 
2382	 4.12924750425563E-02 
2383	 0.023974157148404 
2384	 9.76310258655164E-03 
2385	 1.20672940141861E-03 
2386	-0.021157859920739 
2387	-1.03198042934442E-02 
2388	-9.97064217311444E-03 
2389	-2.21878193534771E-02 
2390	-3.17763376022281E-02 
2391	-5.01689808565849E-02 
2392	-4.79317821592461E-02 
2393	-3.67788166288237E-02 
2394	-0.030056627963753 
2395	-1.68396075524058E-02 
2396	-8.08092322285313E-03 
2397	-0.018496791731511 
2398	-3.76945386341151E-02 
2399	-3.34997502075874E-02 
2400	-0.015159688291088 
2401	-3.82977716295212E-03 
2402	 1.96731430217921E-02 
2403	 2.08419013093174E-02 
2404	-3.05287480576075E-02 
2405	-7.47417299780112E-02 
2406	-0.105122262539709 
2407	-0.117907073238126 
2408	-8.33189775117618E-02 
2409	-4.04505800029202E-02 
2410	 1.76245114625726E-02 
2411	 0.050891793278196 
2412	 1.73528072859729E-02 
2413	-2.23245867689837E-02 
2414	-7.45155459042679E-02 
2415	-9.06313945633239E-02 
2416	-7.75457233194506E-03 
2417	 3.91409363118451E-02 
2418	 0.110626397288636 
2419	 4.70724072751987E-02 
2420	-1.29420129820959E-04 
2421	 0.079508300997573 
2422	 3.76137726543065E-02 
2423	 4.89910693703958E-02 
2424	 9.06768066338651E-02 
2425	-1.38129436249291E-02 
2426	-8.75340690155481E-03 
2427	-3.48352739912462E-02 
2428	-0.120122928686462 
2429	-4.36538253846015E-02 
2430	 3.62275186085034E-02 
2431	 2.06205589331069E-02 
2432	 2.49209881203831E-02 
2433	-5.58217966369518E-02 
2434	-0.196432184254879 
2435	-0.179015481965974 
2436	-0.111067533678494 
2437	-0.15729582976113 
2438	-0.129447089164342 
2439	-4.05660184769599E-02 
2440	-7.30661448916461E-02 
2441	-0.104604234268794 
2442	-9.40304338042545E-02 
2443	-0.157337029388191 
2444	-0.108874351132826 
2445	 4.37527995716978E-02 
2446	-5.15347073481285E-03 
2447	-9.44031471697618E-02 
2448	-0.249139084060629 
2449	-0.66397639546935 
2450	-0.878791538861893 
2451	-1.10013885828566 
2452	-1.02463753005235 
2453	-0.65113810472079 
2454	-0.50576420551168 
2455	-0.437492526011805 
2456	-0.416000198240066 
2457	-0.477121325253699 
2458	-0.589751545525552 
2459	-0.587233113969505 
2460	-0.434586372628704 
2461	-0.604886267172285 
2462	-0.650022584910971 
2463	-0.308128493139404 
2464	-0.39240154639224 
2465	-0.157515788718967 
2466	 0.20869967961512 
2467	-0.120066361542128 
2468	-0.126215251352759 
2469	 2.47929179094013E-02 
2470	 0.12199824905964 
2471	 0.39350761928351 
2472	 0.419872734162172 
2473	-0.197896366169948 
2474	-0.586375300246407 
2475	-1.37501733447099 
2476	-4.58603259918613 
2477	 2.02575844889812 
2478	 0.918080372639443 
2479	 0.788396147334427 
2480	 0.734712963143024 
2481	 1.14441892493039 
2482	 0.885188131727233 
2483	-3.50212962660156E-02 
2484	-0.599578944314274 
2485	-0.187762645272245 
2486	-0.240773126867841 
2487	 1.15085009536515 
2488	 0.850900482449794 
2489	 0.555179936885597 
2490	 0.767092732349729 
2491	 1.63066335287381 
2492	-1.36198930935359 
2493	-8.0793660850945 
2494	-4.13878899392631 
2495	-6.1316909053664 
2496	 29.657889602936 
2497	-5.96062027634914 
2498	 5.48497795392804 
2499	 0.399622942744002 
2500	 1.01765835040306 
