Wavelength	rt0713west_far_cloud300007.asd
350	 7.38631780087919E-02 
351	 0.072685187204917 
352	 7.32466292154831E-02 
353	 7.41036670183894E-02 
354	 7.41715554772757E-02 
355	 7.45823192854803E-02 
356	 7.43080643360954E-02 
357	 7.42138375588742E-02 
358	 0.07505680440534 
359	 7.45819216014813E-02 
360	 7.40643319524894E-02 
361	 7.43221735940419E-02 
362	 7.55124526088404E-02 
363	 7.56206840953131E-02 
364	 7.53719101215509E-02 
365	 7.54276003620273E-02 
366	 7.57956823744382E-02 
367	 7.58920254584676E-02 
368	 7.56701861108375E-02 
369	 7.54427257957353E-02 
370	 7.61746967222965E-02 
371	 7.69158282897259E-02 
372	 7.71890082338721E-02 
373	 7.69428352346952E-02 
374	 7.68809697293629E-02 
375	 7.70986043842011E-02 
376	 7.76205559767336E-02 
377	 7.84680222065737E-02 
378	 7.86120223619767E-02 
379	 7.84845660794164E-02 
380	 7.86284036870339E-02 
381	 7.86566341525395E-02 
382	 0.079100585715653 
383	 7.96999082453299E-02 
384	 0.079894573143925 
385	 0.080040373122224 
386	 7.98913147788008E-02 
387	 7.96933693129215E-02 
388	 8.02319541183147E-02 
389	 8.11013647808699E-02 
390	 8.16516763877241E-02 
391	 8.16381622513675E-02 
392	 8.18204770571473E-02 
393	 8.20200330920625E-02 
394	 8.22070941553946E-02 
395	 8.24331542228963E-02 
396	 8.29655319129708E-02 
397	 8.32861444854534E-02 
398	 0.083320386696629 
399	 8.34092720741299E-02 
400	 8.38470245014679E-02 
401	 8.40671013380684E-02 
402	 8.38590807085688E-02 
403	 8.40630491319943E-02 
404	 8.44052876262689E-02 
405	 8.47096854722195E-02 
406	 8.48680327243427E-02 
407	 8.50108183400723E-02 
408	 8.52304024610812E-02 
409	 0.085479343604209 
410	 0.085595368798573 
411	 8.58960221189863E-02 
412	 8.62551724266758E-02 
413	 8.65337808503877E-02 
414	 8.67634876185077E-02 
415	 8.69708057528152E-02 
416	 8.71602167252844E-02 
417	 8.73392462881123E-02 
418	 8.75854566732975E-02 
419	 8.78911314801256E-02 
420	 8.82200190523418E-02 
421	 0.088518181913635 
422	 8.88660574197615E-02 
423	 8.92020173637419E-02 
424	 8.94759866052733E-02 
425	 8.97495792982881E-02 
426	 9.00266098771502E-02 
427	 9.03468002806073E-02 
428	 9.07629567082464E-02 
429	 9.13233782913243E-02 
430	 9.18317750441949E-02 
431	 0.092254072689475 
432	 0.092772105634052 
433	 9.29307010414829E-02 
434	 9.31615519061524E-02 
435	 9.37837947130289E-02 
436	 9.41955082399943E-02 
437	 9.46839472521294E-02 
438	 9.51520118561053E-02 
439	 0.095365237997909 
440	 9.58411582075521E-02 
441	 9.63682141649587E-02 
442	 9.67737179910126E-02 
443	 9.70579668602674E-02 
444	 9.74874201002064E-02 
445	 9.79343583011922E-02 
446	 9.82493988085873E-02 
447	 9.86748540636491E-02 
448	 9.90492456574289E-02 
449	 9.93867303013567E-02 
450	 9.98162123432975E-02 
451	 0.100092465919787 
452	 0.100360430136753 
453	 0.100709596459654 
454	 0.100998603161614 
455	 0.101279288108623 
456	 0.101501640697202 
457	 0.101645836034157 
458	 0.102024386964623 
459	 0.102379619853611 
460	 0.102590090082709 
461	 0.102708883097515 
462	 0.102879112253909 
463	 0.103071601618155 
464	 0.103247952396956 
465	 0.103455273884239 
466	 0.103652757084756 
467	 0.103903224827181 
468	 0.104271286855308 
469	 0.104449185082266 
470	 0.104597505794023 
471	 0.104827816706291 
472	 0.105122876662338 
473	 0.105391905947483 
474	 0.105674378575494 
475	 0.105989186717832 
476	 0.106127280513298 
477	 0.106391260011561 
478	 0.106779585084254 
479	 0.107084138364513 
480	 0.107348303915758 
481	 0.107623214449386 
482	 0.107956684585391 
483	 0.108392222744426 
484	 0.10875848835479 
485	 0.109066598303905 
486	 0.109405951432918 
487	 0.109847937128072 
488	 0.110289717224628 
489	 0.110682651930944 
490	 0.111047248728134 
491	 0.111456995977049 
492	 0.111991588732119 
493	 0.112630820945756 
494	 0.113104425189344 
495	 0.113582183480497 
496	 0.114069507401778 
497	 0.114512334610475 
498	 0.115053241437665 
499	 0.115705743787702 
500	 0.116382437109403 
501	 0.116863807186384 
502	 0.117480497673956 
503	 0.118108708823306 
504	 0.11859789485652 
505	 0.119232857623122 
506	 0.119978891962584 
507	 0.120733092798309 
508	 0.121359550319072 
509	 0.121976188408769 
510	 0.122709422556265 
511	 0.12355220173327 
512	 0.12418571541132 
513	 0.124919230996629 
514	 0.125728305504133 
515	 0.126475862335145 
516	 0.127367717998218 
517	 0.12828030949532 
518	 0.129135420794624 
519	 0.129953799881622 
520	 0.130741883130122 
521	 0.131548891354774 
522	 0.132410115764948 
523	 0.133273821550344 
524	 0.13409664257215 
525	 0.13490111957773 
526	 0.135749838076891 
527	 0.136518502269926 
528	 0.137367118931067 
529	 0.138301977908281 
530	 0.138929981089551 
531	 0.139728580773157 
532	 0.140623062728592 
533	 0.141367067389655 
534	 0.142032411512675 
535	 0.14278102684968 
536	 0.143585966928489 
537	 0.144202362542029 
538	 0.145031399205784 
539	 0.145911550014829 
540	 0.146648053450342 
541	 0.147420710732968 
542	 0.148107794374914 
543	 0.148810492402939 
544	 0.149720231536905 
545	 0.150385378904355 
546	 0.151017538592087 
547	 0.151769729264428 
548	 0.152521797419692 
549	 0.153236512331589 
550	 0.153943355664986 
551	 0.154683614207679 
552	 0.155390727294723 
553	 0.156021536076323 
554	 0.156618774653059 
555	 0.157311483881676 
556	 0.157956514728692 
557	 0.158539506723501 
558	 0.15909261511663 
559	 0.159725308787641 
560	 0.160222228940517 
561	 0.160671245467652 
562	 0.16129955236185 
563	 0.16160848640219 
564	 0.161860062913458 
565	 0.162243460536872 
566	 0.162616103879691 
567	 0.162952922633248 
568	 0.163241802268207 
569	 0.163485123898654 
570	 0.163693409503761 
571	 0.163967245074915 
572	 0.164257332698445 
573	 0.164358206267634 
574	 0.16456646814128 
575	 0.164764976547113 
576	 0.164833403797489 
577	 0.164964642252898 
578	 0.165078655078034 
579	 0.165158672368192 
580	 0.165221735142895 
581	 0.165235832390435 
582	 0.165114253742704 
583	 0.164851678138322 
584	 0.164583856921859 
585	 0.164507452968963 
586	 0.164410819137543 
587	 0.164011768852028 
588	 0.163683073577375 
589	 0.163473129275319 
590	 0.163288863597627 
591	 0.162913519023698 
592	 0.162600275590562 
593	 0.16225169688416 
594	 0.161783221230022 
595	 0.161341709060106 
596	 0.160873558241186 
597	 0.160290164520186 
598	 0.159527119763248 
599	 0.158909012477187 
600	 0.158364793488327 
601	 0.157854910581583 
602	 0.157471590000637 
603	 0.157353775699139 
604	 0.157295180797029 
605	 0.157081042882317 
606	 0.15709648210811 
607	 0.157067660074799 
608	 0.15695431803484 
609	 0.156980537712837 
610	 0.156987428338833 
611	 0.156893973164464 
612	 0.156730056639786 
613	 0.156814148902479 
614	 0.156782152947724 
615	 0.156631337404753 
616	 0.156555338302023 
617	 0.156483750424601 
618	 0.156350146158925 
619	 0.156226574089346 
620	 0.15643128245797 
621	 0.156355771436371 
622	 0.156157296823133 
623	 0.156147662385129 
624	 0.156032467221387 
625	 0.156034088143291 
626	 0.156089737853389 
627	 0.155874901159703 
628	 0.155799391613172 
629	 0.155824095971765 
630	 0.155826196361767 
631	 0.155721493932028 
632	 0.155514846159017 
633	 0.155246938521908 
634	 0.154988569496053 
635	 0.154886461725015 
636	 0.154631644814633 
637	 0.15420016031341 
638	 0.154031747684163 
639	 0.153701411599944 
640	 0.153255295617658 
641	 0.152871511724287 
642	 0.152674195091711 
643	 0.152270486601169 
644	 0.151704743224233 
645	 0.151376743202 
646	 0.151039580026195 
647	 0.150721994582274 
648	 0.150458316169858 
649	 0.150183896214151 
650	 0.149771283773781 
651	 0.149413358617935 
652	 0.149337224607598 
653	 0.148989075473136 
654	 0.148660330141914 
655	 0.148419097332146 
656	 0.147982772139723 
657	 0.147397437072546 
658	 0.14689634033745 
659	 0.146605012032806 
660	 0.146315484529458 
661	 0.145980851054242 
662	 0.14560455157058 
663	 0.145247932014481 
664	 0.145102054454703 
665	 0.144901443304705 
666	 0.144541394004485 
667	 0.144303947988704 
668	 0.144193711146975 
669	 0.14414849848614 
670	 0.144098515777695 
671	 0.144133323320343 
672	 0.143996771157868 
673	 0.143788702094551 
674	 0.143920498031998 
675	 0.143923586360653 
676	 0.143930027810919 
677	 0.144093599540035 
678	 0.144349843552453 
679	 0.144502383795441 
680	 0.144736300342381 
681	 0.145309994524844 
682	 0.145625443894007 
683	 0.145997034067011 
684	 0.14661587184952 
685	 0.147479077617865 
686	 0.148131037936446 
687	 0.148700186614313 
688	 0.149416666462783 
689	 0.150170189525637 
690	 0.150781267096876 
691	 0.15123746057156 
692	 0.151654572669495 
693	 0.152346561447686 
694	 0.15298118701646 
695	 0.153338686276461 
696	 0.153582467373954 
697	 0.153830356397453 
698	 0.154009543165997 
699	 0.153996166727275 
700	 0.153907124918359 
701	 0.153798049674925 
702	 0.153621444496494 
703	 0.15325671753387 
704	 0.152807954740047 
705	 0.15230664485065 
706	 0.151719957264152 
707	 0.150847053204692 
708	 0.149937575253669 
709	 0.149060590039736 
710	 0.14811034820571 
711	 0.146414197097484 
712	 0.144776891148008 
713	 0.143353693921857 
714	 0.141491070572815 
715	 0.139741825617988 
716	 0.137777381242183 
717	 0.135404287488714 
718	 0.133166286045215 
719	 0.130950351763044 
720	 0.129040315547439 
721	 0.127252006373028 
722	 0.125302115248638 
723	 0.123053530657079 
724	 0.120748477501595 
725	 0.118324421483951 
726	 0.116048833359198 
727	 0.113552213617319 
728	 0.110645666242666 
729	 0.107983203560848 
730	 0.105169938972419 
731	 0.102421624812953 
732	 9.99889591453372E-02 
733	 0.098031181402951 
734	 9.63942883629337E-02 
735	 9.50462153922317E-02 
736	 0.094069473029761 
737	 9.30166859654313E-02 
738	 9.22757632065866E-02 
739	 9.20887563951483E-02 
740	 9.16054100232531E-02 
741	 9.12743371546217E-02 
742	 9.11185364690321E-02 
743	 9.09493115673251E-02 
744	 9.08320132446979E-02 
745	 9.07720731139969E-02 
746	 9.07160335429265E-02 
747	 0.090539243250604 
748	 9.04142603141384E-02 
749	 9.03645268542106E-02 
750	 0.090341709525608 
751	 9.01982430925132E-02 
752	 9.00904586172753E-02 
753	 9.00878017972663E-02 
754	 9.01653295610545E-02 
755	 8.99776198380303E-02 
756	 9.00011337732837E-02 
757	 9.03434079864077E-02 
758	 9.05043970749676E-02 
759	 9.06999556994699E-02 
760	 9.07304951345103E-02 
761	 9.05120402188424E-02 
762	 9.09095862987978E-02 
763	 9.07367075671579E-02 
764	 9.03771610478265E-02 
765	 9.04838504593088E-02 
766	 9.05850350313755E-02 
767	 9.05962624058027E-02 
768	 9.05866183018392E-02 
769	 9.07439307778347E-02 
770	 0.09100687482671 
771	 9.11833956300509E-02 
772	 9.12450469183259E-02 
773	 9.17107425674846E-02 
774	 9.19075970761305E-02 
775	 9.19548992360913E-02 
776	 9.22469712310042E-02 
777	 9.25063349063265E-02 
778	 9.27571892282053E-02 
779	 9.30281212292623E-02 
780	 9.33424080236446E-02 
781	 0.093876531818922 
782	 9.43136602335261E-02 
783	 9.45081994465231E-02 
784	 9.48973093581186E-02 
785	 9.53516331914224E-02 
786	 9.58053940975136E-02 
787	 9.62209403758005E-02 
788	 9.66603741821828E-02 
789	 9.71484330135841E-02 
790	 9.75890445250304E-02 
791	 9.78506784382484E-02 
792	 0.098378214278655 
793	 9.89254284661587E-02 
794	 9.93593482667917E-02 
795	 9.98654959554556E-02 
796	 0.100327590172536 
797	 0.100709491458872 
798	 0.101038337405314 
799	 0.101387906819531 
800	 0.101777054736608 
801	 0.102135967270541 
802	 0.102372703040231 
803	 0.102572749115274 
804	 0.102937106599931 
805	 0.103290500147105 
806	 0.103093570946491 
807	 0.102968361369983 
808	 0.103049280308032 
809	 0.103236936820574 
810	 0.103104857380625 
811	 0.102700895910994 
812	 0.102200174849388 
813	 0.101814062179835 
814	 0.101309283638495 
815	 0.100870935865713 
816	 0.100461114809975 
817	 9.98830877832939E-02 
818	 9.94916006188518E-02 
819	 9.89339605595712E-02 
820	 9.79910540435154E-02 
821	 9.66760253278523E-02 
822	 9.52311664879426E-02 
823	 9.38083875786594E-02 
824	 0.092511916184559 
825	 9.13927284567723E-02 
826	 8.97284453550143E-02 
827	 0.087747666734808 
828	 8.60980410450786E-02 
829	 8.43403448967252E-02 
830	 8.28437656498859E-02 
831	 8.16492157501652E-02 
832	 0.080588038731264 
833	 7.97676545542436E-02 
834	 0.079128830857429 
835	 7.86072295406125E-02 
836	 0.078168972497391 
837	 7.75854093690662E-02 
838	 7.72343540175698E-02 
839	 7.72503239342938E-02 
840	 7.68006465307178E-02 
841	 7.67013727617004E-02 
842	 7.66512529124511E-02 
843	 7.61408308170167E-02 
844	 7.56753848012683E-02 
845	 7.54229198111872E-02 
846	 0.075322527265229 
847	 7.51782625375859E-02 
848	 7.51307514884479E-02 
849	 7.48371429958261E-02 
850	 7.43702355527857E-02 
851	 7.43398053410058E-02 
852	 7.40895283519788E-02 
853	 7.36956316101391E-02 
854	 7.33947141307547E-02 
855	 0.073400510949398 
856	 7.32664218544667E-02 
857	 7.30331056085541E-02 
858	 0.072856866425954 
859	 7.27843546301441E-02 
860	 7.25238278166647E-02 
861	 7.22277747443755E-02 
862	 7.22210581807021E-02 
863	 7.24154800803888E-02 
864	 7.21852798065456E-02 
865	 0.071828825418815 
866	 7.23101842060063E-02 
867	 7.20651057979635E-02 
868	 7.14758695748545E-02 
869	 7.09961448329935E-02 
870	 7.07794842894284E-02 
871	 7.05344310683304E-02 
872	 7.03935794198474E-02 
873	 7.04013657314148E-02 
874	 7.02109494979554E-02 
875	 6.99781501748533E-02 
876	 6.95416709737685E-02 
877	 6.89251413864437E-02 
878	 6.91272574951156E-02 
879	 6.91948900854579E-02 
880	 6.89405021390778E-02 
881	 0.068589730745088 
882	 6.82317661573845E-02 
883	 6.79787419732155E-02 
884	 0.067885626593456 
885	 6.79157703982698E-02 
886	 0.067674928590326 
887	 6.77555467309963E-02 
888	 0.068057584725761 
889	 6.76465109984968E-02 
890	 0.067032734750684 
891	 6.66928062502289E-02 
892	 6.68015087231533E-02 
893	 6.69356620045955E-02 
894	 6.64981893332174E-02 
895	 6.62698777811605E-02 
896	 6.67113382996185E-02 
897	 6.56517141768534E-02 
898	 6.57639893962133E-02 
899	 6.65010518417404E-02 
900	 6.63756449964312E-02 
901	 6.53068109744661E-02 
902	 6.45830106870656E-02 
903	 6.42835084232335E-02 
904	 6.40669048208324E-02 
905	 6.42311183977135E-02 
906	 6.41525312108082E-02 
907	 6.40355615696882E-02 
908	 6.44078513357569E-02 
909	 6.30537095735563E-02 
910	 6.21095534799043E-02 
911	 6.27646466975819E-02 
912	 6.45069302871511E-02 
913	 6.45253225494782E-02 
914	 6.32532703861143E-02 
915	 6.21410529131945E-02 
916	 0.062745913212984 
917	 0.062122443949338 
918	 6.17061844035731E-02 
919	 6.21489025996968E-02 
920	 6.23096247918318E-02 
921	 6.09513218792895E-02 
922	 6.04716582667262E-02 
923	 6.16868307106124E-02 
924	 6.05094711135115E-02 
925	 6.06573535017421E-02 
926	 0.06115472055652 
927	 6.03456849702344E-02 
928	 6.02402203546995E-02 
929	 5.84483565213905E-02 
930	 5.71358901892525E-02 
931	 0.059914941213082 
932	 5.54572888797844E-02 
933	 5.04213355400939E-02 
934	 5.36763039594588E-02 
935	 0.063884526755905 
936	 5.49294245860011E-02 
937	 5.13927174127483E-02 
938	 5.58828794175139E-02 
939	 6.04917772522366E-02 
940	 4.82682751589482E-02 
941	 5.50532116640003E-02 
942	 6.91773669268927E-02 
943	 6.13744246674831E-02 
944	 5.49119544298256E-02 
945	 5.46298328202232E-02 
946	 5.79520125346234E-02 
947	 5.82521702141231E-02 
948	 5.44893771563937E-02 
949	 4.87281682459754E-02 
950	 4.76321418026376E-02 
951	 5.61184537460035E-02 
952	 5.44617205604217E-02 
953	 5.72133375119225E-02 
954	 6.08128945075443E-02 
955	 5.32374351586244E-02 
956	 0.059064313650986 
957	 5.84191012232016E-02 
958	 5.29244706540421E-02 
959	 5.71691817144288E-02 
960	 5.35020631031723E-02 
961	 5.42319188955428E-02 
962	 0.056584872273335 
963	 5.04563337470461E-02 
964	 5.73632177382327E-02 
965	 6.01136428879294E-02 
966	 5.71927232436846E-02 
967	 5.85026285912906E-02 
968	 5.84087624841858E-02 
969	 5.93661469129834E-02 
970	 6.01485157081531E-02 
971	 5.69597035166999E-02 
972	 5.56812443184978E-02 
973	 5.55922682483207E-02 
974	 5.57604845848249E-02 
975	 5.57402020318738E-02 
976	 5.45992730744945E-02 
977	 5.58537100798573E-02 
978	 0.057555823090764 
979	 0.05489571590975 
980	 6.00224657024321E-02 
981	 6.04290422724158E-02 
982	 5.65503054840879E-02 
983	 5.88362287070176E-02 
984	 5.81311836858345E-02 
985	 5.65207557627598E-02 
986	 5.54872552849406E-02 
987	 0.055265024677071 
988	 0.057625645220682 
989	 5.72634935790529E-02 
990	 5.62143042162632E-02 
991	 6.00468392197225E-02 
992	 5.66524398926698E-02 
993	 5.55975266650016E-02 
994	 5.81066783003945E-02 
995	 5.86323155551956E-02 
996	 5.69814765269045E-02 
997	 5.84186478855342E-02 
998	 6.06615292971043E-02 
999	 5.82053089469889E-02 
1000	 0.056563893013481 
1001	 5.52979770104418E-02 
1002	 5.42598843025235E-02 
1003	 5.35998739570008E-02 
1004	 5.30632494757114E-02 
1005	 5.27801615484474E-02 
1006	 5.23767366370304E-02 
1007	 5.26906118452379E-02 
1008	 5.32822190892195E-02 
1009	 5.42355701586499E-02 
1010	 5.47389991285137E-02 
1011	 5.47150996200777E-02 
1012	 5.44913169216799E-02 
1013	 5.44967928374305E-02 
1014	 5.47332166686399E-02 
1015	 5.53827883555869E-02 
1016	 5.55516706863468E-02 
1017	 5.55022052669356E-02 
1018	 5.57121633860579E-02 
1019	 5.60694962556504E-02 
1020	 5.61596048528188E-02 
1021	 5.60923868785639E-02 
1022	 5.65643510219872E-02 
1023	 5.65260513473124E-02 
1024	 5.58716901909661E-02 
1025	 5.61339936383513E-02 
1026	 5.59657079748762E-02 
1027	 5.57072051495034E-02 
1028	 5.51371318903589E-02 
1029	 5.51875458120397E-02 
1030	 5.53974544842722E-02 
1031	 0.055546432210382 
1032	 5.64220986985672E-02 
1033	 5.63729595077185E-02 
1034	 0.055356312956583 
1035	 5.51102156271985E-02 
1036	 5.49169614221395E-02 
1037	 5.47632541142004E-02 
1038	 5.50500851289288E-02 
1039	 5.50883972691005E-02 
1040	 5.56445528092425E-02 
1041	 5.57083448065901E-02 
1042	 5.56863551323806E-02 
1043	 5.58484367175838E-02 
1044	 5.58882732769833E-02 
1045	 5.52614142155895E-02 
1046	 5.53944252155329E-02 
1047	 5.62542310813825E-02 
1048	 5.63555139429739E-02 
1049	 5.60959147175513E-02 
1050	 5.62867121028014E-02 
1051	 5.66305304763453E-02 
1052	 5.66358410434675E-02 
1053	 5.68149305902804E-02 
1054	 5.68398283731767E-02 
1055	 5.61844084643979E-02 
1056	 0.055875402396251 
1057	 5.57312365339132E-02 
1058	 5.58559908042957E-02 
1059	 0.056012713343882 
1060	 5.64230928057143E-02 
1061	 5.64443270574751E-02 
1062	 5.64656105033386E-02 
1063	 5.63909596222499E-02 
1064	 5.56679030289838E-02 
1065	 5.57623052235163E-02 
1066	 5.66514545383493E-02 
1067	 5.68220918103873E-02 
1068	 5.71591244767695E-02 
1069	 5.71558736562872E-02 
1070	 5.62079991431706E-02 
1071	 5.58518381890276E-02 
1072	 5.58402176053075E-02 
1073	 5.55932558322628E-02 
1074	 5.57749210979837E-02 
1075	 5.64371943232146E-02 
1076	 5.64955937270839E-02 
1077	 5.65896806056023E-02 
1078	 5.64900471531478E-02 
1079	 0.055882474942725 
1080	 0.055665837192341 
1081	 5.54399960656382E-02 
1082	 5.54168911273094E-02 
1083	 5.56679153942292E-02 
1084	 5.58136533959033E-02 
1085	 0.05641624421275 
1086	 5.64135184995327E-02 
1087	 5.57227290705697E-02 
1088	 5.54083117027645E-02 
1089	 5.43305873168935E-02 
1090	 5.45090468622765E-02 
1091	 0.054730824610494 
1092	 5.55315100472288E-02 
1093	 5.59907430300214E-02 
1094	 5.72806035517575E-02 
1095	 0.056894589905943 
1096	 5.49720449307497E-02 
1097	 5.47544996915494E-02 
1098	 0.054214593128211 
1099	 5.39734662371189E-02 
1100	 5.58660285154913E-02 
1101	 5.61541639060113E-02 
1102	 5.46386269071926E-02 
1103	 5.41274962753166E-02 
1104	 5.35437247672698E-02 
1105	 5.30284156137429E-02 
1106	 0.054625573891624 
1107	 5.59079889452676E-02 
1108	 5.51825272536563E-02 
1109	 5.64211657750613E-02 
1110	 5.63226191195659E-02 
1111	 5.27057541775144E-02 
1112	 5.33070929737431E-02 
1113	 5.75448085376778E-02 
1114	 5.92025348408547E-02 
1115	 6.55613838271211E-02 
1116	 6.65399464883927E-02 
1117	 5.65145393320313E-02 
1118	 5.35088433900437E-02 
1119	 4.81043008925087E-02 
1120	 4.55559490725628E-02 
1121	 0.056465260245232 
1122	 6.83097141751415E-02 
1123	 6.70848042517263E-02 
1124	 5.52595175498615E-02 
1125	 4.32004446604814E-02 
1126	 4.82948106247592E-02 
1127	 5.45174695532962E-02 
1128	 5.27537025200266E-02 
1129	 5.78454725127218E-02 
1130	 6.25684029384499E-02 
1131	 6.41635127097918E-02 
1132	 7.25824176443955E-02 
1133	 7.22540814563617E-02 
1134	 6.07768611094175E-02 
1135	 5.69685706714477E-02 
1136	 5.53121056743698E-02 
1137	 5.41432556717434E-02 
1138	 5.54817968814952E-02 
1139	 5.51505108308172E-02 
1140	 5.62432868500208E-02 
1141	 5.93939977680832E-02 
1142	 5.47521803763332E-02 
1143	 5.73523030389989E-02 
1144	 6.47429341173478E-02 
1145	 6.13329654163431E-02 
1146	 6.41942334204377E-02 
1147	 7.01693880768399E-02 
1148	 6.25568358828378E-02 
1149	 5.61341214833842E-02 
1150	 5.42581904784012E-02 
1151	 5.22402535249861E-02 
1152	 5.08093387155123E-02 
1153	 5.25855539446055E-02 
1154	 5.31446077942702E-02 
1155	 5.13399830720101E-02 
1156	 5.45641694106898E-02 
1157	 5.70689602373726E-02 
1158	 5.75659720397437E-02 
1159	 5.93913842431843E-02 
1160	 5.85443803232742E-02 
1161	 5.65490192712384E-02 
1162	 5.76228868913726E-02 
1163	 0.057953327794836 
1164	 5.66584715847875E-02 
1165	 5.67543093587117E-02 
1166	 5.67291258658952E-02 
1167	 5.63672970301261E-02 
1168	 0.057211558316059 
1169	 5.84980063703948E-02 
1170	 5.81727008099398E-02 
1171	 5.78818195693765E-02 
1172	 5.76580626518221E-02 
1173	 5.73909858051767E-02 
1174	 5.62932132594903E-02 
1175	 5.59411722847363E-02 
1176	 5.74939859014432E-02 
1177	 5.74503970398358E-02 
1178	 5.67797921292187E-02 
1179	 5.73252972913674E-02 
1180	 5.75965026762371E-02 
1181	 5.69932462781039E-02 
1182	 5.67334691592508E-02 
1183	 5.70442080588612E-02 
1184	 5.63288461876574E-02 
1185	 5.56638971456511E-02 
1186	 5.68213820145547E-02 
1187	 5.79456543475186E-02 
1188	 5.76238211338253E-02 
1189	 0.0566089493097 
1190	 0.056207896698017 
1191	 5.60733306763335E-02 
1192	 5.56668589249815E-02 
1193	 0.055530306722628 
1194	 5.62949387661283E-02 
1195	 5.65066790658944E-02 
1196	 5.59714187668583E-02 
1197	 5.59496016715523E-02 
1198	 5.60081775105095E-02 
1199	 5.58403882057935E-02 
1200	 5.56606200193732E-02 
1201	 5.57552250133429E-02 
1202	 5.60655709437254E-02 
1203	 5.58318201249057E-02 
1204	 5.56562962875107E-02 
1205	 5.60843730127926E-02 
1206	 5.59839181125379E-02 
1207	 5.57277473982829E-02 
1208	 5.59738362768186E-02 
1209	 5.57401063029402E-02 
1210	 5.58466703458442E-02 
1211	 5.66994677662282E-02 
1212	 5.69486203103509E-02 
1213	 5.66366371115081E-02 
1214	 5.63661246172629E-02 
1215	 5.58974845127925E-02 
1216	 5.55915217859593E-02 
1217	 5.55732717976628E-02 
1218	 5.58045351785995E-02 
1219	 5.61059491052023E-02 
1220	 5.57750107016479E-02 
1221	 5.54597116657277E-02 
1222	 5.56967162759843E-02 
1223	 5.58017518823392E-02 
1224	 5.59705843428251E-02 
1225	 5.63370136328246E-02 
1226	 5.60282656763009E-02 
1227	 5.53013663956188E-02 
1228	 5.53164550096464E-02 
1229	 5.55406256695347E-02 
1230	 5.51815098696425E-02 
1231	 5.50853433548259E-02 
1232	 5.52624165013345E-02 
1233	 5.48523917769768E-02 
1234	 5.44748770464269E-02 
1235	 5.46275632571206E-02 
1236	 5.55794967980282E-02 
1237	 5.58673984687952E-02 
1238	 0.056134177663975 
1239	 0.056290095310078 
1240	 5.61257851267521E-02 
1241	 5.56132974794778E-02 
1242	 5.54945246611401E-02 
1243	 5.56148744602326E-02 
1244	 5.55464077688885E-02 
1245	 5.51720573606112E-02 
1246	 5.46593086263058E-02 
1247	 5.48352549069081E-02 
1248	 5.51466764744399E-02 
1249	 5.52587106828554E-02 
1250	 5.58112992202504E-02 
1251	 0.055751383729293 
1252	 5.52311289372391E-02 
1253	 5.53764627125294E-02 
1254	 5.54220422722746E-02 
1255	 5.52516372398868E-02 
1256	 5.53530981172292E-02 
1257	 5.59224297304919E-02 
1258	 5.61069215160065E-02 
1259	 0.056379193727663 
1260	 5.62540356410528E-02 
1261	 5.53285963555523E-02 
1262	 5.51308747252296E-02 
1263	 5.50486640018922E-02 
1264	 0.055217322375225 
1265	 5.51325176477997E-02 
1266	 5.54002643456132E-02 
1267	 0.055504834960306 
1268	 5.53413323238866E-02 
1269	 5.57741799056147E-02 
1270	 5.60609765071092E-02 
1271	 5.56995778202284E-02 
1272	 5.54325274531434E-02 
1273	 5.52629498207208E-02 
1274	 0.055429769305236 
1275	 5.58607771016285E-02 
1276	 5.58004230971549E-02 
1277	 0.055797551414972 
1278	 5.58169284958557E-02 
1279	 5.54073814900426E-02 
1280	 5.49731850913658E-02 
1281	 0.054750344945136 
1282	 5.44421057269661E-02 
1283	 5.42659327016296E-02 
1284	 5.42793795786119E-02 
1285	 5.45176889615337E-02 
1286	 5.49865136280738E-02 
1287	 0.055016367304533 
1288	 0.054998569404135 
1289	 5.52085248682395E-02 
1290	 5.53171476862775E-02 
1291	 5.52679682355011E-02 
1292	 5.50686329130575E-02 
1293	 5.52009813769508E-02 
1294	 5.53426937982036E-02 
1295	 0.055104289480204 
1296	 5.51437534686337E-02 
1297	 5.57044862026173E-02 
1298	 5.57811775557695E-02 
1299	 5.51859279298355E-02 
1300	 5.48823982084233E-02 
1301	 5.44023380116754E-02 
1302	 5.36518360017399E-02 
1303	 5.41710492631555E-02 
1304	 5.57311038862107E-02 
1305	 0.055737122246971 
1306	 5.56224514672279E-02 
1307	 5.48035377225067E-02 
1308	 5.48754822373481E-02 
1309	 5.48916852884019E-02 
1310	 5.49023873275272E-02 
1311	 5.55709183401069E-02 
1312	 5.54972500159392E-02 
1313	 5.43017345567213E-02 
1314	 5.40563346970324E-02 
1315	 5.46555109388823E-02 
1316	 5.47458591230771E-02 
1317	 5.44151392008048E-02 
1318	 5.45492877539657E-02 
1319	 5.56140460832292E-02 
1320	 5.55510508680622E-02 
1321	 0.05480058653082 
1322	 5.41686592328842E-02 
1323	 0.053751095558734 
1324	 5.33129259975652E-02 
1325	 5.42721985600979E-02 
1326	 5.59885774737727E-02 
1327	 5.63842264781591E-02 
1328	 5.50123289737648E-02 
1329	 0.054283336772126 
1330	 5.47717614478794E-02 
1331	 5.52352474119029E-02 
1332	 5.56986511590575E-02 
1333	 5.56262202613281E-02 
1334	 5.44575387569365E-02 
1335	 5.42920840229556E-02 
1336	 5.65200297214502E-02 
1337	 5.69105543270869E-02 
1338	 5.54992439102682E-02 
1339	 5.53407649783054E-02 
1340	 0.056035858484639 
1341	 5.48567763086285E-02 
1342	 5.23197844977865E-02 
1343	 5.11450526691436E-02 
1344	 4.84704966465485E-02 
1345	 4.66373739819179E-02 
1346	 4.72899708370423E-02 
1347	 4.72316710647532E-02 
1348	 4.75906056644071E-02 
1349	 4.74730318008285E-02 
1350	 4.93086061076086E-02 
1351	 4.77537619928723E-02 
1352	 3.12703557535102E-02 
1353	 3.04543259789388E-02 
1354	 7.28087048796054E-02 
1355	 8.34419207268098E-02 
1356	 7.46034093523751E-02 
1357	 9.48957220915801E-02 
1358	 2.28227320652755E-02 
1359	-0.173641929270555 
1360	-8.86691571157519E-02 
1361	 8.62402591519826E-02 
1362	-9.82290979100784E-02 
1363	-0.191759462713446 
1364	 0.476093011556555 
1365	 0.918712965898897 
1366	 8.82624593611016E-02 
1367	-0.146829387215293 
1368	 8.90649080841845E-03 
1369	-8.96886238562721E-02 
1370	-0.115271092475674 
1371	 0.723058141795785 
1372	 1.30541600912781 
1373	 0.941958725668055 
1374	 0.706882340314313 
1375	 0.659910245328729 
1376	 0.68955991592961 
1377	 0.377762059897804 
1378	 0.195405433776827 
1379	 0.317970200907875 
1380	 0.351708103083017 
1381	 0.109333524447395 
1382	 0.120508531453867 
1383	 1.04743044475948 
1384	 1.23643121616163 
1385	 0.460586530324282 
1386	 0.30992588951113 
1387	-0.501760113544365 
1388	-0.706461852480634 
1389	-0.479662315251974 
1390	 0.765306583716025 
1391	 0.169392159380863 
1392	 0.599510935275466 
1393	-0.630632804164088 
1394	-0.504334826526558 
1395	-0.318901791315876 
1396	-0.100657771092116 
1397	 0.292978655554751 
1398	 1.11265200014826 
1399	-0.163935329780201 
1400	-0.199730148843309 
1401	 0.105315189321542 
1402	-0.261033304213032 
1403	-0.51136861213115 
1404	-0.357247205215673 
1405	-0.268665792184725 
1406	-0.724701265022028 
1407	-0.694570623309993 
1408	-0.110231371915901 
1409	 8.79484641431952E-02 
1410	-5.84493870178806E-02 
1411	-0.193414806659479 
1412	-0.288880339574069 
1413	-0.271858014053028 
1414	-0.399344892466443 
1415	-0.440176535690149 
1416	-0.310000652428851 
1417	-0.256198741069936 
1418	-0.399958875141646 
1419	-0.32120849800475 
1420	-6.17174617452573E-02 
1421	-0.020856948787072 
1422	-2.03961352608401E-02 
1423	-6.94956281936914E-03 
1424	-6.43234910695726E-02 
1425	-5.86287282174497E-02 
1426	-1.79711544012061E-02 
1427	 1.42195586691167E-02 
1428	 7.10644794974009E-02 
1429	 7.58008448775144E-02 
1430	 5.27888973623355E-02 
1431	 5.14951422332699E-02 
1432	 2.90963655259254E-02 
1433	 1.75246028080953E-02 
1434	 1.73995779250532E-02 
1435	 0.039127679089169 
1436	 7.23871865082831E-02 
1437	 0.120768121548642 
1438	 0.121526447396309 
1439	 7.39744523990456E-02 
1440	 3.55602033884136E-02 
1441	 9.33337217546136E-03 
1442	 1.50487932054847E-02 
1443	 3.63703810653707E-02 
1444	 3.57576311442928E-02 
1445	 3.66602561341915E-02 
1446	 3.29075512525856E-02 
1447	 2.21028336414428E-02 
1448	 0.04015631373921 
1449	 5.27526937839742E-02 
1450	 5.06568153036877E-02 
1451	 5.78763730702501E-02 
1452	 6.48449936420483E-02 
1453	 6.49437273013927E-02 
1454	 5.99252997320141E-02 
1455	 5.60360505783251E-02 
1456	 0.0577297959389 
1457	 5.50849087924035E-02 
1458	 5.04682952862861E-02 
1459	 5.14300863930868E-02 
1460	 5.25957354986615E-02 
1461	 4.54768472626947E-02 
1462	 4.51581578139553E-02 
1463	 5.50401023847199E-02 
1464	 6.02877613102459E-02 
1465	 6.52930730073021E-02 
1466	 6.42111633357551E-02 
1467	 0.058091225380876 
1468	 5.94607701721239E-02 
1469	 5.87752669134795E-02 
1470	 5.66386613967542E-02 
1471	 6.19664095202097E-02 
1472	 6.32964096424618E-02 
1473	 5.64472688318443E-02 
1474	 5.58466190961587E-02 
1475	 5.99516794277446E-02 
1476	 6.23372975681339E-02 
1477	 6.62846952648463E-02 
1478	 6.49995866573985E-02 
1479	 6.15387074870239E-02 
1480	 5.96925389374912E-02 
1481	 5.45151484902516E-02 
1482	 5.28308800139712E-02 
1483	 0.054948366998903 
1484	 5.51812024224179E-02 
1485	 0.054157727879898 
1486	 5.41987582022912E-02 
1487	 5.37741210823664E-02 
1488	 5.47697881795231E-02 
1489	 0.058806499158646 
1490	 5.85871725349574E-02 
1491	 5.53886369800336E-02 
1492	 5.58439377737815E-02 
1493	 5.69885732833273E-02 
1494	 5.66621259503041E-02 
1495	 5.68012437260562E-02 
1496	 5.77974607458589E-02 
1497	 5.85591893731446E-02 
1498	 5.82215113331514E-02 
1499	 5.82542300010384E-02 
1500	 5.87774235308342E-02 
1501	 5.84532267349724E-02 
1502	 5.81021929382425E-02 
1503	 5.86069805284051E-02 
1504	 5.89288990149162E-02 
1505	 5.87098569640494E-02 
1506	 5.81346184450338E-02 
1507	 5.81232178147319E-02 
1508	 5.88613166446391E-02 
1509	 5.90714738476862E-02 
1510	 5.90500019834001E-02 
1511	 5.88818796097805E-02 
1512	 5.81979314032094E-02 
1513	 5.80964175512378E-02 
1514	 5.79569224555599E-02 
1515	 5.74507425309892E-02 
1516	 5.80169195600567E-02 
1517	 5.84273548956112E-02 
1518	 5.83021381817251E-02 
1519	 5.85920756047959E-02 
1520	 5.84815670535953E-02 
1521	 5.79895888601619E-02 
1522	 5.76238892863772E-02 
1523	 5.76963966096121E-02 
1524	 5.83118548075351E-02 
1525	 5.85179608218862E-02 
1526	 5.83651669218058E-02 
1527	 5.86168234686331E-02 
1528	 5.81399915426943E-02 
1529	 5.69774615798795E-02 
1530	 5.66726991696457E-02 
1531	 5.73406247961017E-02 
1532	 5.81154983856357E-02 
1533	 5.82307488398788E-02 
1534	 5.83897990702474E-02 
1535	 5.87281225497848E-02 
1536	 0.058326344253499 
1537	 5.79978762031343E-02 
1538	 5.81418657643461E-02 
1539	 5.79431439394034E-02 
1540	 5.77276550017598E-02 
1541	 0.058145721736455 
1542	 5.85177845049837E-02 
1543	 5.83368660014329E-02 
1544	 5.81776780149904E-02 
1545	 0.05790128114952 
1546	 5.76185185960026E-02 
1547	 5.79670303377812E-02 
1548	 5.84974929324348E-02 
1549	 5.87097856008827E-02 
1550	 5.88531902506841E-02 
1551	 5.90171530044746E-02 
1552	 0.058685023775132 
1553	 5.82441841895419E-02 
1554	 5.85333912346161E-02 
1555	 5.85039729357823E-02 
1556	 0.057901678784798 
1557	 5.77365204475144E-02 
1558	 5.79699972750485E-02 
1559	 5.81680388011037E-02 
1560	 0.058089401217742 
1561	 5.81344043729898E-02 
1562	 5.83533856061291E-02 
1563	 0.058432485684437 
1564	 5.83783338689587E-02 
1565	 5.84161584188069E-02 
1566	 0.058210666778226 
1567	 5.77694478291467E-02 
1568	 5.82080015632281E-02 
1569	 5.87442882568233E-02 
1570	 5.80583107188836E-02 
1571	 5.75481082949799E-02 
1572	 5.80091981250951E-02 
1573	 5.85454635153521E-02 
1574	 5.88953690125987E-02 
1575	 0.058742514306629 
1576	 5.85561516661268E-02 
1577	 5.83392366296911E-02 
1578	 5.78051554232166E-02 
1579	 5.81980549187738E-02 
1580	 5.87683046337392E-02 
1581	 5.83153462074527E-02 
1582	 5.81568914686139E-02 
1583	 5.83725423931356E-02 
1584	 0.058033866868261 
1585	 5.74282972503616E-02 
1586	 5.71581860053729E-02 
1587	 5.73373451393517E-02 
1588	 5.71791477221495E-02 
1589	 5.72135605559796E-02 
1590	 5.80781860865564E-02 
1591	 5.84269058771113E-02 
1592	 5.78530206295263E-02 
1593	 5.76476180553219E-02 
1594	 5.80114718520179E-02 
1595	 5.79868525983962E-02 
1596	 0.058042884929646 
1597	 5.81089968674556E-02 
1598	 5.80180570325642E-02 
1599	 5.84067691782943E-02 
1600	 5.82843003293208E-02 
1601	 5.77135275744892E-02 
1602	 5.76915368335785E-02 
1603	 5.76248065043534E-02 
1604	 5.74489713486703E-02 
1605	 5.81037370726563E-02 
1606	 5.82502756676333E-02 
1607	 5.74010398735988E-02 
1608	 5.74645466269987E-02 
1609	 5.79179038041434E-02 
1610	 5.78611254532425E-02 
1611	 5.76790823389309E-02 
1612	 5.74576486646944E-02 
1613	 5.74618095152875E-02 
1614	 5.76866742691759E-02 
1615	 5.80655508121859E-02 
1616	 5.83743184793502E-02 
1617	 5.81138828698277E-02 
1618	 5.80051500943546E-02 
1619	 5.80976371801062E-02 
1620	 5.80250129336171E-02 
1621	 5.81754072772203E-02 
1622	 5.78868000602801E-02 
1623	 5.72496722250034E-02 
1624	 5.72902143373538E-02 
1625	 5.74461849881349E-02 
1626	 5.72566381063273E-02 
1627	 5.73210088925769E-02 
1628	 5.72934963665213E-02 
1629	 0.057282423179973 
1630	 5.74955894125456E-02 
1631	 5.69631326903551E-02 
1632	 5.65612792311462E-02 
1633	 5.69570258324658E-02 
1634	 5.70530277589632E-02 
1635	 5.73325009689711E-02 
1636	 5.80079782734624E-02 
1637	 5.82933768752292E-02 
1638	 5.80901064873397E-02 
1639	 5.75265228974169E-02 
1640	 0.057393334446304 
1641	 5.77957180665384E-02 
1642	 5.77883192858329E-02 
1643	 0.058197402584187 
1644	 0.058996473583959 
1645	 5.87063782153883E-02 
1646	 0.058293628322075 
1647	 5.81406800928341E-02 
1648	 5.76171231181338E-02 
1649	 5.76510758915367E-02 
1650	 5.80019896638764E-02 
1651	 5.77759415391487E-02 
1652	 5.78680834106713E-02 
1653	 5.82745778820233E-02 
1654	 5.80892076218998E-02 
1655	 5.75852216057388E-02 
1656	 5.76308949786757E-02 
1657	 5.78079621331035E-02 
1658	 0.057786543383216 
1659	 5.85223439368645E-02 
1660	 5.88472967630641E-02 
1661	 5.81133443964537E-02 
1662	 5.77141818362522E-02 
1663	 5.73760605422526E-02 
1664	 5.74290182471656E-02 
1665	 5.79760352224089E-02 
1666	 5.78944184389205E-02 
1667	 5.77854318136293E-02 
1668	 5.77066363496366E-02 
1669	 5.73831662692681E-02 
1670	 5.74048895698125E-02 
1671	 0.057298508137352 
1672	 5.74065223030704E-02 
1673	 5.85716653309938E-02 
1674	 0.059613728426133 
1675	 5.89721778228468E-02 
1676	 5.77152917599208E-02 
1677	 5.72280853431351E-02 
1678	 5.67616395341905E-02 
1679	 0.057287221560009 
1680	 5.86837161591618E-02 
1681	 5.78108094037852E-02 
1682	 5.66948981526307E-02 
1683	 5.76315340788415E-02 
1684	 5.79912383227841E-02 
1685	 5.77845784700942E-02 
1686	 5.78609409329705E-02 
1687	 5.72174041575607E-02 
1688	 0.056642949570503 
1689	 5.71060141897817E-02 
1690	 5.77598113808314E-02 
1691	 5.76285551602766E-02 
1692	 5.72423943111962E-02 
1693	 5.76435568513032E-02 
1694	 5.83811026207339E-02 
1695	 5.86696097665063E-02 
1696	 5.87049635475032E-02 
1697	 5.83248172900771E-02 
1698	 5.72027407684475E-02 
1699	 5.65267162644203E-02 
1700	 5.70860514258697E-02 
1701	 0.057285747673407 
1702	 5.74008146861059E-02 
1703	 5.78547546891882E-02 
1704	 5.69697662977836E-02 
1705	 5.66621406301708E-02 
1706	 5.79823713475687E-02 
1707	 0.058131693335036 
1708	 5.76969589011482E-02 
1709	 5.75075977882959E-02 
1710	 5.58687353031287E-02 
1711	 0.055160475009481 
1712	 5.69178470862611E-02 
1713	 5.80923339018524E-02 
1714	 5.85741831936473E-02 
1715	 5.85432734748132E-02 
1716	 5.82174586931884E-02 
1717	 0.058061758250416 
1718	 5.79255436502092E-02 
1719	 5.77076090693323E-02 
1720	 5.74788470332629E-02 
1721	 5.77027535045001E-02 
1722	 0.058293693343631 
1723	 5.90865657872015E-02 
1724	 5.84071444933522E-02 
1725	 5.67348215591856E-02 
1726	 5.77834149085374E-02 
1727	 5.86669697129003E-02 
1728	 5.78561149427825E-02 
1729	 0.05979498181506 
1730	 5.96497274688087E-02 
1731	 5.64749446101976E-02 
1732	 5.69351406631636E-02 
1733	 5.74974607336621E-02 
1734	 5.63250928446452E-02 
1735	 5.75232078379965E-02 
1736	 5.83912627985538E-02 
1737	 5.64951277351258E-02 
1738	 5.61831969437983E-02 
1739	 5.73725071593133E-02 
1740	 5.68888498494322E-02 
1741	 5.65278451633411E-02 
1742	 5.63091359751626E-02 
1743	 5.45355218409941E-02 
1744	 5.48224300230857E-02 
1745	 0.057545767208117 
1746	 5.89104013919253E-02 
1747	 5.95912211930484E-02 
1748	 5.82943485895139E-02 
1749	 5.78023990856758E-02 
1750	 5.80284854595565E-02 
1751	 5.84616933984996E-02 
1752	 5.93021173035922E-02 
1753	 5.94428185301644E-02 
1754	 5.94589245285249E-02 
1755	 5.91939089555669E-02 
1756	 5.82620679380316E-02 
1757	 5.93218618863592E-02 
1758	 5.88941986143144E-02 
1759	 5.80813646442774E-02 
1760	 5.65105159438888E-02 
1761	 5.42231147789951E-02 
1762	 5.57578779483767E-02 
1763	 5.90458541252677E-02 
1764	 5.98917127804211E-02 
1765	 5.94899217762426E-02 
1766	 5.90864656934349E-02 
1767	 5.86013119835464E-02 
1768	 5.71074409385429E-02 
1769	 5.73967541030787E-02 
1770	 5.82226701970033E-02 
1771	 5.73945044820386E-02 
1772	 5.86186641920199E-02 
1773	 5.79476036765898E-02 
1774	 0.0529530167739 
1775	 4.99652652361754E-02 
1776	 4.91367164735227E-02 
1777	 5.54947766863324E-02 
1778	 5.74703577473457E-02 
1779	 5.44480907851403E-02 
1780	 5.32328604066453E-02 
1781	 5.03047834943276E-02 
1782	 5.16738627182675E-02 
1783	 6.11152981297002E-02 
1784	 6.19999578678026E-02 
1785	 5.81839467295094E-02 
1786	 5.77588688932877E-02 
1787	 4.95810594223456E-02 
1788	 0.04927135124449 
1789	 6.20753795007303E-02 
1790	 5.69312156014229E-02 
1791	 6.13442310416767E-02 
1792	 6.23500790613509E-02 
1793	 4.81497036597374E-02 
1794	 4.96012586800442E-02 
1795	 4.72596850323731E-02 
1796	 4.50103615555506E-02 
1797	 6.58438985860395E-02 
1798	 5.62507583052173E-02 
1799	 4.12281508344984E-02 
1800	 5.02017371197721E-02 
1801	 4.47794280490332E-02 
1802	 0.073846178217943 
1803	 7.73351782296734E-02 
1804	-5.11967265687206E-03 
1805	-4.90753272098044E-02 
1806	-6.29821964726521E-02 
1807	-0.118917352413546 
1808	-0.228180981859582 
1809	-0.268223422339854 
1810	-0.192043471994962 
1811	-0.160473128731306 
1812	 5.05490456633218E-02 
1813	 0.146906071584002 
1814	 0.192447141846088 
1815	-7.15235600605171E-02 
1816	-0.632389671028142 
1817	-1.12535602447925 
1818	-0.364709058052962 
1819	-0.508245717868796 
1820	-0.155114985180486 
1821	 1.91954699184435 
1822	-0.412126205338878 
1823	 1.29915642746406 
1824	 1.33000644745562 
1825	-12.3414429277188 
1826	-3.31964806940707 
1827	 0.289228956738987 
1828	 1.1788326260015 
1829	 2.96068779012186 
1830	 1.94984138891966 
1831	-2.57702654004195 
1832	-1.94330157574683 
1833	 5.18723387218962 
1834	 3.02095980556842 
1835	 4.55762090353042 
1836	 3.51263265628181 
1837	 2.52031769591177 
1838	 3.00712872717214 
1839	 107.530840068586 
1840	-3.48317311639617 
1841	-2.61124823839263 
1842	-3.65808754723397 
1843	 4.48472584431223 
1844	-0.497100991105697 
1845	-0.434813686446772 
1846	 0.186456142295019 
1847	-0.439888774853724 
1848	 2.81781272831941 
1849	 2.02820333457098 
1850	 2.39707001185265 
1851	 2.09827816176671 
1852	 11.9840579014679 
1853	-23.1310376781742 
1854	-7.05355561844559 
1855	-24.4745988907197 
1856	-21.814450058728 
1857	-1.53101991416625 
1858	-0.276328681774002 
1859	-0.461981689262723 
1860	-0.543267441700586 
1861	-0.269280250291261 
1862	-1.07163445066567 
1863	 2.44557054340681 
1864	 0.827718198623437 
1865	 1.24525635376334 
1866	-4.25374388964763 
1867	-2.38795912698827 
1868	-1.02779185340828 
1869	-0.814717840751719 
1870	 3.30481380514965 
1871	-0.344404476106842 
1872	 0.290282927445296 
1873	 0.571545421812049 
1874	 2.30825791570758 
1875	 3.35641023163245 
1876	 2.5935149406025 
1877	 0.974686907604966 
1878	 0.872669614741284 
1879	 0.777664697589539 
1880	 0.640205863738971 
1881	 0.710007802529551 
1882	 0.377808452785822 
1883	-0.652068387555243 
1884	-2.91743689554729 
1885	-1.91744242468297 
1886	-0.124597573518065 
1887	 8.65563519308131E-02 
1888	 0.731582041088544 
1889	 1.14875889044237 
1890	 0.943062226596833 
1891	 1.41408490195447 
1892	-14.6950287485895 
1893	-1.75073026464359 
1894	-1.74889520796211 
1895	-4.62267102260979 
1896	 5.86824482787727 
1897	 1.30148249357497 
1898	 1.07497645127079 
1899	 15.8086968362891 
1900	-118.476459902149 
1901	-27.9357024255785 
1902	-8.42372192420427 
1903	-13.6084098089624 
1904	 4.31349247987646 
1905	-24.3842498123997 
1906	 1.30071860332094 
1907	-6.08876539625323E-02 
1908	 0.749939756089274 
1909	 0.836516315775341 
1910	 0.182943657940978 
1911	 0.030670526208627 
1912	 6.16971609355061E-02 
1913	 2.46468648921464E-02 
1914	 0.167722083284822 
1915	 3.85144971400627E-02 
1916	-1.59574747120195 
1917	 4.01294001818159 
1918	 6.09927636668155 
1919	 2.028832859006 
1920	 1.66481633873076 
1921	 61.8109847898543 
1922	 1.47291692590229 
1923	 0.692521617546256 
1924	 0.823066774155382 
1925	 0.81726829791669 
1926	 0.796052600248748 
1927	 0.606436183593006 
1928	 2.18969065222396 
1929	 5.2024954705157 
1930	 1.41036467295254 
1931	 1.22903404368071 
1932	-0.274487112389816 
1933	-0.655734589305925 
1934	-0.131445592797041 
1935	 1.17033742546572E-02 
1936	-0.118460979504738 
1937	 0.154686524237143 
1938	 0.41444741805241 
1939	 0.448838438612976 
1940	 0.429619758012728 
1941	 0.530101708385629 
1942	 0.240938233486153 
1943	-3.79901779792381E-02 
1944	-0.184801295567884 
1945	-6.15375945133297E-02 
1946	 0.12412167061187 
1947	 0.203682377646723 
1948	 0.433801833235385 
1949	 0.376309181126327 
1950	 0.178624837391263 
1951	 0.147442960442607 
1952	 0.12723556031325 
1953	 0.055146554918006 
1954	 5.26289325095162E-02 
1955	 0.150820833428983 
1956	 0.134336111920118 
1957	 0.116245106955456 
1958	 8.22441943763848E-02 
1959	 2.92300260363607E-02 
1960	 6.35339112334689E-02 
1961	 8.83242005318192E-02 
1962	 0.057427894426868 
1963	 5.93396217487581E-02 
1964	 4.98354094209346E-02 
1965	 2.25450595215435E-02 
1966	 0.025590788804646 
1967	 4.76098329446827E-02 
1968	 5.74086356810625E-02 
1969	 5.74554131294204E-02 
1970	 6.66126207096334E-02 
1971	 6.62845804449048E-02 
1972	 6.63960957687105E-02 
1973	 6.82211211438463E-02 
1974	 7.15190371495036E-02 
1975	 6.99829002075205E-02 
1976	 6.35033817237581E-02 
1977	 6.55504344188695E-02 
1978	 6.97445427676644E-02 
1979	 7.06761139112992E-02 
1980	 7.16371087230329E-02 
1981	 7.40576707611047E-02 
1982	 7.37452590439306E-02 
1983	 6.82588862597709E-02 
1984	 6.49026925064584E-02 
1985	 0.064825074021396 
1986	 6.42259966533207E-02 
1987	 6.47198701470666E-02 
1988	 6.63756321018236E-02 
1989	 6.92459812954908E-02 
1990	 7.05191414555098E-02 
1991	 7.01384453783588E-02 
1992	 6.97700726744992E-02 
1993	 6.80189552601054E-02 
1994	 6.77156027551569E-02 
1995	 6.73046937131917E-02 
1996	 6.83343233303349E-02 
1997	 6.90205744165598E-02 
1998	 6.72650206323381E-02 
1999	 6.61027137450624E-02 
2000	 6.38810772997538E-02 
2001	 5.95922614836095E-02 
2002	 6.71550917365485E-02 
2003	 7.13209705248074E-02 
2004	 7.36882072474653E-02 
2005	 8.36896333253962E-02 
2006	 8.51157709687529E-02 
2007	 8.57366801030865E-02 
2008	 0.080754889583346 
2009	 7.69236967695317E-02 
2010	 7.24563256106133E-02 
2011	 7.02677058720368E-02 
2012	 6.53096641414345E-02 
2013	 6.84941963239562E-02 
2014	 0.072804229261701 
2015	 6.97451185771862E-02 
2016	 6.73324345065649E-02 
2017	 6.76217587792497E-02 
2018	 6.38733259632603E-02 
2019	 5.54244647995506E-02 
2020	 5.23899599240327E-02 
2021	 5.21051047822571E-02 
2022	 5.33654643280362E-02 
2023	 0.059318662839405 
2024	 6.20162648512197E-02 
2025	 6.44046643319385E-02 
2026	 0.06463535285821 
2027	 0.063432375713641 
2028	 6.23178158875222E-02 
2029	 6.13151904377864E-02 
2030	 0.061855474299182 
2031	 6.37645897517734E-02 
2032	 6.60019648476684E-02 
2033	 6.97588200249943E-02 
2034	 7.21646489024561E-02 
2035	 7.11913810111267E-02 
2036	 7.00661184472159E-02 
2037	 6.70034962329383E-02 
2038	 6.52227043779959E-02 
2039	 6.46694577972493E-02 
2040	 0.06617337585432 
2041	 6.58630774618753E-02 
2042	 6.56999692586143E-02 
2043	 6.44843591153873E-02 
2044	 0.061480435454585 
2045	 0.059292390560564 
2046	 6.02433566178049E-02 
2047	 6.30208189828601E-02 
2048	 6.27720837266892E-02 
2049	 6.36960095935812E-02 
2050	 6.54834064160602E-02 
2051	 6.47182769388743E-02 
2052	 6.76601697858158E-02 
2053	 7.00763279374901E-02 
2054	 0.065343960297485 
2055	 6.14320690423426E-02 
2056	 5.90351996797903E-02 
2057	 5.54311521538443E-02 
2058	 5.47571069411329E-02 
2059	 5.72355518792356E-02 
2060	 5.82132783053637E-02 
2061	 5.99880204725716E-02 
2062	 0.061057360326617 
2063	 6.08506981133918E-02 
2064	 6.33936416732222E-02 
2065	 6.42277399573135E-02 
2066	 6.45308033007317E-02 
2067	 6.54603666807642E-02 
2068	 0.065379177907889 
2069	 6.46675102109826E-02 
2070	 6.59770275149723E-02 
2071	 6.77569906029968E-02 
2072	 6.57822228562293E-02 
2073	 6.53417181553417E-02 
2074	 6.56698104241575E-02 
2075	 6.42269672970685E-02 
2076	 6.22712148849538E-02 
2077	 6.16215702010881E-02 
2078	 0.058055972630316 
2079	 5.84454088507953E-02 
2080	 6.20416767095553E-02 
2081	 6.48406946433184E-02 
2082	 0.065859096582769 
2083	 6.62510253402389E-02 
2084	 6.33193039876565E-02 
2085	 6.09198578139699E-02 
2086	 6.25648840833376E-02 
2087	 6.50434515656422E-02 
2088	 6.70724744914987E-02 
2089	 6.77885509707622E-02 
2090	 6.60733581072821E-02 
2091	 6.48697936340858E-02 
2092	 6.44152999234221E-02 
2093	 6.50684183369526E-02 
2094	 6.39427397039033E-02 
2095	 6.14076202338824E-02 
2096	 6.07369630692625E-02 
2097	 5.98779529253339E-02 
2098	 6.06719321899157E-02 
2099	 6.41529707164276E-02 
2100	 0.066349202783178 
2101	 6.60875311298814E-02 
2102	 6.46255651585157E-02 
2103	 6.10123506658219E-02 
2104	 5.89093443034419E-02 
2105	 5.98830632066193E-02 
2106	 5.91886376099705E-02 
2107	 5.99547416700854E-02 
2108	 6.05056637047502E-02 
2109	 5.97232610361881E-02 
2110	 5.94488123599378E-02 
2111	 5.86264055200807E-02 
2112	 6.05736639054777E-02 
2113	 6.11335272565033E-02 
2114	 6.15064502836409E-02 
2115	 6.22129210495976E-02 
2116	 6.27723621586296E-02 
2117	 6.22916059406351E-02 
2118	 0.061105153545315 
2119	 6.14580483981684E-02 
2120	 6.18127259887134E-02 
2121	 6.28510621122451E-02 
2122	 6.43035890511655E-02 
2123	 6.54744135671716E-02 
2124	 6.43096347548414E-02 
2125	 6.22533754524732E-02 
2126	 6.06252703025195E-02 
2127	 5.90550528186836E-02 
2128	 5.80826133025252E-02 
2129	 5.78579607439016E-02 
2130	 5.77025670630072E-02 
2131	 5.90226954706013E-02 
2132	 6.00344682933809E-02 
2133	 6.02559420623318E-02 
2134	 6.08342341311925E-02 
2135	 6.19004305932274E-02 
2136	 6.21347990617593E-02 
2137	 6.04461118993909E-02 
2138	 6.18820187205705E-02 
2139	 0.066140523655849 
2140	 6.60174538319648E-02 
2141	 6.54268696332342E-02 
2142	 6.56003932717025E-02 
2143	 6.23805730345273E-02 
2144	 6.14733924455903E-02 
2145	 6.46159241860162E-02 
2146	 6.77911288692966E-02 
2147	 6.99543067095859E-02 
2148	 6.98909830858042E-02 
2149	 6.81850768846051E-02 
2150	 6.70293381155818E-02 
2151	 0.065302417628436 
2152	 6.13980419804724E-02 
2153	 6.00874074904749E-02 
2154	 5.85929724162672E-02 
2155	 5.69690107457795E-02 
2156	 5.71028179761712E-02 
2157	 5.78814117786339E-02 
2158	 6.08870463145395E-02 
2159	 6.15547592951539E-02 
2160	 6.14954644112965E-02 
2161	 0.061927961043278 
2162	 6.05387739025561E-02 
2163	 5.99534707611396E-02 
2164	 6.10168483909343E-02 
2165	 6.14579088550091E-02 
2166	 6.07123311566076E-02 
2167	 6.17169192346367E-02 
2168	 6.55151336331709E-02 
2169	 6.66367981274863E-02 
2170	 6.83233573086406E-02 
2171	 6.60708499810699E-02 
2172	 6.34355777121977E-02 
2173	 6.01335242276476E-02 
2174	 5.91287977271088E-02 
2175	 6.16889730318318E-02 
2176	 6.37933494041783E-02 
2177	 6.45456706498191E-02 
2178	 6.34969790584981E-02 
2179	 6.22629231443928E-02 
2180	 6.22202870913289E-02 
2181	 5.95620878362755E-02 
2182	 6.02802036795309E-02 
2183	 6.20094320411666E-02 
2184	 6.10995092244485E-02 
2185	 6.51448829278332E-02 
2186	 6.60756499000218E-02 
2187	 6.55794766322304E-02 
2188	 0.064311977533081 
2189	 0.06043756151022 
2190	 6.04590987537901E-02 
2191	 6.25373972442185E-02 
2192	 6.30158259038013E-02 
2193	 6.53532831938301E-02 
2194	 6.61983742446726E-02 
2195	 0.065315993191915 
2196	 6.40719392375359E-02 
2197	 6.25100147116803E-02 
2198	 6.08470919263132E-02 
2199	 5.54360051800692E-02 
2200	 5.56923643932305E-02 
2201	 0.058999172256554 
2202	 6.07176440271822E-02 
2203	 6.02908406430622E-02 
2204	 5.82276872938614E-02 
2205	 6.02259195394256E-02 
2206	 6.37778763357944E-02 
2207	 6.44491932260738E-02 
2208	 6.38014596646201E-02 
2209	 6.34848083080207E-02 
2210	 5.87543538856977E-02 
2211	 5.77677952394349E-02 
2212	 6.40997860580125E-02 
2213	 6.23894039051677E-02 
2214	 5.94269014396368E-02 
2215	 6.11365090323697E-02 
2216	 5.76364074362648E-02 
2217	 5.75330370811007E-02 
2218	 6.10615773088108E-02 
2219	 6.21136430331409E-02 
2220	 6.21041778601291E-02 
2221	 6.40756207627288E-02 
2222	 6.70469676149961E-02 
2223	 6.71825715405497E-02 
2224	 6.58567304564317E-02 
2225	 6.48559795793208E-02 
2226	 6.27694283763076E-02 
2227	 6.10449256712913E-02 
2228	 5.86648237970125E-02 
2229	 6.09913379251542E-02 
2230	 0.068228593282601 
2231	 6.83267196891804E-02 
2232	 0.066970261671644 
2233	 0.066153409337983 
2234	 6.07368292213684E-02 
2235	 5.54016308531998E-02 
2236	 0.05540885232117 
2237	 6.02926299231674E-02 
2238	 6.33766346379987E-02 
2239	 6.02465797064494E-02 
2240	 6.21078198263256E-02 
2241	 6.30667905675178E-02 
2242	 5.84527747084211E-02 
2243	 6.09654216289375E-02 
2244	 5.93596789610833E-02 
2245	 5.20539538133875E-02 
2246	 0.051018772201227 
2247	 5.28286100559678E-02 
2248	 5.63478834169024E-02 
2249	 6.03716298552332E-02 
2250	 6.35380420866718E-02 
2251	 6.55634203938362E-02 
2252	 0.061448037686076 
2253	 5.55427133088713E-02 
2254	 5.21470336787639E-02 
2255	 4.62133633762711E-02 
2256	 4.44800170453883E-02 
2257	 4.59360205202761E-02 
2258	 4.32105059244083E-02 
2259	 4.48468838608778E-02 
2260	 4.83962433861066E-02 
2261	 5.39889891403634E-02 
2262	 5.80624369542346E-02 
2263	 6.46325204784265E-02 
2264	 6.71376732202685E-02 
2265	 0.067652629059297 
2266	 6.66201632580311E-02 
2267	 6.44645844641283E-02 
2268	 6.34479519835835E-02 
2269	 6.00838662944277E-02 
2270	 5.69873552956068E-02 
2271	 5.13289225875019E-02 
2272	 5.06202509330079E-02 
2273	 5.24179603050242E-02 
2274	 5.33470753139397E-02 
2275	 6.18500318931975E-02 
2276	 6.57904547141774E-02 
2277	 6.45406157779982E-02 
2278	 6.29672181032044E-02 
2279	 5.68522927775652E-02 
2280	 5.70820506769283E-02 
2281	 0.058473386199181 
2282	 6.44721428241462E-02 
2283	 7.16440662508593E-02 
2284	 7.48641244227009E-02 
2285	 7.93561073473287E-02 
2286	 0.078290792672917 
2287	 7.76627297822485E-02 
2288	 7.76353830200292E-02 
2289	 7.00060186139094E-02 
2290	 7.02319553104716E-02 
2291	 7.63691084021564E-02 
2292	 8.12661547512535E-02 
2293	 8.76235567923795E-02 
2294	 9.57431259319364E-02 
2295	 0.104813842046645 
2296	 0.107585350700709 
2297	 0.105797704880891 
2298	 0.101244993744892 
2299	 9.14846853345528E-02 
2300	 8.30095048304125E-02 
2301	 0.080197841318863 
2302	 7.47218619349222E-02 
2303	 5.92462251911684E-02 
2304	 5.31917227587049E-02 
2305	 5.26548824791541E-02 
2306	 5.34666689067876E-02 
2307	 7.49227586108542E-02 
2308	 8.53251815312266E-02 
2309	 7.55151244301818E-02 
2310	 6.81614338990458E-02 
2311	 6.54808229334027E-02 
2312	 7.00913036646783E-02 
2313	 0.080563579911231 
2314	 0.09266048131063 
2315	 9.26200137133876E-02 
2316	 8.44918159260098E-02 
2317	 7.31881922608833E-02 
2318	 6.54784850628707E-02 
2319	 5.91968879060211E-02 
2320	 4.69092619424661E-02 
2321	 4.99874604172618E-02 
2322	 0.056633729206817 
2323	 5.95054351818021E-02 
2324	 6.17139029579223E-02 
2325	 0.069659901081903 
2326	 8.14351831084878E-02 
2327	 7.55885010416757E-02 
2328	 7.34796178422582E-02 
2329	 7.73165363813901E-02 
2330	 7.32526510064604E-02 
2331	 7.28977670149991E-02 
2332	 7.60929159333605E-02 
2333	 8.21939569415781E-02 
2334	 0.089000155210002 
2335	 0.10416606162993 
2336	 0.11832894759196 
2337	 0.106800623529979 
2338	 9.06328832750637E-02 
2339	 8.52216412758995E-02 
2340	 0.084402999478962 
2341	 8.53325825164315E-02 
2342	 8.53556418991942E-02 
2343	 7.44055103740157E-02 
2344	 7.24384263825597E-02 
2345	 9.29866553193666E-02 
2346	 0.102698293280841 
2347	 0.111999715112017 
2348	 0.113047517664674 
2349	 0.086197997839848 
2350	 5.80858595332293E-02 
2351	 3.73747901559316E-02 
2352	 1.72450580037978E-02 
2353	 1.13753223260986E-02 
2354	 1.74698009838902E-02 
2355	 0.019755469008435 
2356	 2.45330038310619E-02 
2357	 4.95725873519352E-02 
2358	 0.069245297494545 
2359	 5.93606447416058E-02 
2360	 3.38362033135815E-02 
2361	 8.22187961995172E-03 
2362	 1.89999178920541E-02 
2363	 4.26350910894012E-02 
2364	 6.56040833835449E-02 
2365	 8.51982880431581E-02 
2366	 5.65900435917009E-02 
2367	 4.26892660672691E-02 
2368	 5.93818683262886E-02 
2369	 6.71558763331522E-02 
2370	 8.52479765159494E-02 
2371	 6.73833501610875E-02 
2372	 2.79962874622557E-02 
2373	 4.28412477278161E-02 
2374	 6.65184761660926E-02 
2375	 3.65852835761298E-02 
2376	 3.20322561371441E-02 
2377	 9.01491523406907E-02 
2378	 5.63296473284175E-02 
2379	-3.03313935272515E-03 
2380	 8.14464667272958E-02 
2381	 0.106409639392491 
2382	 0.140730946744992 
2383	 0.322235215803894 
2384	 0.325803360388756 
2385	 0.194418686224621 
2386	 0.13683673335557 
2387	 5.37140678263354E-02 
2388	 9.95343650243987E-02 
2389	 0.148200513286871 
2390	 0.107358953077668 
2391	 0.121116270515035 
2392	 0.15255604391984 
2393	 0.174460928066822 
2394	 0.170778026152188 
2395	 0.128712632356097 
2396	 9.86268419819753E-02 
2397	 5.82591520913015E-02 
2398	 0.016002143518096 
2399	 6.76701262813025E-02 
2400	 0.11628544957644 
2401	 6.32814402845566E-02 
2402	 2.35223380544503E-02 
2403	 0.054020586536203 
2404	 7.94834508529627E-02 
2405	 7.19882537678168E-02 
2406	 9.41824436712543E-02 
2407	 7.44873081542625E-02 
2408	-5.49507124397882E-02 
2409	 5.60080657502499E-02 
2410	 0.206758058722046 
2411	 0.147212546371279 
2412	 0.301210249763014 
2413	 0.349111988330352 
2414	 0.28823288144316 
2415	 0.433882022541092 
2416	 0.471782941581977 
2417	 0.255695375790263 
2418	 0.288632588927909 
2419	 0.741248565260162 
2420	 1.30989229606564E-02 
2421	-0.296619364638747 
2422	-0.13534700563678 
2423	-0.26263672823843 
2424	-0.777713203283521 
2425	-0.256280508076166 
2426	-2.36044695279784E-02 
2427	-0.480556470557228 
2428	-2.91257802857622E-02 
2429	 0.424538359744842 
2430	 0.680528376379422 
2431	 0.961335154797137 
2432	 1.14426924531048 
2433	 2.01956098355688 
2434	 3.09349635931289 
2435	 0.747578704433266 
2436	 0.427462239671027 
2437	 0.764676337021317 
2438	 0.41417772018751 
2439	 0.156437803093222 
2440	 0.78096533517333 
2441	 7.229171402082 
2442	-5.19320934509379 
2443	-2.22657278296012 
2444	-3.62222256008875 
2445	-11.8564721127353 
2446	 23.5257231405011 
2447	 6.90722528363228 
2448	 3.64416805049258 
2449	 1.05403975465392 
2450	 0.735392491375766 
2451	 3.39845405340272 
2452	 1.43838289951571 
2453	 1.03057912520509 
2454	-0.12560813919478 
2455	 0.637806231506785 
2456	 1.12826150873084 
2457	 0.246986119559597 
2458	 0.25867389533147 
2459	 0.336620254514799 
2460	 0.359086231361134 
2461	-3.22489151090338 
2462	-1.98705204479671 
2463	-0.794704006462724 
2464	 1.04451644659342 
2465	 0.665404670588879 
2466	 1.12080847282058 
2467	 2.84873716929437 
2468	-4.74486560469589 
2469	-3.95050569815379 
2470	 3.67794007878638 
2471	 1.70167007599686 
2472	 1.34731839003241 
2473	 0.773119644957926 
2474	 8.85616322642846E-03 
2475	-0.50024938007927 
2476	 0.244177569468056 
2477	-1.15056763195475 
2478	-0.560123127874479 
2479	-0.373632237741308 
2480	-0.164771938566535 
2481	-0.648247136433534 
2482	-0.770127891504613 
2483	 1.01354533063623 
2484	-1.97948437301726 
2485	-1.22552312374217 
2486	-2.02750364568442 
2487	 4.28499270210059 
2488	 1.44795347722097 
2489	 0.383360961411903 
2490	 0.331411588374558 
2491	 0.80859938834378 
2492	 6.20585526682102E-02 
2493	 9.2760390620918 
2494	-2.84411985322651 
2495	 0.734115513710221 
2496	-8.22186781234721 
2497	 221.276349208799 
2498	-1.61737059709584 
2499	-0.608686970446092 
2500	 0.229145829356928 
