Wavelength	rt0713east_far200005.asd
350	 9.64321860780073E-02 
351	 9.49918459070665E-02 
352	 9.52933263253714E-02 
353	 9.53000921274422E-02 
354	 0.093920908158293 
355	 9.37059618600622E-02 
356	 9.42172671643787E-02 
357	 9.45276287332461E-02 
358	 9.40416707259573E-02 
359	 0.09444626969053 
360	 9.42827521775664E-02 
361	 9.35921158288951E-02 
362	 9.34566974350617E-02 
363	 9.39290638482972E-02 
364	 9.37856652024787E-02 
365	 9.29166282950855E-02 
366	 9.30827091110763E-02 
367	 9.31037459458105E-02 
368	 9.31249443936982E-02 
369	 9.34555669726269E-02 
370	 0.093827798321807 
371	 9.37672514551112E-02 
372	 9.34914528170109E-02 
373	 9.35660566756427E-02 
374	 9.36200371828804E-02 
375	 9.35756870903875E-02 
376	 9.35213070727068E-02 
377	 9.37200957901397E-02 
378	 9.41222447122529E-02 
379	 9.40052843406639E-02 
380	 9.31236116830215E-02 
381	 9.30107100140606E-02 
382	 9.38857107920854E-02 
383	 9.45371303753303E-02 
384	 0.093580229653704 
385	 9.35595538376512E-02 
386	 9.42793070078236E-02 
387	 9.48953147031432E-02 
388	 9.42522504597579E-02 
389	 0.094440405572621 
390	 9.47620793645753E-02 
391	 9.45947233273438E-02 
392	 9.49220393428914E-02 
393	 9.49635293812984E-02 
394	 9.48912051063957E-02 
395	 9.50559846548082E-02 
396	 9.46821385438255E-02 
397	 9.48089165913291E-02 
398	 9.53062178280694E-02 
399	 9.50618191025728E-02 
400	 9.51624430393014E-02 
401	 9.52285318562421E-02 
402	 9.50105897157783E-02 
403	 9.50070709571951E-02 
404	 9.54469939379953E-02 
405	 9.57679964592883E-02 
406	 9.53993675611324E-02 
407	 9.55702069528955E-02 
408	 9.57707336863748E-02 
409	 9.58407444031447E-02 
410	 9.60528128205412E-02 
411	 9.60675854688066E-02 
412	 9.59487715723693E-02 
413	 0.095906548974549 
414	 9.63547974057731E-02 
415	 9.66783078009448E-02 
416	 9.67662804504787E-02 
417	 9.67709945627771E-02 
418	 0.097002211396392 
419	 9.71958897020375E-02 
420	 9.73016012924636E-02 
421	 9.75377057869376E-02 
422	 9.78438900106024E-02 
423	 9.79878859172188E-02 
424	 9.79691813650145E-02 
425	 9.85626997542342E-02 
426	 0.098892229089075 
427	 9.90341115438031E-02 
428	 9.94466231708481E-02 
429	 9.96881073240206E-02 
430	 9.99512857885517E-02 
431	 0.100265992298508 
432	 0.100411948430033 
433	 0.10076042048879 
434	 0.101185075067045 
435	 0.101517358837728 
436	 0.101797371687155 
437	 0.102174419745812 
438	 0.102544684979387 
439	 0.102714648962238 
440	 0.103033834524907 
441	 0.103400988231836 
442	 0.103732319720356 
443	 0.104046098940101 
444	 0.104358363733475 
445	 0.104688330122787 
446	 0.105020890231998 
447	 0.105198037363494 
448	 0.105503067602032 
449	 0.105872577202209 
450	 0.106019347375847 
451	 0.106323737329872 
452	 0.106644357656318 
453	 0.106859935541709 
454	 0.107025957842821 
455	 0.107390998775512 
456	 0.107699400802975 
457	 0.10768376117996 
458	 0.108105085809735 
459	 0.108341054171926 
460	 0.108321786198284 
461	 0.108582321155397 
462	 0.108922763099052 
463	 0.109119875577066 
464	 0.109124213404316 
465	 0.109376069647342 
466	 0.109655016601732 
467	 0.109853099308751 
468	 0.109951337465253 
469	 0.110183062730595 
470	 0.110419161057686 
471	 0.11058917939166 
472	 0.110747055289234 
473	 0.110883097503633 
474	 0.111129112609569 
475	 0.111536248070779 
476	 0.111760839687321 
477	 0.111967069037385 
478	 0.112229515270275 
479	 0.112546930022129 
480	 0.112846977585102 
481	 0.113043021749001 
482	 0.1132009850947 
483	 0.113711886222648 
484	 0.114078887723368 
485	 0.114326381142969 
486	 0.114651456282531 
487	 0.115019654142544 
488	 0.11539916530977 
489	 0.115777165539952 
490	 0.116157346615025 
491	 0.116358136361727 
492	 0.116679546857254 
493	 0.117246727026185 
494	 0.117438597561213 
495	 0.117805793936208 
496	 0.118331852357557 
497	 0.11872233040935 
498	 0.118943236975417 
499	 0.119355839063606 
500	 0.119977551529074 
501	 0.12023926425139 
502	 0.12059125059888 
503	 0.121038609344089 
504	 0.121472826001693 
505	 0.121841989395628 
506	 0.12238943424472 
507	 0.123055207015726 
508	 0.123545831338604 
509	 0.123918351115597 
510	 0.124344091424244 
511	 0.124916593979346 
512	 0.125536282990233 
513	 0.126005555813199 
514	 0.126406596877749 
515	 0.126945814246403 
516	 0.127703415301613 
517	 0.128257330053597 
518	 0.128580623709348 
519	 0.129177502677226 
520	 0.12972994248794 
521	 0.130263742981762 
522	 0.13084150062914 
523	 0.131373542699514 
524	 0.131860432461132 
525	 0.132368305791729 
526	 0.132995656813884 
527	 0.133614430411084 
528	 0.134207920207127 
529	 0.134797937532638 
530	 0.135461066084469 
531	 0.136055486759257 
532	 0.136631003008322 
533	 0.137268105903032 
534	 0.137764740604541 
535	 0.138293924639162 
536	 0.138938338015928 
537	 0.139646869419833 
538	 0.140122747834591 
539	 0.140624404983392 
540	 0.14135886907112 
541	 0.141890489571926 
542	 0.142466345521291 
543	 0.143097843607155 
544	 0.143660352553918 
545	 0.144225793907866 
546	 0.144882216139244 
547	 0.145604573728577 
548	 0.146147464779383 
549	 0.146707823530429 
550	 0.147288904646823 
551	 0.147851079441855 
552	 0.148499388895266 
553	 0.149185924430288 
554	 0.149808153087968 
555	 0.150218022134677 
556	 0.150832799280884 
557	 0.151467669598147 
558	 0.151935477489394 
559	 0.152592941438973 
560	 0.153074970873537 
561	 0.153437105364152 
562	 0.153969746179452 
563	 0.154408830566248 
564	 0.154837944749403 
565	 0.155261631697385 
566	 0.15542600137032 
567	 0.155744430104049 
568	 0.156122756991342 
569	 0.156364037949701 
570	 0.156894661611992 
571	 0.157183635981677 
572	 0.157240025277906 
573	 0.157687833100248 
574	 0.157926634343906 
575	 0.158088221448758 
576	 0.158376919280279 
577	 0.158693119180751 
578	 0.15891380538717 
579	 0.1591006242619 
580	 0.159406415785969 
581	 0.159633466573194 
582	 0.159838393265516 
583	 0.159976307948395 
584	 0.159736944138863 
585	 0.159520161019103 
586	 0.15928233734532 
587	 0.158830460812699 
588	 0.158108247641407 
589	 0.157784030089132 
590	 0.157933840432396 
591	 0.157937746837838 
592	 0.157945022915303 
593	 0.15779032223488 
594	 0.157436813361071 
595	 0.157375003353011 
596	 0.157309907256547 
597	 0.157181456513881 
598	 0.157045113791435 
599	 0.156707931649222 
600	 0.156438943707359 
601	 0.156387304534177 
602	 0.156419890944494 
603	 0.156301640659222 
604	 0.156131681889359 
605	 0.156086292841357 
606	 0.156065044245619 
607	 0.15613037453223 
608	 0.156232204453957 
609	 0.156204837905326 
610	 0.156119049101881 
611	 0.15615642951084 
612	 0.156359822805028 
613	 0.156292895829243 
614	 0.156311224352957 
615	 0.156384540015169 
616	 0.156309377926697 
617	 0.156419349533793 
618	 0.156521700096573 
619	 0.156507587978313 
620	 0.156487888277682 
621	 0.156502959877358 
622	 0.156488723682567 
623	 0.156401439214273 
624	 0.156508661008114 
625	 0.156434238792351 
626	 0.156205944929307 
627	 0.156237322991188 
628	 0.156180423603325 
629	 0.156241672634232 
630	 0.156518778755569 
631	 0.156569162167067 
632	 0.156538811299589 
633	 0.156551666202471 
634	 0.156685429934031 
635	 0.15666666541718 
636	 0.156706197668109 
637	 0.156867301294041 
638	 0.156943172267593 
639	 0.156922215927595 
640	 0.156823330133841 
641	 0.156709709745273 
642	 0.156757587801536 
643	 0.156651693078314 
644	 0.156242284927288 
645	 0.155561950102915 
646	 0.155177473704902 
647	 0.15502212230354 
648	 0.154985142828123 
649	 0.155237051481516 
650	 0.155104881430865 
651	 0.154737645257127 
652	 0.154553669983663 
653	 0.154293090771074 
654	 0.15394189117894 
655	 0.153523473336929 
656	 0.153149223885637 
657	 0.152872309984015 
658	 0.15264217991621 
659	 0.152395526850927 
660	 0.152098658202463 
661	 0.151921661403439 
662	 0.151845874716055 
663	 0.151717785650902 
664	 0.151297951876319 
665	 0.150997559651962 
666	 0.150975042294 
667	 0.1508023976454 
668	 0.150615409528021 
669	 0.150531874314901 
670	 0.150610206513565 
671	 0.150613430372864 
672	 0.150546541789904 
673	 0.150489296931117 
674	 0.150569972336174 
675	 0.150708473175323 
676	 0.150689047209014 
677	 0.150500269341583 
678	 0.150704344203573 
679	 0.150925072490831 
680	 0.151126794447081 
681	 0.151385779456636 
682	 0.151465674351028 
683	 0.151442197114064 
684	 0.15135568561492 
685	 0.151146779662946 
686	 0.150803655599312 
687	 0.150614381067899 
688	 0.150774869182561 
689	 0.150952945884117 
690	 0.150777584942071 
691	 0.150221160680033 
692	 0.149508931183356 
693	 0.149108486111676 
694	 0.14924665209854 
695	 0.149699081844483 
696	 0.149813080836892 
697	 0.149194062526845 
698	 0.14822362618441 
699	 0.147558177678902 
700	 0.147273536416277 
701	 0.146951822009233 
702	 0.14653465592865 
703	 0.146232347424109 
704	 0.145556738798413 
705	 0.144890015461318 
706	 0.144427238481591 
707	 0.1435992470672 
708	 0.14289757159659 
709	 0.142197557087742 
710	 0.141208844940957 
711	 0.140058684759578 
712	 0.138807953200541 
713	 0.137337897780435 
714	 0.135292271549518 
715	 0.132813380821431 
716	 0.129967903057229 
717	 0.127330447160818 
718	 0.125630702630727 
719	 0.124991166920578 
720	 0.124630174858298 
721	 0.123659739053751 
722	 0.12173002411243 
723	 0.119379035750743 
724	 0.117418145544141 
725	 0.116026551145036 
726	 0.114474751936501 
727	 0.112824101799903 
728	 0.111152848999007 
729	 0.108841466603549 
730	 0.107073867714778 
731	 0.106097598537009 
732	 0.105409134355458 
733	 0.10418786328788 
734	 0.102861043931169 
735	 0.101716611129526 
736	 0.100776235285803 
737	 0.10059180446765 
738	 0.100555438872306 
739	 0.100183027844706 
740	 0.100188136555373 
741	 0.100244614331427 
742	 0.100228268382546 
743	 0.100144025897301 
744	 0.100111614678366 
745	 0.100092078318011 
746	 0.100057583541635 
747	 0.100017634889064 
748	 0.100016315836404 
749	 9.99699772870547E-02 
750	 9.98469039863372E-02 
751	 9.99085454836091E-02 
752	 9.98131198705778E-02 
753	 9.96164533861925E-02 
754	 9.95710202249714E-02 
755	 9.95541789189416E-02 
756	 9.95564925237488E-02 
757	 9.94099733062691E-02 
758	 9.84791052858343E-02 
759	 9.72313632299363E-02 
760	 9.62263828663762E-02 
761	 9.62446344898272E-02 
762	 9.65207448747691E-02 
763	 9.71709942270065E-02 
764	 9.79659363302773E-02 
765	 9.86809322980929E-02 
766	 9.93966625772643E-02 
767	 9.97462781992621E-02 
768	 9.98544084447281E-02 
769	 0.100277018133245 
770	 0.100492306990235 
771	 0.100701496834985 
772	 0.101029523038529 
773	 0.10096514130084 
774	 0.101197661479227 
775	 0.101500544313511 
776	 0.101400163546749 
777	 0.101533340378964 
778	 0.101849236702856 
779	 0.102209627029773 
780	 0.102447592409755 
781	 0.102589122691187 
782	 0.10281371627254 
783	 0.103157193395477 
784	 0.103263724081301 
785	 0.103398352330603 
786	 0.1035208291367 
787	 0.103551442335959 
788	 0.103776209043606 
789	 0.104143331478068 
790	 0.104586587585262 
791	 0.105057704866042 
792	 0.105675744548652 
793	 0.106087207088886 
794	 0.10618313630195 
795	 0.106317197991623 
796	 0.106554249333382 
797	 0.106883568868721 
798	 0.107252303254605 
799	 0.107598207368449 
800	 0.107583792814612 
801	 0.107564076738608 
802	 0.108141669402893 
803	 0.108568953627575 
804	 0.108868553052613 
805	 0.109092151451296 
806	 0.109233731243779 
807	 0.108943889004508 
808	 0.108404632348556 
809	 0.107852208182157 
810	 0.107360194547493 
811	 0.10670393858331 
812	 0.105615492140648 
813	 0.104130959252925 
814	 0.10408417724665 
815	 0.103810625608731 
816	 0.103034295417249 
817	 0.102797510266884 
818	 0.102639795350793 
819	 0.102704115376316 
820	 0.10263451584151 
821	 0.10135418457484 
822	 0.100088335246386 
823	 9.92841614216824E-02 
824	 9.86985688117329E-02 
825	 9.71591071699488E-02 
826	 9.53892219172408E-02 
827	 0.093946880132863 
828	 0.093172317595927 
829	 9.16746145542218E-02 
830	 9.01152775179897E-02 
831	 8.90867888334714E-02 
832	 0.08888950469037 
833	 8.81798715563018E-02 
834	 0.08758635572676 
835	 8.73412870086264E-02 
836	 8.68900052980402E-02 
837	 8.67039626950675E-02 
838	 0.086809075767429 
839	 8.69164109941754E-02 
840	 0.086114573537905 
841	 0.085954687890141 
842	 8.62008096007152E-02 
843	 0.086095738919185 
844	 8.59176500246933E-02 
845	 8.54878183914104E-02 
846	 8.50760836941449E-02 
847	 8.51518093791208E-02 
848	 8.50656975390487E-02 
849	 8.46945655864267E-02 
850	 8.42064521316504E-02 
851	 8.40239391762432E-02 
852	 0.083935230309537 
853	 8.37594062814706E-02 
854	 8.34446355172875E-02 
855	 8.31765160372317E-02 
856	 8.31630057295675E-02 
857	 0.083068777527378 
858	 8.26988706095023E-02 
859	 8.29594507139576E-02 
860	 8.27918681797617E-02 
861	 0.082244781081807 
862	 8.19333787687895E-02 
863	 8.20176744764135E-02 
864	 8.20502391787754E-02 
865	 8.18084642139761E-02 
866	 8.14090194605191E-02 
867	 8.16501971748101E-02 
868	 8.13616496871336E-02 
869	 0.080486635715487 
870	 8.06703759406787E-02 
871	 8.08420124451124E-02 
872	 0.080506373772272 
873	 7.97355386445568E-02 
874	 7.95677702632911E-02 
875	 7.92997449256534E-02 
876	 7.90757212694223E-02 
877	 7.90314519943751E-02 
878	 7.82813394644865E-02 
879	 7.81008981179811E-02 
880	 7.81741451792136E-02 
881	 7.76334489809644E-02 
882	 7.73277150339979E-02 
883	 7.69004837527721E-02 
884	 7.65119313849788E-02 
885	 7.66002295599085E-02 
886	 7.61538907952559E-02 
887	 7.58460864396371E-02 
888	 7.57743492897629E-02 
889	 7.52004335932371E-02 
890	 7.41492727117773E-02 
891	 7.35664211662197E-02 
892	 7.37884976203029E-02 
893	 7.36085474442304E-02 
894	 7.28140531641615E-02 
895	 7.16593075623604E-02 
896	 7.05858828367082E-02 
897	 6.97655555244552E-02 
898	 6.97165016806821E-02 
899	 6.99222913002137E-02 
900	 6.97148087131205E-02 
901	 6.93245973662022E-02 
902	 6.97822694630422E-02 
903	 6.99199110003489E-02 
904	 6.84326060720323E-02 
905	 6.73509569616616E-02 
906	 6.84219185739029E-02 
907	 6.97192936118635E-02 
908	 6.74380847171764E-02 
909	 6.70539402041312E-02 
910	 6.65878287986206E-02 
911	 6.62106806242359E-02 
912	 6.79798127007719E-02 
913	 6.67585667684215E-02 
914	 6.47001513988796E-02 
915	 6.39541116609798E-02 
916	 6.49816712812794E-02 
917	 0.064831677594339 
918	 6.47383763997395E-02 
919	 6.48726012355397E-02 
920	 6.33875162066689E-02 
921	 6.32804347921488E-02 
922	 6.31527250206825E-02 
923	 6.18678863465368E-02 
924	 6.06710516477704E-02 
925	 6.09574416659944E-02 
926	 6.16822922872008E-02 
927	 6.09266498398233E-02 
928	 5.71023162777492E-02 
929	 5.60956647019098E-02 
930	 0.057051061427923 
931	 5.51506000735887E-02 
932	 5.59282792126726E-02 
933	 5.50040674984118E-02 
934	 5.51801591768034E-02 
935	 6.01413842449268E-02 
936	 6.19407782041432E-02 
937	 5.54945237507473E-02 
938	 5.11878485484028E-02 
939	 0.0559599039788 
940	 5.00831521922051E-02 
941	 4.08637471028929E-02 
942	 3.93424910904474E-02 
943	 5.23769584784366E-02 
944	 5.11262829696096E-02 
945	 5.00503606088253E-02 
946	 0.050393369616173 
947	 4.66244350985537E-02 
948	 5.40868090954228E-02 
949	 5.16287340149425E-02 
950	 4.60142647773631E-02 
951	 5.54448035121264E-02 
952	 4.96670842909494E-02 
953	 4.85786960184569E-02 
954	 5.14511796679181E-02 
955	 4.55098279953976E-02 
956	 5.15322180955827E-02 
957	 5.19707027419793E-02 
958	 4.66533032229096E-02 
959	 4.79577376156195E-02 
960	 5.54180907589853E-02 
961	 5.41148126896184E-02 
962	 4.83109686829981E-02 
963	 0.051767152260525 
964	 4.73995477080324E-02 
965	 4.94473894672484E-02 
966	 5.56053372857728E-02 
967	 5.35010814935372E-02 
968	 5.58379819680624E-02 
969	 0.054381816077864 
970	 5.10571529314477E-02 
971	 0.055636951260184 
972	 0.056742238297376 
973	 5.46641850065646E-02 
974	 5.32628021547058E-02 
975	 5.68606246900437E-02 
976	 5.54621866537035E-02 
977	 5.27118761869364E-02 
978	 5.23567899685188E-02 
979	 0.055422867279345 
980	 5.58078733723997E-02 
981	 5.53412354874137E-02 
982	 5.52365498948142E-02 
983	 5.55258383478546E-02 
984	 5.70486739185311E-02 
985	 0.056811200516079 
986	 5.48407524409393E-02 
987	 5.38274235905476E-02 
988	 5.53882765623588E-02 
989	 5.81356495070586E-02 
990	 5.96291612965269E-02 
991	 5.77043653534806E-02 
992	 5.37983508948555E-02 
993	 5.57575456166425E-02 
994	 0.05966322969528 
995	 5.58173921303928E-02 
996	 5.31841524341234E-02 
997	 0.057098122394656 
998	 6.03015219964266E-02 
999	 0.053305110779659 
1000	 5.68909261605915E-02 
1001	 0.052557400911193 
1002	 5.21393831121835E-02 
1003	 5.19723675460016E-02 
1004	 5.17964883470297E-02 
1005	 5.18542357416486E-02 
1006	 5.21660407113865E-02 
1007	 0.052075127560819 
1008	 5.21191325802607E-02 
1009	 0.052140387309402 
1010	 5.17043623173053E-02 
1011	 5.10956958684094E-02 
1012	 5.07490916385424E-02 
1013	 5.03292870017767E-02 
1014	 5.01129591138327E-02 
1015	 0.050183305502073 
1016	 5.00644770505857E-02 
1017	 4.98430106224343E-02 
1018	 4.98040150405743E-02 
1019	 4.96379387240509E-02 
1020	 4.97646521803154E-02 
1021	 5.02366175831225E-02 
1022	 5.06820854771597E-02 
1023	 5.07973123921193E-02 
1024	 5.12560026780576E-02 
1025	 5.15841955418045E-02 
1026	 5.21771823570413E-02 
1027	 5.25389091374873E-02 
1028	 5.30498626995443E-02 
1029	 0.053227541161694 
1030	 5.29165353715955E-02 
1031	 5.30621938229141E-02 
1032	 5.36356414662022E-02 
1033	 5.36828138704912E-02 
1034	 5.35840360390116E-02 
1035	 5.35386823516417E-02 
1036	 5.30165297396646E-02 
1037	 5.27686721388202E-02 
1038	 0.052627586313518 
1039	 5.28351274053923E-02 
1040	 5.28060582660536E-02 
1041	 5.29516153033697E-02 
1042	 5.30858191921909E-02 
1043	 0.053327869287682 
1044	 0.053486364191815 
1045	 5.36125735784751E-02 
1046	 5.38100294093263E-02 
1047	 5.40113868436063E-02 
1048	 5.42262733174031E-02 
1049	 5.45616392995008E-02 
1050	 5.47841912757964E-02 
1051	 5.52808929238311E-02 
1052	 5.52033311018806E-02 
1053	 5.42517557299243E-02 
1054	 5.40961351392054E-02 
1055	 5.40653045150992E-02 
1056	 5.39889350641613E-02 
1057	 5.41198018028853E-02 
1058	 5.51208932506591E-02 
1059	 5.50650515139404E-02 
1060	 5.41586929129839E-02 
1061	 5.41988243170994E-02 
1062	 5.44984870936997E-02 
1063	 5.45290555395329E-02 
1064	 5.49625371332613E-02 
1065	 5.50643992537493E-02 
1066	 5.46402863788859E-02 
1067	 5.44775747021578E-02 
1068	 5.43329823764145E-02 
1069	 5.44054650895916E-02 
1070	 0.054774006347133 
1071	 5.48516125931924E-02 
1072	 5.51650188390468E-02 
1073	 5.51009739385853E-02 
1074	 5.49640687855298E-02 
1075	 5.42166004874709E-02 
1076	 5.43214689345835E-02 
1077	 5.49291764965341E-02 
1078	 5.50196575454011E-02 
1079	 5.55238590454855E-02 
1080	 5.53520740281599E-02 
1081	 5.41211183099041E-02 
1082	 5.37725339758592E-02 
1083	 5.37842777256067E-02 
1084	 5.34505754509276E-02 
1085	 5.33886466113854E-02 
1086	 0.053196638475596 
1087	 5.22051553921731E-02 
1088	 5.19160996225483E-02 
1089	 5.24533501804905E-02 
1090	 5.25691298397585E-02 
1091	 5.23956591067685E-02 
1092	 5.23588723784295E-02 
1093	 5.21980484865128E-02 
1094	 5.14754694551514E-02 
1095	 5.10137011223229E-02 
1096	 5.06650570444648E-02 
1097	 5.03198423658813E-02 
1098	 0.049560569431078 
1099	 4.94600480147552E-02 
1100	 5.05049114103818E-02 
1101	 5.07030911516411E-02 
1102	 5.10891773831422E-02 
1103	 5.04708910358418E-02 
1104	 4.83754733437843E-02 
1105	 4.64990499281865E-02 
1106	 4.48426079582222E-02 
1107	 4.48130125194198E-02 
1108	 4.57240679418072E-02 
1109	 4.64437321577811E-02 
1110	 4.69870879789812E-02 
1111	 4.74084575150377E-02 
1112	 4.74834006376298E-02 
1113	 4.72397717867808E-02 
1114	 4.63405096973488E-02 
1115	 4.31345134960434E-02 
1116	 0.042599018166469 
1117	 4.52532671035417E-02 
1118	 4.65735069627304E-02 
1119	 4.99491988011253E-02 
1120	 5.03946695792345E-02 
1121	 4.53502557149365E-02 
1122	 4.04439177085492E-02 
1123	 2.89297527994586E-02 
1124	 3.38039274857405E-02 
1125	 4.80875209811026E-02 
1126	 4.56462913245964E-02 
1127	 3.80953086409207E-02 
1128	 3.76098917333879E-02 
1129	 3.59956950557952E-02 
1130	 2.42438462892724E-02 
1131	 2.95422421066622E-02 
1132	 5.01487961792351E-02 
1133	 4.89660478597714E-02 
1134	 4.23796209680592E-02 
1135	 4.18423234387631E-02 
1136	 0.032836655803693 
1137	 3.35130181187029E-02 
1138	 4.57523000073314E-02 
1139	 0.047749102547963 
1140	 4.44229642744151E-02 
1141	 4.46956192460846E-02 
1142	 3.76906341578136E-02 
1143	 3.20654408489217E-02 
1144	 3.49283906975198E-02 
1145	 3.80536051833379E-02 
1146	 3.83132895040072E-02 
1147	 3.78252053232001E-02 
1148	 3.71836669115406E-02 
1149	 3.58065099753553E-02 
1150	 3.65271572642378E-02 
1151	 4.09923935325479E-02 
1152	 4.23016288425689E-02 
1153	 4.17479067702197E-02 
1154	 4.25514920936326E-02 
1155	 4.34206458762121E-02 
1156	 4.37777915565871E-02 
1157	 4.37804440110871E-02 
1158	 4.26311337035434E-02 
1159	 4.07694139715823E-02 
1160	 4.11814371330812E-02 
1161	 4.28132670350597E-02 
1162	 4.35281738507464E-02 
1163	 4.44759981987432E-02 
1164	 4.54010565012058E-02 
1165	 4.50294972173129E-02 
1166	 4.51780604437593E-02 
1167	 4.58777523549845E-02 
1168	 4.50301494096423E-02 
1169	 4.41817771848937E-02 
1170	 4.50244739666875E-02 
1171	 4.54186072100861E-02 
1172	 4.55482520259862E-02 
1173	 4.58457644144667E-02 
1174	 0.046637071083797 
1175	 4.69585861438529E-02 
1176	 4.64033051425978E-02 
1177	 4.66677777157483E-02 
1178	 4.70978921150926E-02 
1179	 4.63253071491679E-02 
1180	 0.046086606992135 
1181	 0.046356873480486 
1182	 4.60094608508396E-02 
1183	 4.61244319434228E-02 
1184	 4.59092622708638E-02 
1185	 4.56205807231494E-02 
1186	 4.62082763941067E-02 
1187	 0.046324261895582 
1188	 4.61925079183862E-02 
1189	 4.60661681842865E-02 
1190	 4.56918078335152E-02 
1191	 4.60050816448395E-02 
1192	 4.61270955319655E-02 
1193	 4.65438686941122E-02 
1194	 4.67189193326272E-02 
1195	 4.70418697938129E-02 
1196	 4.65639323974978E-02 
1197	 4.60260556754578E-02 
1198	 4.64619692589688E-02 
1199	 4.67589421280783E-02 
1200	 0.046809982565801 
1201	 4.71219711142954E-02 
1202	 4.70223313371561E-02 
1203	 4.64475945335725E-02 
1204	 4.62970178558847E-02 
1205	 4.67492458605071E-02 
1206	 4.69591922026965E-02 
1207	 4.65783330030997E-02 
1208	 4.65805662607143E-02 
1209	 4.69170733309817E-02 
1210	 4.72702582167412E-02 
1211	 4.78115398606178E-02 
1212	 4.77629205587983E-02 
1213	 0.04732202646775 
1214	 4.72510602027367E-02 
1215	 4.71324686561532E-02 
1216	 4.73569262854956E-02 
1217	 4.76484879076296E-02 
1218	 4.77453183564522E-02 
1219	 4.77977006700166E-02 
1220	 4.77655319886083E-02 
1221	 4.79782048024944E-02 
1222	 4.83694734737758E-02 
1223	 4.80922101338356E-02 
1224	 4.76602504248625E-02 
1225	 4.76224143325015E-02 
1226	 4.74565985445706E-02 
1227	 4.75967269334425E-02 
1228	 4.81980099396845E-02 
1229	 4.82354204113077E-02 
1230	 4.82082849792997E-02 
1231	 4.85992343930747E-02 
1232	 4.86446325524646E-02 
1233	 4.84667335090912E-02 
1234	 4.87267701140768E-02 
1235	 4.88178487927513E-02 
1236	 4.83369484467743E-02 
1237	 4.82215918453711E-02 
1238	 4.83827903153101E-02 
1239	 4.88758392627046E-02 
1240	 0.048700358415454 
1241	 4.86884329279983E-02 
1242	 4.87519008206886E-02 
1243	 4.83617057540649E-02 
1244	 4.85360134640497E-02 
1245	 4.90051997210029E-02 
1246	 4.89018497660611E-02 
1247	 4.87740809262184E-02 
1248	 4.87029119259328E-02 
1249	 4.83494010063823E-02 
1250	 4.84436444565021E-02 
1251	 4.88965732735932E-02 
1252	 4.87028021835651E-02 
1253	 4.82056901003178E-02 
1254	 4.82524042336499E-02 
1255	 4.87233954195032E-02 
1256	 4.86501374894192E-02 
1257	 4.81208504905997E-02 
1258	 0.048144372899832 
1259	 4.82455610235877E-02 
1260	 4.82697798547596E-02 
1261	 4.89088926633357E-02 
1262	 4.90084350070153E-02 
1263	 4.89699507281283E-02 
1264	 0.047943243195558 
1265	 4.74772894165839E-02 
1266	 4.79244080658567E-02 
1267	 0.047685869455903 
1268	 4.74511461010049E-02 
1269	 4.75315808279653E-02 
1270	 0.047089207321168 
1271	 4.71788793781158E-02 
1272	 4.75219814472704E-02 
1273	 4.73026308777275E-02 
1274	 4.71363428195018E-02 
1275	 4.72106819976692E-02 
1276	 0.047583379856654 
1277	 4.80144923430207E-02 
1278	 0.048077376387028 
1279	 4.79056919192549E-02 
1280	 4.79306975013382E-02 
1281	 4.80007957488674E-02 
1282	 4.80306866420418E-02 
1283	 4.79257676743217E-02 
1284	 4.79877113686828E-02 
1285	 4.79831597099256E-02 
1286	 4.75452095272605E-02 
1287	 4.74145315191805E-02 
1288	 4.77513348847809E-02 
1289	 4.77028028989512E-02 
1290	 4.72326214788808E-02 
1291	 4.74605498504585E-02 
1292	 4.75601145103905E-02 
1293	 4.70636364963046E-02 
1294	 4.71568105481975E-02 
1295	 4.70178526671571E-02 
1296	 4.65004455302663E-02 
1297	 4.66429671703637E-02 
1298	 0.046953210305736 
1299	 4.66929008511126E-02 
1300	 4.60519716521868E-02 
1301	 4.59186982677437E-02 
1302	 4.60453754138566E-02 
1303	 4.57072417191072E-02 
1304	 4.61627526273141E-02 
1305	 4.70361815261047E-02 
1306	 4.66682736135714E-02 
1307	 4.42538053548504E-02 
1308	 4.41055925013078E-02 
1309	 4.49000336194389E-02 
1310	 0.044445558082961 
1311	 4.46611496158674E-02 
1312	 4.48315134821046E-02 
1313	 4.38719937023911E-02 
1314	 4.31178736370276E-02 
1315	 4.26342677350512E-02 
1316	 4.29524401051693E-02 
1317	 4.36645271255641E-02 
1318	 0.043420744450718 
1319	 4.37983852292435E-02 
1320	 4.40674895622662E-02 
1321	 4.31027148625734E-02 
1322	 0.042102972743161 
1323	 4.27737246186637E-02 
1324	 4.28600861225846E-02 
1325	 4.16132309987093E-02 
1326	 4.07592903614128E-02 
1327	 4.15311645771037E-02 
1328	 4.21176819466692E-02 
1329	 4.14587523154929E-02 
1330	 4.09915391840616E-02 
1331	 4.05157792509128E-02 
1332	 3.97003398175186E-02 
1333	 3.81578506735907E-02 
1334	 3.88626937226124E-02 
1335	 3.94443716152565E-02 
1336	 3.96012315775512E-02 
1337	 0.039087701420161 
1338	 4.02372085292891E-02 
1339	 4.03326924114726E-02 
1340	 3.84109883010272E-02 
1341	 0.037559422015148 
1342	 3.66613582829882E-02 
1343	 3.63044019192587E-02 
1344	 3.46959375377506E-02 
1345	 3.54168353697875E-02 
1346	 4.47253086433754E-02 
1347	 4.77295445721187E-02 
1348	 4.51007233224985E-02 
1349	 4.80103366523906E-02 
1350	 4.14490995610255E-02 
1351	 3.72131903235452E-02 
1352	 6.06998028695441E-02 
1353	 7.25949656242088E-02 
1354	 6.24574382407734E-02 
1355	 3.37790679942136E-02 
1356	 8.80707463254776E-02 
1357	 0.178349344363264 
1358	 0.238703188998838 
1359	 0.163305927975956 
1360	 6.39620704541546E-03 
1361	-0.110177578248715 
1362	-0.252365392941403 
1363	 4.99327832990142E-02 
1364	 0.45486137751356 
1365	 0.684693440081972 
1366	 0.513309645666815 
1367	 0.345308336921252 
1368	 0.415600862570935 
1369	 0.38494700284864 
1370	 0.252920480122627 
1371	 0.336430541569436 
1372	 0.470186435728 
1373	 0.566426913889063 
1374	 0.350194022139848 
1375	 0.383360956590356 
1376	 0.538584400980644 
1377	 0.673155496213795 
1378	 0.441076441420851 
1379	 8.01532487405824E-02 
1380	 0.131266209469185 
1381	 0.445020921849432 
1382	 0.274135670278372 
1383	 0.251407641219777 
1384	 0.914882305014093 
1385	 1.06647616565368 
1386	 0.532019164692841 
1387	 0.491376903062751 
1388	 0.932942197845016 
1389	 0.735646990456768 
1390	 0.29046957675998 
1391	 0.429900442949141 
1392	 2.37232472332319 
1393	 5.09295790378119 
1394	 7.21219918633325 
1395	 1.09731487832522 
1396	 1.90435537390193 
1397	 2.16791111746173 
1398	 0.325026864715019 
1399	 0.346263610330073 
1400	 1.30721953527187 
1401	 2.32951284416997 
1402	 2.92977049439652 
1403	 3.35803070097637 
1404	 3.18640270046798 
1405	 3.85111550764747 
1406	 1.76116195602916 
1407	 1.2464230057723 
1408	 1.64647587701068 
1409	 1.29490077020916 
1410	 0.545519090438128 
1411	 0.410051056904672 
1412	 0.250058663691585 
1413	 6.34168957128844E-02 
1414	 0.115563396764625 
1415	 0.199712336292386 
1416	 0.324733828852573 
1417	 0.291867357899335 
1418	 0.299109984116204 
1419	 0.198597834136865 
1420	 1.33350952236123E-02 
1421	-2.96436808383122E-02 
1422	-5.51501756867223E-02 
1423	-5.01468267709437E-02 
1424	-7.70446219778781E-03 
1425	 2.59103979294078E-02 
1426	 6.81983086732878E-02 
1427	 6.62459224828704E-02 
1428	 3.93286689690974E-02 
1429	 5.15690199235697E-02 
1430	 0.101888929143985 
1431	 0.08751282325345 
1432	 1.20901610981079E-02 
1433	 2.21406505907895E-02 
1434	 6.29368917737021E-02 
1435	 0.062937940345015 
1436	 0.114968179731548 
1437	 0.133677001016103 
1438	 0.106886414554375 
1439	 0.103119761589943 
1440	 0.103673019728713 
1441	 0.112301001964688 
1442	 0.105385808601242 
1443	 6.66333480094431E-02 
1444	 5.18013403199549E-02 
1445	 5.76842681498137E-02 
1446	 5.33215361422352E-02 
1447	 4.65889228595449E-02 
1448	 3.95859697888016E-02 
1449	 4.25417166043719E-02 
1450	 5.28307813462605E-02 
1451	 5.00650715870701E-02 
1452	 3.99312103501355E-02 
1453	 4.37890722072759E-02 
1454	 4.55254816599824E-02 
1455	 0.04691029475011 
1456	 4.21740319726748E-02 
1457	 3.84852589425871E-02 
1458	 3.50627013796213E-02 
1459	 2.41740083621631E-02 
1460	 2.34810815895966E-02 
1461	 3.35461301750101E-02 
1462	 0.031733024610996 
1463	 2.09881184649342E-02 
1464	 2.24447570994284E-02 
1465	 2.74793791850132E-02 
1466	 2.94490367846669E-02 
1467	 4.07274845705394E-02 
1468	 4.51882013916746E-02 
1469	 4.20256512946362E-02 
1470	 3.49217287629294E-02 
1471	 2.27965725990155E-02 
1472	 2.41101232705709E-02 
1473	 2.52571705914218E-02 
1474	 2.48742834831701E-02 
1475	 3.42397457794357E-02 
1476	 3.82502368401895E-02 
1477	 3.70837852540769E-02 
1478	 3.47019841417404E-02 
1479	 3.11991774752328E-02 
1480	 3.31324392988579E-02 
1481	 3.53796035818013E-02 
1482	 3.50018859334671E-02 
1483	 3.69375464828499E-02 
1484	 3.90987140947194E-02 
1485	 3.88995728530218E-02 
1486	 3.79680562517747E-02 
1487	 3.89133882443422E-02 
1488	 3.94163761774974E-02 
1489	 3.73352336304891E-02 
1490	 0.036944023576385 
1491	 3.88296600108516E-02 
1492	 3.91343602109225E-02 
1493	 3.84170843965323E-02 
1494	 0.037930690199169 
1495	 3.69082730949304E-02 
1496	 3.71223876738019E-02 
1497	 3.79964765436144E-02 
1498	 3.82937608751258E-02 
1499	 0.038913985708845 
1500	 3.97125052035527E-02 
1501	 0.040692725705285 
1502	 0.040590286457309 
1503	 3.99056860510564E-02 
1504	 4.00128803572875E-02 
1505	 3.96615348108093E-02 
1506	 3.94599945963544E-02 
1507	 3.99252923570672E-02 
1508	 4.05423988564232E-02 
1509	 0.041092921874411 
1510	 4.15453459838041E-02 
1511	 4.16944869010952E-02 
1512	 4.15850123584961E-02 
1513	 4.10041425981081E-02 
1514	 4.00965376321786E-02 
1515	 4.02543481423253E-02 
1516	 4.13703217538673E-02 
1517	 4.15201020434091E-02 
1518	 4.14825871178328E-02 
1519	 4.23377517047992E-02 
1520	 4.28161299552789E-02 
1521	 4.30779518629581E-02 
1522	 4.36266280446763E-02 
1523	 4.36655288094665E-02 
1524	 0.04304858520124 
1525	 0.042614297017558 
1526	 4.28697083837967E-02 
1527	 4.27782443214248E-02 
1528	 4.24486329487329E-02 
1529	 4.27405702465154E-02 
1530	 4.30971435991816E-02 
1531	 4.35886811422951E-02 
1532	 4.40996505899491E-02 
1533	 4.39843886042266E-02 
1534	 4.36732975279643E-02 
1535	 0.04350031283705 
1536	 4.31802388268952E-02 
1537	 4.32287714812001E-02 
1538	 4.36896401233583E-02 
1539	 4.40261982245309E-02 
1540	 4.40459831346102E-02 
1541	 4.37476062423241E-02 
1542	 4.36736095893713E-02 
1543	 4.36780359417187E-02 
1544	 4.39496059322912E-02 
1545	 4.43076610393956E-02 
1546	 4.41652005193339E-02 
1547	 4.43266355783141E-02 
1548	 4.43378002426565E-02 
1549	 4.43737636324389E-02 
1550	 4.48237201689089E-02 
1551	 4.44779997542003E-02 
1552	 4.44009591827761E-02 
1553	 4.47825145329149E-02 
1554	 4.44847699623673E-02 
1555	 4.41792557970416E-02 
1556	 4.40910104961502E-02 
1557	 4.41592901681844E-02 
1558	 0.04419811313419 
1559	 4.41059344724962E-02 
1560	 4.41296683208885E-02 
1561	 4.43483002578249E-02 
1562	 4.47686114652064E-02 
1563	 4.47612228811299E-02 
1564	 4.45843776357653E-02 
1565	 4.46143856324208E-02 
1566	 4.46058422255509E-02 
1567	 0.044919910214039 
1568	 4.50638534726746E-02 
1569	 4.51541332609233E-02 
1570	 4.53807365763604E-02 
1571	 4.47498063982255E-02 
1572	 4.43183366126995E-02 
1573	 0.044971151138364 
1574	 4.51004794037038E-02 
1575	 0.04496728333584 
1576	 4.57104689615821E-02 
1577	 4.52743463698508E-02 
1578	 4.44080033436153E-02 
1579	 0.045122604575903 
1580	 4.53269738562743E-02 
1581	 4.50496690667013E-02 
1582	 4.53293991102845E-02 
1583	 4.52250391486482E-02 
1584	 4.52733144893967E-02 
1585	 4.57813375703073E-02 
1586	 4.54415369682032E-02 
1587	 4.49677145653212E-02 
1588	 4.51442651750035E-02 
1589	 4.53654448366545E-02 
1590	 4.55089868662615E-02 
1591	 4.53887274153275E-02 
1592	 4.50859772679185E-02 
1593	 4.43775734990387E-02 
1594	 4.42130270614289E-02 
1595	 4.48633745865318E-02 
1596	 4.46389101815747E-02 
1597	 4.43695819764699E-02 
1598	 4.47911131750865E-02 
1599	 4.48304204917209E-02 
1600	 0.044953910773651 
1601	 4.57740457294981E-02 
1602	 4.58352980049812E-02 
1603	 4.48595037638503E-02 
1604	 4.48348486132821E-02 
1605	 4.53293350703266E-02 
1606	 4.52725564117792E-02 
1607	 4.54742420243259E-02 
1608	 4.51729392352506E-02 
1609	 4.40729192007051E-02 
1610	 4.43293256516485E-02 
1611	 4.52138846809366E-02 
1612	 4.50028239244261E-02 
1613	 4.51102547844902E-02 
1614	 4.51706941214661E-02 
1615	 4.45366390226088E-02 
1616	 4.46199165135039E-02 
1617	 4.53140725845525E-02 
1618	 4.56708410977678E-02 
1619	 4.54714186185984E-02 
1620	 4.55760008599316E-02 
1621	 4.62946465737341E-02 
1622	 4.61500565760807E-02 
1623	 4.55230867832518E-02 
1624	 4.59452130393992E-02 
1625	 4.59121643534208E-02 
1626	 4.52931374793259E-02 
1627	 4.57485587191646E-02 
1628	 4.60297641100269E-02 
1629	 4.58258428018053E-02 
1630	 4.60396926455618E-02 
1631	 4.60332608614312E-02 
1632	 4.57019365550885E-02 
1633	 0.045464484664551 
1634	 0.045409769742334 
1635	 4.54739302950414E-02 
1636	 4.53043817835793E-02 
1637	 4.52556405290598E-02 
1638	 4.53503868993914E-02 
1639	 4.49346035315323E-02 
1640	 4.51522072926482E-02 
1641	 4.57195524035154E-02 
1642	 4.53771575665689E-02 
1643	 4.52214286203463E-02 
1644	 4.57704488328644E-02 
1645	 4.63696301945077E-02 
1646	 4.61641431309396E-02 
1647	 4.58712825932223E-02 
1648	 4.61697409494295E-02 
1649	 0.045623594533309 
1650	 4.51011953547617E-02 
1651	 4.57313872695157E-02 
1652	 4.58945856221199E-02 
1653	 4.48328216085591E-02 
1654	 4.49261213628771E-02 
1655	 4.57440638277838E-02 
1656	 4.56511586095588E-02 
1657	 4.54427655278981E-02 
1658	 0.0455299646365 
1659	 4.53211266581555E-02 
1660	 0.045033807355362 
1661	 4.50244388095126E-02 
1662	 4.51601356830779E-02 
1663	 4.51360551427123E-02 
1664	 4.47807567531879E-02 
1665	 4.42304580261197E-02 
1666	 4.46584008580893E-02 
1667	 0.045301439632204 
1668	 4.49117311457645E-02 
1669	 4.58489700155993E-02 
1670	 4.57295505950972E-02 
1671	 4.51418411842015E-02 
1672	 4.59222855829907E-02 
1673	 4.57971266425236E-02 
1674	 4.47739688572501E-02 
1675	 4.47422449063811E-02 
1676	 4.48094194554027E-02 
1677	 4.50577209006616E-02 
1678	 4.59612143808307E-02 
1679	 4.60663486413715E-02 
1680	 4.51200693408075E-02 
1681	 4.41794491845696E-02 
1682	 4.45217729272658E-02 
1683	 4.60432623301927E-02 
1684	 4.68645353320671E-02 
1685	 4.66179962333477E-02 
1686	 4.59426167733338E-02 
1687	 4.58826352957629E-02 
1688	 4.59983414627761E-02 
1689	 4.55265155637935E-02 
1690	 4.59254187891211E-02 
1691	 4.52924852746846E-02 
1692	 4.40134593728665E-02 
1693	 4.51830857398657E-02 
1694	 4.60628340482059E-02 
1695	 0.045500848417051 
1696	 4.53573983865908E-02 
1697	 4.59320799833562E-02 
1698	 4.61585934823732E-02 
1699	 4.52953125357497E-02 
1700	 4.54824023604247E-02 
1701	 4.60856914637097E-02 
1702	 4.50921753319682E-02 
1703	 4.47438928413432E-02 
1704	 0.045789913529988 
1705	 4.59385412564204E-02 
1706	 4.54743194772682E-02 
1707	 4.59393262723862E-02 
1708	 4.55528411240327E-02 
1709	 4.44559495367161E-02 
1710	 4.45391865335751E-02 
1711	 4.52078781450649E-02 
1712	 4.60744047364938E-02 
1713	 4.53645944264593E-02 
1714	 4.53131908387268E-02 
1715	 4.58905084829917E-02 
1716	 4.62509833142101E-02 
1717	 4.68995647100475E-02 
1718	 4.71362909554681E-02 
1719	 4.68331552787843E-02 
1720	 4.61703535371099E-02 
1721	 4.62626156004906E-02 
1722	 4.70778838663332E-02 
1723	 4.69123346047448E-02 
1724	 4.65107945242203E-02 
1725	 4.59940928241542E-02 
1726	 4.56498386421328E-02 
1727	 4.62770480393492E-02 
1728	 4.62253622140634E-02 
1729	 4.59857475501891E-02 
1730	 0.045146393944322 
1731	 4.34735637089126E-02 
1732	 4.46761333221945E-02 
1733	 4.60251179887822E-02 
1734	 4.52208996386968E-02 
1735	 4.55198222934714E-02 
1736	 4.45211553393209E-02 
1737	 4.19148487772865E-02 
1738	 4.22252859173523E-02 
1739	 4.33370936325869E-02 
1740	 4.32190981447645E-02 
1741	 4.45477565900585E-02 
1742	 4.55676514666821E-02 
1743	 4.47869323216462E-02 
1744	 4.45357219251712E-02 
1745	 4.48150616823376E-02 
1746	 4.51229624592351E-02 
1747	 4.48404871321558E-02 
1748	 4.28267439359435E-02 
1749	 4.23806140616595E-02 
1750	 4.34293996654535E-02 
1751	 4.30644011715825E-02 
1752	 4.30673566703363E-02 
1753	 4.37094457212469E-02 
1754	 4.30636298257102E-02 
1755	 4.29273521153879E-02 
1756	 0.044451937314353 
1757	 4.29021521779631E-02 
1758	 4.11362946193019E-02 
1759	 4.05149384597749E-02 
1760	 4.15734304220722E-02 
1761	 4.35383566440435E-02 
1762	 4.50489236053379E-02 
1763	 0.042930078784074 
1764	 4.01919292385223E-02 
1765	 3.92154355642711E-02 
1766	 3.70930748100029E-02 
1767	 3.80203999100969E-02 
1768	 4.10371127706805E-02 
1769	 4.07143098395457E-02 
1770	 4.11714258431976E-02 
1771	 4.23969216570103E-02 
1772	 0.040471924904653 
1773	 3.81300298706896E-02 
1774	 0.037476500766088 
1775	 3.63792900983876E-02 
1776	 0.037126013722836 
1777	 4.28706067966713E-02 
1778	 4.42022528861596E-02 
1779	 4.34338869674091E-02 
1780	 4.34780734091266E-02 
1781	 0.039837397367232 
1782	 3.76785634452788E-02 
1783	 3.89055969585278E-02 
1784	 3.67393817371687E-02 
1785	 2.91258309108974E-02 
1786	 2.92029327284135E-02 
1787	 3.28655069005389E-02 
1788	 3.41796642615662E-02 
1789	 4.24663605593437E-02 
1790	 4.32648398414221E-02 
1791	 4.34965806873299E-02 
1792	 5.04079246309464E-02 
1793	 4.54657266357047E-02 
1794	 3.13691012453852E-02 
1795	 2.21998980332026E-02 
1796	 2.44482119773536E-02 
1797	 3.49732916370156E-02 
1798	 4.67465222110223E-02 
1799	 5.36518083843939E-02 
1800	 3.60909569846572E-02 
1801	 0.032582956715277 
1802	 0.065395862845325 
1803	 9.22063496947384E-02 
1804	 0.139091655013966 
1805	 0.147513115051041 
1806	 7.89596230512903E-02 
1807	 3.24919669113952E-02 
1808	-0.251219943538681 
1809	-0.253406849852763 
1810	 0.176618937837376 
1811	 0.39371938817817 
1812	 0.689674890206873 
1813	 0.954359064481327 
1814	-7.22161688874438 
1815	-2.14579820629284 
1816	-111.725151541659 
1817	-2.66725877249485 
1818	-1.38895418911961 
1819	-0.870443114458041 
1820	 6.37136566745683 
1821	-1.19887358994575 
1822	-1.32488794590367 
1823	-9.73967234825558E-02 
1824	-0.662241967749216 
1825	 0.2343071186878 
1826	 0.386707496228133 
1827	-33.785339573052 
1828	-4.70721496150602 
1829	 2.36561229896455 
1830	 0.957294444667151 
1831	-2.04354140220558 
1832	-1.57949175773973 
1833	-0.915309501827057 
1834	-0.862023130263868 
1835	-1.20315945721015 
1836	-17.4803365840892 
1837	-0.926482736133847 
1838	-6.24188604942506 
1839	 1.05904795019387 
1840	 0.630926699901046 
1841	 0.512034710193146 
1842	 9.43725944977915E-02 
1843	-0.23097548802916 
1844	-3.68079143269397 
1845	-14.9230572673964 
1846	-2.95932203592798 
1847	-1.88831554957189 
1848	-7.81299070032552E-02 
1849	-0.377599097771775 
1850	-0.262340782161937 
1851	-0.546615518607601 
1852	-2.52914801004994 
1853	-7.31145758457624 
1854	 6.27906900086866 
1855	 1.20709124757139 
1856	 0.857101332665522 
1857	-0.785023435566127 
1858	-0.771276661185792 
1859	 2.07856375806199 
1860	 3.57542938858407 
1861	 18.7481126124704 
1862	-4.18919217954806 
1863	-6.08306577210321 
1864	 13.7159445859136 
1865	 2.74712973821181 
1866	 0.685642235167951 
1867	 0.597414131857172 
1868	 1.13402074616817 
1869	-0.836397142964358 
1870	 0.28657350375967 
1871	-0.09713014368731 
1872	-0.825082040091522 
1873	-0.842705615138057 
1874	-0.572413474980328 
1875	-0.58630322939448 
1876	-0.618530394328806 
1877	-0.587798288801836 
1878	-0.589101479081638 
1879	-1.42133038944603 
1880	-1.12457730403893 
1881	 9.42872560687088E-02 
1882	 0.362149861412657 
1883	 0.76522161935209 
1884	 1.17325096051452 
1885	 3.98638233896874 
1886	-1.57173414386485 
1887	 2.1075419275421 
1888	-0.102831492295419 
1889	-0.872990170310078 
1890	-2.63462172334415E-04 
1891	-0.364853295756925 
1892	-4.1458024783365 
1893	-2.30362878285612 
1894	-0.971237630419293 
1895	-0.353085550287298 
1896	 0.138040003913737 
1897	 0.65617608284075 
1898	-1.16484556061255 
1899	-8.24453487348825 
1900	-5.50659468330336 
1901	-2.36841153951844 
1902	-2.1195181743336 
1903	-1.73236785394532 
1904	-0.713255512959152 
1905	-0.247239232203069 
1906	 0.485692820336594 
1907	 0.844341141620028 
1908	 1.25157203994005 
1909	 4.55257679146945 
1910	-10.3695158839181 
1911	 0.774170906224409 
1912	-0.137568732499308 
1913	-0.508649805562091 
1914	-0.282706401194906 
1915	 0.264549467523714 
1916	 2.71265355393184 
1917	 1.46489811670601 
1918	 1.13471039191045 
1919	 1.87689782209031 
1920	 0.740666009156034 
1921	-6.01576375232723E-02 
1922	-0.296956196153482 
1923	-0.367746801924984 
1924	-0.383583922541879 
1925	-0.706241658925854 
1926	-1.31408727326254 
1927	-2.24850017800317 
1928	 2.33605060620052 
1929	-6.19254462764869 
1930	-1.22829106579372 
1931	-0.812592028326929 
1932	-1.17609370127871 
1933	-2.21077918262117 
1934	-2.76424341669281 
1935	-3.74524087374376 
1936	-0.158099917847324 
1937	 0.144709157707486 
1938	-0.32600246645984 
1939	 5.89988950480328E-02 
1940	-26.6954213491169 
1941	 0.24408063883057 
1942	 1.33140372351519 
1943	-7.19109557236457 
1944	-1.62243251532318 
1945	 0.32974578126159 
1946	 0.466369493396351 
1947	 0.394908481065994 
1948	 0.360125044672656 
1949	 0.287495073469804 
1950	-2.23794525207989E-02 
1951	-0.117657181180486 
1952	-9.07770934668409E-02 
1953	 2.74448596068636E-02 
1954	-6.36478084626812E-03 
1955	 2.44027996754494E-03 
1956	 2.77830994265849E-02 
1957	-4.91346787040047E-02 
1958	-0.114994554465082 
1959	-8.65538732731276E-02 
1960	-4.19004129484404E-02 
1961	-2.34345877225871E-02 
1962	 2.07487464043043E-02 
1963	 3.84917820020346E-02 
1964	 2.10272251275836E-02 
1965	 1.74242923684112E-02 
1966	 1.73164259450264E-02 
1967	 1.29582414271327E-02 
1968	 1.82102749624659E-02 
1969	 2.88669046820225E-02 
1970	 2.92902936761565E-02 
1971	 2.89200739003635E-02 
1972	 0.030449701649315 
1973	 0.032098015395584 
1974	 0.027359545440288 
1975	 2.58219402319889E-02 
1976	 2.64226329484318E-02 
1977	 0.026274891250453 
1978	 3.17595693560965E-02 
1979	 3.37628009886268E-02 
1980	 3.57932785018227E-02 
1981	 3.65707165950521E-02 
1982	 3.76036950399082E-02 
1983	 3.83975610347343E-02 
1984	 3.99771457282608E-02 
1985	 3.47054577638865E-02 
1986	 3.08115217747179E-02 
1987	 3.23259152276983E-02 
1988	 3.25832712954343E-02 
1989	 3.44786466807594E-02 
1990	 3.38825307205708E-02 
1991	 2.77205703209821E-02 
1992	 2.32319839284321E-02 
1993	 2.23502171383787E-02 
1994	 2.49088416347022E-02 
1995	 3.35477119938837E-02 
1996	 4.12204616831159E-02 
1997	 4.70668572562101E-02 
1998	 5.05010601670901E-02 
1999	 3.62176205904508E-02 
2000	 1.90786382496124E-02 
2001	 6.65192926946395E-03 
2002	 2.52928349786485E-03 
2003	 1.19047983366777E-02 
2004	 2.11664321907025E-02 
2005	 3.34380868553642E-02 
2006	 3.69434099782983E-02 
2007	 4.24734278304258E-02 
2008	 4.63878830410128E-02 
2009	 4.50887404542915E-02 
2010	 3.71845175224501E-02 
2011	 3.66618882353039E-02 
2012	 3.42142743404852E-02 
2013	 3.30416658325674E-02 
2014	 3.75058157027229E-02 
2015	 0.038513719947601 
2016	 4.30991000385178E-02 
2017	 4.77376090160194E-02 
2018	 5.30319093151695E-02 
2019	 5.34834540876173E-02 
2020	 4.71935872566584E-02 
2021	 4.61214545963855E-02 
2022	 4.28396122421214E-02 
2023	 3.74303699504423E-02 
2024	 3.73087114885983E-02 
2025	 4.05636101474208E-02 
2026	 4.01308410924566E-02 
2027	 3.91950508766596E-02 
2028	 4.22157940531739E-02 
2029	 4.15243421079065E-02 
2030	 0.037926807054414 
2031	 3.93805758110269E-02 
2032	 3.79850909074775E-02 
2033	 3.53911963351322E-02 
2034	 3.56984194966391E-02 
2035	 3.24868361461136E-02 
2036	 3.06836819711749E-02 
2037	 3.26334167052271E-02 
2038	 3.28135960699439E-02 
2039	 3.32737312818007E-02 
2040	 3.63434334077593E-02 
2041	 3.70293797599404E-02 
2042	 3.52374268709978E-02 
2043	 3.43771481482686E-02 
2044	 3.36623040187438E-02 
2045	 3.15119196729301E-02 
2046	 2.98085256898112E-02 
2047	 3.02882087203536E-02 
2048	 0.033312838211794 
2049	 3.58782911618312E-02 
2050	 3.89830348127933E-02 
2051	 4.42320166789633E-02 
2052	 4.39488658811803E-02 
2053	 4.24870580649382E-02 
2054	 4.28823297776069E-02 
2055	 3.90601946112796E-02 
2056	 3.80480984893975E-02 
2057	 4.15485111239375E-02 
2058	 4.06413281193738E-02 
2059	 3.59084146874863E-02 
2060	 3.46744990891561E-02 
2061	 3.39722298100114E-02 
2062	 3.15787976828461E-02 
2063	 3.13424911240398E-02 
2064	 3.75126055694635E-02 
2065	 4.12343388025265E-02 
2066	 4.15776547873736E-02 
2067	 4.20244943907939E-02 
2068	 4.23116341811053E-02 
2069	 4.15433730250037E-02 
2070	 4.07895483359093E-02 
2071	 3.95842195920055E-02 
2072	 3.61243493972413E-02 
2073	 3.51589959194054E-02 
2074	 3.30336117597762E-02 
2075	 3.49474443035214E-02 
2076	 0.042875147142503 
2077	 4.35739314255938E-02 
2078	 4.21658059840683E-02 
2079	 4.09092929759975E-02 
2080	 3.50458946264147E-02 
2081	 0.033392297324483 
2082	 3.61503283553632E-02 
2083	 3.82630129844907E-02 
2084	 4.07001795744748E-02 
2085	 4.00923504078285E-02 
2086	 0.040136629683538 
2087	 4.23065390774931E-02 
2088	 0.041926836990212 
2089	 4.24410015066405E-02 
2090	 4.32737403467764E-02 
2091	 4.26998218115359E-02 
2092	 4.27996587075786E-02 
2093	 4.47632991819057E-02 
2094	 4.57787274379401E-02 
2095	 4.49628903018125E-02 
2096	 4.51057192669126E-02 
2097	 4.70201635993532E-02 
2098	 4.77738129355363E-02 
2099	 4.75242579928862E-02 
2100	 4.84429344921073E-02 
2101	 4.93537252147424E-02 
2102	 4.79351939682344E-02 
2103	 4.71063068339426E-02 
2104	 4.52087126023793E-02 
2105	 4.36473786279492E-02 
2106	 4.32252602868559E-02 
2107	 4.29793727621033E-02 
2108	 4.36927360045992E-02 
2109	 4.46432320420353E-02 
2110	 4.35111346680203E-02 
2111	 4.16847458906627E-02 
2112	 4.15737515874747E-02 
2113	 4.11515858533144E-02 
2114	 4.01692357311776E-02 
2115	 4.07137068549407E-02 
2116	 4.36312642749272E-02 
2117	 4.38456824878039E-02 
2118	 4.26020415592142E-02 
2119	 4.23288197738238E-02 
2120	 4.07123809600553E-02 
2121	 4.09073411402581E-02 
2122	 4.14262968136634E-02 
2123	 0.042309832814577 
2124	 4.39553477686969E-02 
2125	 4.40207491696156E-02 
2126	 4.40931611924924E-02 
2127	 4.58914346711928E-02 
2128	 4.48537637933726E-02 
2129	 4.19683024968297E-02 
2130	 4.17539163051441E-02 
2131	 4.10595290859961E-02 
2132	 0.041223866063897 
2133	 4.32468949560177E-02 
2134	 4.32322894405866E-02 
2135	 4.03476408069339E-02 
2136	 4.10461857289508E-02 
2137	 4.33062115201065E-02 
2138	 4.39371776120068E-02 
2139	 4.59695812053686E-02 
2140	 4.68538079076283E-02 
2141	 4.70622615923952E-02 
2142	 4.61349348953752E-02 
2143	 4.39694915036051E-02 
2144	 4.23161099116654E-02 
2145	 4.13787030319037E-02 
2146	 3.85229191578016E-02 
2147	 3.89965521859017E-02 
2148	 4.28123583216969E-02 
2149	 4.25067661309618E-02 
2150	 4.11729121422935E-02 
2151	 3.88893644206074E-02 
2152	 3.39972765987227E-02 
2153	 0.032701098958942 
2154	 3.55017418332341E-02 
2155	 0.037433731051246 
2156	 3.75128600662623E-02 
2157	 3.68801724177067E-02 
2158	 3.18618408995509E-02 
2159	 3.20089474429037E-02 
2160	 3.54018863630686E-02 
2161	 3.65832993156314E-02 
2162	 3.93105192894756E-02 
2163	 4.08909807218672E-02 
2164	 4.07927286618622E-02 
2165	 4.05282867539026E-02 
2166	 4.03286607063939E-02 
2167	 4.01250077662018E-02 
2168	 3.78197238879233E-02 
2169	 3.79829860937306E-02 
2170	 4.11741420331914E-02 
2171	 4.15721156623499E-02 
2172	 4.13837573756843E-02 
2173	 4.04988346408647E-02 
2174	 3.67294590728806E-02 
2175	 3.62087363403984E-02 
2176	 3.54104706311874E-02 
2177	 0.034718132874066 
2178	 3.56038224178859E-02 
2179	 3.53872473388652E-02 
2180	 3.96654551745421E-02 
2181	 4.15790380860266E-02 
2182	 3.76078078459614E-02 
2183	 3.95619244267975E-02 
2184	 4.04381384379242E-02 
2185	 3.67425689723252E-02 
2186	 3.82360306807942E-02 
2187	 4.65141055426918E-02 
2188	 0.047834184557977 
2189	 4.75809055500151E-02 
2190	 4.75962584988216E-02 
2191	 4.40945955439036E-02 
2192	 4.30629667015749E-02 
2193	 4.32132179113578E-02 
2194	 4.37300442169132E-02 
2195	 4.55624377661673E-02 
2196	 4.48017138855887E-02 
2197	 4.18135158643589E-02 
2198	 4.15277882582296E-02 
2199	 4.03575833060296E-02 
2200	 4.35960503155437E-02 
2201	 4.74108837309692E-02 
2202	 4.50254381287484E-02 
2203	 4.13701240131903E-02 
2204	 0.039992303862132 
2205	 3.73966964533525E-02 
2206	 3.72683023579895E-02 
2207	 4.10746636670851E-02 
2208	 0.038920513945511 
2209	 3.77239505741492E-02 
2210	 0.042361865477386 
2211	 4.13094348825655E-02 
2212	 0.042684549577921 
2213	 4.59613209576071E-02 
2214	 4.63000029334242E-02 
2215	 4.91298216736724E-02 
2216	 4.91651103336871E-02 
2217	 4.75636159321022E-02 
2218	 4.17325415002731E-02 
2219	 4.09170408632382E-02 
2220	 4.19847391362205E-02 
2221	 0.040293314591678 
2222	 3.99673959411279E-02 
2223	 3.77042405593972E-02 
2224	 3.05664291448645E-02 
2225	 2.94757070003407E-02 
2226	 2.97916544802473E-02 
2227	 3.35799442488027E-02 
2228	 4.48017200377091E-02 
2229	 4.68443901255828E-02 
2230	 4.74776886879019E-02 
2231	 4.77349371687227E-02 
2232	 0.039203620692777 
2233	 0.038641239717245 
2234	 4.32950592536881E-02 
2235	 4.88155326379032E-02 
2236	 5.00170120492594E-02 
2237	 0.0484212413162 
2238	 4.56400598002156E-02 
2239	 0.041154595564045 
2240	 3.96140793552131E-02 
2241	 3.99328566389047E-02 
2242	 3.97677685199255E-02 
2243	 3.67363817375248E-02 
2244	 3.67081852816275E-02 
2245	 3.86938134537656E-02 
2246	 3.19900241773357E-02 
2247	 2.94273429728167E-02 
2248	 2.81931733684943E-02 
2249	 0.02219494683157 
2250	 2.93827567325172E-02 
2251	 3.82845249117315E-02 
2252	 3.88750796573241E-02 
2253	 4.22073682870625E-02 
2254	 4.48431244203819E-02 
2255	 4.35010142908104E-02 
2256	 3.94935196153882E-02 
2257	 0.035602011059329 
2258	 3.26249066542976E-02 
2259	 2.72406163315585E-02 
2260	 2.53469461365258E-02 
2261	 3.11097742605661E-02 
2262	 3.04503544536121E-02 
2263	 2.38247835711631E-02 
2264	 0.025885051455366 
2265	 3.25521998443149E-02 
2266	 3.24915223664831E-02 
2267	 3.36880436607916E-02 
2268	 3.62303883805152E-02 
2269	 3.22137012568797E-02 
2270	 0.03350629177737 
2271	 4.40603116844373E-02 
2272	 4.72527717090695E-02 
2273	 4.89601526818846E-02 
2274	 4.78207473927401E-02 
2275	 3.98559834346719E-02 
2276	 3.82682002660406E-02 
2277	 3.58392215590884E-02 
2278	 3.53229139319111E-02 
2279	 4.15579401694196E-02 
2280	 4.35333489719344E-02 
2281	 4.41016670696437E-02 
2282	 4.39081271426149E-02 
2283	 3.95086681582407E-02 
2284	 3.56253454948233E-02 
2285	 3.29366074511032E-02 
2286	 3.21178732288953E-02 
2287	 3.68953375070453E-02 
2288	 4.39075610861126E-02 
2289	 5.02445716570323E-02 
2290	 5.22770826566141E-02 
2291	 5.36908830440163E-02 
2292	 5.89114955355331E-02 
2293	 5.86683775854135E-02 
2294	 4.87788234900844E-02 
2295	 3.67073190318588E-02 
2296	 2.25825849455979E-02 
2297	 8.23700869313392E-03 
2298	 3.67474879691027E-03 
2299	 4.91344653058501E-03 
2300	 9.52289934460785E-03 
2301	 2.14312208465497E-02 
2302	 2.83519253456702E-02 
2303	 2.05413843509695E-02 
2304	 1.45232225689671E-02 
2305	 2.07064809683966E-02 
2306	 3.11171152271784E-02 
2307	 3.93865142442947E-02 
2308	 4.14964565157347E-02 
2309	 3.01350620320825E-02 
2310	 1.91767832666501E-02 
2311	 2.39703563560934E-02 
2312	 1.79938411272443E-02 
2313	 5.35555388329817E-03 
2314	 5.73684163372214E-03 
2315	-6.77389843054298E-04 
2316	-2.27091990445214E-03 
2317	 0.01273385140471 
2318	 0.011136058126604 
2319	 6.29443071872577E-03 
2320	 1.72438022249477E-02 
2321	 2.14396320252208E-02 
2322	 1.79213984730323E-02 
2323	 2.22964800152193E-02 
2324	 2.27437252480849E-02 
2325	 2.03826106413968E-02 
2326	 3.30047635526931E-02 
2327	 2.55369339352521E-02 
2328	 1.27570761119772E-02 
2329	 7.58331811491049E-03 
2330	 1.28395618817452E-03 
2331	 2.36613651803291E-02 
2332	 4.33710424445677E-02 
2333	 4.51219811559553E-02 
2334	 5.56212419277051E-02 
2335	 5.44087756691586E-02 
2336	 4.58624428903262E-02 
2337	 5.75982832584576E-02 
2338	 6.30450607966757E-02 
2339	 4.45791107284252E-02 
2340	 2.47872895062352E-02 
2341	 1.06824868270342E-02 
2342	-6.39706847789434E-03 
2343	-1.64910917446016E-02 
2344	-1.10128093996701E-02 
2345	-1.07209642313863E-02 
2346	-2.05323955534443E-02 
2347	-1.17882142874063E-02 
2348	 3.06731439733724E-04 
2349	 5.31922942630118E-04 
2350	 1.10951646227502E-02 
2351	 2.13074501574586E-02 
2352	 4.90921624761967E-02 
2353	 0.0545899581691 
2354	 4.90139004309661E-02 
2355	 9.71776400975756E-02 
2356	 0.101244908011991 
2357	 8.04276887989852E-02 
2358	 8.54048431093292E-02 
2359	 4.18704635297019E-02 
2360	 2.22629178631421E-03 
2361	 1.15301878639537E-04 
2362	-1.04429848348049E-02 
2363	-1.09989540631681E-02 
2364	-2.95455714350533E-02 
2365	-5.11446188835764E-02 
2366	-1.60409133863838E-03 
2367	 3.52111408558442E-02 
2368	 4.97958202335878E-02 
2369	 8.17237462386519E-02 
2370	 9.25439698764943E-02 
2371	 0.101408312630024 
2372	 0.111197103927205 
2373	 0.123027139813137 
2374	 0.110270034778096 
2375	 0.051433617156387 
2376	-1.48623838506042E-02 
2377	-2.13488498695756E-02 
2378	-1.48461152652878E-02 
2379	-3.52330306086147E-02 
2380	 8.57061264586519E-03 
2381	 0.060208775313733 
2382	 2.59652601573192E-03 
2383	-7.26556037075795E-02 
2384	-2.13770187511504E-03 
2385	 8.58418845824143E-02 
2386	 0.182239573561813 
2387	 0.224207418373243 
2388	 0.174268762214126 
2389	 0.118286283020518 
2390	 1.22094184138511E-02 
2391	 1.95714861349428E-02 
2392	 3.44550230053807E-03 
2393	-8.38047562327861E-02 
2394	 9.79169288911252E-02 
2395	 0.225332708089582 
2396	 0.312684540679395 
2397	 0.349611433770235 
2398	 0.158598781466024 
2399	-0.049540848700185 
2400	-0.173108654001509 
2401	-0.273055664542866 
2402	-0.180271378521483 
2403	-1.30293350810245E-02 
2404	 1.97219259245186E-02 
2405	 4.28398783767786E-02 
2406	 0.088526283839958 
2407	 0.1560165487923 
2408	 0.123176583435109 
2409	-1.06136367612702E-02 
2410	-0.166672602184045 
2411	-0.535222305769581 
2412	-0.807520936750618 
2413	-0.806269610949982 
2414	-0.736918466151018 
2415	-0.859916306304015 
2416	-0.577339636998304 
2417	-0.291722505813697 
2418	-0.27494591736333 
2419	-0.140379272954375 
2420	-0.118216986897573 
2421	-0.416919512892184 
2422	-0.417839096263136 
2423	-9.11772453969551E-02 
2424	-1.35501494051443 
2425	-1.61843953295823 
2426	-1.73270506646402 
2427	-0.536395184621535 
2428	-0.329387017834205 
2429	-0.287737390207275 
2430	-0.209912613480935 
2431	-0.286652886088781 
2432	-0.475744723045077 
2433	-0.152835418126768 
2434	-0.266802407804817 
2435	-0.231330532890302 
2436	 0.78738702579332 
2437	 203.223238249306 
2438	-0.568259561932407 
2439	 2.08305935965649 
2440	-54.6169249249935 
2441	-43.1167642931185 
2442	-1.59846374841462 
2443	-1.29173215766633 
2444	 8.09058130195081 
2445	 1.04667914232628 
2446	 0.284545076657252 
2447	-0.407077818649551 
2448	-0.565434133856341 
2449	-0.121669296419389 
2450	-0.165753451985568 
2451	-0.3483221755042 
2452	-0.538983286682662 
2453	-0.609255036093965 
2454	-0.272983460419585 
2455	 0.158284801684631 
2456	 0.44156874848601 
2457	 0.457356710059621 
2458	 0.429810028055886 
2459	 1.39131700053591 
2460	 2.81674026426644 
2461	 2.5554457239866 
2462	 1.77668959539736 
2463	 0.998878546554183 
2464	 0.499877568534412 
2465	 0.059215741349096 
2466	-0.494864761720746 
2467	-0.130730318586249 
2468	 1.0863542759901 
2469	 1.84382769470251 
2470	-1.37664405640539 
2471	-1.03390126789745 
2472	 2.98455504735125 
2473	 0.725764118973495 
2474	 0.12848540881215 
2475	 0.17975959036628 
2476	-0.498506740509109 
2477	-0.577704461379276 
2478	 3.25880134395852 
2479	-0.604027522238156 
2480	-0.661750990340774 
2481	-1.23665946048835 
2482	-0.89970591810968 
2483	-0.77338684164921 
2484	-0.848351999660268 
2485	 1.55809966981957E-02 
2486	 0.577347558092172 
2487	 0.43460381650166 
2488	 0.646108666100897 
2489	-3.34720320034026E-02 
2490	-0.54390694872656 
2491	 0.17105149632106 
2492	 0.468094845650055 
2493	 0.933622636991318 
2494	 1.37947901314363 
2495	 2.81046477897374 
2496	-3.64433540811047 
2497	 0.841258239905014 
2498	 4.25215065511953 
2499	 4.42875922092696 
2500	 2.70888393416822 
