Wavelength	rt0713east_close00000.asd
350	 0.070243625710129 
351	 6.96002337652285E-02 
352	 6.95967182371464E-02 
353	 6.96583383408941E-02 
354	 6.92193659380627E-02 
355	 6.85335096749114E-02 
356	 6.89500069101238E-02 
357	 6.93578520498287E-02 
358	 6.85951209554213E-02 
359	 6.88603945601051E-02 
360	 6.86095523908663E-02 
361	 6.79601998373849E-02 
362	 6.81276921563436E-02 
363	 6.85932313060916E-02 
364	 0.068658331559916 
365	 6.82020817735619E-02 
366	 6.79638633034594E-02 
367	 6.80285940514157E-02 
368	 6.82625339837048E-02 
369	 6.84408659158045E-02 
370	 6.83123985071267E-02 
371	 6.84087485191379E-02 
372	 6.85784572900794E-02 
373	 6.83511896251262E-02 
374	 0.068271825115223 
375	 6.85243197265985E-02 
376	 6.88781067477561E-02 
377	 6.86335820510247E-02 
378	 6.90396772292009E-02 
379	 6.92374723655749E-02 
380	 6.85755131731374E-02 
381	 6.85642818383235E-02 
382	 0.06896009696701 
383	 6.92155952571652E-02 
384	 6.88512168635469E-02 
385	 6.89546877201342E-02 
386	 6.96647108604674E-02 
387	 0.070227876696945 
388	 6.91765961846979E-02 
389	 6.94083147092654E-02 
390	 0.069918591242693 
391	 6.97610658591565E-02 
392	 7.01547163791662E-02 
393	 6.99810461339457E-02 
394	 6.97018914010416E-02 
395	 7.00784261312743E-02 
396	 7.01827283689783E-02 
397	 7.02182132382357E-02 
398	 0.070326143861989 
399	 7.05195377953721E-02 
400	 7.05162392905361E-02 
401	 7.05779848961608E-02 
402	 7.07852821490275E-02 
403	 0.070591969074211 
404	 7.06680571829085E-02 
405	 7.09023849318717E-02 
406	 7.09778946576609E-02 
407	 7.12603418855699E-02 
408	 7.12707664427408E-02 
409	 7.11345157860877E-02 
410	 7.15513730640532E-02 
411	 0.071663811789256 
412	 7.16627795660976E-02 
413	 7.17789509761016E-02 
414	 7.18556416166372E-02 
415	 7.20023188413788E-02 
416	 7.21821123905935E-02 
417	 0.072319279759475 
418	 7.24900596559384E-02 
419	 7.26492733493239E-02 
420	 0.072835406503048 
421	 7.31759481366767E-02 
422	 7.34399589783656E-02 
423	 7.35782875301231E-02 
424	 7.36754794630468E-02 
425	 7.40821960667894E-02 
426	 7.43564366088467E-02 
427	 7.45641401607566E-02 
428	 7.49583412297194E-02 
429	 7.51836275309098E-02 
430	 7.55962187484853E-02 
431	 7.61023537749654E-02 
432	 7.60330570086008E-02 
433	 7.63191883694822E-02 
434	 7.68018388910803E-02 
435	 7.71739541700514E-02 
436	 7.74612138498422E-02 
437	 7.77270512923262E-02 
438	 7.80085821556557E-02 
439	 7.83203167843148E-02 
440	 7.86320874532124E-02 
441	 7.89967461156736E-02 
442	 7.94179755075056E-02 
443	 7.98248100913506E-02 
444	 8.00084970656314E-02 
445	 8.02283812599993E-02 
446	 0.080697636726932 
447	 8.09200441144458E-02 
448	 8.11671011722148E-02 
449	 8.14403377619833E-02 
450	 8.15637935483979E-02 
451	 8.18775057362869E-02 
452	 8.22147865964534E-02 
453	 0.082452359206281 
454	 0.082703773439101 
455	 8.29725569969033E-02 
456	 8.31980759845413E-02 
457	 8.33426204397695E-02 
458	 8.36450373793145E-02 
459	 8.38514076016326E-02 
460	 0.083920369205415 
461	 8.40495786978962E-02 
462	 0.084372433627201 
463	 8.46147698055157E-02 
464	 8.46349272214315E-02 
465	 8.48897755811081E-02 
466	 8.51143271494954E-02 
467	 8.53150807420849E-02 
468	 8.55950052292555E-02 
469	 8.57592130289583E-02 
470	 0.085893560952357 
471	 8.60501694750539E-02 
472	 8.61993319862852E-02 
473	 8.63510952883292E-02 
474	 8.66207586242066E-02 
475	 8.70324214501037E-02 
476	 8.71968057548033E-02 
477	 8.74190908512353E-02 
478	 8.77326063150229E-02 
479	 0.087986908336739 
480	 8.82635144171934E-02 
481	 8.85165246840759E-02 
482	 8.87334307488915E-02 
483	 0.088993730155097 
484	 8.93466681604942E-02 
485	 8.96558907271311E-02 
486	 8.98250171678089E-02 
487	 9.03668625797129E-02 
488	 9.08470025616865E-02 
489	 9.11121607470535E-02 
490	 9.13379372510646E-02 
491	 9.16833271669379E-02 
492	 9.20451750029226E-02 
493	 9.23506074573515E-02 
494	 0.092790192562611 
495	 9.31537466143855E-02 
496	 9.34037479972228E-02 
497	 0.09363113935349 
498	 9.41553171160703E-02 
499	 0.094680619129971 
500	 9.50638186056998E-02 
501	 9.55006648550405E-02 
502	 9.58407818134844E-02 
503	 9.62354146702726E-02 
504	 9.68028405368658E-02 
505	 9.71718760729214E-02 
506	 9.76199693687598E-02 
507	 9.81801242465437E-02 
508	 9.86805096428778E-02 
509	 9.91057506184261E-02 
510	 9.95297403615311E-02 
511	 9.99963621377924E-02 
512	 0.100436442220519 
513	 0.100957816726757 
514	 0.101501602955136 
515	 0.101966354772444 
516	 0.102555352389473 
517	 0.103125641696274 
518	 0.103578597299952 
519	 0.103913526724668 
520	 0.104433531090349 
521	 0.1051153089487 
522	 0.105807899848328 
523	 0.106204965733676 
524	 0.106661639110691 
525	 0.107212028163712 
526	 0.107682877211619 
527	 0.108362826378628 
528	 0.108993014108309 
529	 0.109473286986645 
530	 0.110179237620352 
531	 0.110830847295225 
532	 0.111390514152577 
533	 0.111917198659588 
534	 0.112498998823049 
535	 0.11300456090962 
536	 0.113493573450853 
537	 0.114245927075212 
538	 0.114750281589795 
539	 0.115253348038045 
540	 0.115996802305419 
541	 0.116586091101898 
542	 0.117120590437898 
543	 0.117703680761912 
544	 0.118408688015608 
545	 0.118921723419684 
546	 0.119495575162 
547	 0.120218669136421 
548	 0.120717712536754 
549	 0.121277867606424 
550	 0.121873472338695 
551	 0.122415484084416 
552	 0.123099230327635 
553	 0.123743230112366 
554	 0.124259088206873 
555	 0.124688236901741 
556	 0.125294068698598 
557	 0.125949833371864 
558	 0.126504906263964 
559	 0.127129216454121 
560	 0.127499533793585 
561	 0.127811983319632 
562	 0.128512240308451 
563	 0.128961425466337 
564	 0.129355499528982 
565	 0.1298209974872 
566	 0.130128659843582 
567	 0.130471293641104 
568	 0.130821016230246 
569	 0.131110835347013 
570	 0.1315312045743 
571	 0.131993139769414 
572	 0.132380076757607 
573	 0.13257281698979 
574	 0.132821962088203 
575	 0.133080409883614 
576	 0.133293114636509 
577	 0.133626935852605 
578	 0.133933892521221 
579	 0.134208196852498 
580	 0.134516215136951 
581	 0.134708828753765 
582	 0.134841681852516 
583	 0.134955302010471 
584	 0.13501857629812 
585	 0.134964872021501 
586	 0.134809688681 
587	 0.13459561505183 
588	 0.134288464655145 
589	 0.134216709080949 
590	 0.134354746319404 
591	 0.134292971127555 
592	 0.134284694430419 
593	 0.134213134060438 
594	 0.134014629893394 
595	 0.13400916808137 
596	 0.133897491029936 
597	 0.133688893815183 
598	 0.133549461604396 
599	 0.133314940332869 
600	 0.133172892671231 
601	 0.133164554332224 
602	 0.13300947657779 
603	 0.132925609733085 
604	 0.132919114957978 
605	 0.13293182661608 
606	 0.132925070366353 
607	 0.133042202752408 
608	 0.133181901133476 
609	 0.133005262211597 
610	 0.132968093377926 
611	 0.133045870214775 
612	 0.133141962269027 
613	 0.133286371030451 
614	 0.133346118506055 
615	 0.133322048468709 
616	 0.133308890775433 
617	 0.133449877563668 
618	 0.133535134916962 
619	 0.133517345357944 
620	 0.133681484094666 
621	 0.133603624747425 
622	 0.133483007983069 
623	 0.133632652729147 
624	 0.133880832500491 
625	 0.133910755387356 
626	 0.133706582601458 
627	 0.133552794859962 
628	 0.133644714274136 
629	 0.133853516861585 
630	 0.13401903963316 
631	 0.134111651828923 
632	 0.134067692415395 
633	 0.133980182883853 
634	 0.134009034004565 
635	 0.134170697495836 
636	 0.134223046153763 
637	 0.134202649596433 
638	 0.134586400147007 
639	 0.134645072568095 
640	 0.134478486775935 
641	 0.134389396753777 
642	 0.134412084163454 
643	 0.134317365137818 
644	 0.134053114316469 
645	 0.133729983312688 
646	 0.133519505998325 
647	 0.133400192506649 
648	 0.133337488033197 
649	 0.133396398980151 
650	 0.133271994846386 
651	 0.133047890386858 
652	 0.132930447543746 
653	 0.132784427994718 
654	 0.132434969889562 
655	 0.131954327698171 
656	 0.13180935750457 
657	 0.131447182076185 
658	 0.131147915450539 
659	 0.131109029767049 
660	 0.130785286607245 
661	 0.130524336001085 
662	 0.130362307986475 
663	 0.130149432398547 
664	 0.129889184224808 
665	 0.129734555537199 
666	 0.129705895770678 
667	 0.129556597762502 
668	 0.1294614488165 
669	 0.129439637928646 
670	 0.129447979875216 
671	 0.129396446313817 
672	 0.129355788551761 
673	 0.129362669204369 
674	 0.129412985841367 
675	 0.129500473832098 
676	 0.129598138886767 
677	 0.129684681520195 
678	 0.129733962872589 
679	 0.130015033084217 
680	 0.130340105783837 
681	 0.130391127295993 
682	 0.130586487740917 
683	 0.130746425135238 
684	 0.13076088973905 
685	 0.130672261047044 
686	 0.130625522711933 
687	 0.130607481484744 
688	 0.130595044656733 
689	 0.130763789236176 
690	 0.130861904577891 
691	 0.130740735000462 
692	 0.130345259862028 
693	 0.130044392727127 
694	 0.130059726774477 
695	 0.130333671721122 
696	 0.130535549578074 
697	 0.130149824739247 
698	 0.129405542285217 
699	 0.128803538768568 
700	 0.128489374814577 
701	 0.128309529556236 
702	 0.128088446670507 
703	 0.127675992899956 
704	 0.127190457923226 
705	 0.126662566627915 
706	 0.12610419724036 
707	 0.125468630956257 
708	 0.124820075476711 
709	 0.124105329813029 
710	 0.123249930307053 
711	 0.122321204472711 
712	 0.121298324191257 
713	 0.120108418123282 
714	 0.118589630793888 
715	 0.116855300436492 
716	 0.114838607469404 
717	 0.112755304134391 
718	 0.110977641690172 
719	 0.110020222971061 
720	 0.109436523075409 
721	 0.108450645139977 
722	 0.107074084499147 
723	 0.105002116312248 
724	 0.102826000253509 
725	 0.101755261204543 
726	 0.100209653050218 
727	 9.83407408263189E-02 
728	 9.65452483669233E-02 
729	 9.46620316350643E-02 
730	 9.26975794508181E-02 
731	 9.10269330474377E-02 
732	 8.98475502324085E-02 
733	 8.85580046139538E-02 
734	 8.72248789978067E-02 
735	 8.59980744145505E-02 
736	 8.50722671769946E-02 
737	 0.084667005656011 
738	 8.43449328580504E-02 
739	 8.38243621803164E-02 
740	 8.37417563110402E-02 
741	 8.36841035589193E-02 
742	 8.35999077482843E-02 
743	 8.35943327438918E-02 
744	 8.33889288553864E-02 
745	 0.083316355003601 
746	 8.34540639493445E-02 
747	 8.34630314206592E-02 
748	 8.34034170593603E-02 
749	 8.32946362536201E-02 
750	 8.31880041459468E-02 
751	 8.32573842946509E-02 
752	 8.31477231690057E-02 
753	 8.30005722532045E-02 
754	 8.31541669390035E-02 
755	 8.31091089488673E-02 
756	 8.30761941316508E-02 
757	 0.083048873385663 
758	 8.24742857533683E-02 
759	 8.18344587751655E-02 
760	 8.13088816483721E-02 
761	 8.11609380858803E-02 
762	 8.15644660066255E-02 
763	 0.082061227775789 
764	 8.24823737985019E-02 
765	 8.28562231747185E-02 
766	 0.083295935280435 
767	 8.36301995619001E-02 
768	 8.38451499980876E-02 
769	 8.40557902576755E-02 
770	 8.42291576021427E-02 
771	 8.43384886385046E-02 
772	 8.44205116786067E-02 
773	 8.46698245443189E-02 
774	 8.50876965372611E-02 
775	 8.53647653817134E-02 
776	 8.52401526469408E-02 
777	 8.55693026212911E-02 
778	 8.59770336152621E-02 
779	 8.62555450535859E-02 
780	 8.64698449279731E-02 
781	 8.67517242653533E-02 
782	 8.70931422909993E-02 
783	 8.74188891141399E-02 
784	 8.75570134232667E-02 
785	 8.78389640797834E-02 
786	 8.81137874860314E-02 
787	 8.81927202265525E-02 
788	 8.87103731340694E-02 
789	 8.90919961806813E-02 
790	 8.93506876091525E-02 
791	 8.99751622529415E-02 
792	 9.05821282974834E-02 
793	 9.09864895877053E-02 
794	 9.11741643507664E-02 
795	 0.091326955523578 
796	 9.16745890703373E-02 
797	 9.21187337073301E-02 
798	 9.25159705908217E-02 
799	 9.29308667066061E-02 
800	 9.30229796454839E-02 
801	 9.30328915695745E-02 
802	 9.34246406970429E-02 
803	 9.35537676812742E-02 
804	 9.38883074148291E-02 
805	 9.44091056700871E-02 
806	 9.45026015904496E-02 
807	 9.42664308100014E-02 
808	 0.09400997393824 
809	 9.38558326475002E-02 
810	 9.32716353511894E-02 
811	 9.26842765558745E-02 
812	 9.21461121497093E-02 
813	 0.091566606435924 
814	 9.09105159249589E-02 
815	 0.09043566056661 
816	 9.00847975412615E-02 
817	 8.95845977084163E-02 
818	 8.94599623126654E-02 
819	 8.91870869395902E-02 
820	 8.86056050818669E-02 
821	 8.80924059062175E-02 
822	 8.66773353494393E-02 
823	 8.52465032807197E-02 
824	 8.44215724898107E-02 
825	 8.29991966336211E-02 
826	 8.12361481084585E-02 
827	 7.95535052029226E-02 
828	 7.84104773878487E-02 
829	 7.70017175408822E-02 
830	 7.53750611682143E-02 
831	 0.073890813903044 
832	 7.30801934205284E-02 
833	 7.28282127618169E-02 
834	 7.23148241334321E-02 
835	 7.13588102975646E-02 
836	 7.06682412834248E-02 
837	 7.04884379530203E-02 
838	 7.04189442367153E-02 
839	 7.00857368922097E-02 
840	 6.95383835182213E-02 
841	 0.069292117318444 
842	 6.92965609832778E-02 
843	 6.92521421754508E-02 
844	 6.89035807290022E-02 
845	 6.84006647226778E-02 
846	 6.79965489104789E-02 
847	 6.79376502844104E-02 
848	 6.79170857255169E-02 
849	 6.77387093883664E-02 
850	 0.067336204927756 
851	 6.68119845664413E-02 
852	 0.066735270399733 
853	 6.67889196425559E-02 
854	 6.66047492760024E-02 
855	 6.61579981397252E-02 
856	 6.58251433435209E-02 
857	 0.065554645304479 
858	 6.52891985414019E-02 
859	 6.54935087697278E-02 
860	 6.52811968021259E-02 
861	 6.48110471037566E-02 
862	 6.47114614404595E-02 
863	 6.48259736622423E-02 
864	 6.47878689020797E-02 
865	 0.064347114972561 
866	 6.35451138417128E-02 
867	 6.37888145082912E-02 
868	 6.37066646046448E-02 
869	 6.29458401406203E-02 
870	 6.29191703235918E-02 
871	 6.27745846370527E-02 
872	 6.24792007330097E-02 
873	 6.21249048512937E-02 
874	 6.16845863557491E-02 
875	 6.14960813158191E-02 
876	 6.12583967328537E-02 
877	 0.060706976102851 
878	 6.04831626018548E-02 
879	 6.01135335484871E-02 
880	 5.98538412599617E-02 
881	 6.00327467047492E-02 
882	 5.94047425532454E-02 
883	 5.86259198171457E-02 
884	 5.82386864145166E-02 
885	 0.058445927666287 
886	 5.82257718266603E-02 
887	 5.80179160020164E-02 
888	 0.057900542863272 
889	 0.057371950464705 
890	 5.63866266877496E-02 
891	 5.60844221203629E-02 
892	 5.66158758344363E-02 
893	 5.57873823299607E-02 
894	 5.55732926180891E-02 
895	 5.54448350222954E-02 
896	 5.45337993417037E-02 
897	 5.34818792444418E-02 
898	 5.35389910817289E-02 
899	 5.33843681277311E-02 
900	 5.19576692649943E-02 
901	 5.22796048197941E-02 
902	 5.27593187517765E-02 
903	 0.053070020939593 
904	 5.31617245678845E-02 
905	 5.14435660836087E-02 
906	 5.20762707634205E-02 
907	 0.053530445941566 
908	 5.09411554945695E-02 
909	 5.10127151030546E-02 
910	 5.09842654640282E-02 
911	 5.01063263408792E-02 
912	 5.01756237407338E-02 
913	 5.08972800375659E-02 
914	 5.01140999682981E-02 
915	 4.84026177323697E-02 
916	 4.90652974457084E-02 
917	 0.047442388412091 
918	 4.68397782673701E-02 
919	 4.77382960187836E-02 
920	 4.59298635116484E-02 
921	 4.67978395003581E-02 
922	 4.72488964904175E-02 
923	 4.53113459545804E-02 
924	 4.48453266119547E-02 
925	 4.60679984108726E-02 
926	 4.64445872002776E-02 
927	 4.37274304075442E-02 
928	 4.13724626838126E-02 
929	 4.26921781194503E-02 
930	 4.54759881210797E-02 
931	 4.36640137803666E-02 
932	 4.11938171377577E-02 
933	 4.14162799885306E-02 
934	 0.044170889760107 
935	 0.046038806178142 
936	 4.55863800369264E-02 
937	 4.75613329218157E-02 
938	 4.58776422061461E-02 
939	 3.64309428032169E-02 
940	 3.34867532662168E-02 
941	 3.73705226935232E-02 
942	 3.81384794005019E-02 
943	 2.70156282900189E-02 
944	 3.59863995165447E-02 
945	 4.08009915191705E-02 
946	 3.72906961199159E-02 
947	 3.63083058943475E-02 
948	 0.041495884821799 
949	 3.59430014754011E-02 
950	 2.98170720501055E-02 
951	 4.22309456325885E-02 
952	 3.84421329470762E-02 
953	 3.39788397344538E-02 
954	 3.25502603617143E-02 
955	 2.89946611174135E-02 
956	 3.33482571954719E-02 
957	 3.28562863751318E-02 
958	 2.95746724141333E-02 
959	 3.39832548217522E-02 
960	 3.45099627233716E-02 
961	 3.65041301127087E-02 
962	 3.85659598403253E-02 
963	 3.55389454916161E-02 
964	 3.26286711561098E-02 
965	 0.032217057076146 
966	 0.035078726656955 
967	 3.99929904949695E-02 
968	 0.038179509906118 
969	 3.55177299474146E-02 
970	 3.51089309743233E-02 
971	 3.64023693128342E-02 
972	 3.97358810123729E-02 
973	 3.64540826281008E-02 
974	 3.22244173957482E-02 
975	 4.25855244798749E-02 
976	 3.81474352937839E-02 
977	 3.41716132641075E-02 
978	 3.49970551754544E-02 
979	 3.24005935346161E-02 
980	 3.46681165473922E-02 
981	 3.67243027075959E-02 
982	 3.72202570560421E-02 
983	 3.84708446123756E-02 
984	 3.89686255570787E-02 
985	 3.67323228227299E-02 
986	 3.39929420046053E-02 
987	 3.51254660668389E-02 
988	 3.61291694961385E-02 
989	 3.57463515644552E-02 
990	 3.54903162683336E-02 
991	 3.74955134011057E-02 
992	 3.48185942237232E-02 
993	 0.036486133964994 
994	 4.00410645628133E-02 
995	 3.66435343081868E-02 
996	 3.47925697099797E-02 
997	 3.83344663384268E-02 
998	 4.11789269817662E-02 
999	 3.54213876794564E-02 
1000	 3.61036241730373E-02 
1001	 3.65501381525752E-02 
1002	 3.64247171193861E-02 
1003	 3.66718779746043E-02 
1004	 3.74573790732433E-02 
1005	 3.76808799980063E-02 
1006	 3.80079385990267E-02 
1007	 3.81676745944141E-02 
1008	 3.77053559915146E-02 
1009	 3.70924926794311E-02 
1010	 0.036850915393421 
1011	 3.67083154935308E-02 
1012	 3.65640517536587E-02 
1013	 3.69338329864973E-02 
1014	 3.71949574536204E-02 
1015	 0.037531578459805 
1016	 3.79093895496454E-02 
1017	 3.84223924552806E-02 
1018	 3.87681671464661E-02 
1019	 3.93365709429522E-02 
1020	 3.94749558618146E-02 
1021	 3.95122241293193E-02 
1022	 0.039128196864483 
1023	 3.82422443956967E-02 
1024	 3.77007766467879E-02 
1025	 3.74057418934934E-02 
1026	 3.78594696101044E-02 
1027	 3.81867787129134E-02 
1028	 3.92049935994796E-02 
1029	 3.94034042120395E-02 
1030	 3.91369517317979E-02 
1031	 3.91519988190446E-02 
1032	 3.91059205355907E-02 
1033	 3.90756487323803E-02 
1034	 3.92005421709806E-02 
1035	 3.91823870081778E-02 
1036	 3.87853059325943E-02 
1037	 3.87675808263767E-02 
1038	 3.87691941645974E-02 
1039	 3.92119368370914E-02 
1040	 3.95257813858909E-02 
1041	 3.99206294954767E-02 
1042	 3.99925264652637E-02 
1043	 3.97107049549384E-02 
1044	 3.96885648369627E-02 
1045	 3.94966526013199E-02 
1046	 3.97638126600005E-02 
1047	 4.05953182393205E-02 
1048	 4.08765580630681E-02 
1049	 4.11933426830269E-02 
1050	 4.12674274242022E-02 
1051	 4.07087787118801E-02 
1052	 4.05853060528869E-02 
1053	 4.08145411980239E-02 
1054	 4.07949268344154E-02 
1055	 4.05457531907885E-02 
1056	 4.06017982832441E-02 
1057	 4.07364790852927E-02 
1058	 4.06615858598581E-02 
1059	 4.11536950184167E-02 
1060	 4.25935737563603E-02 
1061	 4.26990897318507E-02 
1062	 4.23248021674754E-02 
1063	 4.21995338638085E-02 
1064	 4.11616959128462E-02 
1065	 4.10142558590709E-02 
1066	 4.15534350885081E-02 
1067	 4.19865710435505E-02 
1068	 0.042987003158107 
1069	 4.33086433132971E-02 
1070	 4.33216006610644E-02 
1071	 4.34032309898076E-02 
1072	 0.043299892003704 
1073	 4.27594127994374E-02 
1074	 4.25241459206794E-02 
1075	 0.042554521186944 
1076	 4.24763639280994E-02 
1077	 4.21907094662927E-02 
1078	 4.21152223454965E-02 
1079	 4.23556480907017E-02 
1080	 4.21198455208569E-02 
1081	 4.15200737518428E-02 
1082	 4.13491469883942E-02 
1083	 4.13186711190845E-02 
1084	 4.11038158033928E-02 
1085	 4.08146306270344E-02 
1086	 4.08197033468905E-02 
1087	 4.09283690809659E-02 
1088	 4.07630108261706E-02 
1089	 0.040447909022646 
1090	 4.11045054637722E-02 
1091	 4.07436885254335E-02 
1092	 3.94705525845751E-02 
1093	 3.91831376374232E-02 
1094	 3.88519389409904E-02 
1095	 3.89150634815493E-02 
1096	 4.02258779193816E-02 
1097	 4.01760005979409E-02 
1098	 3.93002511287825E-02 
1099	 3.91117483775989E-02 
1100	 3.83358166275719E-02 
1101	 3.80186055010707E-02 
1102	 3.87381105106102E-02 
1103	 3.90661597887275E-02 
1104	 3.98146012324853E-02 
1105	 3.92853741003849E-02 
1106	 3.81049868307419E-02 
1107	 3.76900062009392E-02 
1108	 3.64080862740528E-02 
1109	 3.60643707520342E-02 
1110	 3.57777379848274E-02 
1111	 3.61033480556469E-02 
1112	 3.63722695004882E-02 
1113	 3.73730402509751E-02 
1114	 3.71824139931757E-02 
1115	 3.77475679691774E-02 
1116	 3.75300473686673E-02 
1117	 3.23820562912324E-02 
1118	 3.03798708224752E-02 
1119	 0.033095822135214 
1120	 3.14205429090811E-02 
1121	 2.48626896679881E-02 
1122	 2.72281529653969E-02 
1123	 3.35241968421123E-02 
1124	 2.74939824280891E-02 
1125	 3.17610388156171E-02 
1126	 4.27563143234234E-02 
1127	 3.50379600864145E-02 
1128	 0.039614551561826 
1129	 4.26542946795253E-02 
1130	 4.66495090258855E-02 
1131	 4.30348745953324E-02 
1132	 3.76035270101297E-02 
1133	 3.41948392579717E-02 
1134	 0.027607857399203 
1135	 2.80498295767223E-02 
1136	 3.38068411152848E-02 
1137	 3.44673506276584E-02 
1138	 3.52922521498675E-02 
1139	 3.34758376239428E-02 
1140	 2.93669534656895E-02 
1141	 3.12623576372971E-02 
1142	 3.23584902776461E-02 
1143	 2.95312092722592E-02 
1144	 3.14942004244736E-02 
1145	 3.02857380660281E-02 
1146	 2.60908461787758E-02 
1147	 0.028934019835234 
1148	 3.17988918390037E-02 
1149	 3.11642438929914E-02 
1150	 0.030375214271792 
1151	 2.91043198191661E-02 
1152	 2.96936318537519E-02 
1153	 3.00266847439291E-02 
1154	 3.00836542738436E-02 
1155	 3.11867345565078E-02 
1156	 3.23213425527653E-02 
1157	 3.12403329285401E-02 
1158	 3.03494193227121E-02 
1159	 3.14012756528987E-02 
1160	 3.19280534338565E-02 
1161	 3.14984184757569E-02 
1162	 3.20662244011892E-02 
1163	 3.26879837570456E-02 
1164	 3.25541886967105E-02 
1165	 3.22635111562861E-02 
1166	 3.21858530504038E-02 
1167	 0.032869973374443 
1168	 3.30721466883647E-02 
1169	 3.30460161855358E-02 
1170	 3.35497794471853E-02 
1171	 3.34390766447775E-02 
1172	 3.19528298399979E-02 
1173	 3.17460479156105E-02 
1174	 3.22007027723075E-02 
1175	 3.23340049998623E-02 
1176	 0.032288295845731 
1177	 3.26266876836849E-02 
1178	 3.31702948242828E-02 
1179	 3.34834903069174E-02 
1180	 3.36521318293338E-02 
1181	 3.37912373503621E-02 
1182	 3.32693168992472E-02 
1183	 3.24629455682232E-02 
1184	 0.032661992809921 
1185	 3.27086344367442E-02 
1186	 3.20157303953589E-02 
1187	 3.25898736869273E-02 
1188	 3.29848905056253E-02 
1189	 3.20262197899664E-02 
1190	 3.21111282428289E-02 
1191	 3.21702715614203E-02 
1192	 3.20830763644226E-02 
1193	 3.14437019653099E-02 
1194	 3.24997744955677E-02 
1195	 3.31295238029147E-02 
1196	 3.26019775012279E-02 
1197	 3.27601912711992E-02 
1198	 3.27546646706319E-02 
1199	 3.23526146622525E-02 
1200	 3.26877249011843E-02 
1201	 3.31894380609668E-02 
1202	 3.31023750799505E-02 
1203	 0.032828722620131 
1204	 0.032969162405997 
1205	 3.29004835885202E-02 
1206	 3.24184089937894E-02 
1207	 3.26760027425452E-02 
1208	 3.30360247560008E-02 
1209	 3.26333104474684E-02 
1210	 3.25495237671731E-02 
1211	 0.03279520202771 
1212	 3.24373536658589E-02 
1213	 0.032140477563592 
1214	 3.22335662194197E-02 
1215	 3.26438106714843E-02 
1216	 3.25886394779024E-02 
1217	 3.28310507789903E-02 
1218	 3.35985262071846E-02 
1219	 3.34432304102445E-02 
1220	 3.29749107817459E-02 
1221	 3.30607394880678E-02 
1222	 3.29750802057979E-02 
1223	 0.033214387971363 
1224	 3.37101247690251E-02 
1225	 3.33565686680795E-02 
1226	 3.28599613438458E-02 
1227	 3.28667463347343E-02 
1228	 3.27674883537716E-02 
1229	 3.25190873029264E-02 
1230	 3.25794440788357E-02 
1231	 3.26695024801172E-02 
1232	 3.29531937911964E-02 
1233	 3.34860514598421E-02 
1234	 3.34271877469142E-02 
1235	 0.033432396653702 
1236	 3.28358544258198E-02 
1237	 3.27806327010551E-02 
1238	 3.29102987429884E-02 
1239	 3.35321825098303E-02 
1240	 3.36057810901156E-02 
1241	 3.32344238215489E-02 
1242	 3.29840224609331E-02 
1243	 3.27609449368217E-02 
1244	 0.032667623086376 
1245	 3.29294697259557E-02 
1246	 3.33699681117791E-02 
1247	 3.33589794561752E-02 
1248	 3.30045702058682E-02 
1249	 3.29649332043188E-02 
1250	 3.30641147594377E-02 
1251	 3.29648758669946E-02 
1252	 3.29868804526872E-02 
1253	 0.033164940285524 
1254	 3.29415621796493E-02 
1255	 3.26486406557001E-02 
1256	 3.25624131258742E-02 
1257	 3.28568177850571E-02 
1258	 0.032894526113428 
1259	 3.27756467006018E-02 
1260	 3.28006384944174E-02 
1261	 3.29145078274284E-02 
1262	 3.30482194500159E-02 
1263	 3.33724896854785E-02 
1264	 0.033268242859766 
1265	 3.28224899013052E-02 
1266	 3.26765803400395E-02 
1267	 3.26951320027777E-02 
1268	 3.30790815702504E-02 
1269	 3.33109524755396E-02 
1270	 3.30862354530669E-02 
1271	 3.29642584336061E-02 
1272	 3.27100222387957E-02 
1273	 0.032665112753182 
1274	 3.30585020929828E-02 
1275	 3.30748129623998E-02 
1276	 3.29785125244006E-02 
1277	 3.33456383175869E-02 
1278	 3.35002150375294E-02 
1279	 3.33111168221634E-02 
1280	 3.28928044490895E-02 
1281	 3.27499004195327E-02 
1282	 3.27275123232509E-02 
1283	 3.26590321389732E-02 
1284	 3.25903263913974E-02 
1285	 3.26415014104081E-02 
1286	 3.26228543118055E-02 
1287	 3.26274267118319E-02 
1288	 3.29000578922735E-02 
1289	 3.31676963383334E-02 
1290	 3.36003083373667E-02 
1291	 3.34796348547871E-02 
1292	 3.30731133967943E-02 
1293	 3.29538669478245E-02 
1294	 3.27821463182447E-02 
1295	 3.24834518677378E-02 
1296	 3.28227382488338E-02 
1297	 3.35389113548419E-02 
1298	 3.33380940108743E-02 
1299	 3.26047700547099E-02 
1300	 3.29329380801369E-02 
1301	 3.29227041527914E-02 
1302	 3.17721508863398E-02 
1303	 3.18519127216359E-02 
1304	 3.25877188844203E-02 
1305	 3.21923029343421E-02 
1306	 3.19111163870484E-02 
1307	 3.24433864130112E-02 
1308	 3.30058443900299E-02 
1309	 3.29674102856013E-02 
1310	 3.26260980712201E-02 
1311	 3.30960817629098E-02 
1312	 3.33082638878238E-02 
1313	 3.18874278455322E-02 
1314	 3.12532118367955E-02 
1315	 3.18570096138495E-02 
1316	 3.20482112606495E-02 
1317	 3.18858870967972E-02 
1318	 3.15468906506101E-02 
1319	 3.12073998088777E-02 
1320	 3.12990895781307E-02 
1321	 3.09818101273502E-02 
1322	 3.09946516992957E-02 
1323	 3.18857999250904E-02 
1324	 0.032420003708986 
1325	 3.19304052892878E-02 
1326	 3.17114560326295E-02 
1327	 3.10192043336203E-02 
1328	 3.00819747258157E-02 
1329	 3.03205683416376E-02 
1330	 3.06695598465114E-02 
1331	 3.06414833131833E-02 
1332	 3.00436357317939E-02 
1333	 3.01624859241026E-02 
1334	 3.05220788021862E-02 
1335	 0.030051904642004 
1336	 3.17390052451189E-02 
1337	 3.17653110251844E-02 
1338	 2.72243372049288E-02 
1339	 0.026863709117348 
1340	 3.15407706679889E-02 
1341	 3.14121558829922E-02 
1342	 2.88490770560769E-02 
1343	 0.029622665934532 
1344	 2.93653268280963E-02 
1345	 2.71358918722225E-02 
1346	 2.67789070729217E-02 
1347	 2.93236820665624E-02 
1348	 3.25058893805509E-02 
1349	 3.02352482018991E-02 
1350	 3.10413047522271E-02 
1351	 3.05933256466312E-02 
1352	-5.70143550980087E-03 
1353	-3.05917783123034E-02 
1354	-3.51711689650595E-03 
1355	 2.06278831795718E-02 
1356	-5.90855078635919E-03 
1357	-4.66333150495861E-02 
1358	-0.153273529479096 
1359	-0.277616608766281 
1360	-0.148732725549573 
1361	-8.93796381601335E-03 
1362	-0.205580612251532 
1363	-0.293595484927377 
1364	-0.106312930792093 
1365	-0.181746066960534 
1366	-0.116521039270643 
1367	 0.493155665136905 
1368	 0.732701754446068 
1369	 0.404689194465303 
1370	 0.121790614006933 
1371	 8.40326733483416E-02 
1372	 0.114422607744462 
1373	-0.269441187778393 
1374	-0.345932790695279 
1375	 0.048807091702146 
1376	 0.212285422344734 
1377	 0.33867267623952 
1378	 0.143181953065883 
1379	-0.232070901565557 
1380	-0.302614979753085 
1381	-0.440748139044779 
1382	-0.519333605460602 
1383	-0.230829943206644 
1384	 0.203843159874277 
1385	 0.308789699442685 
1386	 0.157308824512309 
1387	 0.40745067548578 
1388	 0.698602418587739 
1389	-0.367392093158469 
1390	-0.609580873060452 
1391	-1.3254208264122 
1392	 6.40901315515255E-02 
1393	 1.50905898163103 
1394	 4.16326879780813 
1395	 1.04678971129237 
1396	 1.87391446261661 
1397	 1.81155440624053 
1398	-0.143237549496561 
1399	-0.623020473440787 
1400	-0.904035660008003 
1401	 0.341662225940364 
1402	 1.55028936517453 
1403	 1.47262946737789 
1404	 0.935971358343839 
1405	 1.20738399764226 
1406	 0.255622634787071 
1407	-4.25250740968122E-02 
1408	 0.128027448984705 
1409	 0.183294101297327 
1410	 2.71994762316271E-02 
1411	-0.120288417351546 
1412	-0.597211019849573 
1413	-0.6011653717055 
1414	-0.607969947879929 
1415	-0.593365029201357 
1416	-0.281786958073878 
1417	-0.139298558125454 
1418	-0.107128591764067 
1419	-8.42520502659845E-02 
1420	 4.60641782359217E-02 
1421	 6.56017042306574E-02 
1422	-5.16127422274662E-02 
1423	-5.41842599025974E-02 
1424	 5.48595884382679E-02 
1425	 6.17900131710818E-02 
1426	 2.23995018372334E-03 
1427	 1.85456166190331E-03 
1428	 2.86555031848728E-02 
1429	 3.85095149776994E-03 
1430	-7.06791522044008E-02 
1431	-5.69887361883107E-02 
1432	-2.2206008151303E-03 
1433	 1.7691896798143E-04 
1434	 4.11493294795083E-02 
1435	 6.89542288598139E-02 
1436	 7.35570843135103E-02 
1437	 2.47667275591247E-03 
1438	-3.46858515141999E-02 
1439	 1.38597141718119E-03 
1440	 2.97292239749044E-02 
1441	 2.13225606598274E-02 
1442	 1.51357452458361E-02 
1443	 2.11942591099842E-02 
1444	 1.81125323960081E-02 
1445	 1.46518983566869E-02 
1446	 2.02051025968535E-02 
1447	 2.79602229804644E-02 
1448	 3.50324678423985E-02 
1449	 2.44127038988183E-02 
1450	 3.96399199373846E-03 
1451	 3.35802491343398E-03 
1452	 5.66970007030151E-03 
1453	 3.80637623966801E-03 
1454	 8.89090478685252E-03 
1455	 2.39263973964414E-02 
1456	 0.026386619966837 
1457	 0.025408024474708 
1458	 2.63732128604631E-02 
1459	 2.46318028985783E-02 
1460	 2.38707882800502E-02 
1461	 2.35123221703135E-02 
1462	 2.44383651738575E-02 
1463	 0.026802134854992 
1464	 2.82217907431466E-02 
1465	 3.16616858947498E-02 
1466	 3.22104285150302E-02 
1467	 2.69304454253401E-02 
1468	 2.69569074134306E-02 
1469	 2.98233652840401E-02 
1470	 3.25749025584001E-02 
1471	 4.31595155954937E-02 
1472	 4.01128696828214E-02 
1473	 2.36722957026869E-02 
1474	 2.25955388820472E-02 
1475	 2.47880639865527E-02 
1476	 2.33397818552907E-02 
1477	 2.82492855185274E-02 
1478	 2.94697351422059E-02 
1479	 2.53190889818398E-02 
1480	 2.23986342333989E-02 
1481	 1.84415290807643E-02 
1482	 2.09238127767867E-02 
1483	 2.77136883736377E-02 
1484	 2.66282731735795E-02 
1485	 2.53517691060202E-02 
1486	 2.64292903274592E-02 
1487	 0.023052150297487 
1488	 2.22410842739416E-02 
1489	 2.50599957096793E-02 
1490	 2.68199987173938E-02 
1491	 2.83337290992827E-02 
1492	 2.84089127522901E-02 
1493	 2.80631232676307E-02 
1494	 2.86317790609307E-02 
1495	 2.89144638137045E-02 
1496	 2.84628757010055E-02 
1497	 2.80941002490386E-02 
1498	 2.84216829357311E-02 
1499	 2.85320046088976E-02 
1500	 2.82661396126997E-02 
1501	 2.83061335043819E-02 
1502	 2.87307242789672E-02 
1503	 2.89510453647856E-02 
1504	 2.88533979160722E-02 
1505	 2.90174277991473E-02 
1506	 2.94585446498222E-02 
1507	 2.97017219557746E-02 
1508	 2.96368855727392E-02 
1509	 2.99146929497123E-02 
1510	 2.99545950916122E-02 
1511	 2.88227202486227E-02 
1512	 2.81873810991704E-02 
1513	 2.85101427830244E-02 
1514	 2.87619153876764E-02 
1515	 2.88343518704595E-02 
1516	 2.90709080819812E-02 
1517	 2.94240391395855E-02 
1518	 2.93884163517498E-02 
1519	 2.95477028123493E-02 
1520	 2.95980640581853E-02 
1521	 2.89378177336408E-02 
1522	 2.89091208777608E-02 
1523	 0.029102252152155 
1524	 2.90824479080568E-02 
1525	 2.95161622695173E-02 
1526	 2.96521391414886E-02 
1527	 2.94282514624153E-02 
1528	 0.029542910683261 
1529	 2.97949918731564E-02 
1530	 0.029721608562898 
1531	 2.95687725438632E-02 
1532	 2.94869717296229E-02 
1533	 2.95684298967926E-02 
1534	 2.95702947558793E-02 
1535	 2.96966802839982E-02 
1536	 0.030108447415947 
1537	 2.96135251452006E-02 
1538	 0.029073833380039 
1539	 0.029218442275155 
1540	 2.89572805010555E-02 
1541	 2.86688224475027E-02 
1542	 2.88420500199251E-02 
1543	 2.90320610432272E-02 
1544	 2.89059312419775E-02 
1545	 2.88496049436391E-02 
1546	 0.02889269342532 
1547	 2.85450051655316E-02 
1548	 2.86560217932737E-02 
1549	 2.96563697557033E-02 
1550	 3.01067627364978E-02 
1551	 2.96750266343215E-02 
1552	 2.93734077392426E-02 
1553	 2.90241692699279E-02 
1554	 2.88124325138695E-02 
1555	 2.90767947764661E-02 
1556	 2.91879301277982E-02 
1557	 2.95618752848304E-02 
1558	 0.029871710781037 
1559	 2.93353620403941E-02 
1560	 2.90392871613477E-02 
1561	 2.94473005894094E-02 
1562	 2.94045892547125E-02 
1563	 2.92833732334209E-02 
1564	 0.030104262941458 
1565	 0.030243888529189 
1566	 2.92504617555858E-02 
1567	 2.90386767478636E-02 
1568	 2.95401968306733E-02 
1569	 2.96588794043759E-02 
1570	 2.99240287820902E-02 
1571	 3.02802449449035E-02 
1572	 0.029740657734257 
1573	 2.91154818025902E-02 
1574	 2.90377283776153E-02 
1575	 2.88997482131902E-02 
1576	 0.028953469483617 
1577	 0.029486984377415 
1578	 0.029652479220358 
1579	 2.91839474801909E-02 
1580	 2.89651268121528E-02 
1581	 2.92724281701971E-02 
1582	 2.97118174136858E-02 
1583	 3.01093035407935E-02 
1584	 3.00916228042392E-02 
1585	 2.98327994907844E-02 
1586	 2.96336705855182E-02 
1587	 2.89003613743559E-02 
1588	 2.87836025832415E-02 
1589	 2.94290137284366E-02 
1590	 2.87746764813679E-02 
1591	 2.83962833799755E-02 
1592	 2.93111078535893E-02 
1593	 2.91416691481331E-02 
1594	 2.85916031773049E-02 
1595	 2.95231552864533E-02 
1596	 2.99864853050399E-02 
1597	 2.92148449538438E-02 
1598	 2.92709685497052E-02 
1599	 2.95474420616229E-02 
1600	 2.91059327243498E-02 
1601	 2.89087459032347E-02 
1602	 0.028886987112594 
1603	 2.84319649365783E-02 
1604	 2.83472813721968E-02 
1605	 2.91011246629822E-02 
1606	 0.029147333501089 
1607	 2.82372155932378E-02 
1608	 2.79069381414105E-02 
1609	 2.85077329654481E-02 
1610	 2.89343423994106E-02 
1611	 2.87581027824712E-02 
1612	 2.89367293969591E-02 
1613	 2.88433173772687E-02 
1614	 2.81311553391463E-02 
1615	 2.82676191804278E-02 
1616	 2.86848369398701E-02 
1617	 2.86357264468552E-02 
1618	 2.87100621554399E-02 
1619	 0.028618127939538 
1620	 2.81197260853078E-02 
1621	 2.73579288547472E-02 
1622	 2.72909946702549E-02 
1623	 2.80731735514657E-02 
1624	 2.82382726588057E-02 
1625	 2.85015425396466E-02 
1626	 2.87455227278457E-02 
1627	 2.85177306525229E-02 
1628	 2.90850011842151E-02 
1629	 2.95059014562784E-02 
1630	 2.94392435825182E-02 
1631	 2.92954434927989E-02 
1632	 2.88333819837243E-02 
1633	 2.87404211274467E-02 
1634	 2.88201054985915E-02 
1635	 2.90545321284506E-02 
1636	 2.95471791252435E-02 
1637	 2.96153940843343E-02 
1638	 2.95237173548317E-02 
1639	 2.93644725671177E-02 
1640	 2.92112040145267E-02 
1641	 2.92522030550268E-02 
1642	 2.91516267543435E-02 
1643	 2.87256427613793E-02 
1644	 2.81850284801846E-02 
1645	 2.80531833743791E-02 
1646	 2.84879246913975E-02 
1647	 2.93568572791426E-02 
1648	 2.98200999757333E-02 
1649	 2.95580893781257E-02 
1650	 0.028915873394788 
1651	 2.79230393923127E-02 
1652	 2.78030524337325E-02 
1653	 2.81748219568809E-02 
1654	 2.80987715731937E-02 
1655	 2.82332398236708E-02 
1656	 2.86186732935236E-02 
1657	 2.92994925846981E-02 
1658	 2.93190750737392E-02 
1659	 2.88749208389256E-02 
1660	 2.85351241340792E-02 
1661	 2.74786422528584E-02 
1662	 0.027613101380278 
1663	 2.88240354232956E-02 
1664	 2.89119127882947E-02 
1665	 2.90973733111985E-02 
1666	 2.93873275978833E-02 
1667	 2.89494451887112E-02 
1668	 2.91494965890156E-02 
1669	 0.029786717288172 
1670	 0.029315425303351 
1671	 2.82223598826721E-02 
1672	 2.88423431233128E-02 
1673	 2.96925765695023E-02 
1674	 2.98441354256159E-02 
1675	 2.99243714478175E-02 
1676	 2.99464716470271E-02 
1677	 2.96723112424283E-02 
1678	 2.85060877019206E-02 
1679	 2.84864146765919E-02 
1680	 2.95335135733148E-02 
1681	 2.92924704927689E-02 
1682	 2.89268041354616E-02 
1683	 2.87717164068273E-02 
1684	 2.82899985739279E-02 
1685	 2.84336852110668E-02 
1686	 2.92501981082069E-02 
1687	 3.04891800892675E-02 
1688	 3.13105895367312E-02 
1689	 3.05122957445654E-02 
1690	 2.96026379580791E-02 
1691	 2.91824298527977E-02 
1692	 2.82521936205957E-02 
1693	 2.81533742117469E-02 
1694	 2.97104855296399E-02 
1695	 3.05831296290704E-02 
1696	 3.04495475040163E-02 
1697	 3.05958842389182E-02 
1698	 2.90771666664563E-02 
1699	 2.81448586269424E-02 
1700	 2.92343146698724E-02 
1701	 2.92552061876232E-02 
1702	 2.88142726764646E-02 
1703	 2.82481439551939E-02 
1704	 2.70040137867156E-02 
1705	 2.65332514637244E-02 
1706	 2.76176842640832E-02 
1707	 2.85613825119233E-02 
1708	 2.87985021460521E-02 
1709	 2.90185829574353E-02 
1710	 2.88787658421092E-02 
1711	 2.86453565989396E-02 
1712	 0.028865401597945 
1713	 2.87327414284773E-02 
1714	 2.88989807836799E-02 
1715	 2.95538159875509E-02 
1716	 2.84850646487591E-02 
1717	 0.028188042819271 
1718	 2.83082156507485E-02 
1719	 2.84742618462233E-02 
1720	 2.97100308822344E-02 
1721	 3.09428495596424E-02 
1722	 3.00649201710474E-02 
1723	 2.79353053891651E-02 
1724	 2.67665179498872E-02 
1725	 2.70536909948341E-02 
1726	 2.82760686976791E-02 
1727	 2.96243255604697E-02 
1728	 2.97276906570682E-02 
1729	 2.83709469182255E-02 
1730	 0.027643057907767 
1731	 2.80244826010106E-02 
1732	 2.82357152386581E-02 
1733	 2.83072586597456E-02 
1734	 2.82807637461963E-02 
1735	 2.77791957051965E-02 
1736	 2.82236876138103E-02 
1737	 2.92128102607886E-02 
1738	 2.83175795776282E-02 
1739	 2.80137427608428E-02 
1740	 0.029547382388101 
1741	 2.93649494075186E-02 
1742	 2.80419946756866E-02 
1743	 2.79910865532395E-02 
1744	 2.76533503541844E-02 
1745	 2.67662741564265E-02 
1746	 2.98647163360306E-02 
1747	 3.02699198892479E-02 
1748	 2.81500651059042E-02 
1749	 2.78971231714209E-02 
1750	 2.77607744616576E-02 
1751	 2.69818308082211E-02 
1752	 2.62701427799436E-02 
1753	 2.68828998867473E-02 
1754	 2.76206234333377E-02 
1755	 2.73047447325129E-02 
1756	 2.79324555656379E-02 
1757	 2.70696675467316E-02 
1758	 2.80639993137774E-02 
1759	 3.00989288679761E-02 
1760	 2.95816681950667E-02 
1761	 2.84572820137338E-02 
1762	 2.68780185177256E-02 
1763	 2.60600200221647E-02 
1764	 2.79233062819583E-02 
1765	 2.94471278677132E-02 
1766	 2.89524339463333E-02 
1767	 2.89753988737094E-02 
1768	 2.67639551273482E-02 
1769	 2.34893656555324E-02 
1770	 2.59051686163496E-02 
1771	 0.027583024279224 
1772	 2.60360735353896E-02 
1773	 2.80130150267963E-02 
1774	 2.61946882656472E-02 
1775	 0.025459620926609 
1776	 2.64451863458838E-02 
1777	 2.77757582256431E-02 
1778	 2.74695771866051E-02 
1779	 2.54196146030512E-02 
1780	 2.52396119882792E-02 
1781	 2.52503397238489E-02 
1782	 2.55005522069455E-02 
1783	 2.98138616442783E-02 
1784	 3.04475347745532E-02 
1785	 2.62263376727922E-02 
1786	 2.69136323401393E-02 
1787	 2.97809833583282E-02 
1788	 0.031707485103371 
1789	 3.65074071646862E-02 
1790	 3.73134805181016E-02 
1791	 3.53498357234819E-02 
1792	 2.94653861026553E-02 
1793	 2.77504774475511E-02 
1794	 2.27798117659787E-02 
1795	 1.02480926228749E-02 
1796	 6.11446867728129E-03 
1797	 5.21010877641758E-03 
1798	 1.93843490854995E-02 
1799	 5.39660825978752E-02 
1800	 6.53870183143006E-02 
1801	 8.01227044947057E-02 
1802	 5.63945282031974E-02 
1803	 4.09250910615449E-02 
1804	 0.034229574051802 
1805	 2.95102245493416E-02 
1806	 0.0140685745327 
1807	 0.013354312958529 
1808	 0.127565565180102 
1809	 0.230726989228546 
1810	 0.174551655126472 
1811	 0.170217693942837 
1812	 0.145495717564501 
1813	 0.136865805244257 
1814	-5.07147626716161E-02 
1815	 0.247993265122122 
1816	-26.3870561437856 
1817	-0.807986225951594 
1818	-0.671810524099261 
1819	-2.94924451210368 
1820	-12.0430117573274 
1821	 1.08529571489443 
1822	 0.571365122095747 
1823	 2.67274547917706 
1824	 2.40222657827115 
1825	 0.43659105860487 
1826	-5.73427753967713E-02 
1827	 37.4415472810394 
1828	 5.3418533369798 
1829	-2.67789062316228 
1830	-0.53275464077072 
1831	-1.65078178901705 
1832	-0.931334354797718 
1833	 0.244759776781377 
1834	 0.536070511606307 
1835	 7.42356646686903 
1836	-75.6566678586519 
1837	-1.43187993109936 
1838	-2.75293166290312 
1839	 0.204462569640262 
1840	-0.377917418270207 
1841	-0.541676721458083 
1842	-4.91773964902761E-02 
1843	 0.111314475775962 
1844	 2.17012496216577 
1845	 11.0788982020194 
1846	 3.54003511776288 
1847	 2.29636190760858 
1848	 1.16812363831094 
1849	 0.451088029219988 
1850	 1.06018853018843E-02 
1851	 0.148434554495775 
1852	 1.21174321678408E-02 
1853	 0.743167774289141 
1854	-2.54697930891815 
1855	-1.42493377386672 
1856	-1.1891355860177 
1857	-2.34701559822385 
1858	-2.27591425462652 
1859	 0.221049702054579 
1860	 1.71367126955029 
1861	 7.54711607206045 
1862	-0.994930346293846 
1863	-2.23293026863182 
1864	 6.15026114806008 
1865	 2.35938543941169 
1866	 1.76003234507329 
1867	 1.84860006812644 
1868	 3.40673501680799 
1869	-4.99727757898885 
1870	-0.319330791449874 
1871	 0.414983118871696 
1872	-0.30984840116926 
1873	-1.60977869214217 
1874	-0.895418549936973 
1875	-0.588122363763711 
1876	-0.625669533232072 
1877	-0.552230043907126 
1878	-0.505741073003268 
1879	-1.55838944576437 
1880	-1.65128340240064 
1881	-0.45549401364485 
1882	 0.238046337315083 
1883	 0.888635789542504 
1884	 0.433768747412814 
1885	 0.517239613080337 
1886	 0.554382439685777 
1887	-2.33099426549588 
1888	-1.7669647179079 
1889	-1.68704001521787 
1890	-0.259195448962343 
1891	 0.131398624454668 
1892	 0.367752572180065 
1893	 0.410599107185243 
1894	 0.267681357940052 
1895	 5.85172434821945E-02 
1896	-0.391066594436512 
1897	-2.25504697244985 
1898	-12.8920696087451 
1899	-16.4620210232837 
1900	-6.81772427035657 
1901	-0.688890302658382 
1902	-0.193161954059441 
1903	 0.284629866694686 
1904	 0.313225946698618 
1905	 0.355895729562699 
1906	 7.61502205984368E-02 
1907	-0.117911135620564 
1908	-3.12658951153759E-02 
1909	-0.932781229262576 
1910	 4.10988130160163 
1911	-2.64076591246259 
1912	-4.4677328509337 
1913	-4.4712694368542 
1914	-3.65748430614342 
1915	-2.33542154419241 
1916	-0.456970563632132 
1917	 0.285936265947478 
1918	 4.61250053610364E-02 
1919	-0.21047722034063 
1920	-0.264038406260278 
1921	 0.524042733598212 
1922	 0.798070625128073 
1923	 0.576571028184009 
1924	 0.701881360007161 
1925	 1.41133246625538 
1926	 2.151144185656 
1927	 3.95964483717157 
1928	-7.67897719720398 
1929	 4.11690771272421 
1930	-4.65995133958684E-02 
1931	-0.38538111730802 
1932	-0.522329807130969 
1933	-0.65002976570484 
1934	-0.465268505186775 
1935	 0.72941526931654 
1936	 0.681570766345713 
1937	 0.107158535882029 
1938	-1.06521881291091 
1939	-2.19260038706148 
1940	 133.605476592719 
1941	-2.41873111271186 
1942	-3.62758881147463 
1943	-0.559772168417519 
1944	-2.76016900344932 
1945	-1.60060386221027 
1946	-0.642051636104905 
1947	-7.95027715931517E-02 
1948	 0.23212466437993 
1949	 0.229054714288546 
1950	-6.43440313073479E-03 
1951	-0.226274691481205 
1952	-0.234096279228026 
1953	-0.158563091724685 
1954	-6.35359084348004E-02 
1955	 3.49913704768299E-02 
1956	 0.139528667950084 
1957	 0.106222823145139 
1958	 0.121324921437554 
1959	 0.152961415836375 
1960	 0.116293992935973 
1961	 0.124344524566103 
1962	 0.11454940884817 
1963	 6.97148965006929E-02 
1964	 5.45796986039065E-02 
1965	 3.84592015038555E-02 
1966	 2.84312761795322E-02 
1967	 1.87856171897557E-02 
1968	 1.87647954826394E-02 
1969	 1.80522936172318E-02 
1970	 1.89548533814897E-02 
1971	 1.78107141138897E-02 
1972	 2.01434269091972E-02 
1973	 2.39514775549714E-02 
1974	 2.75061899406852E-02 
1975	 3.22866106537378E-02 
1976	 3.22172276434318E-02 
1977	 2.67683795055316E-02 
1978	 2.10420265901796E-02 
1979	 2.01984071614081E-02 
1980	 1.91699060067659E-02 
1981	 2.03897489239566E-02 
1982	 2.35332714862286E-02 
1983	 2.67111645522391E-02 
1984	 2.47500299975807E-02 
1985	 2.53818158001065E-02 
1986	 2.91391921816522E-02 
1987	 3.15962347312312E-02 
1988	 3.46393737743238E-02 
1989	 0.03434002416607 
1990	 3.24464739511031E-02 
1991	 0.029615481381184 
1992	 2.59666714230823E-02 
1993	 2.52002110471398E-02 
1994	 2.51038283271514E-02 
1995	 2.60477735549067E-02 
1996	 3.00754501695472E-02 
1997	 3.65501896986993E-02 
1998	 3.92386525097581E-02 
1999	 3.75861405055499E-02 
2000	 0.033220970802918 
2001	 3.19936997999539E-02 
2002	 3.24067630015032E-02 
2003	 3.73204420421732E-02 
2004	 0.042922725114645 
2005	 4.25215261972389E-02 
2006	 3.89348085502075E-02 
2007	 3.92164296000368E-02 
2008	 5.22629168391947E-02 
2009	 5.40664301000746E-02 
2010	 4.79537424963109E-02 
2011	 4.83526783729199E-02 
2012	 4.96551263689511E-02 
2013	 4.24763537550768E-02 
2014	 4.61618611294687E-02 
2015	 5.21462665668694E-02 
2016	 0.043993083195198 
2017	 0.034743048805082 
2018	 2.84303268303483E-02 
2019	 2.80009638769675E-02 
2020	 2.88396005143393E-02 
2021	 2.74690011473428E-02 
2022	 2.51421210348185E-02 
2023	 2.10869872740775E-02 
2024	 1.90710020101008E-02 
2025	 1.71634103105375E-02 
2026	 0.016480167063214 
2027	 1.63697150538728E-02 
2028	 1.88947904192307E-02 
2029	 1.84966377402499E-02 
2030	 1.82409069936991E-02 
2031	 1.96547408502756E-02 
2032	 1.99705734396129E-02 
2033	 2.18952085957246E-02 
2034	 2.51769661397462E-02 
2035	 2.62415345695126E-02 
2036	 2.65298186716639E-02 
2037	 2.55260040369874E-02 
2038	 2.49876546242632E-02 
2039	 2.48185674994309E-02 
2040	 2.42012302877943E-02 
2041	 2.51992083938666E-02 
2042	 0.02821532510481 
2043	 3.00244238525972E-02 
2044	 3.26435721345836E-02 
2045	 3.55443049816064E-02 
2046	 3.71975095724134E-02 
2047	 3.47424654586731E-02 
2048	 3.51632772563297E-02 
2049	 3.85058345524297E-02 
2050	 3.67193489830228E-02 
2051	 3.74282644646848E-02 
2052	 3.84634363439551E-02 
2053	 3.29415134252267E-02 
2054	 3.08247471390284E-02 
2055	 3.18946241682798E-02 
2056	 3.16454402658778E-02 
2057	 3.20948420513207E-02 
2058	 3.23111935947533E-02 
2059	 3.23770867252778E-02 
2060	 3.02012821006992E-02 
2061	 2.57399737025742E-02 
2062	 2.37451024924838E-02 
2063	 2.35111831426406E-02 
2064	 2.69251684989981E-02 
2065	 3.03665635956014E-02 
2066	 3.21448518952899E-02 
2067	 3.16536193936626E-02 
2068	 2.68929679821907E-02 
2069	 2.56176831620553E-02 
2070	 2.88311180440164E-02 
2071	 2.85887467165049E-02 
2072	 2.88714166287735E-02 
2073	 3.00957597562183E-02 
2074	 3.09485238902448E-02 
2075	 3.17261463552798E-02 
2076	 0.035057803442094 
2077	 3.50418487209502E-02 
2078	 3.17031074060604E-02 
2079	 3.07487313976352E-02 
2080	 3.02533853666164E-02 
2081	 2.88997241704696E-02 
2082	 0.02530996557171 
2083	 2.46381337328731E-02 
2084	 2.54905411756618E-02 
2085	 2.42085155622117E-02 
2086	 2.37455022464661E-02 
2087	 0.025483505297481 
2088	 2.52374440238053E-02 
2089	 2.43296249361405E-02 
2090	 2.62113164048293E-02 
2091	 2.85221323399418E-02 
2092	 2.97593116853263E-02 
2093	 2.97757327937542E-02 
2094	 2.95451524294852E-02 
2095	 2.92944515829687E-02 
2096	 2.80536563365942E-02 
2097	 2.33789125170736E-02 
2098	 2.34532021275253E-02 
2099	 2.59791168812819E-02 
2100	 0.028661846496269 
2101	 3.05486615325775E-02 
2102	 3.18385487690223E-02 
2103	 0.031797929282068 
2104	 3.11810351300005E-02 
2105	 3.20394560007928E-02 
2106	 3.16391557721108E-02 
2107	 2.97505682363216E-02 
2108	 2.82192456317304E-02 
2109	 2.91918488425465E-02 
2110	 3.21785261932252E-02 
2111	 0.033348583569753 
2112	 3.11612851656452E-02 
2113	 0.028896161820492 
2114	 2.24176539231194E-02 
2115	 2.09276889251327E-02 
2116	 2.15295223388788E-02 
2117	 2.19116373210005E-02 
2118	 2.39052490284735E-02 
2119	 2.56235809951094E-02 
2120	 2.69841856267014E-02 
2121	 2.94608178812172E-02 
2122	 3.13865428116762E-02 
2123	 3.50704045139647E-02 
2124	 3.43510200390974E-02 
2125	 3.19034495215036E-02 
2126	 3.33384907110015E-02 
2127	 3.15290189545188E-02 
2128	 2.95074344098218E-02 
2129	 3.24214688539494E-02 
2130	 3.40812609856684E-02 
2131	 3.45347665942964E-02 
2132	 0.036817247128012 
2133	 0.037532691746027 
2134	 0.036369839724069 
2135	 3.17332946695285E-02 
2136	 3.06690528802022E-02 
2137	 2.98528220930755E-02 
2138	 2.90069122753804E-02 
2139	 3.09094675836453E-02 
2140	 3.05105040388644E-02 
2141	 2.69962955774761E-02 
2142	 2.63213770047337E-02 
2143	 2.71483442852008E-02 
2144	 2.61436993034817E-02 
2145	 0.027859515695236 
2146	 3.03360265519237E-02 
2147	 3.22013254580376E-02 
2148	 3.47021366584946E-02 
2149	 3.31863830392351E-02 
2150	 0.032301713743974 
2151	 3.22890722439422E-02 
2152	 3.06726802846319E-02 
2153	 3.05208902906661E-02 
2154	 0.0318543084861 
2155	 3.07141499423097E-02 
2156	 2.79425946501557E-02 
2157	 2.68609701192813E-02 
2158	 2.68667618866248E-02 
2159	 2.60529902894028E-02 
2160	 2.56311902385978E-02 
2161	 2.55987621465523E-02 
2162	 2.41831695652118E-02 
2163	 2.47968691228086E-02 
2164	 2.80517679491081E-02 
2165	 0.028825507397927 
2166	 3.03215295684911E-02 
2167	 3.04724699394181E-02 
2168	 2.63276012321626E-02 
2169	 2.58499199606382E-02 
2170	 2.67235130924958E-02 
2171	 0.028582897211112 
2172	 3.14107442637938E-02 
2173	 3.35634832279227E-02 
2174	 3.43491211737487E-02 
2175	 3.26787953819233E-02 
2176	 2.88258220247238E-02 
2177	 2.68259902029427E-02 
2178	 2.16470954166747E-02 
2179	 1.98923043735408E-02 
2180	 2.46162054551084E-02 
2181	 2.62695017492007E-02 
2182	 2.96189321770816E-02 
2183	 0.032279481935437 
2184	 2.87857511070478E-02 
2185	 2.60138360600931E-02 
2186	 0.026268540624521 
2187	 2.86517957929428E-02 
2188	 0.029245575639977 
2189	 3.13106456678464E-02 
2190	 3.27756250139189E-02 
2191	 3.19339796069303E-02 
2192	 3.17754041291464E-02 
2193	 3.27107466068838E-02 
2194	 3.51531397729073E-02 
2195	 4.03408273359751E-02 
2196	 4.09339140334993E-02 
2197	 3.88484881543705E-02 
2198	 4.05097035403669E-02 
2199	 4.27214448771732E-02 
2200	 3.90088688298646E-02 
2201	 3.96585699057397E-02 
2202	 4.21231867260866E-02 
2203	 3.48913064984613E-02 
2204	 3.09958000169123E-02 
2205	 3.97939640797839E-02 
2206	 3.69178020656395E-02 
2207	 2.80150116248357E-02 
2208	 3.36702159719074E-02 
2209	 3.36729917033959E-02 
2210	 2.67915461736777E-02 
2211	 3.43742556829414E-02 
2212	 4.12943540928269E-02 
2213	 4.15342513973144E-02 
2214	 4.70608577951154E-02 
2215	 4.40795900857767E-02 
2216	 3.43059261691491E-02 
2217	 3.06876775740362E-02 
2218	 2.44582346389084E-02 
2219	 2.41141125707782E-02 
2220	 3.18479851014166E-02 
2221	 3.41886800906161E-02 
2222	 3.67385332139625E-02 
2223	 3.59964821016068E-02 
2224	 0.033392350952864 
2225	 3.11323373667025E-02 
2226	 0.024856338061755 
2227	 2.28696526798213E-02 
2228	 2.35743455100347E-02 
2229	 2.15806807592968E-02 
2230	 1.97220079542981E-02 
2231	 1.87608217243259E-02 
2232	 1.55752906491801E-02 
2233	 1.74638668805515E-02 
2234	 2.50992638374798E-02 
2235	 2.62640389919575E-02 
2236	 3.18815849786053E-02 
2237	 3.39634590572866E-02 
2238	 3.35554150332227E-02 
2239	 3.83491617988322E-02 
2240	 0.037486510737142 
2241	 3.25399225456839E-02 
2242	 2.51478743888967E-02 
2243	 2.09068454481038E-02 
2244	 2.66542031230719E-02 
2245	 3.53119796499542E-02 
2246	 0.041670112464093 
2247	 4.22243256645324E-02 
2248	 3.35969452424509E-02 
2249	 2.33688338048566E-02 
2250	 1.96589906484947E-02 
2251	 2.22906894937181E-02 
2252	 2.66363783988132E-02 
2253	 0.029382150089688 
2254	 3.17610913745368E-02 
2255	 3.00927316695945E-02 
2256	 2.57300244821969E-02 
2257	 2.38107208811959E-02 
2258	 1.94867119607748E-02 
2259	 2.12079990780325E-02 
2260	 2.46984641849397E-02 
2261	 0.033325908406082 
2262	 0.038197436816037 
2263	 4.55798751997108E-02 
2264	 4.42651828448891E-02 
2265	 3.82243180537019E-02 
2266	 3.37374838440798E-02 
2267	 2.15960221642842E-02 
2268	 1.94074002842898E-02 
2269	 2.29520144722861E-02 
2270	 2.55701419012132E-02 
2271	 3.60642709755052E-02 
2272	 3.84018631733617E-02 
2273	 3.40648780361099E-02 
2274	 3.19000170958353E-02 
2275	 0.027460525641749 
2276	 2.46161612763506E-02 
2277	 2.38362762310211E-02 
2278	 2.30202012895476E-02 
2279	 2.02775141398272E-02 
2280	 2.02482440706895E-02 
2281	 2.25614570164637E-02 
2282	 2.44435432184425E-02 
2283	 3.00608972677907E-02 
2284	 2.81925979292794E-02 
2285	 2.46956411611203E-02 
2286	 2.66191913315293E-02 
2287	 2.37859831034937E-02 
2288	 2.61558373404554E-02 
2289	 3.19553914864055E-02 
2290	 3.03008374960354E-02 
2291	 2.37435473695263E-02 
2292	 2.03791147408853E-02 
2293	 1.51477184728238E-02 
2294	 8.28601996863087E-03 
2295	 1.73184972386999E-02 
2296	 2.58617995599076E-02 
2297	 2.62347227691457E-02 
2298	 3.87785330066869E-02 
2299	 4.26074562787793E-02 
2300	 4.16085235250634E-02 
2301	 5.63655733599059E-02 
2302	 5.72050565076424E-02 
2303	 4.85906614253963E-02 
2304	 5.30351781974338E-02 
2305	 5.17129995044424E-02 
2306	 4.83840514337095E-02 
2307	 5.23419881777277E-02 
2308	 4.97651381453631E-02 
2309	 4.59132869886346E-02 
2310	 0.039752064561661 
2311	 4.29916959937945E-02 
2312	 5.08584180136403E-02 
2313	 3.93880756294874E-02 
2314	 3.15828863207753E-02 
2315	 2.93087001175264E-02 
2316	 2.19091917724399E-02 
2317	 0.025691135986011 
2318	 3.79326603197367E-02 
2319	 3.67605191304109E-02 
2320	 2.86675841286047E-02 
2321	 2.53682744188672E-02 
2322	 3.70579910077553E-02 
2323	 6.19030992171295E-02 
2324	 6.63775083325681E-02 
2325	 6.66177852206683E-02 
2326	 5.62293261277856E-02 
2327	 3.07257587053749E-02 
2328	 2.40593399780319E-02 
2329	 2.98849079095655E-02 
2330	 3.86578372519316E-02 
2331	 4.08790865769893E-02 
2332	 4.96497455044716E-02 
2333	 5.26024461744056E-02 
2334	 4.17332018548973E-02 
2335	 0.044820921457074 
2336	 0.037469777104181 
2337	 2.76745136418635E-02 
2338	 4.47077731120123E-02 
2339	 5.73602212962225E-02 
2340	 8.26871664578134E-02 
2341	 0.110632607211324 
2342	 9.91369133406201E-02 
2343	 8.06713556023365E-02 
2344	 6.03409678932875E-02 
2345	 4.10259681011229E-02 
2346	 4.21297675016121E-02 
2347	 6.24332621321133E-02 
2348	 5.96551888023569E-02 
2349	 5.42127235328373E-02 
2350	 5.94596243486548E-02 
2351	 4.67697140963117E-02 
2352	 7.11131220464044E-02 
2353	 9.39429420520134E-02 
2354	 7.45334887771571E-02 
2355	 5.76354334088297E-02 
2356	 3.68511954677083E-02 
2357	 0.011442811703866 
2358	-8.54434760605102E-03 
2359	 1.31758377051905E-02 
2360	 4.30016707807191E-02 
2361	 0.036015770132716 
2362	 4.51509710160744E-02 
2363	 4.48284015685196E-02 
2364	 2.82950583026912E-02 
2365	 3.70182011513096E-02 
2366	 3.56706992292851E-02 
2367	 2.83155256943343E-02 
2368	-1.48141889016319E-02 
2369	-7.53142480337488E-02 
2370	-6.98248185111379E-02 
2371	-3.12523953605832E-02 
2372	 6.09590506326896E-03 
2373	 4.01162735410968E-02 
2374	 2.82835165200842E-02 
2375	 2.88208937802914E-04 
2376	 1.7848262467759E-03 
2377	-4.3114064758865E-03 
2378	 5.54595044322946E-02 
2379	 0.106991443183168 
2380	 1.11083456768747E-02 
2381	 8.09612578388754E-03 
2382	-4.67828161091591E-02 
2383	-0.127962056364158 
2384	-8.16701124706797E-02 
2385	-4.19160657005401E-02 
2386	 7.21856302913589E-02 
2387	 5.30375079827115E-02 
2388	-5.61282955298429E-02 
2389	-0.101469477602735 
2390	-0.140079153519486 
2391	-6.28900592872839E-02 
2392	 5.47158743226751E-02 
2393	 0.15638591558236 
2394	 0.153711758623934 
2395	 6.21175702628239E-02 
2396	 4.91769065433774E-03 
2397	-1.64956390477593E-02 
2398	 4.45884146797998E-02 
2399	 7.71745751994462E-02 
2400	 8.31506960888629E-02 
2401	 2.11472099770526E-02 
2402	-1.49078239365807E-02 
2403	-0.045307937045207 
2404	-0.119391236474062 
2405	 4.54597163019288E-02 
2406	 7.44867180274997E-02 
2407	-2.76872631454153E-02 
2408	 5.12029384207007E-02 
2409	 8.45106957686383E-02 
2410	 0.233444907597868 
2411	 0.529071137315087 
2412	 0.763085712933434 
2413	 0.726345988395204 
2414	 2.27920381322045E-02 
2415	-0.196377914036893 
2416	-0.300436722666397 
2417	-0.272714541502882 
2418	-0.188202548321761 
2419	-0.127872160218876 
2420	 0.124777951771743 
2421	 0.629714807665256 
2422	 0.205252581540562 
2423	-0.6170900775852 
2424	-0.26167220487328 
2425	 0.557807897180862 
2426	 3.19723160486895 
2427	 1.23307266441934 
2428	 0.887399744585793 
2429	 0.360017028593975 
2430	 0.17608085797545 
2431	 0.274686094393497 
2432	 0.222279128252691 
2433	 0.542140223880472 
2434	 0.552289232806145 
2435	 0.528129267998716 
2436	 1.78771115694648 
2437	 297.991014509801 
2438	-1.22005070027526 
2439	-4.57232050143033 
2440	 67.8342426704179 
2441	 60.9877032233468 
2442	 3.23883947988779 
2443	 3.39456811682593 
2444	-22.8871770523316 
2445	-3.50958160749797 
2446	-0.411119553952114 
2447	-8.32720619021023E-02 
2448	 0.195382321997769 
2449	 0.432557024338645 
2450	 0.535186579829818 
2451	 0.693316827651544 
2452	 0.767106013033469 
2453	 1.17412191759014 
2454	 1.34272303771928 
2455	 0.809414414803809 
2456	 0.21545646044359 
2457	-0.476121113751037 
2458	-0.663335731079268 
2459	-0.766521065063839 
2460	-1.37277168798744 
2461	 0.42030816835569 
2462	 0.510866702664108 
2463	-0.21619425248289 
2464	-0.397498816206243 
2465	-0.456042936014549 
2466	-0.806480944871539 
2467	-0.919827878839589 
2468	 7.41225294555796E-02 
2469	 4.90274399352035 
2470	-3.18107431158443 
2471	-2.05045561895489 
2472	 0.440925266033236 
2473	 1.60293172912344 
2474	 3.49861480456927 
2475	 0.604529029329895 
2476	-0.256695114459188 
2477	-2.12058738208474 
2478	-3.03400861853232 
2479	-0.528904592875956 
2480	-0.590271891183708 
2481	-0.889457045337646 
2482	-0.784779096226913 
2483	-0.341514440325632 
2484	-0.119019637429528 
2485	-0.410897817955865 
2486	-8.95614178310613E-02 
2487	 1.33076830675003 
2488	 0.564196256166505 
2489	 0.519379568751149 
2490	 0.43246417372883 
2491	-0.309375702585115 
2492	-0.592887638904041 
2493	-1.18811865419858 
2494	-1.24715303800972 
2495	-3.41103106524379 
2496	 6.22589934573297 
2497	 1.93493680799156 
2498	 6.35093611231705 
2499	 0.569294896693909 
2500	 1.70212134639193 
