Wavelength	rt0713west_far_cloud00003.asd
350	 4.69589886148613E-02 
351	 4.71745812291212E-02 
352	 4.70548314886055E-02 
353	 4.70510485515209E-02 
354	 4.73705616863599E-02 
355	 4.73459972884177E-02 
356	 4.75497910618351E-02 
357	 4.76685840675364E-02 
358	 4.73405468189816E-02 
359	 4.71008039009645E-02 
360	 4.74851644737932E-02 
361	 4.80012193830936E-02 
362	 4.76224065247273E-02 
363	 4.73384327929498E-02 
364	 4.72158062026502E-02 
365	 4.72397270765066E-02 
366	 4.74654730158074E-02 
367	 4.75693646672019E-02 
368	 4.76582782285745E-02 
369	 4.78967296257484E-02 
370	 4.82580169117194E-02 
371	 4.82003311460897E-02 
372	 4.79735137176062E-02 
373	 4.82012243428358E-02 
374	 4.82113154404747E-02 
375	 4.85346074933065E-02 
376	 0.049076329981199 
377	 4.87734427902621E-02 
378	 4.91036522147533E-02 
379	 4.92619571258203E-02 
380	 4.86682228603527E-02 
381	 4.91824927490014E-02 
382	 0.049333895112708 
383	 4.93518268166392E-02 
384	 5.00425850202337E-02 
385	 5.00908150076377E-02 
386	 4.98532527707483E-02 
387	 4.97581522765188E-02 
388	 5.01126958943746E-02 
389	 5.06683634179126E-02 
390	 5.10044484562341E-02 
391	 0.050940038994517 
392	 5.08633471451316E-02 
393	 5.09150925092231E-02 
394	 5.10359130678953E-02 
395	 0.051141318899882 
396	 5.15304507082478E-02 
397	 5.19554091931018E-02 
398	 5.21260764528664E-02 
399	 5.18045274849028E-02 
400	 5.18482256823773E-02 
401	 5.20977701157469E-02 
402	 5.22953673554204E-02 
403	 5.23288952638885E-02 
404	 5.25942592849599E-02 
405	 5.28826919161921E-02 
406	 5.28622966472451E-02 
407	 5.28880068467043E-02 
408	 5.30626667184708E-02 
409	 5.32981360153887E-02 
410	 5.33548328826313E-02 
411	 5.33898450425757E-02 
412	 5.35410827862654E-02 
413	 5.38010782306099E-02 
414	 5.38084797110622E-02 
415	 0.054039419672159 
416	 5.43416487303329E-02 
417	 5.44036283149851E-02 
418	 5.46355258866017E-02 
419	 5.49323171931518E-02 
420	 5.51762926220557E-02 
421	 5.52869637948961E-02 
422	 5.55274219123907E-02 
423	 5.58242332878497E-02 
424	 5.60833746938391E-02 
425	 0.056367701259354 
426	 5.66566519397882E-02 
427	 5.69375452627278E-02 
428	 5.72073434453187E-02 
429	 5.75024786842452E-02 
430	 5.78410378142893E-02 
431	 5.81927215203616E-02 
432	 5.84778336047326E-02 
433	 5.87923817165003E-02 
434	 5.91051154693167E-02 
435	 5.93887667419602E-02 
436	 5.97116847591614E-02 
437	 6.00608114859873E-02 
438	 6.04332247127714E-02 
439	 6.08195770497998E-02 
440	 6.11279438970619E-02 
441	 6.14504016587064E-02 
442	 0.061810982340199 
443	 6.21051506894748E-02 
444	 6.23757586807649E-02 
445	 6.26664152731043E-02 
446	 6.29935237669964E-02 
447	 0.063268685574558 
448	 6.35530228656506E-02 
449	 6.38272393441368E-02 
450	 6.40299005411737E-02 
451	 6.43951229146822E-02 
452	 6.45992146272505E-02 
453	 6.45801081111291E-02 
454	 6.49841638886853E-02 
455	 6.52440620493299E-02 
456	 6.53695898979084E-02 
457	 6.55503314551254E-02 
458	 6.57541319233679E-02 
459	 0.065927383930542 
460	 0.066046280294867 
461	 6.61254798803116E-02 
462	 6.63339428820468E-02 
463	 6.65210938733671E-02 
464	 6.65861136211801E-02 
465	 6.67450997940961E-02 
466	 6.69241703093352E-02 
467	 0.067108198354068 
468	 6.73005664582999E-02 
469	 0.067442094851275 
470	 0.067653923939094 
471	 6.79007646576106E-02 
472	 6.79196267656976E-02 
473	 6.81061963922016E-02 
474	 6.83299224945523E-02 
475	 6.84265688953075E-02 
476	 6.86428445974629E-02 
477	 6.87576864757894E-02 
478	 6.89321157334037E-02 
479	 6.95034449947252E-02 
480	 6.96501760710115E-02 
481	 6.97703870170213E-02 
482	 7.01107450187565E-02 
483	 7.02566248228699E-02 
484	 7.05357223968201E-02 
485	 7.09343232939857E-02 
486	 7.13191044961227E-02 
487	 7.16622257352442E-02 
488	 7.19352781427846E-02 
489	 7.21917758583548E-02 
490	 7.25539905622565E-02 
491	 7.29378762387372E-02 
492	 7.33295697505043E-02 
493	 7.37174150648739E-02 
494	 7.40464140750684E-02 
495	 7.45435910070159E-02 
496	 7.50630641719335E-02 
497	 7.53286827817033E-02 
498	 7.57111780532913E-02 
499	 7.62387814224717E-02 
500	 7.68144326727212E-02 
501	 7.72094852908428E-02 
502	 7.76468374849762E-02 
503	 7.81856528410928E-02 
504	 7.87954573808252E-02 
505	 7.92963351343885E-02 
506	 7.97979625021373E-02 
507	 0.080351983311063 
508	 0.080952295498348 
509	 8.15549992164428E-02 
510	 8.21014465821326E-02 
511	 8.26098479502644E-02 
512	 8.32867100606969E-02 
513	 8.39644467674182E-02 
514	 8.45511737130128E-02 
515	 8.50459734979593E-02 
516	 0.085864167279117 
517	 8.67068960103682E-02 
518	 8.74045238280695E-02 
519	 8.80368438802424E-02 
520	 8.87386303792218E-02 
521	 8.94968113744269E-02 
522	 9.02554127071636E-02 
523	 9.09491805931243E-02 
524	 9.15453433817328E-02 
525	 9.21442958988015E-02 
526	 9.29225250940964E-02 
527	 9.37498610898011E-02 
528	 9.44524206041483E-02 
529	 9.50096423322891E-02 
530	 9.56968509277591E-02 
531	 9.64500695127626E-02 
532	 0.097197532246033 
533	 9.78658150828841E-02 
534	 9.84687446343854E-02 
535	 0.099097174995658 
536	 9.97996437773623E-02 
537	 0.100567206479393 
538	 0.10122408656746 
539	 0.101855803610305 
540	 0.102557714088351 
541	 0.103223055730175 
542	 0.103910886165017 
543	 0.104616593312532 
544	 0.105302647972317 
545	 0.106005602806281 
546	 0.106681624084897 
547	 0.107311618068061 
548	 0.107938862954152 
549	 0.108601831472448 
550	 0.109290883574596 
551	 0.109965800905611 
552	 0.110523935747001 
553	 0.111161116191213 
554	 0.111878457530021 
555	 0.112441411724851 
556	 0.113077937093532 
557	 0.113654632716195 
558	 0.114072573724191 
559	 0.114651044739445 
560	 0.115182309058313 
561	 0.115629170324682 
562	 0.11606437523277 
563	 0.116471021632653 
564	 0.116900978517259 
565	 0.117353227329237 
566	 0.117716456553162 
567	 0.117985921924476 
568	 0.118218522528914 
569	 0.118487074422405 
570	 0.118774377249805 
571	 0.11909478787617 
572	 0.11939763636689 
573	 0.119567260766416 
574	 0.119766830426534 
575	 0.119948054199236 
576	 0.120068764692548 
577	 0.12027231309577 
578	 0.120495488083957 
579	 0.120620196653641 
580	 0.120547686126801 
581	 0.120708150829992 
582	 0.12080804947125 
583	 0.12069108317837 
584	 0.120608526348643 
585	 0.12060058561984 
586	 0.120525105141241 
587	 0.120231936185417 
588	 0.120032191788171 
589	 0.11996284067004 
590	 0.11990215359528 
591	 0.11960412175459 
592	 0.119418149783988 
593	 0.119267710326277 
594	 0.119021542527777 
595	 0.118645379829526 
596	 0.118222210654482 
597	 0.117809776058987 
598	 0.117430573052801 
599	 0.116894873898979 
600	 0.116497932215026 
601	 0.11633586710631 
602	 0.116068621183109 
603	 0.115823621109219 
604	 0.115671014107854 
605	 0.115640201396005 
606	 0.11561842407138 
607	 0.115578991226713 
608	 0.115560838729174 
609	 0.115655912645684 
610	 0.115622984125858 
611	 0.115546171643462 
612	 0.115535047041664 
613	 0.115566265460002 
614	 0.11553284557247 
615	 0.115428189926523 
616	 0.115332360394981 
617	 0.115504725556781 
618	 0.115478178190636 
619	 0.115169205078895 
620	 0.115233296612311 
621	 0.115252251398073 
622	 0.115201407648535 
623	 0.115154584539149 
624	 0.115038296947363 
625	 0.115060861032452 
626	 0.115155964626847 
627	 0.115005712636041 
628	 0.114848352547415 
629	 0.114840670891023 
630	 0.114984778974601 
631	 0.114964263662281 
632	 0.114736742731379 
633	 0.114482898374167 
634	 0.114440621773142 
635	 0.114308750466982 
636	 0.114124443425942 
637	 0.113898452579187 
638	 0.113545297388339 
639	 0.113455460359768 
640	 0.113343894449589 
641	 0.112934920775734 
642	 0.11288101300872 
643	 0.112600198279223 
644	 0.112144494324396 
645	 0.112067497470918 
646	 0.111765367233899 
647	 0.11136082915282 
648	 0.111067792032699 
649	 0.110973932021163 
650	 0.110843388437455 
651	 0.110641162392188 
652	 0.110412497746573 
653	 0.110087956054128 
654	 0.109749595291402 
655	 0.109430679998127 
656	 0.109119289296391 
657	 0.108771067096053 
658	 0.108439893484802 
659	 0.108158454079576 
660	 0.107876991451477 
661	 0.10755220448681 
662	 0.107264881400825 
663	 0.107144083666544 
664	 0.106886248001965 
665	 0.106606845697351 
666	 0.106399629552308 
667	 0.106222108125799 
668	 0.106171195337559 
669	 0.106114288327767 
670	 0.105933340833792 
671	 0.105989521093442 
672	 0.105996035051453 
673	 0.105910710025745 
674	 0.105937799123019 
675	 0.10591625836136 
676	 0.106032744811173 
677	 0.106363455890637 
678	 0.106553623744406 
679	 0.106763530352534 
680	 0.107067916643646 
681	 0.107472359321792 
682	 0.107741855066601 
683	 0.108116974081096 
684	 0.108690466660851 
685	 0.10936420560647 
686	 0.109932582651352 
687	 0.110601135442844 
688	 0.111439849107756 
689	 0.11172346828635 
690	 0.112182361881853 
691	 0.112896187335601 
692	 0.113538336394532 
693	 0.113905380779429 
694	 0.114317383217362 
695	 0.114838961213126 
696	 0.115056864187643 
697	 0.115187321989435 
698	 0.115376133154242 
699	 0.115648743750038 
700	 0.115583224056083 
701	 0.115473728431796 
702	 0.115407862432958 
703	 0.115271178356996 
704	 0.1150742488763 
705	 0.114759562791083 
706	 0.114295934175622 
707	 0.113699233934551 
708	 0.112975812037823 
709	 0.112127715909044 
710	 0.111154193510399 
711	 0.110030638600198 
712	 0.108866623818354 
713	 0.107624163150814 
714	 0.106074655000858 
715	 0.104717644669425 
716	 0.103249502398429 
717	 0.101399814947496 
718	 9.94804473888076E-02 
719	 9.74457190729886E-02 
720	 9.57521660597658E-02 
721	 9.43410281144814E-02 
722	 9.24905622073818E-02 
723	 9.05345228377717E-02 
724	 8.88074018497455E-02 
725	 8.67563582600064E-02 
726	 8.45493750244906E-02 
727	 8.21924280791689E-02 
728	 7.96556748277276E-02 
729	 0.076766711934447 
730	 7.40381863874936E-02 
731	 7.16586612329585E-02 
732	 6.94486600283582E-02 
733	 0.067492209638176 
734	 6.58864990422576E-02 
735	 6.45666037901802E-02 
736	 6.32112875816655E-02 
737	 6.24482668046058E-02 
738	 6.19304754729308E-02 
739	 6.13196881191854E-02 
740	 6.09804291054661E-02 
741	 6.07131587765112E-02 
742	 6.04878040805314E-02 
743	 6.03569985530733E-02 
744	 0.060322058581557 
745	 6.02212678401802E-02 
746	 0.060075491198074 
747	 6.01643197733508E-02 
748	 6.01264846989753E-02 
749	 6.00213346197104E-02 
750	 5.99784319281782E-02 
751	 5.99924031611062E-02 
752	 5.98714792336293E-02 
753	 5.97766872102925E-02 
754	 5.99813453697323E-02 
755	 5.99659486708938E-02 
756	 5.98806162422994E-02 
757	 5.98795360142554E-02 
758	 6.00876375398607E-02 
759	 0.060291852950402 
760	 6.04602495753507E-02 
761	 6.05613842618266E-02 
762	 6.04544396123013E-02 
763	 6.03538877412401E-02 
764	 6.02885448534373E-02 
765	 6.02514341815416E-02 
766	 6.05124855347467E-02 
767	 0.060644292966163 
768	 6.06293985637237E-02 
769	 6.08163661239994E-02 
770	 6.10014705012355E-02 
771	 6.11527977678985E-02 
772	 6.12953189060817E-02 
773	 6.15125399438015E-02 
774	 6.18015665771447E-02 
775	 6.20846467749724E-02 
776	 6.22881994816561E-02 
777	 6.25617809843353E-02 
778	 0.062868473010048 
779	 6.31985898987881E-02 
780	 6.35798172313711E-02 
781	 6.39361703318739E-02 
782	 0.064255408126131 
783	 6.45600734396158E-02 
784	 6.49072640295037E-02 
785	 6.54405839877883E-02 
786	 6.59611944181991E-02 
787	 6.62501760356096E-02 
788	 6.67341566790288E-02 
789	 6.72201254418031E-02 
790	 6.76991886677841E-02 
791	 6.82975902683635E-02 
792	 6.85641462429031E-02 
793	 6.88965888660832E-02 
794	 6.94660785232891E-02 
795	 6.98715677610557E-02 
796	 0.070263704202404 
797	 7.07296958691779E-02 
798	 7.12772911278303E-02 
799	 7.16311235186223E-02 
800	 7.19606088425451E-02 
801	 7.23437317714628E-02 
802	 7.27665382860229E-02 
803	 7.29923455825464E-02 
804	 7.30448031160422E-02 
805	 7.30847220498692E-02 
806	 7.33602339152394E-02 
807	 7.34617759688484E-02 
808	 7.32683842875106E-02 
809	 7.28822426175455E-02 
810	 7.28217471277058E-02 
811	 7.27755472489447E-02 
812	 7.25242337188544E-02 
813	 7.19687471018241E-02 
814	 7.16229600603935E-02 
815	 7.14148726519175E-02 
816	 7.11035546146859E-02 
817	 7.04063712348868E-02 
818	 6.93603942376567E-02 
819	 0.068700211125653 
820	 0.068338923305092 
821	 6.72186737971618E-02 
822	 6.55307085979716E-02 
823	 0.064024939641559 
824	 6.30201284958811E-02 
825	 6.14337787201121E-02 
826	 5.97778762125354E-02 
827	 5.80615124527641E-02 
828	 5.62576887835459E-02 
829	 5.43663042603633E-02 
830	 5.28354554822257E-02 
831	 5.16695145839842E-02 
832	 5.05842922547998E-02 
833	 4.95535414226998E-02 
834	 4.86066780885573E-02 
835	 4.78766804124277E-02 
836	 4.76137530166749E-02 
837	 4.71818311608975E-02 
838	 4.67017135575581E-02 
839	 4.63533635117893E-02 
840	 4.60064366290911E-02 
841	 4.57957614829647E-02 
842	 4.55454528178166E-02 
843	 4.50843223017306E-02 
844	 4.47710723979561E-02 
845	 4.46621851718026E-02 
846	 4.45929313434937E-02 
847	 4.42977083390705E-02 
848	 0.044012887252575 
849	 4.37508222608351E-02 
850	 4.34816954452436E-02 
851	 4.31567597167936E-02 
852	 4.29240595397486E-02 
853	 4.27349321784759E-02 
854	 0.042556404956765 
855	 4.24811781960197E-02 
856	 4.22976843702699E-02 
857	 4.20139461473598E-02 
858	 4.17232296034489E-02 
859	 4.15692441183725E-02 
860	 4.14898806870926E-02 
861	 4.13029607276485E-02 
862	 4.08921151807818E-02 
863	 4.09043400009366E-02 
864	 4.08256221174495E-02 
865	 4.06322509655763E-02 
866	 4.07196301369706E-02 
867	 4.02184280909297E-02 
868	 3.95930487759272E-02 
869	 3.92742212970673E-02 
870	 3.93718366498288E-02 
871	 3.90896036060014E-02 
872	 3.89486896512586E-02 
873	 0.039141911684157 
874	 3.84519895412007E-02 
875	 3.81391114679256E-02 
876	 3.81254904607036E-02 
877	 3.79605827413303E-02 
878	 3.74830642049954E-02 
879	 3.73243295231344E-02 
880	 3.71124028301106E-02 
881	 3.62848203138518E-02 
882	 3.60824127441871E-02 
883	 0.03609098132714 
884	 3.60851581446912E-02 
885	 3.60484599056303E-02 
886	 3.58840533503283E-02 
887	 3.56476594014082E-02 
888	 3.54305430691493E-02 
889	 3.53266064806073E-02 
890	 3.52217378054417E-02 
891	 3.51309130672447E-02 
892	 3.50057659623523E-02 
893	 3.46361421123896E-02 
894	 3.42260197395294E-02 
895	 3.38721058334086E-02 
896	 3.37056510243905E-02 
897	 3.40581103114914E-02 
898	 3.40256707947502E-02 
899	 3.35691246113494E-02 
900	 0.033062309704825 
901	 3.27820540645296E-02 
902	 0.032746624678822 
903	 3.29350070783875E-02 
904	 3.31739080052529E-02 
905	 3.26200341997828E-02 
906	 3.21912492087616E-02 
907	 3.18983767551204E-02 
908	 3.12409519470379E-02 
909	 3.15374691395589E-02 
910	 3.20635158273518E-02 
911	 3.21722905274774E-02 
912	 3.16174130015545E-02 
913	 3.09440903660081E-02 
914	 2.99439430227834E-02 
915	 2.92410170690454E-02 
916	 3.01097470935449E-02 
917	 3.00938614275843E-02 
918	 2.99460530936004E-02 
919	 2.99046167449794E-02 
920	 2.90010242936351E-02 
921	 2.89833424489542E-02 
922	 2.95857728329813E-02 
923	 2.99698021564402E-02 
924	 2.89281899623567E-02 
925	 2.85722576930143E-02 
926	 2.87336613584487E-02 
927	 2.86017843807584E-02 
928	 2.79578845624953E-02 
929	 0.028036541618327 
930	 2.86534271703043E-02 
931	 2.82439218199197E-02 
932	 2.47333638873409E-02 
933	 1.94883337382458E-02 
934	 2.02518146648962E-02 
935	 2.99375014977502E-02 
936	 3.10383438921365E-02 
937	 2.60486296090454E-02 
938	 2.20937305431213E-02 
939	 2.41279049246329E-02 
940	 2.63953610699598E-02 
941	 2.59137969245649E-02 
942	 2.46214295384971E-02 
943	 2.65379206660738E-02 
944	 3.11888986485496E-02 
945	 2.91506383074696E-02 
946	 2.70827127816714E-02 
947	 3.48200674676303E-02 
948	 0.021635267308247 
949	 0.019361780444468 
950	 2.62808214693763E-02 
951	 2.21334676881747E-02 
952	 2.43241861047605E-02 
953	 2.45816926279466E-02 
954	 2.26787232546571E-02 
955	 2.38558502838029E-02 
956	 2.46509954356044E-02 
957	 2.44432209624407E-02 
958	 2.45047743563752E-02 
959	 2.64177794848727E-02 
960	 2.68777959824734E-02 
961	 2.62642193469562E-02 
962	 2.45108982378797E-02 
963	 2.18364194493632E-02 
964	 2.39922050523192E-02 
965	 2.56299306808478E-02 
966	 2.45391225316941E-02 
967	 2.21442071487707E-02 
968	 2.47900907989489E-02 
969	 0.025018658554255 
970	 2.31793109170999E-02 
971	 2.56219911726896E-02 
972	 2.21506125567965E-02 
973	 2.22178094762091E-02 
974	 2.63356456171707E-02 
975	 2.54200953497582E-02 
976	 2.56746581659244E-02 
977	 2.41225632134795E-02 
978	 2.24688519633832E-02 
979	 0.025393699442101 
980	 2.39447692843648E-02 
981	 2.23478305285159E-02 
982	 2.30540859888697E-02 
983	 2.52312142091816E-02 
984	 2.39420072576449E-02 
985	 2.38345326779462E-02 
986	 2.53171907958267E-02 
987	 2.52707777097067E-02 
988	 0.026090759956094 
989	 2.55028185923297E-02 
990	 0.023847264855755 
991	 2.33905602675317E-02 
992	 2.31235462465629E-02 
993	 2.41545469459138E-02 
994	 0.024895842462932 
995	 2.31504630290977E-02 
996	 2.50750060839415E-02 
997	 2.60186910799424E-02 
998	 2.55680828568092E-02 
999	 2.59479353964972E-02 
1000	 2.51597316701913E-02 
1001	 2.28049232246352E-02 
1002	 2.38006539075016E-02 
1003	 2.41035570801555E-02 
1004	 2.45577841257989E-02 
1005	 2.46092387147926E-02 
1006	 2.41137120580828E-02 
1007	 2.32952988533073E-02 
1008	 0.022634149726805 
1009	 2.31680731016567E-02 
1010	 2.37806463887874E-02 
1011	 2.40660461710722E-02 
1012	 2.46446698608817E-02 
1013	 2.48256610418317E-02 
1014	 2.47871231599539E-02 
1015	 2.43497753197264E-02 
1016	 2.42601336355995E-02 
1017	 2.40402712127084E-02 
1018	 2.39722103250149E-02 
1019	 2.41102745839405E-02 
1020	 0.024183568833462 
1021	 0.024385143149739 
1022	 2.42837793691086E-02 
1023	 2.42273158568937E-02 
1024	 0.024252345381389 
1025	 2.36795462052664E-02 
1026	 2.36297157740831E-02 
1027	 2.36526446510203E-02 
1028	 2.36804349780448E-02 
1029	 2.37834444363184E-02 
1030	 2.41546477788704E-02 
1031	 2.44349893561658E-02 
1032	 2.47698022605277E-02 
1033	 0.024982662279047 
1034	 0.025470096931306 
1035	 2.55057076684211E-02 
1036	 2.49828617684191E-02 
1037	 2.47736079303845E-02 
1038	 2.46457755005453E-02 
1039	 2.41007384243724E-02 
1040	 0.024239711553448 
1041	 2.44504558519545E-02 
1042	 2.47134620221901E-02 
1043	 2.54376013605438E-02 
1044	 2.53468970319845E-02 
1045	 0.024574100923619 
1046	 2.48222138843634E-02 
1047	 2.50901533005065E-02 
1048	 2.54413108562027E-02 
1049	 2.72561660150425E-02 
1050	 2.73485791727553E-02 
1051	 2.59396668323694E-02 
1052	 2.54678135433937E-02 
1053	 2.43434034372186E-02 
1054	 2.39618902300099E-02 
1055	 2.48377027396192E-02 
1056	 2.50732240018334E-02 
1057	 2.51921640198079E-02 
1058	 2.51962109063643E-02 
1059	 2.54090718589062E-02 
1060	 2.54454015489636E-02 
1061	 2.56364211196325E-02 
1062	 2.62941784874504E-02 
1063	 2.64068500954299E-02 
1064	 2.62700704596284E-02 
1065	 2.60209246485986E-02 
1066	 2.53309134706515E-02 
1067	 2.50329084187512E-02 
1068	 2.46020067288973E-02 
1069	 2.45190678162083E-02 
1070	 2.48910800820347E-02 
1071	 2.51186504124065E-02 
1072	 2.53311126271721E-02 
1073	 2.59574233693542E-02 
1074	 2.59837466173082E-02 
1075	 2.57755067688163E-02 
1076	 0.025767172470768 
1077	 2.56271062636905E-02 
1078	 2.52897525827012E-02 
1079	 2.48948855069629E-02 
1080	 2.46026267130932E-02 
1081	 2.38475555899514E-02 
1082	 0.023807800216605 
1083	 2.44893635145398E-02 
1084	 2.47114837076005E-02 
1085	 2.51782916706623E-02 
1086	 2.53026559155648E-02 
1087	 2.47850834243851E-02 
1088	 2.47534423206522E-02 
1089	 2.51238617293726E-02 
1090	 2.50349747729682E-02 
1091	 2.50234396369217E-02 
1092	 2.51909475092612E-02 
1093	 2.50951118880074E-02 
1094	 2.46270325869874E-02 
1095	 2.45570884871483E-02 
1096	 2.45424979673811E-02 
1097	 0.024811907870314 
1098	 2.56420981431143E-02 
1099	 2.55438456976723E-02 
1100	 2.53148851801933E-02 
1101	 2.50726043666895E-02 
1102	 2.34967083008011E-02 
1103	 2.32049291594552E-02 
1104	 2.47754703557632E-02 
1105	 2.41134766776617E-02 
1106	 0.023843203435859 
1107	 2.47253198090404E-02 
1108	 0.023659548257493 
1109	 2.34913927026286E-02 
1110	 0.023335780528914 
1111	 2.30776179700334E-02 
1112	 0.023528843238981 
1113	 0.025201755756371 
1114	 2.53349626008381E-02 
1115	 2.51165805545426E-02 
1116	 2.56722312941726E-02 
1117	 2.49405978051109E-02 
1118	 2.60488013710019E-02 
1119	 3.07079606469725E-02 
1120	 3.23755424195133E-02 
1121	 3.05153575041413E-02 
1122	 3.58099609487165E-02 
1123	 2.53769214903895E-02 
1124	 1.85181066738561E-02 
1125	 2.90104067216618E-02 
1126	 2.50687391890168E-02 
1127	 2.53913871527741E-02 
1128	 4.68960232170146E-02 
1129	 4.79075252640217E-02 
1130	 3.32214051227504E-02 
1131	 2.88661663146357E-02 
1132	 2.54279961434782E-02 
1133	 2.52387715070692E-02 
1134	 2.96797482091729E-02 
1135	 2.99455271472531E-02 
1136	 0.028249702829973 
1137	 2.59890209902255E-02 
1138	 1.92134895799635E-02 
1139	 2.17228731037829E-02 
1140	 2.12225737795523E-02 
1141	 2.07852411142789E-02 
1142	 2.55897737139062E-02 
1143	 0.025711022887298 
1144	 2.34506712216989E-02 
1145	 2.51852908527934E-02 
1146	 2.64784593177496E-02 
1147	 2.50088347411362E-02 
1148	 2.57017628069793E-02 
1149	 2.62909197728454E-02 
1150	 2.53628299592721E-02 
1151	 2.08130570693951E-02 
1152	 0.020622122905093 
1153	 2.18647041470017E-02 
1154	 2.29447325720316E-02 
1155	 2.50606342745619E-02 
1156	 0.025530255733833 
1157	 2.49968738558209E-02 
1158	 2.49034167915237E-02 
1159	 2.43342291718498E-02 
1160	 2.41717641246195E-02 
1161	 2.51126875881092E-02 
1162	 0.025206310127959 
1163	 2.43243721926646E-02 
1164	 2.37967656062805E-02 
1165	 2.39670113539433E-02 
1166	 2.40889774422951E-02 
1167	 2.42398951613375E-02 
1168	 2.44832318009312E-02 
1169	 2.35069950195047E-02 
1170	 2.30005477015038E-02 
1171	 2.30681625505188E-02 
1172	 2.37987210617027E-02 
1173	 2.37092050211602E-02 
1174	 2.36379727626637E-02 
1175	 2.38464104630276E-02 
1176	 2.33612389062386E-02 
1177	 2.32897080739543E-02 
1178	 2.41607578484747E-02 
1179	 0.024088381133418 
1180	 2.29464755865172E-02 
1181	 2.28318911864094E-02 
1182	 2.34127888568422E-02 
1183	 2.37172171281885E-02 
1184	 2.44528245119624E-02 
1185	 2.47122304660657E-02 
1186	 2.39280324535013E-02 
1187	 2.32837823061049E-02 
1188	 2.34352098528595E-02 
1189	 2.36806880772442E-02 
1190	 2.33514179184146E-02 
1191	 2.32273529445569E-02 
1192	 2.34157727046912E-02 
1193	 2.36428754000482E-02 
1194	 0.023860474264103 
1195	 2.39201063299186E-02 
1196	 2.39081423949526E-02 
1197	 2.41119251669012E-02 
1198	 2.39264350486536E-02 
1199	 2.37615988702836E-02 
1200	 0.023844285711772 
1201	 2.34782747783553E-02 
1202	 2.31589780187777E-02 
1203	 2.34151293645764E-02 
1204	 2.37805876732129E-02 
1205	 2.37996147575963E-02 
1206	 2.37028596741425E-02 
1207	 2.34607327887245E-02 
1208	 2.34710426205686E-02 
1209	 2.36284529763303E-02 
1210	 2.31166245643431E-02 
1211	 2.32760242680332E-02 
1212	 0.023840367072196 
1213	 2.33545864139369E-02 
1214	 2.32516568348504E-02 
1215	 2.33939251440027E-02 
1216	 2.37722567638644E-02 
1217	 2.36707129023604E-02 
1218	 2.37477680012591E-02 
1219	 2.36941176001347E-02 
1220	 2.37463925101694E-02 
1221	 2.40007102814832E-02 
1222	 0.02397174451452 
1223	 2.40249621431979E-02 
1224	 2.38787298753495E-02 
1225	 2.34879306651544E-02 
1226	 2.36258804452718E-02 
1227	 2.38787997240651E-02 
1228	 2.36145027624433E-02 
1229	 0.023314119784676 
1230	 2.33443631697666E-02 
1231	 2.34321106164831E-02 
1232	 2.34069440459689E-02 
1233	 2.34016514535926E-02 
1234	 2.34953391369439E-02 
1235	 2.34803357384421E-02 
1236	 2.34180826604138E-02 
1237	 2.34821186028166E-02 
1238	 2.36546317503595E-02 
1239	 2.36139600115486E-02 
1240	 2.33259970921684E-02 
1241	 2.36775789888874E-02 
1242	 2.40828397619953E-02 
1243	 2.40309156848623E-02 
1244	 2.39510174871733E-02 
1245	 2.37658638736106E-02 
1246	 2.38624748601248E-02 
1247	 2.39335610752784E-02 
1248	 2.37079293592479E-02 
1249	 2.38794456474302E-02 
1250	 2.37437814945346E-02 
1251	 2.32826078103012E-02 
1252	 2.38693451657555E-02 
1253	 2.44599107470618E-02 
1254	 2.40595379079598E-02 
1255	 2.36117297093998E-02 
1256	 2.35657716807155E-02 
1257	 0.023449492109696 
1258	 2.32874478333443E-02 
1259	 2.35308102226362E-02 
1260	 2.36794091297861E-02 
1261	 2.34099845697481E-02 
1262	 2.32335270080621E-02 
1263	 0.023181280746497 
1264	 2.36143351711343E-02 
1265	 2.37720186305232E-02 
1266	 2.38265370439943E-02 
1267	 2.39599974027388E-02 
1268	 2.38758955031822E-02 
1269	 2.40054764972425E-02 
1270	 2.40729469319892E-02 
1271	 2.38122960566491E-02 
1272	 0.023897762275033 
1273	 2.41730864197262E-02 
1274	 2.40687907078556E-02 
1275	 2.39470714455855E-02 
1276	 2.41700848921979E-02 
1277	 2.45211477554537E-02 
1278	 0.024446721713349 
1279	 2.39692115114786E-02 
1280	 2.40089702249764E-02 
1281	 2.40819384675492E-02 
1282	 2.36705989025015E-02 
1283	 0.02338758294792 
1284	 0.023725607342587 
1285	 2.37614241011687E-02 
1286	 2.32397309940204E-02 
1287	 2.30095592419592E-02 
1288	 2.30454776031353E-02 
1289	 2.31392142794672E-02 
1290	 2.32595419958392E-02 
1291	 2.31461877484601E-02 
1292	 2.30966841678552E-02 
1293	 2.35948083064497E-02 
1294	 2.37588227049009E-02 
1295	 2.37367619461664E-02 
1296	 2.41849572695229E-02 
1297	 2.44339538990626E-02 
1298	 2.43043583489245E-02 
1299	 2.44794399760791E-02 
1300	 2.47586939215712E-02 
1301	 2.42454692128136E-02 
1302	 2.39664614007481E-02 
1303	 0.024472051322282 
1304	 0.02437370165195 
1305	 2.42507190413673E-02 
1306	 2.41607167164034E-02 
1307	 0.023351053789302 
1308	 2.33875430531603E-02 
1309	 2.45256454495423E-02 
1310	 2.43508854264331E-02 
1311	 2.34512514769352E-02 
1312	 2.34314347457315E-02 
1313	 2.30310242453884E-02 
1314	 2.28471860716497E-02 
1315	 2.39295054451475E-02 
1316	 2.42755122999426E-02 
1317	 2.36541393546158E-02 
1318	 2.37654499630692E-02 
1319	 2.42764439486759E-02 
1320	 2.45429826516376E-02 
1321	 2.47516085701833E-02 
1322	 2.52538785024374E-02 
1323	 2.53371081578317E-02 
1324	 2.57760554892296E-02 
1325	 2.53769737351873E-02 
1326	 2.40663975796735E-02 
1327	 2.34674779335077E-02 
1328	 2.35142959065554E-02 
1329	 2.37377805885171E-02 
1330	 2.46004711432379E-02 
1331	 0.025289007255913 
1332	 2.49363600618334E-02 
1333	 0.024797943826838 
1334	 2.48201543833572E-02 
1335	 2.53871841777268E-02 
1336	 2.69430771683721E-02 
1337	 2.76097673872485E-02 
1338	 2.90558907844444E-02 
1339	 2.85218243353273E-02 
1340	 2.50124522117796E-02 
1341	 2.44963002956953E-02 
1342	 2.42648647789141E-02 
1343	 2.35495525240495E-02 
1344	 2.53116500632807E-02 
1345	 2.61852079866073E-02 
1346	 2.66336147956507E-02 
1347	 0.024901283097176 
1348	 1.84384839329892E-02 
1349	 1.61571421437131E-02 
1350	 1.41945104532764E-02 
1351	 6.7564436763445E-03 
1352	 1.31721746153021E-03 
1353	 5.40871643339267E-03 
1354	 3.98538392428627E-02 
1355	 1.52289792719834E-02 
1356	-0.082682817780742 
1357	-6.42032029562954E-02 
1358	-6.60382693997174E-02 
1359	-0.222858490506561 
1360	-0.289943293618894 
1361	-0.231537019844937 
1362	-7.28043618353101E-02 
1363	 0.119889805196764 
1364	 0.195657877270729 
1365	 0.464820383222038 
1366	 0.426355783339925 
1367	-0.548914946289988 
1368	-0.634365346427381 
1369	 5.72362242353436E-02 
1370	 5.09477905643478E-02 
1371	-0.181092473833954 
1372	-0.260402315978733 
1373	-1.88247994453208 
1374	-2.34965857765797 
1375	-0.551260378563248 
1376	-0.170598873356809 
1377	 0.505830895581379 
1378	 0.635804957209503 
1379	 0.288252290009295 
1380	 0.67516031507073 
1381	 17.6130316087503 
1382	 4.86347290667242 
1383	 0.652851589705855 
1384	 0.678656304513016 
1385	 0.490695807600566 
1386	 0.130368421506737 
1387	-0.11766915237074 
1388	-4.62091313732645E-02 
1389	-0.196709353569868 
1390	-0.235933501022002 
1391	 0.237363694310184 
1392	 1.4417532374738 
1393	 0.387580675036356 
1394	-0.559573588617435 
1395	-0.522010523286042 
1396	 0.23826143350169 
1397	-0.721113180841579 
1398	-0.629731521147701 
1399	 0.804767250506594 
1400	 0.936303159314588 
1401	 0.429489266410556 
1402	 0.860194393300153 
1403	 0.341394084893496 
1404	-0.111483588392634 
1405	-0.374903271371421 
1406	-0.246393648077199 
1407	-0.197839988200909 
1408	-0.908465360603215 
1409	-1.02119016373617 
1410	-0.471149329260762 
1411	-0.312539043146768 
1412	-0.408455370917689 
1413	-0.320199240989011 
1414	 0.086029167129279 
1415	 0.15005387180575 
1416	-0.190238406085427 
1417	-0.15082877305275 
1418	 3.44508711414189E-02 
1419	 3.25819424221133E-02 
1420	 2.71467757961879E-02 
1421	 3.34064549349393E-02 
1422	-7.19494088808427E-03 
1423	-4.28438131672295E-02 
1424	-9.33524388161649E-02 
1425	-6.22505065055378E-02 
1426	 2.91376598498754E-02 
1427	 1.31834114130359E-02 
1428	-4.24857781000754E-02 
1429	-0.028116814289082 
1430	-0.033692967464299 
1431	-4.71580967851618E-02 
1432	-3.70435892210988E-03 
1433	 2.89015419351463E-02 
1434	 2.74449952742378E-02 
1435	 0.024729000148637 
1436	 4.73767442449151E-02 
1437	 5.09781842049154E-02 
1438	 5.02190212559571E-02 
1439	 4.24370976756524E-02 
1440	 5.08200147726446E-02 
1441	 0.059902522963147 
1442	 0.044804094938873 
1443	 4.58449963125743E-02 
1444	 4.47976412413546E-02 
1445	 3.81148745241067E-02 
1446	 3.48967169297831E-02 
1447	 2.92390572187961E-02 
1448	 3.22216209604518E-02 
1449	 3.57907915457657E-02 
1450	 3.64560853366617E-02 
1451	 3.41616267637898E-02 
1452	 2.71225634070525E-02 
1453	 2.69033010807649E-02 
1454	 2.56942224839341E-02 
1455	 2.36801580928234E-02 
1456	 2.27285769176251E-02 
1457	 2.11116195931997E-02 
1458	 2.40995272776258E-02 
1459	 0.03314516890371 
1460	 0.031580655263273 
1461	 2.59672876019961E-02 
1462	 2.53787877556065E-02 
1463	 1.96536975491649E-02 
1464	 0.016694085298017 
1465	 2.06958628885411E-02 
1466	 2.34479843587247E-02 
1467	 2.28853827551773E-02 
1468	 2.36180418361329E-02 
1469	 3.21638628822071E-02 
1470	 3.33650297311705E-02 
1471	 2.33638690568441E-02 
1472	 2.40506221378947E-02 
1473	 3.10240807617967E-02 
1474	 3.10588162038003E-02 
1475	 3.22197921868817E-02 
1476	 3.31258281255566E-02 
1477	 3.02069697919027E-02 
1478	 2.80298263963189E-02 
1479	 2.75890925071211E-02 
1480	 2.58800171028371E-02 
1481	 2.06732904394863E-02 
1482	 2.11211300929416E-02 
1483	 2.55091701664982E-02 
1484	 2.66710610096893E-02 
1485	 2.82424400778012E-02 
1486	 0.028223363780318 
1487	 2.64459986824006E-02 
1488	 0.026031509925225 
1489	 2.51323985362981E-02 
1490	 0.025741224900932 
1491	 2.86127860162741E-02 
1492	 2.83996428511681E-02 
1493	 2.67254367541528E-02 
1494	 2.64259118399369E-02 
1495	 2.52712952645842E-02 
1496	 2.46509476452154E-02 
1497	 0.025323433000169 
1498	 2.58444881677157E-02 
1499	 2.60070268444004E-02 
1500	 2.60298803406294E-02 
1501	 2.64855139860988E-02 
1502	 0.026685011965374 
1503	 0.026661723063376 
1504	 2.63317425027033E-02 
1505	 2.58025862777362E-02 
1506	 2.50066891974881E-02 
1507	 0.025208693946999 
1508	 2.56058716474273E-02 
1509	 2.58200185696365E-02 
1510	 2.64101292177785E-02 
1511	 2.65244163584707E-02 
1512	 2.58062848829427E-02 
1513	 2.52948509741063E-02 
1514	 2.54884392391535E-02 
1515	 2.57149208115578E-02 
1516	 2.56340172761893E-02 
1517	 2.56991665390988E-02 
1518	 2.57613640364701E-02 
1519	 2.51482447185475E-02 
1520	 0.02471532736894 
1521	 2.51069743189108E-02 
1522	 2.52030343686735E-02 
1523	 2.46356899938355E-02 
1524	 2.47504912705655E-02 
1525	 2.55988204925143E-02 
1526	 2.52410846657785E-02 
1527	 2.44783296162818E-02 
1528	 2.49699757866711E-02 
1529	 2.53831207522201E-02 
1530	 2.52216842821085E-02 
1531	 2.60192298623062E-02 
1532	 2.67217068139655E-02 
1533	 0.025957727075293 
1534	 0.025541027905443 
1535	 2.54426298387832E-02 
1536	 2.50496284662014E-02 
1537	 2.48257638895692E-02 
1538	 2.46052311146116E-02 
1539	 2.48159117464059E-02 
1540	 2.49242205732842E-02 
1541	 0.025117195551433 
1542	 2.57819651600981E-02 
1543	 2.56746039887727E-02 
1544	 2.53803933168011E-02 
1545	 2.52687609862112E-02 
1546	 2.49215808219457E-02 
1547	 2.52537591834251E-02 
1548	 0.025719255548709 
1549	 0.025249962509974 
1550	 2.49651513951051E-02 
1551	 2.49452959527551E-02 
1552	 2.45833048647672E-02 
1553	 2.51292189456466E-02 
1554	 2.59874664076631E-02 
1555	 0.025824489163112 
1556	 2.57495929650817E-02 
1557	 2.60831137269662E-02 
1558	 2.55986241334733E-02 
1559	 2.50737346350936E-02 
1560	 2.52813889835922E-02 
1561	 2.52371994707453E-02 
1562	 2.51450558981042E-02 
1563	 2.54422081839184E-02 
1564	 2.55595498420101E-02 
1565	 2.52613243427581E-02 
1566	 2.52640451195214E-02 
1567	 2.54839349376399E-02 
1568	 2.56312468114054E-02 
1569	 2.57013771777286E-02 
1570	 0.025422670531629 
1571	 2.54967682472027E-02 
1572	 2.56481505120651E-02 
1573	 2.53087066340877E-02 
1574	 2.50892933562021E-02 
1575	 2.50711849263624E-02 
1576	 2.51764474826269E-02 
1577	 2.52015322753826E-02 
1578	 2.48847397559472E-02 
1579	 2.47568211441941E-02 
1580	 2.45509709998202E-02 
1581	 2.43802642857236E-02 
1582	 2.47647502587897E-02 
1583	 2.51164894737987E-02 
1584	 0.025301431981608 
1585	 2.51308529348984E-02 
1586	 2.50774975842253E-02 
1587	 2.55877052274229E-02 
1588	 0.025631023858657 
1589	 2.54199984720814E-02 
1590	 2.57939222169012E-02 
1591	 2.56578206684641E-02 
1592	 0.025063257092644 
1593	 2.51824944694829E-02 
1594	 2.53813049190891E-02 
1595	 2.52964529483695E-02 
1596	 2.53259477404126E-02 
1597	 2.52800876573851E-02 
1598	 2.50874434574302E-02 
1599	 0.025053818656914 
1600	 2.48857485405488E-02 
1601	 2.45544394212995E-02 
1602	 2.47770372990206E-02 
1603	 0.025374630617308 
1604	 2.53072994534186E-02 
1605	 2.51828731759711E-02 
1606	 2.56811366309338E-02 
1607	 2.57024157903823E-02 
1608	 0.02551798185986 
1609	 2.52955824758716E-02 
1610	 2.49672634196519E-02 
1611	 0.024855931048146 
1612	 2.45443628024094E-02 
1613	 2.48681834223346E-02 
1614	 0.025072489843188 
1615	 2.49338177670845E-02 
1616	 2.56415862699936E-02 
1617	 0.025762252261589 
1618	 2.52252779324616E-02 
1619	 2.50420074481586E-02 
1620	 2.49987186542539E-02 
1621	 2.51527094764689E-02 
1622	 2.56896628205253E-02 
1623	 2.62021342212511E-02 
1624	 2.59729690227763E-02 
1625	 2.50648091787996E-02 
1626	 2.45601040997666E-02 
1627	 2.47483725245405E-02 
1628	 2.48498489288543E-02 
1629	 2.51669312484905E-02 
1630	 2.54463358248162E-02 
1631	 2.50177586780853E-02 
1632	 2.46268519277487E-02 
1633	 2.46446641322988E-02 
1634	 2.49963285583566E-02 
1635	 2.51721850305968E-02 
1636	 2.48666596074366E-02 
1637	 2.46842634149615E-02 
1638	 2.47462810089402E-02 
1639	 2.47391083065654E-02 
1640	 2.47477151277942E-02 
1641	 0.024601856241362 
1642	 2.45205884169977E-02 
1643	 2.50346286883533E-02 
1644	 0.025036929950782 
1645	 0.024654791354304 
1646	 2.48104014137598E-02 
1647	 2.48161573690278E-02 
1648	 2.45359635942416E-02 
1649	 0.024670813892524 
1650	 2.49961454671494E-02 
1651	 2.44575932129122E-02 
1652	 0.024077472654234 
1653	 2.52940417755504E-02 
1654	 2.50056932013428E-02 
1655	 2.36181992224653E-02 
1656	 2.38535482003133E-02 
1657	 2.46838262708571E-02 
1658	 0.02454279312461 
1659	 2.45983414964919E-02 
1660	 2.49661924876538E-02 
1661	 2.46202702652133E-02 
1662	 2.42475006292631E-02 
1663	 2.48603019445779E-02 
1664	 2.53070539826946E-02 
1665	 2.47503450271702E-02 
1666	 2.44376702649125E-02 
1667	 2.49629463039954E-02 
1668	 2.51682398673119E-02 
1669	 2.47305183158078E-02 
1670	 2.46160109253164E-02 
1671	 2.48397452235027E-02 
1672	 2.51096413367945E-02 
1673	 0.025404131150063 
1674	 0.025343601205392 
1675	 2.49478270137794E-02 
1676	 0.025063928166484 
1677	 2.52348951290535E-02 
1678	 2.50325531951939E-02 
1679	 2.51157688533585E-02 
1680	 2.46309894333656E-02 
1681	 2.42864224786315E-02 
1682	 2.47497240914277E-02 
1683	 2.45212924899246E-02 
1684	 2.41788279768271E-02 
1685	 2.42941851017751E-02 
1686	 2.45076304023088E-02 
1687	 2.48152179719766E-02 
1688	 2.54160484660628E-02 
1689	 2.55296946041166E-02 
1690	 2.48312733188806E-02 
1691	 0.024807351658404 
1692	 2.50956396078147E-02 
1693	 2.52479913946603E-02 
1694	 2.51965295097077E-02 
1695	 2.46264798785986E-02 
1696	 2.42023944152988E-02 
1697	 2.40493294347514E-02 
1698	 2.37046689549829E-02 
1699	 2.35795439266544E-02 
1700	 2.42557748401771E-02 
1701	 2.42945295013925E-02 
1702	 2.39580654660038E-02 
1703	 0.024306967356722 
1704	 2.38930515786736E-02 
1705	 2.34362985270237E-02 
1706	 2.36536417167587E-02 
1707	 2.42355769818881E-02 
1708	 2.52929045549908E-02 
1709	 2.51745889550973E-02 
1710	 2.44091416932369E-02 
1711	 2.49237549666487E-02 
1712	 2.52218792552702E-02 
1713	 2.53013235725389E-02 
1714	 2.53944808080378E-02 
1715	 2.38283191227359E-02 
1716	 2.38665925236497E-02 
1717	 2.52898357391943E-02 
1718	 2.54892644694389E-02 
1719	 2.59350155005131E-02 
1720	 2.59879281517665E-02 
1721	 2.45356882620173E-02 
1722	 2.41535019172121E-02 
1723	 0.02543511318495 
1724	 2.63066306336178E-02 
1725	 2.58913098187668E-02 
1726	 2.48136878441325E-02 
1727	 2.44052403861292E-02 
1728	 2.45442235096447E-02 
1729	 2.47654090313549E-02 
1730	 2.54430485145497E-02 
1731	 2.55834128813259E-02 
1732	 2.49295595660361E-02 
1733	 2.46109073177826E-02 
1734	 2.43761571758583E-02 
1735	 2.41058777434664E-02 
1736	 2.37559977433714E-02 
1737	 2.34614846718949E-02 
1738	 2.46262277339359E-02 
1739	 2.53305109503893E-02 
1740	 2.50814282970753E-02 
1741	 2.56343731855131E-02 
1742	 2.50052730308526E-02 
1743	 2.36863754660212E-02 
1744	 2.33265821228975E-02 
1745	 0.023517098342211 
1746	 2.58738567939236E-02 
1747	 2.62993028323029E-02 
1748	 2.53948983640238E-02 
1749	 2.56140837698697E-02 
1750	 2.53329954110279E-02 
1751	 2.51251048736602E-02 
1752	 0.026643241460716 
1753	 0.026798413323649 
1754	 2.47642720874893E-02 
1755	 2.43680797236148E-02 
1756	 2.49823125937442E-02 
1757	 2.40244025249129E-02 
1758	 2.49019587026092E-02 
1759	 2.59284206835394E-02 
1760	 2.40248410701394E-02 
1761	 2.26326140066062E-02 
1762	 2.28692716047147E-02 
1763	 2.47139247038851E-02 
1764	 2.68608437980597E-02 
1765	 0.026949981543454 
1766	 2.71639464132023E-02 
1767	 2.52994408417775E-02 
1768	 2.40494620078302E-02 
1769	 2.56917124829295E-02 
1770	 2.53739539339597E-02 
1771	 2.51295797173026E-02 
1772	 0.023098457730953 
1773	 2.28275308383163E-02 
1774	 2.47292501242039E-02 
1775	 2.29016600442895E-02 
1776	 2.41920881356931E-02 
1777	 2.49418180642302E-02 
1778	 2.53740950811932E-02 
1779	 3.17394960809993E-02 
1780	 3.12752439252932E-02 
1781	 2.27299587971328E-02 
1782	 2.23624486188592E-02 
1783	 2.25403841783832E-02 
1784	 2.25918291641658E-02 
1785	 3.10038090859893E-02 
1786	 2.90823398489463E-02 
1787	 0.016670561468533 
1788	 1.52886279047055E-02 
1789	 1.40500891371014E-02 
1790	 2.60674365012779E-02 
1791	 3.69252027552294E-02 
1792	 3.34171176420734E-02 
1793	 2.70700573492584E-02 
1794	 1.05311244232181E-02 
1795	-2.44826678675539E-04 
1796	 1.91894501592358E-02 
1797	 3.21819076669524E-02 
1798	 4.63218116064616E-02 
1799	 6.56368595446428E-02 
1800	 3.72970349802182E-02 
1801	 2.34925632212407E-02 
1802	 6.33966365646475E-03 
1803	-9.14065410453568E-03 
1804	-1.44049088220595E-02 
1805	-1.73238209826127E-02 
1806	 1.74862524286545E-02 
1807	 1.99892109020871E-02 
1808	-4.39116954244374E-03 
1809	-4.35655016543342E-02 
1810	-0.242717205898735 
1811	-0.303205319158324 
1812	-0.148125622158579 
1813	-0.155949226177498 
1814	-0.108993413966895 
1815	-5.09405124976489E-02 
1816	-0.174084202291609 
1817	 1.94595049111611 
1818	 6.04535420700642 
1819	 0.720125701423503 
1820	 0.200092745397207 
1821	-0.62990519653773 
1822	-0.922847758852765 
1823	 0.817641922901986 
1824	-1.93565366839989 
1825	-1.71135674924823 
1826	-1.16302939528643 
1827	 1.31841226825809 
1828	 2.76555785363644 
1829	 0.268620239105021 
1830	-0.283339141619758 
1831	 0.721644547311295 
1832	 0.607923713266901 
1833	 0.319662053290574 
1834	 0.106198916589404 
1835	-0.407201580723041 
1836	-0.736886550384748 
1837	-2.07652819020649 
1838	-2.66483878147021 
1839	-2.47087923694959 
1840	-2.64886580764882 
1841	-0.371235521162434 
1842	-0.366785505827867 
1843	-0.394267235603391 
1844	-0.976101158463562 
1845	-1.20032106680786 
1846	-2.06141087353947 
1847	-2.48224578447699 
1848	 4.08345579792024 
1849	 2.98506108111589 
1850	 1.14336415744229 
1851	-20.3325812977935 
1852	 0.700606530303761 
1853	-0.172612302425973 
1854	-0.472632990348652 
1855	-0.686819657421188 
1856	-0.456973067364121 
1857	-0.818843029493937 
1858	-0.882877071456418 
1859	-0.098512622999464 
1860	 0.828475230799758 
1861	 1.84909702827479 
1862	 34.8296050693778 
1863	 2.66607245193192 
1864	 0.988486370030101 
1865	 0.639664846602919 
1866	 0.191601268528644 
1867	 4.12327505266671E-02 
1868	-4.24802565724574E-02 
1869	-0.47641246754928 
1870	-5.20161319606795 
1871	 8.53130034022661 
1872	 0.974350589295791 
1873	-0.336586228309347 
1874	 6.58838654279253E-02 
1875	-7.12531780930393E-02 
1876	-9.88961007211573E-02 
1877	-0.287622352006581 
1878	-0.367453750503433 
1879	-0.501325071388115 
1880	-0.321836724520915 
1881	-1.20958966066722 
1882	 3.72442512039305 
1883	 0.452610105540947 
1884	 1.69510889666846 
1885	-9.11519896602064 
1886	 30.7071713405879 
1887	-10.2183950904705 
1888	-8.66161039449936 
1889	-3.41529398177101 
1890	-1.24098813327616 
1891	-0.270626783945454 
1892	 0.382562224678048 
1893	 0.408482024285081 
1894	 0.465816078549098 
1895	 8.61742003297741E-02 
1896	-0.521471678351478 
1897	-0.980475371140392 
1898	-5.35401290612353 
1899	 1.68341019916163 
1900	 0.519852684434965 
1901	 6.44904667892789E-02 
1902	-0.608888519072884 
1903	-7.15507933038661 
1904	 3.86948874268023 
1905	 1.32132825571972 
1906	 4.91746460725957 
1907	 1.02994430827138 
1908	 2.40793550809462 
1909	 1.55088851287337 
1910	 1.69571386425668 
1911	-0.84060987067807 
1912	-0.490452141925485 
1913	-0.194827601273406 
1914	-0.502477997514481 
1915	-0.718363551866171 
1916	-0.358465897015604 
1917	 1.55992639686629 
1918	-1.97150515268961 
1919	 0.345680211045435 
1920	 0.33517053976298 
1921	 0.292044000320127 
1922	-6.22832313954057E-02 
1923	-0.905803776523571 
1924	-0.326074868775376 
1925	-7.52654072612714E-02 
1926	 0.144930305673795 
1927	 1.08823212083569 
1928	 1.63235522021524 
1929	 1.90287619047772 
1930	 3.34783946754436 
1931	-19.1949969272044 
1932	-6.60686575109352 
1933	-3.96643464695555 
1934	-1.41774167131857 
1935	 5.63722407246697E-02 
1936	 0.676188238710703 
1937	 2.10370135098628 
1938	 1.63500996005385 
1939	 0.973566145221744 
1940	 0.145459403393751 
1941	 7.85124935730395E-02 
1942	 8.59004618498224E-02 
1943	-5.05086122334016E-02 
1944	-5.83572339567311E-02 
1945	-5.75681907847851E-02 
1946	-8.15333147039413E-02 
1947	-9.06826356961417E-03 
1948	 0.136794094963008 
1949	 0.147576494153107 
1950	 0.147117870927143 
1951	 0.141280087551503 
1952	 9.64852781544166E-02 
1953	 2.11860362000835E-02 
1954	 0.025156232052556 
1955	 2.04961083695875E-02 
1956	-1.47329970608215E-02 
1957	-1.75099362128883E-02 
1958	 1.24344168873832E-03 
1959	-5.36531006589376E-03 
1960	-9.95525761265109E-03 
1961	-7.51367105667822E-03 
1962	-7.70607757394228E-03 
1963	-1.41575658304706E-03 
1964	 2.61554332348989E-04 
1965	 7.83000090712552E-03 
1966	 0.015049637094549 
1967	 2.38443365649054E-02 
1968	 2.76613244892377E-02 
1969	 2.79559390167137E-02 
1970	 2.66568075288532E-02 
1971	 2.77927182050888E-02 
1972	 2.53691679526475E-02 
1973	 2.20407102169498E-02 
1974	 2.29141658912137E-02 
1975	 2.15508413985721E-02 
1976	 2.03950555885604E-02 
1977	 2.49507016018459E-02 
1978	 2.67855727277314E-02 
1979	 2.72965770277306E-02 
1980	 2.54532242797695E-02 
1981	 2.65383730162391E-02 
1982	 2.82233586169173E-02 
1983	 3.03374120087716E-02 
1984	 0.03283521652423 
1985	 3.31962020434751E-02 
1986	 2.96011473972985E-02 
1987	 2.60535983008292E-02 
1988	 2.51792629045632E-02 
1989	 2.33190232450971E-02 
1990	 2.35362930276286E-02 
1991	 2.47699325700367E-02 
1992	 2.50858976431416E-02 
1993	 2.98331868531526E-02 
1994	 3.06649201577428E-02 
1995	 3.03951786340285E-02 
1996	 2.81004886947728E-02 
1997	 2.95715256854936E-02 
1998	 2.45655666280455E-02 
1999	 2.14941974500187E-02 
2000	 2.24388469923936E-02 
2001	 1.32626420115478E-02 
2002	 6.90660070226446E-03 
2003	 6.92934288120629E-03 
2004	 1.24746479018547E-02 
2005	 2.16616244631921E-02 
2006	 2.05340463694565E-02 
2007	 1.71562716031205E-02 
2008	 1.48200285786061E-02 
2009	 1.79342383441077E-02 
2010	 2.85163652038382E-02 
2011	 3.40308649593397E-02 
2012	 4.19862692342081E-02 
2013	 4.82902657772973E-02 
2014	 4.37935948782641E-02 
2015	 2.91204172896253E-02 
2016	 1.94742032366903E-02 
2017	 1.90942197951614E-02 
2018	 1.91961326609182E-02 
2019	 2.34450654169268E-02 
2020	 3.10046983739631E-02 
2021	 0.032729949461306 
2022	 3.11996298104024E-02 
2023	 2.94277348514534E-02 
2024	 2.83305199580108E-02 
2025	 2.55998530335493E-02 
2026	 2.35686492560369E-02 
2027	 2.16996804449333E-02 
2028	 2.21587225825248E-02 
2029	 2.08061124852825E-02 
2030	 2.03033069416263E-02 
2031	 2.24060595704358E-02 
2032	 2.45916342356207E-02 
2033	 2.43051450600587E-02 
2034	 2.40987360509865E-02 
2035	 2.28729552254637E-02 
2036	 2.08214045622236E-02 
2037	 2.23447000937712E-02 
2038	 2.39440609585812E-02 
2039	 2.37934361855285E-02 
2040	 2.24786022587097E-02 
2041	 2.20488309623753E-02 
2042	 2.04594625207525E-02 
2043	 0.020201852579555 
2044	 2.13458721272371E-02 
2045	 2.19806385814057E-02 
2046	 2.29308134028301E-02 
2047	 2.32290047371423E-02 
2048	 2.34669749283479E-02 
2049	 0.024920413031212 
2050	 2.61769546653497E-02 
2051	 2.54727291910028E-02 
2052	 2.45047773315896E-02 
2053	 2.47082070357712E-02 
2054	 2.35140679933151E-02 
2055	 2.41013206254206E-02 
2056	 2.43340343639056E-02 
2057	 2.41037569588502E-02 
2058	 2.44969973283692E-02 
2059	 2.72443002611446E-02 
2060	 2.68337417432172E-02 
2061	 2.45018157639406E-02 
2062	 2.29317575553202E-02 
2063	 2.43812075536927E-02 
2064	 2.33503514902963E-02 
2065	 2.43601701750043E-02 
2066	 2.95445639746338E-02 
2067	 3.17337598349428E-02 
2068	 3.04462446221151E-02 
2069	 2.95496353484084E-02 
2070	 2.79750605027237E-02 
2071	 2.83106326759336E-02 
2072	 3.06285686850085E-02 
2073	 3.13285756029292E-02 
2074	 3.40794682936019E-02 
2075	 3.46031556753688E-02 
2076	 0.032650418342462 
2077	 3.13982846739627E-02 
2078	 2.96874422438576E-02 
2079	 2.88028548189466E-02 
2080	 2.78458900773582E-02 
2081	 2.69056543637453E-02 
2082	 2.69963906826135E-02 
2083	 2.81301847674335E-02 
2084	 2.84609882176733E-02 
2085	 2.76338971718468E-02 
2086	 2.67773868624574E-02 
2087	 2.62454992584951E-02 
2088	 2.62070411981082E-02 
2089	 0.026620675683533 
2090	 2.72798243956065E-02 
2091	 2.71777277281079E-02 
2092	 2.71030947787768E-02 
2093	 2.65355141811961E-02 
2094	 2.60842734335041E-02 
2095	 2.53564347125837E-02 
2096	 2.58048393905205E-02 
2097	 2.73189020929326E-02 
2098	 2.75220479082601E-02 
2099	 2.86132055242784E-02 
2100	 2.70336994434495E-02 
2101	 2.53900453089755E-02 
2102	 2.37942815860853E-02 
2103	 2.36159465331406E-02 
2104	 2.65575367032214E-02 
2105	 2.81063920567672E-02 
2106	 2.86815980146695E-02 
2107	 2.79248992724671E-02 
2108	 2.59594336160356E-02 
2109	 0.025365940569628 
2110	 2.42495585051341E-02 
2111	 2.39907342657599E-02 
2112	 2.54355517726099E-02 
2113	 2.53821288206596E-02 
2114	 2.48645835342262E-02 
2115	 2.37880324626284E-02 
2116	 2.10978298242291E-02 
2117	 2.06226651240067E-02 
2118	 2.01466697901623E-02 
2119	 2.12058911732676E-02 
2120	 2.58295487156158E-02 
2121	 2.68519688214556E-02 
2122	 2.56035097632709E-02 
2123	 0.025618273893676 
2124	 2.43586296193904E-02 
2125	 2.38893556610487E-02 
2126	 2.60230587891439E-02 
2127	 2.76197474614729E-02 
2128	 2.76284613286122E-02 
2129	 2.71414610749306E-02 
2130	 2.62259419994995E-02 
2131	 2.55616887554719E-02 
2132	 2.51660832705852E-02 
2133	 2.58405719094889E-02 
2134	 2.51416609472186E-02 
2135	 2.27496190796169E-02 
2136	 2.21180641262569E-02 
2137	 0.021609906471936 
2138	 2.12694259464203E-02 
2139	 2.27588450127026E-02 
2140	 2.27823704464119E-02 
2141	 0.021551675176749 
2142	 0.021590333419984 
2143	 2.18216115709731E-02 
2144	 2.16395323721227E-02 
2145	 2.26070252494537E-02 
2146	 2.26397189786922E-02 
2147	 2.43550027604464E-02 
2148	 2.67199198659232E-02 
2149	 2.68540936451769E-02 
2150	 2.62860663807521E-02 
2151	 2.43748878854042E-02 
2152	 2.47842919915894E-02 
2153	 2.63122671401396E-02 
2154	 2.61715342156923E-02 
2155	 2.72167004429316E-02 
2156	 2.71766090174003E-02 
2157	 2.64624228071573E-02 
2158	 2.55861693003882E-02 
2159	 2.55832303694251E-02 
2160	 2.49184551613809E-02 
2161	 2.41385825345899E-02 
2162	 2.47914990403926E-02 
2163	 2.45076251602439E-02 
2164	 2.19616862880999E-02 
2165	 2.09607723529004E-02 
2166	 2.14999705929857E-02 
2167	 0.020751176359042 
2168	 2.00131115514045E-02 
2169	 1.95774665983065E-02 
2170	 1.82323222148558E-02 
2171	 0.01634494982286 
2172	 1.93801002900256E-02 
2173	 2.21208524674263E-02 
2174	 2.38854096316307E-02 
2175	 2.74818410684358E-02 
2176	 2.92749838370296E-02 
2177	 2.86870150773712E-02 
2178	 2.87254720247154E-02 
2179	 2.84885781518456E-02 
2180	 2.62340489999623E-02 
2181	 2.41580065375711E-02 
2182	 2.28103138270639E-02 
2183	 2.29059054966555E-02 
2184	 2.40323342075065E-02 
2185	 2.29077646828808E-02 
2186	 2.21052812067115E-02 
2187	 2.04241866208463E-02 
2188	 2.02149675727213E-02 
2189	 2.02982390687234E-02 
2190	 2.22924880581866E-02 
2191	 2.71604905899884E-02 
2192	 2.80152131322546E-02 
2193	 2.76792677303235E-02 
2194	 0.026940837367807 
2195	 0.022346968096877 
2196	 2.13475389540129E-02 
2197	 2.44068553188865E-02 
2198	 2.40557238567137E-02 
2199	 2.17234011161752E-02 
2200	 2.20157253171862E-02 
2201	 2.21521764574225E-02 
2202	 2.41695500429143E-02 
2203	 2.82201482634879E-02 
2204	 0.030832697359259 
2205	 2.65752913847574E-02 
2206	 1.83469603191215E-02 
2207	 1.83526470968247E-02 
2208	 1.68571138644969E-02 
2209	 0.01511141952816 
2210	 1.88721039900392E-02 
2211	 1.74468310593246E-02 
2212	 1.82233405428698E-02 
2213	 2.25317545993169E-02 
2214	 2.36960302009234E-02 
2215	 2.55584368337054E-02 
2216	 2.62553227959476E-02 
2217	 2.72605713538297E-02 
2218	 3.02177838391243E-02 
2219	 3.09480231121252E-02 
2220	 0.028547888166675 
2221	 2.86184842303649E-02 
2222	 2.98881840309558E-02 
2223	 2.99388079070874E-02 
2224	 3.05417394275205E-02 
2225	 3.12149313798248E-02 
2226	 3.08179282079968E-02 
2227	 3.06140487168925E-02 
2228	 2.99844607481124E-02 
2229	 0.030395677829875 
2230	 3.32992026886192E-02 
2231	 3.31644080437143E-02 
2232	 2.99887199052522E-02 
2233	 3.08701993219065E-02 
2234	 3.31255731488675E-02 
2235	 3.29708786830449E-02 
2236	 3.31399798347553E-02 
2237	 3.63370860319329E-02 
2238	 3.58746909114233E-02 
2239	 2.73620393786818E-02 
2240	 2.48040351372883E-02 
2241	 2.69204982173054E-02 
2242	 2.25047741664984E-02 
2243	 2.22090988078143E-02 
2244	 2.73957511149719E-02 
2245	 0.021946307986342 
2246	 1.73069001982347E-02 
2247	 2.10405606432797E-02 
2248	 1.78149177846549E-02 
2249	 0.018218802189999 
2250	 2.36929588255239E-02 
2251	 2.16338076011022E-02 
2252	 1.84428764162778E-02 
2253	 1.85257833099585E-02 
2254	 0.018493955372864 
2255	 1.85596126431276E-02 
2256	 0.01545797525406 
2257	 8.85956013241287E-03 
2258	 8.61754827386101E-03 
2259	 9.81825514224012E-03 
2260	 1.01134992306234E-02 
2261	 1.48584443540679E-02 
2262	 1.84499273080287E-02 
2263	 2.02760520719136E-02 
2264	 2.08425970711462E-02 
2265	 2.26761288125682E-02 
2266	 2.22464897106679E-02 
2267	 1.70179593777683E-02 
2268	 1.47522610915256E-02 
2269	 1.44998459092483E-02 
2270	 1.51810234093503E-02 
2271	 1.68044841890348E-02 
2272	 1.61211082250395E-02 
2273	 1.62023002814552E-02 
2274	 1.54579980918838E-02 
2275	 1.02129829448251E-02 
2276	 9.1594556658685E-03 
2277	 1.02735632168311E-02 
2278	 1.18051229803551E-02 
2279	 0.01707639618915 
2280	 1.92192831483577E-02 
2281	 2.07536540229184E-02 
2282	 2.25925597612321E-02 
2283	 1.77502348705973E-02 
2284	 1.59783732726367E-02 
2285	 1.88361038027659E-02 
2286	 1.51913732537172E-02 
2287	 2.06138354091091E-02 
2288	 3.01576766154559E-02 
2289	 0.030967257968873 
2290	 3.31847612043417E-02 
2291	 3.14706846151383E-02 
2292	 2.67833256210901E-02 
2293	 2.11639724163921E-02 
2294	 0.01904102994507 
2295	 2.17783247168662E-02 
2296	 0.021735735370555 
2297	 2.74344293219829E-02 
2298	 3.58182738925808E-02 
2299	 3.84596012591332E-02 
2300	 3.63298792211521E-02 
2301	 3.57649714719854E-02 
2302	 3.52522207006378E-02 
2303	 2.89814313804818E-02 
2304	 2.46393820563684E-02 
2305	 2.78074422255998E-02 
2306	 2.75773862742512E-02 
2307	 1.67055494307274E-02 
2308	 1.11138587003605E-02 
2309	 7.00563350453694E-03 
2310	-9.19278612285115E-04 
2311	 2.41008211988633E-03 
2312	 7.35077314394793E-03 
2313	 0.013065991033161 
2314	 1.70874153545583E-02 
2315	 1.81430152448735E-02 
2316	 2.84052124203029E-02 
2317	 2.96851301448392E-02 
2318	 2.62875906758461E-02 
2319	 2.15736308553149E-02 
2320	 7.31419923220542E-03 
2321	-2.03877080411592E-03 
2322	-7.47533220935285E-03 
2323	-1.42450425749487E-02 
2324	-1.50582886472497E-02 
2325	-7.44663269148133E-03 
2326	-7.89749315539293E-03 
2327	-1.98718280766746E-05 
2328	 1.88323196561346E-02 
2329	 2.26524320490525E-02 
2330	 1.93486164712851E-02 
2331	 9.36099217434844E-03 
2332	 2.56879325029059E-03 
2333	 5.68658090365769E-03 
2334	 8.28310668736986E-03 
2335	 1.46232449609328E-02 
2336	 1.51460104163043E-02 
2337	 6.67442107072532E-03 
2338	 9.53195794322095E-04 
2339	 4.85050001624782E-03 
2340	 8.48856613148265E-03 
2341	-5.0002352343056E-03 
2342	-0.01019611808705 
2343	-1.25618690121883E-02 
2344	-0.020179740406417 
2345	-2.15037729619559E-03 
2346	 6.97880156026776E-03 
2347	 0.024523513338156 
2348	 4.60869398027839E-02 
2349	 3.90342419394283E-02 
2350	 4.46195606147523E-02 
2351	 2.16383126728502E-02 
2352	-1.08420108969629E-02 
2353	-1.81488777450975E-02 
2354	-1.71192638766922E-02 
2355	 8.11576787156085E-03 
2356	 1.71322380452507E-02 
2357	 0.030430220593325 
2358	 6.08366305341791E-02 
2359	 7.88240457580086E-02 
2360	 8.44782211917779E-02 
2361	 8.89208661408722E-02 
2362	 8.34865192893154E-02 
2363	 3.10425975418344E-02 
2364	-2.09265862024328E-02 
2365	-3.61192621918117E-02 
2366	-4.47996949819757E-02 
2367	-3.75882806338867E-02 
2368	-2.74345244094875E-03 
2369	 3.31602233089812E-02 
2370	 3.09976849081008E-02 
2371	 3.02155183705898E-03 
2372	 2.65029389655489E-02 
2373	 6.09224150236876E-02 
2374	 5.85477445373187E-02 
2375	 9.61595858939586E-02 
2376	 0.11488456278989 
2377	 7.18414202691078E-02 
2378	 0.045544160174278 
2379	 3.94770897116069E-02 
2380	 3.26977145352886E-02 
2381	 1.05901057088168E-02 
2382	 8.52128726709587E-03 
2383	 7.70878303470325E-03 
2384	-2.30725985599318E-02 
2385	-7.56307272182766E-03 
2386	 2.34663431682609E-02 
2387	 1.04945749140908E-02 
2388	 4.32143573980014E-02 
2389	 7.13880882311904E-02 
2390	 2.52249856633365E-02 
2391	-5.06661320061449E-02 
2392	-0.086568517825187 
2393	-5.07082608519352E-02 
2394	-2.90835035918359E-02 
2395	 6.09189255247254E-03 
2396	 3.49092501898691E-02 
2397	 1.40676295112879E-02 
2398	-1.29344112071282E-02 
2399	-2.96552379927742E-02 
2400	-4.75732388946029E-02 
2401	-9.10922490050757E-02 
2402	-0.133830335477302 
2403	-0.15210923456255 
2404	-0.127010861480971 
2405	-8.47075422376067E-02 
2406	-2.59690502081625E-02 
2407	 5.88589953530563E-02 
2408	-5.37492834222586E-03 
2409	-0.114609908655884 
2410	-6.93133460172471E-02 
2411	-0.110054761068114 
2412	-0.153529224449199 
2413	-0.140695072852909 
2414	-0.231453918240394 
2415	-0.350931242153774 
2416	-0.260575075561853 
2417	-0.142524226888009 
2418	-1.73579365166927E-02 
2419	 4.89147938477634E-02 
2420	-4.00655613632755E-02 
2421	-2.28915869539521E-02 
2422	-5.24406217296151E-02 
2423	 6.76159733613882E-02 
2424	 0.383866140214931 
2425	 0.640753977432447 
2426	 0.553526843996342 
2427	 0.281766390376852 
2428	 3.01632766754488E-02 
2429	-0.233118834754379 
2430	-0.263375587846993 
2431	-0.249132242555693 
2432	-0.247034606590882 
2433	-8.57491577015948E-02 
2434	-1.57144335899474E-02 
2435	 1.28863140321732E-02 
2436	 1.96292545595705E-02 
2437	-0.138499903651942 
2438	-0.163888846873179 
2439	-0.116219679488836 
2440	-0.235921804737377 
2441	-0.22794138012689 
2442	-0.238123281424024 
2443	-0.405966067062454 
2444	-0.370472879760115 
2445	-0.279095192544657 
2446	-0.675457812543812 
2447	 1.65786353854102 
2448	 1.63040494675479 
2449	 0.314763282895257 
2450	 0.404470790737517 
2451	 9.73021625290623E-02 
2452	 0.376258838578812 
2453	 0.911897470643158 
2454	 0.99817405907513 
2455	 1.27123099713921 
2456	-20.0510408758318 
2457	 4.01612015488094 
2458	 6.38379642981211 
2459	 24.8731432712833 
2460	-1.69494186232066 
2461	-0.70647138150707 
2462	-0.471190397192258 
2463	-0.694316073707643 
2464	-1.20034019904933 
2465	-1.1514386438287 
2466	-6.83195820969873 
2467	 1.49315813311208 
2468	 2.24845889305344 
2469	 30.1964004691833 
2470	 20.2518800658145 
2471	 19.8489757855555 
2472	-2.08830162089374 
2473	-0.439599157176435 
2474	 0.71210462349068 
2475	 2.31040730916159E-02 
2476	 1.19866793367871 
2477	 0.781938000359627 
2478	 0.62374834248769 
2479	 0.48259134929177 
2480	 0.906542503058364 
2481	-12.2124322617667 
2482	 0.722117239503077 
2483	 1.12026228839843 
2484	 1.95395888338955 
2485	 1.79306360416358 
2486	-0.564993883704998 
2487	 0.218613860557703 
2488	 3.84665149133653 
2489	-2.49286664283465 
2490	 0.833737625195066 
2491	-0.702769879995578 
2492	-23.2767104660426 
2493	-5.11979635705482 
2494	-2.34245309056044 
2495	 0.180116245028901 
2496	 7.32091439273966 
2497	-1.02916368778374 
2498	 0.244451866541397 
2499	 0.381455961926638 
2500	 0.88629594368903 
