Wavelength	rt0713west_far_sunny00005.asd
350	 5.30658686830606E-02 
351	 5.23560573469073E-02 
352	 5.17797271953326E-02 
353	 5.14404978345973E-02 
354	 5.11947002844817E-02 
355	 0.050800148311546 
356	 5.08258856006575E-02 
357	 5.10632648175603E-02 
358	 5.10810043889456E-02 
359	 5.06153104792009E-02 
360	 5.03556975281075E-02 
361	 5.04205302132411E-02 
362	 5.04770526517313E-02 
363	 0.050091988779099 
364	 4.96997511685574E-02 
365	 4.94973811761983E-02 
366	 4.91521489069291E-02 
367	 4.90716599441596E-02 
368	 4.90640321160789E-02 
369	 0.048919912637003 
370	 4.89594019249749E-02 
371	 0.048908530107593 
372	 4.87010024909041E-02 
373	 0.048404376764597 
374	 4.79970166232149E-02 
375	 4.78940418121758E-02 
376	 4.81958456215463E-02 
377	 0.048528138065551 
378	 4.81284365197752E-02 
379	 4.77423686676234E-02 
380	 4.79887576096652E-02 
381	 4.79279085521655E-02 
382	 4.78283159580958E-02 
383	 4.78250021678167E-02 
384	 4.79600511177347E-02 
385	 4.80756299988521E-02 
386	 4.80509894322122E-02 
387	 4.78852402071231E-02 
388	 4.77038014775216E-02 
389	 4.76612324060066E-02 
390	 4.75995565529184E-02 
391	 4.74726724884368E-02 
392	 4.76917287626683E-02 
393	 4.76886339506736E-02 
394	 4.74699711244701E-02 
395	 4.72773020694223E-02 
396	 4.72679865550416E-02 
397	 4.73527263776595E-02 
398	 4.74343163652149E-02 
399	 4.74365633127428E-02 
400	 4.74450421987862E-02 
401	 4.74394492814274E-02 
402	 4.73932195349282E-02 
403	 4.72744003247237E-02 
404	 4.73728060205896E-02 
405	 4.75285535988464E-02 
406	 4.74820112722045E-02 
407	 4.74603272838696E-02 
408	 4.74641846453343E-02 
409	 0.047473245035942 
410	 4.74630512997669E-02 
411	 4.74772617374692E-02 
412	 4.74960958037513E-02 
413	 4.74942690432234E-02 
414	 4.74436364548557E-02 
415	 0.047533201147491 
416	 4.76402223014847E-02 
417	 4.75874965987078E-02 
418	 4.77033604904728E-02 
419	 4.78984064971977E-02 
420	 4.80439023075458E-02 
421	 4.80134896579196E-02 
422	 4.79997063627378E-02 
423	 4.80835576892169E-02 
424	 4.82810374792538E-02 
425	 4.85313346092794E-02 
426	 0.048668796609534 
427	 4.87412941095914E-02 
428	 4.88940450118886E-02 
429	 4.91100537761419E-02 
430	 4.93179160625321E-02 
431	 4.94827209021876E-02 
432	 4.96216480737808E-02 
433	 4.97392616179146E-02 
434	 4.99083042402909E-02 
435	 0.050146742643545 
436	 5.02707117119346E-02 
437	 5.04377892621447E-02 
438	 5.06611483691229E-02 
439	 5.08708032418727E-02 
440	 5.10373137212504E-02 
441	 5.12068007099267E-02 
442	 0.051406419765364 
443	 5.16259310819632E-02 
444	 5.17548975379609E-02 
445	 5.18681540294929E-02 
446	 5.20527535082093E-02 
447	 5.22333724815968E-02 
448	 5.23791165475162E-02 
449	 5.25061122933346E-02 
450	 5.26622314487423E-02 
451	 5.28341592791746E-02 
452	 5.29117026552311E-02 
453	 5.29170698835236E-02 
454	 5.31833740061948E-02 
455	 5.32779308850849E-02 
456	 5.32595326860618E-02 
457	 5.33346163928109E-02 
458	 5.34582741073797E-02 
459	 0.05354023061412 
460	 5.36024231935825E-02 
461	 5.37679822009508E-02 
462	 5.37422813675423E-02 
463	 5.37194245072584E-02 
464	 5.38502576642372E-02 
465	 5.38960672130243E-02 
466	 5.39214110292416E-02 
467	 5.39840586654162E-02 
468	 5.41197011294914E-02 
469	 0.054193899887839 
470	 5.42558209391679E-02 
471	 5.43529488777744E-02 
472	 5.45071232659716E-02 
473	 5.44907632743445E-02 
474	 5.44715778406567E-02 
475	 0.054630526976469 
476	 5.48140268842553E-02 
477	 5.49276416538527E-02 
478	 5.50267520970333E-02 
479	 5.52491635737371E-02 
480	 5.54112108435279E-02 
481	 5.54896513603084E-02 
482	 5.55574884187534E-02 
483	 5.58426026237608E-02 
484	 5.60927451859185E-02 
485	 5.62742639835734E-02 
486	 5.64341796398728E-02 
487	 0.056567152268959 
488	 5.67503733361832E-02 
489	 5.69639615895793E-02 
490	 0.057102693696168 
491	 5.73583080745412E-02 
492	 5.76423608409748E-02 
493	 5.78521715168787E-02 
494	 5.79865436332784E-02 
495	 0.058219525838869 
496	 5.85639656273676E-02 
497	 5.89300313155509E-02 
498	 5.91867919365273E-02 
499	 5.93479653404575E-02 
500	 5.94918183809511E-02 
501	 5.97649837322682E-02 
502	 5.99991423963373E-02 
503	 0.060236686758048 
504	 0.060536718948945 
505	 6.07558873118014E-02 
506	 6.10785081910516E-02 
507	 6.14933116530431E-02 
508	 6.18351105972461E-02 
509	 6.21700309214475E-02 
510	 0.062469522456287 
511	 6.27542953897706E-02 
512	 0.063211690582223 
513	 6.35488092679703E-02 
514	 6.38260678874735E-02 
515	 6.42305175688754E-02 
516	 6.46511369828368E-02 
517	 6.50670694964719E-02 
518	 6.54469616579555E-02 
519	 6.57428999669565E-02 
520	 6.61546311240873E-02 
521	 6.65477705185185E-02 
522	 6.68281036271712E-02 
523	 6.73241399959474E-02 
524	 6.77195725391838E-02 
525	 6.80271423383347E-02 
526	 6.84803567604488E-02 
527	 6.89208819126611E-02 
528	 0.069347750056648 
529	 6.97572013727454E-02 
530	 7.00832320638173E-02 
531	 7.04986871493181E-02 
532	 0.070961587738383 
533	 7.13651067010284E-02 
534	 7.17563801913459E-02 
535	 7.22120313071634E-02 
536	 7.27016904306415E-02 
537	 7.30738567535332E-02 
538	 7.34241901941818E-02 
539	 0.073794850190841 
540	 7.41981578830776E-02 
541	 7.45860872530411E-02 
542	 7.50220854148536E-02 
543	 7.54749148233023E-02 
544	 7.58662709054892E-02 
545	 7.62662624857642E-02 
546	 7.66922376539972E-02 
547	 7.71371490026361E-02 
548	 7.75666936181729E-02 
549	 7.79582429766664E-02 
550	 7.83432372592066E-02 
551	 7.87659213280478E-02 
552	 7.92147889299176E-02 
553	 7.96007163695421E-02 
554	 7.99349726580945E-02 
555	 8.03408918860443E-02 
556	 8.07465151576827E-02 
557	 8.11367155102049E-02 
558	 8.15040761303586E-02 
559	 8.18379727835618E-02 
560	 8.21611676283862E-02 
561	 8.24829138662598E-02 
562	 8.28013866776814E-02 
563	 8.30812240965726E-02 
564	 8.33397904049089E-02 
565	 8.35670982039079E-02 
566	 8.36780647237677E-02 
567	 8.38365123357257E-02 
568	 0.084030503084657 
569	 8.41975501828881E-02 
570	 8.44140318087607E-02 
571	 8.45653067137806E-02 
572	 8.46407820656166E-02 
573	 0.084750907803662 
574	 8.49258541859765E-02 
575	 8.50655047944612E-02 
576	 8.51020328362485E-02 
577	 8.51778324673726E-02 
578	 8.52584012483836E-02 
579	 8.53127690001687E-02 
580	 0.085315745085498 
581	 0.085294426259851 
582	 8.52388704134669E-02 
583	 8.51281461539038E-02 
584	 8.49264172240198E-02 
585	 8.47013989167229E-02 
586	 8.43739290045261E-02 
587	 8.38643331835234E-02 
588	 8.34427206934089E-02 
589	 8.31219268670391E-02 
590	 8.28998843469886E-02 
591	 8.27493474166887E-02 
592	 8.25422754064919E-02 
593	 8.22396038664508E-02 
594	 8.18590054105908E-02 
595	 8.14934158268553E-02 
596	 8.10874707156274E-02 
597	 0.080632073515667 
598	 0.080147845359062 
599	 7.96301083940225E-02 
600	 7.92232316603234E-02 
601	 7.89694251067884E-02 
602	 0.078711244886835 
603	 7.84888600936139E-02 
604	 7.83267425312278E-02 
605	 7.82382861481653E-02 
606	 7.81875327435131E-02 
607	 7.81211098101473E-02 
608	 7.80433339375545E-02 
609	 0.078017002108791 
610	 7.80085151559753E-02 
611	 7.79908091630533E-02 
612	 7.79455751705807E-02 
613	 7.78722658632093E-02 
614	 7.78059949621278E-02 
615	 7.77872785164491E-02 
616	 7.78268281372856E-02 
617	 0.077664123559877 
618	 7.75418853479445E-02 
619	 0.077561228841628 
620	 7.75172604250398E-02 
621	 7.73859401829013E-02 
622	 7.73016688012823E-02 
623	 7.73653411453406E-02 
624	 7.72282610889474E-02 
625	 7.70559087598277E-02 
626	 7.69186909213914E-02 
627	 7.67820800586575E-02 
628	 7.67485475090283E-02 
629	 7.67852446267695E-02 
630	 7.68031112280042E-02 
631	 7.66273284076894E-02 
632	 7.65433558818789E-02 
633	 7.65618613516355E-02 
634	 7.65544158043123E-02 
635	 7.64697502680537E-02 
636	 7.63719870145612E-02 
637	 7.63012621602823E-02 
638	 7.62460949846671E-02 
639	 7.61273306173298E-02 
640	 7.59610949297816E-02 
641	 7.57943197328844E-02 
642	 7.56634518271713E-02 
643	 7.54600424183155E-02 
644	 7.51558535712882E-02 
645	 7.47982413395054E-02 
646	 7.44600752117909E-02 
647	 7.42530773668346E-02 
648	 7.41925308513769E-02 
649	 7.40749196358512E-02 
650	 7.38898638885858E-02 
651	 7.36972458074844E-02 
652	 7.35642845502612E-02 
653	 7.33221312487435E-02 
654	 7.29688928880862E-02 
655	 7.25509537112783E-02 
656	 7.22189752316212E-02 
657	 7.18798307146501E-02 
658	 7.15692097729895E-02 
659	 7.13297508973546E-02 
660	 7.11963376345567E-02 
661	 7.10206664555854E-02 
662	 7.07676851341763E-02 
663	 7.04954698508189E-02 
664	 7.03558202461437E-02 
665	 7.02570006497717E-02 
666	 7.01325228220952E-02 
667	 7.00267574582093E-02 
668	 6.98822206298069E-02 
669	 6.97345755336276E-02 
670	 6.96401491401644E-02 
671	 0.069585339308545 
672	 6.95633344086869E-02 
673	 6.95215053218975E-02 
674	 6.93797678274524E-02 
675	 6.93574210421097E-02 
676	 6.93993929999041E-02 
677	 6.94193353635797E-02 
678	 6.93890987004507E-02 
679	 6.93931382937597E-02 
680	 6.94256871714614E-02 
681	 6.94424138169999E-02 
682	 6.94572093950407E-02 
683	 6.94874400419845E-02 
684	 6.94715425549527E-02 
685	 6.92277183347769E-02 
686	 6.89864387479544E-02 
687	 6.88982926954767E-02 
688	 6.89711191962065E-02 
689	 6.89369526505842E-02 
690	 0.068829644881249 
691	 6.86029677672277E-02 
692	 6.81836623952754E-02 
693	 0.067801536745047 
694	 6.76949458971546E-02 
695	 0.067809238358509 
696	 6.77105061738782E-02 
697	 6.72323811112821E-02 
698	 6.65106875920571E-02 
699	 6.58413446180863E-02 
700	 6.53879749866035E-02 
701	 6.50663802207961E-02 
702	 6.47459967694644E-02 
703	 6.42789356056836E-02 
704	 6.36379106929251E-02 
705	 6.29599342055596E-02 
706	 6.23550200141004E-02 
707	 6.17867628802409E-02 
708	 6.10388653527224E-02 
709	 6.01439270910683E-02 
710	 5.92178628827264E-02 
711	 5.82317146330716E-02 
712	 5.71442500056597E-02 
713	 5.59055719311042E-02 
714	 5.44223001176985E-02 
715	 5.28099753083384E-02 
716	 5.09975277437956E-02 
717	 4.91434357990583E-02 
718	 4.75656269438346E-02 
719	 0.046586371451327 
720	 4.60102057598617E-02 
721	 4.53134918492974E-02 
722	 4.41158746406238E-02 
723	 4.25566002045513E-02 
724	 0.04105246317266 
725	 3.98345230907038E-02 
726	 3.88026516486305E-02 
727	 3.76368825494026E-02 
728	 3.61870463596505E-02 
729	 3.48286846027156E-02 
730	 3.36166101245023E-02 
731	 3.27134083115693E-02 
732	 3.21289548242935E-02 
733	 3.14586127070701E-02 
734	 3.06914140015401E-02 
735	 2.99591837741239E-02 
736	 2.95399941814681E-02 
737	 2.93619917104629E-02 
738	 2.92718437812478E-02 
739	 2.91601114225038E-02 
740	 2.91064777495414E-02 
741	 2.90663383485163E-02 
742	 2.90279907709487E-02 
743	 0.028994908848625 
744	 2.89387401777559E-02 
745	 2.89430198551512E-02 
746	 2.89884169829366E-02 
747	 0.02890686265083 
748	 2.88261606767753E-02 
749	 2.88184049838673E-02 
750	 2.88876273977758E-02 
751	 2.88715740996857E-02 
752	 2.88684561618455E-02 
753	 0.028823346659831 
754	 0.02864627881788 
755	 2.86866549203685E-02 
756	 2.86533282844379E-02 
757	 2.84219154122177E-02 
758	 2.81302639065053E-02 
759	 2.76061132445999E-02 
760	 2.70012402715104E-02 
761	 2.68820664314066E-02 
762	 0.026884467075716 
763	 2.71764700428765E-02 
764	 2.76151432745093E-02 
765	 2.80084811699142E-02 
766	 2.83697164532308E-02 
767	 0.028584803270521 
768	 2.86898751617931E-02 
769	 2.88489058353864E-02 
770	 2.89791204276651E-02 
771	 2.90728692097417E-02 
772	 2.91485977816206E-02 
773	 2.92619667596632E-02 
774	 2.93181263814118E-02 
775	 2.93620816502841E-02 
776	 2.94733065779147E-02 
777	 2.95222418104089E-02 
778	 2.96381950280762E-02 
779	 0.029811922518185 
780	 0.029887555313901 
781	 2.99580258422099E-02 
782	 3.00697395631477E-02 
783	 3.02312385328411E-02 
784	 3.03967227959866E-02 
785	 3.04571879625955E-02 
786	 3.04667270711138E-02 
787	 3.05361367625552E-02 
788	 3.06914120179007E-02 
789	 3.08366987564591E-02 
790	 3.09888565060467E-02 
791	 3.12521253080421E-02 
792	 3.15626197868217E-02 
793	 0.031804281619377 
794	 0.031927444641307 
795	 3.19840457312409E-02 
796	 3.21631022722813E-02 
797	 3.23644443611074E-02 
798	 3.24764033573315E-02 
799	 3.26381672771001E-02 
800	 3.27768529558919E-02 
801	 3.28845745241206E-02 
802	 3.29992906309007E-02 
803	 3.31770703164412E-02 
804	 3.33268871544678E-02 
805	 3.33829677308719E-02 
806	 3.33299817781231E-02 
807	 3.33527485004065E-02 
808	 3.32867801033305E-02 
809	 3.30161804349632E-02 
810	 3.27393764215313E-02 
811	 3.23769612698545E-02 
812	 3.18818868928181E-02 
813	 3.12947047274387E-02 
814	 3.10528067585858E-02 
815	 3.08192175603531E-02 
816	 3.05450390084449E-02 
817	 3.04254723521772E-02 
818	 0.030205247118288 
819	 3.00189102833081E-02 
820	 2.98248423055402E-02 
821	 2.93253704195591E-02 
822	 2.86366247824864E-02 
823	 0.028024035164487 
824	 2.76151924219866E-02 
825	 2.71478980547512E-02 
826	 2.64650280927226E-02 
827	 2.56545884378096E-02 
828	 2.49497495632255E-02 
829	 0.024299164715979 
830	 2.38448126093504E-02 
831	 0.023554723746597 
832	 2.32824433178603E-02 
833	 2.29912917910632E-02 
834	 2.27739608344311E-02 
835	 2.26542573674974E-02 
836	 2.25527863471058E-02 
837	 2.25138555131864E-02 
838	 2.24943782065814E-02 
839	 2.24584985765146E-02 
840	 2.24388346118485E-02 
841	 2.23701980764807E-02 
842	 2.22708990198151E-02 
843	 2.21950462559419E-02 
844	 2.22044768388852E-02 
845	 2.21202127466259E-02 
846	 0.021964713522656 
847	 2.18950914903573E-02 
848	 2.18756375106523E-02 
849	 2.18769618625791E-02 
850	 2.18414911567091E-02 
851	 2.16922671351181E-02 
852	 2.16499524057164E-02 
853	 2.15669545421081E-02 
854	 2.13682122066477E-02 
855	 2.12791948878193E-02 
856	 2.14218470733853E-02 
857	 2.14931323384399E-02 
858	 2.12669720493907E-02 
859	 2.12032362253652E-02 
860	 2.12557636773801E-02 
861	 2.11974112157221E-02 
862	 2.08510836050737E-02 
863	 2.09211175068894E-02 
864	 2.09616404024589E-02 
865	 2.08978895221762E-02 
866	 2.10072711364269E-02 
867	 0.020762578106031 
868	 2.06233492703471E-02 
869	 2.07132190164753E-02 
870	 2.05693909811442E-02 
871	 2.05386993838502E-02 
872	 0.020420067570553 
873	 2.01514200436205E-02 
874	 0.020238262854696 
875	 2.01329802957816E-02 
876	 1.99777752642121E-02 
877	 1.99888847272884E-02 
878	 1.98198835969215E-02 
879	 1.97527673196601E-02 
880	 1.97058519772353E-02 
881	 1.95081559410321E-02 
882	 1.95474804698777E-02 
883	 1.94741137416248E-02 
884	 1.93621420035123E-02 
885	 1.95435206320864E-02 
886	 1.94382395823466E-02 
887	 1.93699840670982E-02 
888	 1.93389734184546E-02 
889	 1.89205634825556E-02 
890	 1.87716052264475E-02 
891	 1.84660209622557E-02 
892	 1.78593780069672E-02 
893	 1.77188026692114E-02 
894	 0.017667780815051 
895	 1.73462810425147E-02 
896	 1.67228477489696E-02 
897	 1.68055595935388E-02 
898	 1.67196282075483E-02 
899	 0.016652666189679 
900	 1.68385808463126E-02 
901	 1.62430340169352E-02 
902	 1.66991911631548E-02 
903	 1.73012307503894E-02 
904	 1.66484772030028E-02 
905	 1.63476762094171E-02 
906	 1.63294011631406E-02 
907	 1.63436520897787E-02 
908	 1.60346388238373E-02 
909	 1.52563025709983E-02 
910	 1.54253542739313E-02 
911	 1.61677410538402E-02 
912	 1.56756580621274E-02 
913	 1.58150746157613E-02 
914	 1.55697747405669E-02 
915	 1.50487642065787E-02 
916	 1.57629011916774E-02 
917	 1.61345694645796E-02 
918	 1.60654691488676E-02 
919	 1.56635890425055E-02 
920	 1.50042775686088E-02 
921	 1.51956277916363E-02 
922	 1.54566446689824E-02 
923	 0.015140674506261 
924	 1.46860031813417E-02 
925	 1.44244999994763E-02 
926	 0.014371988315921 
927	 1.41195113277433E-02 
928	 1.20597904467921E-02 
929	 1.20972425646923E-02 
930	 1.30754062715436E-02 
931	 1.12736241210128E-02 
932	 1.22038566193783E-02 
933	 1.37295454742758E-02 
934	 1.14422771784392E-02 
935	 4.99754409029485E-03 
936	 7.05695583340104E-03 
937	 1.00377100460379E-02 
938	 1.08932616849837E-02 
939	 9.61667439481729E-03 
940	 9.47766942081321E-03 
941	 8.46056647929379E-03 
942	 8.18933110488399E-03 
943	 1.10643888608908E-02 
944	 1.22994471949334E-02 
945	 1.11102590913851E-02 
946	 9.44629835315158E-03 
947	 9.92116984897988E-03 
948	 1.01226968556285E-02 
949	 0.010452502245164 
950	 1.09168359204307E-02 
951	 1.12195727350502E-02 
952	 1.14992459016275E-02 
953	 1.07398239693134E-02 
954	 9.16565611984014E-03 
955	 8.32298033417615E-03 
956	 0.012156765688809 
957	 1.28872894084363E-02 
958	 1.13495158036708E-02 
959	 1.33585799934347E-02 
960	 1.20171080615922E-02 
961	 1.28030055792945E-02 
962	 1.46404208852718E-02 
963	 1.27392113899827E-02 
964	 1.27391879607979E-02 
965	 1.26228493127774E-02 
966	 1.27048611875785E-02 
967	 1.46060710406016E-02 
968	 1.37713353041403E-02 
969	 1.23103705009951E-02 
970	 1.19112007861842E-02 
971	 1.30454710923062E-02 
972	 1.41455326787608E-02 
973	 1.41488933884223E-02 
974	 1.38785301737143E-02 
975	 1.52980087472601E-02 
976	 1.46695831827127E-02 
977	 1.46666659144439E-02 
978	 1.49884037132192E-02 
979	 1.30443219764084E-02 
980	 1.37006999441134E-02 
981	 1.46455377176129E-02 
982	 1.49806334408047E-02 
983	 1.53954501667341E-02 
984	 1.47691528474447E-02 
985	 1.46675385135922E-02 
986	 1.48785366115888E-02 
987	 1.40868098141247E-02 
988	 1.49310066456657E-02 
989	 1.55079933644504E-02 
990	 1.49307849308099E-02 
991	 1.38730783442209E-02 
992	 1.52563927241725E-02 
993	 1.62841363707807E-02 
994	 1.58902839443722E-02 
995	 1.48909086464665E-02 
996	 1.46791787059215E-02 
997	 1.51946708894623E-02 
998	 1.60808996858051E-02 
999	 1.67377585369735E-02 
1000	 1.60797582068862E-02 
1001	 1.54744231742046E-02 
1002	 1.56002889620372E-02 
1003	 1.55975472024214E-02 
1004	 1.55820736185729E-02 
1005	 1.55830975112695E-02 
1006	 1.54835649639836E-02 
1007	 0.015488195375087 
1008	 1.53741626525642E-02 
1009	 1.53085022041971E-02 
1010	 1.53471712840765E-02 
1011	 1.54002289500422E-02 
1012	 1.54271417980787E-02 
1013	 0.015372396805079 
1014	 1.54447303179459E-02 
1015	 1.53577519254178E-02 
1016	 1.54863476986277E-02 
1017	 1.61018022637207E-02 
1018	 1.62230705597255E-02 
1019	 0.016200163987119 
1020	 1.61464706849653E-02 
1021	 1.58665629679702E-02 
1022	 1.54462073894285E-02 
1023	 1.52745289716272E-02 
1024	 1.51365766499515E-02 
1025	 1.51787178356361E-02 
1026	 0.015140249342672 
1027	 1.51935206287907E-02 
1028	 1.53600922438026E-02 
1029	 1.54604677313526E-02 
1030	 1.55524977047081E-02 
1031	 1.57032020179836E-02 
1032	 1.59651553256754E-02 
1033	 0.01603538033526 
1034	 0.016061599811981 
1035	 1.60483898193886E-02 
1036	 1.57183833935934E-02 
1037	 1.57310801908133E-02 
1038	 1.60368896239736E-02 
1039	 0.016130378514796 
1040	 1.63172678642399E-02 
1041	 1.65120974713668E-02 
1042	 1.64487932217094E-02 
1043	 1.60338361297183E-02 
1044	 1.59774097919556E-02 
1045	 1.59252817196402E-02 
1046	 1.59553210838658E-02 
1047	 1.62854183639483E-02 
1048	 1.63158073515495E-02 
1049	 1.62121387223199E-02 
1050	 0.016132648869324 
1051	 1.59119196829884E-02 
1052	 0.015746337845927 
1053	 1.54536611408525E-02 
1054	 1.54342550620458E-02 
1055	 1.56926367843372E-02 
1056	 1.57891804543153E-02 
1057	 1.58959625648581E-02 
1058	 1.62085573072706E-02 
1059	 0.016229992274371 
1060	 1.59509358325464E-02 
1061	 1.59124987745319E-02 
1062	 1.58935747288819E-02 
1063	 1.59286173052942E-02 
1064	 0.016082324232229 
1065	 1.61395205628807E-02 
1066	 0.016339866478355 
1067	 1.62410107058361E-02 
1068	 1.57500450873248E-02 
1069	 1.56060008555423E-02 
1070	 1.53103140450691E-02 
1071	 1.52845010157112E-02 
1072	 1.56627210331966E-02 
1073	 1.61659179636935E-02 
1074	 1.61922551731404E-02 
1075	 1.60303683990791E-02 
1076	 1.60230837946775E-02 
1077	 1.57659701194644E-02 
1078	 1.56831539386067E-02 
1079	 1.58880332941545E-02 
1080	 1.58893674873608E-02 
1081	 1.57209340868162E-02 
1082	 1.55949199733759E-02 
1083	 1.53563119078034E-02 
1084	 1.53536331827577E-02 
1085	 0.015597348656908 
1086	 1.56046512350163E-02 
1087	 0.015660472938134 
1088	 1.56492688618428E-02 
1089	 1.52189262226598E-02 
1090	 1.51754627860131E-02 
1091	 1.50693794746566E-02 
1092	 1.50371889011922E-02 
1093	 1.50017015637095E-02 
1094	 1.49739876289138E-02 
1095	 1.49126589888012E-02 
1096	 1.51658447415873E-02 
1097	 1.49603843726254E-02 
1098	 1.41575880234343E-02 
1099	 1.38522688083073E-02 
1100	 1.34911007629452E-02 
1101	 0.013260508926215 
1102	 1.36829240145534E-02 
1103	 1.37541384636363E-02 
1104	 1.38930742696272E-02 
1105	 1.31731044843414E-02 
1106	 1.27917125707115E-02 
1107	 1.27883524588956E-02 
1108	 1.28875201062894E-02 
1109	 1.31567261198983E-02 
1110	 1.31402532300658E-02 
1111	 1.31179873819468E-02 
1112	 1.25505779525663E-02 
1113	 1.11134450091759E-02 
1114	 0.010495090136454 
1115	 9.44715767154188E-03 
1116	 9.19416212055774E-03 
1117	 1.15505900831738E-02 
1118	 1.11352995831281E-02 
1119	 8.66766852246793E-03 
1120	 6.98323438815936E-03 
1121	 1.84228933986706E-03 
1122	-0.001950732013071 
1123	 2.5174941640831E-03 
1124	 4.72350158053608E-03 
1125	 5.03531966783905E-03 
1126	 7.3301234816766E-03 
1127	 2.51641462025175E-03 
1128	 2.37464767902402E-04 
1129	 2.43640711350613E-03 
1130	 8.98267118027009E-03 
1131	 8.79586909989508E-03 
1132	 8.88272943614591E-03 
1133	 8.0705729552496E-03 
1134	 1.91990195509142E-03 
1135	 2.92397699013161E-03 
1136	 1.00930971599785E-02 
1137	 1.07098447235398E-02 
1138	 1.04880655358912E-02 
1139	 9.48935187923745E-03 
1140	 6.76716364761542E-03 
1141	 5.85078132799684E-03 
1142	 8.78077943860359E-03 
1143	 1.09864770091959E-02 
1144	 9.57428499985869E-03 
1145	 7.49183132460326E-03 
1146	 7.03223999890891E-03 
1147	 6.8781962069311E-03 
1148	 7.85955880843688E-03 
1149	 8.90929249582195E-03 
1150	 8.82424031664578E-03 
1151	 6.62136293390191E-03 
1152	 6.91866694455565E-03 
1153	 7.55313180600187E-03 
1154	 8.74941010414843E-03 
1155	 1.11006172663248E-02 
1156	 1.16737761333443E-02 
1157	 1.09254550964902E-02 
1158	 0.010608776669023 
1159	 0.010570993466747 
1160	 1.09097927696217E-02 
1161	 1.15866752214419E-02 
1162	 1.21439486635271E-02 
1163	 1.18922165896674E-02 
1164	 1.17356261825871E-02 
1165	 1.21401038824003E-02 
1166	 1.22834800693329E-02 
1167	 1.26465105152783E-02 
1168	 1.29605762454667E-02 
1169	 1.26525121756643E-02 
1170	 1.28798085491237E-02 
1171	 1.31583787321433E-02 
1172	 1.34918620965627E-02 
1173	 1.34575712534584E-02 
1174	 1.34699561695221E-02 
1175	 1.34983735015141E-02 
1176	 1.31430686913037E-02 
1177	 1.31500045492552E-02 
1178	 1.33886142345829E-02 
1179	 1.33744496810354E-02 
1180	 0.013433776072698 
1181	 1.34406848431506E-02 
1182	 1.32637879548759E-02 
1183	 1.33799155577009E-02 
1184	 1.34648382814399E-02 
1185	 1.34007307472703E-02 
1186	 1.35723563128665E-02 
1187	 0.013579959695806 
1188	 1.33954707323808E-02 
1189	 0.013467595075679 
1190	 1.35486464732852E-02 
1191	 0.013548569658737 
1192	 1.36247234166563E-02 
1193	 1.38359987203918E-02 
1194	 1.37896872057274E-02 
1195	 1.35870656034092E-02 
1196	 1.36507168966525E-02 
1197	 0.01364956730341 
1198	 1.35919554762323E-02 
1199	 1.38740231265133E-02 
1200	 0.01394583755304 
1201	 1.35858358473024E-02 
1202	 1.36409770258881E-02 
1203	 1.39202929927809E-02 
1204	 1.39484585431056E-02 
1205	 0.01410161430053 
1206	 1.40013793774307E-02 
1207	 1.35998440083879E-02 
1208	 1.36326287168969E-02 
1209	 1.38676770682232E-02 
1210	 1.40413646147705E-02 
1211	 1.42620802543452E-02 
1212	 1.42921614450253E-02 
1213	 1.42842107496348E-02 
1214	 1.42567546045508E-02 
1215	 1.42745854981165E-02 
1216	 1.41370074160673E-02 
1217	 1.41464597286193E-02 
1218	 1.41989964947321E-02 
1219	 1.41475716523587E-02 
1220	 1.43071275576162E-02 
1221	 1.43900363245719E-02 
1222	 1.42714745076993E-02 
1223	 1.44774164867142E-02 
1224	 1.47443397768633E-02 
1225	 1.46665052778285E-02 
1226	 1.45956664257429E-02 
1227	 1.46656130449415E-02 
1228	 1.47108900752858E-02 
1229	 1.46977834825366E-02 
1230	 1.47749283343979E-02 
1231	 1.49081064287216E-02 
1232	 0.014828527906042 
1233	 1.46901649321083E-02 
1234	 1.48241429523328E-02 
1235	 1.49197040257443E-02 
1236	 1.49053875860635E-02 
1237	 1.48694613209387E-02 
1238	 1.48883367314094E-02 
1239	 1.50514887170278E-02 
1240	 1.50482902898415E-02 
1241	 1.49500476225177E-02 
1242	 1.49774828331425E-02 
1243	 0.014995105145705 
1244	 1.49814814541457E-02 
1245	 1.51195836091925E-02 
1246	 0.015313347349699 
1247	 0.015270867555095 
1248	 1.51495921949163E-02 
1249	 1.51873999991905E-02 
1250	 0.015092934321496 
1251	 0.014837201687556 
1252	 1.48279798046105E-02 
1253	 1.49460504963139E-02 
1254	 1.48865128792318E-02 
1255	 1.49004727524761E-02 
1256	 1.49662339165071E-02 
1257	 1.48390017694348E-02 
1258	 1.47827273051412E-02 
1259	 1.49986536620083E-02 
1260	 1.49964554640347E-02 
1261	 1.46841277312656E-02 
1262	 0.014603513389173 
1263	 1.45691262429643E-02 
1264	 1.47063251733411E-02 
1265	 1.47377342904817E-02 
1266	 1.45937946960371E-02 
1267	 1.45548656332133E-02 
1268	 1.45283888420293E-02 
1269	 1.43878359955184E-02 
1270	 1.44783784258128E-02 
1271	 1.46370900131517E-02 
1272	 1.45019682393632E-02 
1273	 1.46255746299959E-02 
1274	 0.015087644980315 
1275	 1.50571836030183E-02 
1276	 1.47957444173388E-02 
1277	 1.48869287229019E-02 
1278	 1.48692115603847E-02 
1279	 1.46696332097688E-02 
1280	 1.47257958098292E-02 
1281	 1.47384931089371E-02 
1282	 1.45245826423882E-02 
1283	 1.45415793509575E-02 
1284	 1.49091936301034E-02 
1285	 1.50065918712334E-02 
1286	 1.50256957459572E-02 
1287	 1.50067902217245E-02 
1288	 1.48853787259863E-02 
1289	 1.47417249055482E-02 
1290	 1.44828477562334E-02 
1291	 1.44054818291892E-02 
1292	 1.45826975399477E-02 
1293	 1.43540384810335E-02 
1294	 0.014000475260316 
1295	 1.42132808258152E-02 
1296	 1.43543450734894E-02 
1297	 0.014154910219588 
1298	 1.42561702492499E-02 
1299	 1.42583828709454E-02 
1300	 1.39544066600378E-02 
1301	 1.40304676399078E-02 
1302	 1.40623258886711E-02 
1303	 1.36808984790834E-02 
1304	 1.35236048782279E-02 
1305	 1.35566726628365E-02 
1306	 1.33424296374102E-02 
1307	 1.31865320898053E-02 
1308	 0.013155299698368 
1309	 1.29381747929935E-02 
1310	 1.27840205768474E-02 
1311	 1.29498200355993E-02 
1312	 1.30100458098357E-02 
1313	 1.29514162819327E-02 
1314	 1.27194083152143E-02 
1315	 1.22909854289792E-02 
1316	 0.012335291386017 
1317	 1.26062098766876E-02 
1318	 0.012505780455403 
1319	 1.26774168679858E-02 
1320	 1.26817334871663E-02 
1321	 1.23831933821415E-02 
1322	 1.15555136861067E-02 
1323	 1.09966247411247E-02 
1324	 1.11110299769417E-02 
1325	 1.17230643847662E-02 
1326	 1.20605945503423E-02 
1327	 0.011578134655458 
1328	 1.13255344492785E-02 
1329	 1.12567490600078E-02 
1330	 1.06843298554149E-02 
1331	 1.10369867942033E-02 
1332	 1.18192504395518E-02 
1333	 1.08091044152578E-02 
1334	 9.32100189021324E-03 
1335	 9.12006842309609E-03 
1336	 9.95500180258802E-03 
1337	 1.01720821003888E-02 
1338	 0.011064438017221 
1339	 0.011360780099369 
1340	 0.010708354772983 
1341	 1.07401562853149E-02 
1342	 1.14910131915267E-02 
1343	 1.15961610009152E-02 
1344	 1.11369178021824E-02 
1345	 1.11022904307283E-02 
1346	 0.011753016903965 
1347	 1.10890949836759E-02 
1348	 7.47068969437401E-03 
1349	 7.28237981813531E-03 
1350	 1.14550310266097E-02 
1351	 8.68351697658252E-03 
1352	 9.37475788885907E-04 
1353	 2.08065983813844E-03 
1354	 2.3372111620133E-03 
1355	-1.02687269767516E-02 
1356	-1.01190460384474E-02 
1357	 1.32687776155511E-02 
1358	-1.19303262873908E-03 
1359	-5.63725030255888E-02 
1360	-5.01934432119093E-02 
1361	-0.075681759900358 
1362	-0.125138623314395 
1363	-3.92175786103842E-02 
1364	-9.78887387434267E-02 
1365	-0.102288155446879 
1366	 9.83630362399739E-02 
1367	 0.113374778883463 
1368	 8.03184170210642E-02 
1369	 0.293194823600949 
1370	 0.436397805242406 
1371	-8.34162628321222E-02 
1372	-0.139615479989344 
1373	 0.195544636950403 
1374	 0.326544511483557 
1375	 0.235287160483649 
1376	 0.148105844824272 
1377	 1.50356238607036E-02 
1378	-0.023013201598202 
1379	-0.136681661110046 
1380	-0.234274187802655 
1381	-0.144511233628545 
1382	-0.116734300764716 
1383	-0.173487686198518 
1384	-0.212345926107505 
1385	-0.20176000141408 
1386	-0.245054146581953 
1387	-0.350047646232239 
1388	-0.347583145719196 
1389	-0.344089446922322 
1390	-0.350039125075379 
1391	-0.198365948518332 
1392	-0.272431063230795 
1393	-0.31330950527393 
1394	-0.330286224282502 
1395	-0.37950341166051 
1396	-0.35590598334694 
1397	-0.405048267726758 
1398	-0.19977194772803 
1399	-9.50792706558554E-02 
1400	-0.164685895708261 
1401	-0.161253905180638 
1402	-0.295944020830233 
1403	-0.393157345697834 
1404	-0.349932711323058 
1405	-0.294317028806954 
1406	-4.99885836536725E-02 
1407	-9.24401349788579E-02 
1408	-0.338441583097154 
1409	-0.265338240685927 
1410	-0.115561499685068 
1411	-0.094354267617293 
1412	-3.20663759834952E-02 
1413	-2.57535820189157E-02 
1414	-0.152795721257621 
1415	-0.153037951668705 
1416	-0.110812988101009 
1417	-5.61279707838661E-02 
1418	 4.98429019387762E-02 
1419	 3.58813665371122E-02 
1420	 3.21908542651263E-03 
1421	 7.78376292123396E-03 
1422	-1.35242977864306E-02 
1423	-2.43132154128834E-02 
1424	-1.95854475975505E-02 
1425	-1.38570253368033E-02 
1426	-1.44692654224328E-02 
1427	-1.18378689160469E-02 
1428	 6.33573512851508E-03 
1429	 1.38498521137459E-02 
1430	 1.19031347802471E-02 
1431	 7.22457801142114E-03 
1432	-2.22787739817248E-03 
1433	-3.9809196403684E-03 
1434	-6.08771124912474E-03 
1435	-7.15899318271979E-03 
1436	 2.9328340112128E-03 
1437	 2.35858091763506E-03 
1438	-6.31423194458403E-03 
1439	-1.96896517664808E-03 
1440	 1.11261488737758E-02 
1441	 1.54011216141823E-02 
1442	 6.70603249587678E-03 
1443	-2.09425363883607E-03 
1444	-3.67906144473844E-03 
1445	-4.1083356912916E-03 
1446	-5.90525841343559E-03 
1447	 6.11330424187236E-05 
1448	 7.40598550635551E-03 
1449	 6.95512159174131E-03 
1450	 7.14987102208689E-03 
1451	 9.01165491465623E-03 
1452	 8.28584406019055E-03 
1453	 5.3293568224492E-03 
1454	 5.17769088137774E-03 
1455	 7.73706206924223E-03 
1456	 7.49728898321789E-03 
1457	 5.70698635009105E-03 
1458	 5.61777923321819E-03 
1459	 5.16073825534465E-03 
1460	 5.71813551447717E-03 
1461	 8.39557981695177E-03 
1462	 8.58014375184376E-03 
1463	 7.74799688441036E-03 
1464	 7.61716715501592E-03 
1465	 5.96712100379853E-03 
1466	 5.48599639564345E-03 
1467	 6.59893070774016E-03 
1468	 7.09022307509225E-03 
1469	 7.58869913903747E-03 
1470	 7.83028005126711E-03 
1471	 7.58000510810196E-03 
1472	 8.08423714655536E-03 
1473	 9.76924957138799E-03 
1474	 9.0356857084876E-03 
1475	 6.66323191138658E-03 
1476	 6.67784701734688E-03 
1477	 6.29817882600523E-03 
1478	 6.07301987529083E-03 
1479	 8.20109695516485E-03 
1480	 8.61848152056653E-03 
1481	 6.54118417237487E-03 
1482	 6.72574296200401E-03 
1483	 8.82236967282597E-03 
1484	 8.84443818060544E-03 
1485	 7.80867830369969E-03 
1486	 8.20218783487585E-03 
1487	 8.89426131229732E-03 
1488	 8.8680417935045E-03 
1489	 8.95912944190399E-03 
1490	 9.3168874099202E-03 
1491	 9.03485676067829E-03 
1492	 9.1742584307862E-03 
1493	 1.02164748635226E-02 
1494	 1.06911070210981E-02 
1495	 1.08094710146846E-02 
1496	 1.09429818021332E-02 
1497	 1.08589246216759E-02 
1498	 1.09570396558649E-02 
1499	 1.13000872559843E-02 
1500	 1.13893346172918E-02 
1501	 1.12941548999578E-02 
1502	 1.14483950074774E-02 
1503	 1.17175759556327E-02 
1504	 0.011768440884736 
1505	 1.17936876837787E-02 
1506	 0.011918520494107 
1507	 0.011874650425008 
1508	 1.17239674664265E-02 
1509	 1.17820606752023E-02 
1510	 1.21343944591628E-02 
1511	 1.23047744138391E-02 
1512	 1.21867443241517E-02 
1513	 1.21284962871657E-02 
1514	 1.20832660822516E-02 
1515	 1.21896297320537E-02 
1516	 1.23629731212857E-02 
1517	 1.23388249865272E-02 
1518	 1.23548664792115E-02 
1519	 1.23426892236221E-02 
1520	 1.23330395143184E-02 
1521	 0.012596982418785 
1522	 1.26966419685578E-02 
1523	 1.26388030365788E-02 
1524	 0.012744677652922 
1525	 1.26849917812522E-02 
1526	 1.24853490899464E-02 
1527	 1.25880019318794E-02 
1528	 0.012894500589109 
1529	 1.29305025628754E-02 
1530	 1.28577042555289E-02 
1531	 1.29198425387214E-02 
1532	 1.29256845099397E-02 
1533	 1.30003923406264E-02 
1534	 1.31308799639288E-02 
1535	 1.31292060044131E-02 
1536	 1.31605997318291E-02 
1537	 1.31431453964598E-02 
1538	 1.32170337974698E-02 
1539	 1.34680255685121E-02 
1540	 1.34014631169211E-02 
1541	 1.33030533310401E-02 
1542	 1.34412398754299E-02 
1543	 1.33662403614833E-02 
1544	 1.32795741635948E-02 
1545	 1.33205692669025E-02 
1546	 1.32912259605301E-02 
1547	 1.34438636529232E-02 
1548	 1.35094469728437E-02 
1549	 1.32777726943027E-02 
1550	 0.013330429169975 
1551	 1.34986714729035E-02 
1552	 1.33891382580278E-02 
1553	 1.33611816975919E-02 
1554	 1.35061216843767E-02 
1555	 1.35679556131872E-02 
1556	 1.34307213376649E-02 
1557	 1.34184853673865E-02 
1558	 1.35760614043693E-02 
1559	 0.013650936200911 
1560	 1.38194499885078E-02 
1561	 1.39370560930819E-02 
1562	 1.38626538472883E-02 
1563	 1.37573252304384E-02 
1564	 0.01369102373074 
1565	 1.36230095729234E-02 
1566	 1.35315709161937E-02 
1567	 1.35444030596887E-02 
1568	 1.36148916218925E-02 
1569	 1.35693424561322E-02 
1570	 0.013566674158051 
1571	 0.013645687820142 
1572	 1.33913963854159E-02 
1573	 1.31918326305045E-02 
1574	 1.34270460996647E-02 
1575	 1.34649212973417E-02 
1576	 1.33313757523794E-02 
1577	 1.34907840337099E-02 
1578	 1.35367545670968E-02 
1579	 1.33388512729525E-02 
1580	 1.33603604956571E-02 
1581	 1.33400639842191E-02 
1582	 1.33185139150915E-02 
1583	 1.35269422486334E-02 
1584	 1.36317907968189E-02 
1585	 1.36671054437286E-02 
1586	 1.36989903823865E-02 
1587	 1.36437167774013E-02 
1588	 1.35145189051209E-02 
1589	 1.35976927935968E-02 
1590	 1.37269643808604E-02 
1591	 1.35522996913721E-02 
1592	 1.35951383558416E-02 
1593	 1.36733098575141E-02 
1594	 1.34567325266577E-02 
1595	 1.34917689172702E-02 
1596	 1.36811417555044E-02 
1597	 1.38069489639791E-02 
1598	 1.39162361603433E-02 
1599	 1.37530760679294E-02 
1600	 1.35270113066814E-02 
1601	 1.35800724464356E-02 
1602	 1.36109782564554E-02 
1603	 1.35521027164911E-02 
1604	 1.36722533247425E-02 
1605	 1.36526768145489E-02 
1606	 1.33812828129924E-02 
1607	 1.33694396180075E-02 
1608	 1.36430519309598E-02 
1609	 1.36975356826531E-02 
1610	 1.34685212529003E-02 
1611	 1.34617066857334E-02 
1612	 1.34652748652079E-02 
1613	 1.33730839602987E-02 
1614	 1.35778466760832E-02 
1615	 1.36024297860493E-02 
1616	 1.34601463081786E-02 
1617	 1.35871946510709E-02 
1618	 1.37428811996333E-02 
1619	 1.37549837652369E-02 
1620	 1.36996946053994E-02 
1621	 1.37732062532929E-02 
1622	 1.38584831055877E-02 
1623	 1.38310207602883E-02 
1624	 1.39859673416065E-02 
1625	 0.013997059540584 
1626	 1.35113791702021E-02 
1627	 1.33363259840192E-02 
1628	 1.35572712200865E-02 
1629	 0.013475983753461 
1630	 1.35556986568099E-02 
1631	 1.38097548894542E-02 
1632	 0.013663549320565 
1633	 1.35152813560043E-02 
1634	 1.35099929332039E-02 
1635	 1.35351953540572E-02 
1636	 1.37669649163808E-02 
1637	 1.38366707588067E-02 
1638	 1.36477579303555E-02 
1639	 1.36433063798722E-02 
1640	 1.35534419949579E-02 
1641	 1.32102635994026E-02 
1642	 1.32840025897218E-02 
1643	 1.36820366673363E-02 
1644	 1.36777271437971E-02 
1645	 1.37005490150389E-02 
1646	 1.38781167503626E-02 
1647	 1.34785868199891E-02 
1648	 1.31395802315336E-02 
1649	 1.33893435509984E-02 
1650	 1.34634474560503E-02 
1651	 1.33040734277521E-02 
1652	 1.34124578060654E-02 
1653	 1.32395942056635E-02 
1654	 1.32167400671742E-02 
1655	 1.36078028936045E-02 
1656	 1.35114393071359E-02 
1657	 1.28999727806878E-02 
1658	 1.30284078664017E-02 
1659	 1.35936130993158E-02 
1660	 1.34834522732486E-02 
1661	 1.33320696644272E-02 
1662	 1.34475583196373E-02 
1663	 1.31300047218165E-02 
1664	 1.29784796952002E-02 
1665	 1.33828546551441E-02 
1666	 1.34655551101297E-02 
1667	 1.31441007249998E-02 
1668	 1.34298065640196E-02 
1669	 1.35196652115079E-02 
1670	 1.33964531802228E-02 
1671	 1.33803713707946E-02 
1672	 1.33349766295304E-02 
1673	 1.32983253646461E-02 
1674	 1.35378394875066E-02 
1675	 1.35043557043376E-02 
1676	 1.31611156289993E-02 
1677	 1.33069568322088E-02 
1678	 1.34828007916915E-02 
1679	 1.31765388128164E-02 
1680	 1.31329154359808E-02 
1681	 1.32736466405319E-02 
1682	 1.32264557385223E-02 
1683	 1.33607645048768E-02 
1684	 1.35793328082301E-02 
1685	 1.33608297687374E-02 
1686	 1.29716709489408E-02 
1687	 1.30261694939346E-02 
1688	 1.30628357129814E-02 
1689	 1.29362205657106E-02 
1690	 1.30310018868125E-02 
1691	 1.30405425551678E-02 
1692	 1.27635247803802E-02 
1693	 1.27819552680064E-02 
1694	 0.012937683416716 
1695	 1.26629072894464E-02 
1696	 1.26060238049625E-02 
1697	 1.26844387522586E-02 
1698	 1.27187633931837E-02 
1699	 1.31027959155541E-02 
1700	 1.33509584850273E-02 
1701	 1.31853221803057E-02 
1702	 1.29193756204215E-02 
1703	 1.27199893789782E-02 
1704	 1.27059477754109E-02 
1705	 1.29270092426801E-02 
1706	 1.30731609873558E-02 
1707	 1.29017714312845E-02 
1708	 1.28101232206312E-02 
1709	 1.27391084730927E-02 
1710	 1.24821385101757E-02 
1711	 1.28504494579165E-02 
1712	 1.31016663534024E-02 
1713	 1.29457699263356E-02 
1714	 1.29559344731813E-02 
1715	 1.24187990766186E-02 
1716	 1.24582914254073E-02 
1717	 1.24492601026702E-02 
1718	 0.012309752371911 
1719	 1.26301245963914E-02 
1720	 0.012839312862355 
1721	 1.28158235700218E-02 
1722	 1.27250212462086E-02 
1723	 1.23262140828129E-02 
1724	 1.21698349280917E-02 
1725	 1.27685786509248E-02 
1726	 1.31420912037626E-02 
1727	 1.29747724894805E-02 
1728	 1.26587526770716E-02 
1729	 0.011915972675131 
1730	 1.16401958492347E-02 
1731	 1.23289216911796E-02 
1732	 1.27175234720768E-02 
1733	 1.25895492938389E-02 
1734	 1.22894875442693E-02 
1735	 1.17179974100359E-02 
1736	 1.15689145379677E-02 
1737	 1.20770893906003E-02 
1738	 1.25454964400971E-02 
1739	 1.25514513294323E-02 
1740	 1.21232910003989E-02 
1741	 1.15719997223185E-02 
1742	 1.14535494528319E-02 
1743	 1.16797818939284E-02 
1744	 1.19630361070368E-02 
1745	 1.25643535791553E-02 
1746	 1.21998164332835E-02 
1747	 1.20764720542955E-02 
1748	 1.21898497424437E-02 
1749	 1.19801571510091E-02 
1750	 1.16157131726039E-02 
1751	 1.17308880706325E-02 
1752	 1.18039336182847E-02 
1753	 1.16437332866936E-02 
1754	 1.16757771951118E-02 
1755	 1.19845930540645E-02 
1756	 1.24656413608488E-02 
1757	 1.22285393383624E-02 
1758	 1.18969549396557E-02 
1759	 1.10563330892273E-02 
1760	 1.03451259698468E-02 
1761	 1.12904783913722E-02 
1762	 1.18359374817668E-02 
1763	 1.06134965311222E-02 
1764	 1.03982319326262E-02 
1765	 1.12827503114954E-02 
1766	 1.11025843217901E-02 
1767	 0.010425241590171 
1768	 1.05880950087145E-02 
1769	 1.04042122967218E-02 
1770	 9.77591881180303E-03 
1771	 1.15182325298874E-02 
1772	 0.012821652556207 
1773	 0.010389924768288 
1774	 9.25419153895504E-03 
1775	 8.55894748308291E-03 
1776	 8.52635268848432E-03 
1777	 0.011601285970328 
1778	 0.012183333485369 
1779	 1.16626331697063E-02 
1780	 1.12367019405639E-02 
1781	 8.57022282657423E-03 
1782	 7.89968990093978E-03 
1783	 8.25951565094818E-03 
1784	 8.09706770521036E-03 
1785	 9.10462274869384E-03 
1786	 9.59340133815805E-03 
1787	 9.20330022310842E-03 
1788	 1.04577627252486E-02 
1789	 1.35478959043693E-02 
1790	 1.16039174401975E-02 
1791	 1.10938201679998E-02 
1792	 6.8612281009531E-03 
1793	 2.6340153836399E-03 
1794	 6.90098940447056E-03 
1795	 1.32015159019491E-02 
1796	 1.48575807978065E-02 
1797	 1.29379511167864E-02 
1798	 4.75346501879523E-03 
1799	-7.32854602428386E-03 
1800	 2.43136385210679E-05 
1801	 3.98686659462159E-03 
1802	 1.38759155318079E-02 
1803	 1.86407900974776E-02 
1804	 1.68169183070883E-02 
1805	 9.16598344877079E-03 
1806	-1.83558132306556E-02 
1807	-3.01420962053519E-02 
1808	-4.61333022857421E-02 
1809	-7.78962256634949E-02 
1810	-8.65067896508923E-02 
1811	-0.107913379943643 
1812	-0.159340712979051 
1813	-0.113048944113487 
1814	 9.35055966341219E-02 
1815	 0.163108968189957 
1816	 0.253516590286304 
1817	 3.35539362682345E-02 
1818	-0.245399602957098 
1819	-0.440884815766481 
1820	-0.465736631056364 
1821	-0.34603236461822 
1822	-0.278101434698038 
1823	-0.429273245719068 
1824	-0.360751682750184 
1825	-6.17922430713656E-02 
1826	-1.70789758370423E-02 
1827	 5.08006368791312E-02 
1828	 0.28199875992077 
1829	 8.09352058576432E-03 
1830	 0.233402524367205 
1831	-1.42675598669935 
1832	-1.60399190617693 
1833	-3.55181155927438 
1834	-6.39902159930266 
1835	 0.16646439013136 
1836	-1.09547864125447 
1837	-1.14461969659976 
1838	-1.50957711387961 
1839	-13.9614880412386 
1840	 3.1616450837288 
1841	 1.42701517736597 
1842	 0.521116970473721 
1843	 0.253584702858496 
1844	 0.347777108461305 
1845	 0.943298600017378 
1846	 2.12382803839126 
1847	 2.45504889126 
1848	 6.69486408525416 
1849	-1.44249898007654 
1850	-1.82390350347247 
1851	-1.40044709837826 
1852	-1.66456751156587 
1853	-9.60274606019927 
1854	 11.8710355859675 
1855	 3.02465325295825 
1856	 2.26506335506294 
1857	 1.03655665125041 
1858	 0.958092475146316 
1859	 1.92599800068266 
1860	 7.82366474610324 
1861	 2.737867249181 
1862	 0.365486378107946 
1863	-0.103185856651083 
1864	-3.30165678491467E-02 
1865	-0.303652953910985 
1866	-0.631401245214785 
1867	-1.46696055039365 
1868	-0.892387959728177 
1869	-0.602576229952442 
1870	-0.514200331921741 
1871	 0.588082578915937 
1872	 1.72105336746722 
1873	 0.854506129724232 
1874	 4.82674166600057 
1875	-2.78212929692628 
1876	-2.85697484232266 
1877	-0.104388351929152 
1878	 0.188154709234074 
1879	 0.620116420541987 
1880	 0.780918428766025 
1881	 4.98201656650704 
1882	-28.6230778671153 
1883	-2.36241244115922 
1884	 84.6480546562596 
1885	 2.37740568625528 
1886	 2.05199221828666 
1887	-38.7281299337165 
1888	-14.0740026712169 
1889	 2.38405666854988 
1890	-1.40456671122206 
1891	-1.29378745851743 
1892	 1.73099511779021 
1893	 2.14127088026544 
1894	 0.454937341625022 
1895	 0.730639042997821 
1896	 0.353421169387447 
1897	-0.13746597192624 
1898	-0.462266015399624 
1899	 0.65379874716097 
1900	 3.57651843103125 
1901	-2.5982913437056 
1902	-4.27737121885407 
1903	 3.18984531766721 
1904	 0.871511122164831 
1905	 0.529788254480748 
1906	 0.527808519609122 
1907	 0.624741100539376 
1908	 1.5226520712957 
1909	-1.02349954511797 
1910	-0.680647092285726 
1911	-0.857532024954466 
1912	-0.778268259908477 
1913	-0.892494567676533 
1914	-19.6656032938607 
1915	 0.951837443839391 
1916	 0.547196826903563 
1917	 1.36910287178042 
1918	 1.61067583008067 
1919	 1.44986008683015 
1920	-2.70697347000988 
1921	-2.62172297246764 
1922	-1.6753123130622 
1923	 8.26765138503459E-02 
1924	 0.805814907760207 
1925	 1.06266538307897 
1926	 0.859278808018325 
1927	 0.699316215549404 
1928	-0.216101188398028 
1929	-4.18762949309477 
1930	 1.26102960432626 
1931	 0.585001317357244 
1932	 0.316642777509892 
1933	 0.569476612437623 
1934	 0.490898869178312 
1935	 0.451230455540493 
1936	 0.26022779244166 
1937	-0.151414888597853 
1938	-0.13501512665268 
1939	-0.109250383956226 
1940	-8.20493700659238E-02 
1941	-9.85230918055747E-02 
1942	 6.89183838855096E-03 
1943	 7.34989036300214E-02 
1944	 0.107707584067799 
1945	 0.115616472942814 
1946	 6.86796743481599E-02 
1947	 1.40583035845007E-02 
1948	-1.28009000750206E-02 
1949	-1.44470472355986E-03 
1950	 1.23216953471606E-02 
1951	 0.032689907554154 
1952	 4.30931827602448E-02 
1953	 5.17851329829043E-02 
1954	 0.028674228999676 
1955	 3.27778956398722E-03 
1956	-6.62679927418529E-03 
1957	-5.66367240411674E-03 
1958	-5.31702314658054E-03 
1959	 2.16341348112466E-03 
1960	 8.94843959532904E-03 
1961	 3.55975863406443E-03 
1962	-5.26385295193877E-03 
1963	-2.11622218492068E-03 
1964	 6.58111153966425E-03 
1965	 8.82790098847277E-03 
1966	 9.61263992966819E-03 
1967	 1.20556112586002E-02 
1968	 1.24035591842815E-02 
1969	 1.03307908836021E-02 
1970	 9.33008730879867E-03 
1971	 9.29780623751074E-03 
1972	 9.00598461986997E-03 
1973	 7.77831592671226E-03 
1974	 7.59844288878366E-03 
1975	 8.46169999666612E-03 
1976	 8.49525557623009E-03 
1977	 7.69586304508677E-03 
1978	 7.58909312756126E-03 
1979	 7.80457226021011E-03 
1980	 8.13534263618392E-03 
1981	 8.86422494934324E-03 
1982	 9.20413734907158E-03 
1983	 8.77148285786511E-03 
1984	 8.83199509034236E-03 
1985	 8.89716245576271E-03 
1986	 8.85576867213262E-03 
1987	 8.61339207917855E-03 
1988	 7.78939746705614E-03 
1989	 7.60072575782941E-03 
1990	 7.83127422344953E-03 
1991	 7.52526011200629E-03 
1992	 6.87728151937058E-03 
1993	 6.21138414326166E-03 
1994	 6.25445154641196E-03 
1995	 6.66202620224966E-03 
1996	 7.90688762983845E-03 
1997	 9.0167821451276E-03 
1998	 9.68475709906629E-03 
1999	 9.27031003520571E-03 
2000	 8.57955077520325E-03 
2001	 9.25540527874391E-03 
2002	 0.010305736649561 
2003	 1.09120724066873E-02 
2004	 1.17685332089715E-02 
2005	 1.34210698383903E-02 
2006	 1.45235674196516E-02 
2007	 1.19506389338473E-02 
2008	 1.07657280217253E-02 
2009	 1.05942396546477E-02 
2010	 9.62559259788768E-03 
2011	 8.72027918616048E-03 
2012	 9.19416879581297E-03 
2013	 1.06049033664959E-02 
2014	 9.11748059595733E-03 
2015	 9.40671821728859E-03 
2016	 1.08948677076855E-02 
2017	 1.05216566850742E-02 
2018	 0.010310285956371 
2019	 1.07108660082745E-02 
2020	 1.19498541021977E-02 
2021	 1.16270578311962E-02 
2022	 1.00335068042675E-02 
2023	 0.010179607054532 
2024	 1.00961325318423E-02 
2025	 9.66344461664837E-03 
2026	 9.38467963404184E-03 
2027	 9.61190971811924E-03 
2028	 9.26257324937271E-03 
2029	 9.62322877620513E-03 
2030	 1.01316853508852E-02 
2031	 1.04308583927346E-02 
2032	 1.08805042299748E-02 
2033	 1.04992643957455E-02 
2034	 1.01553895042225E-02 
2035	 1.10472896360731E-02 
2036	 1.15928241726335E-02 
2037	 1.15598909166627E-02 
2038	 1.18449056274677E-02 
2039	 0.012105331095244 
2040	 1.23136050452189E-02 
2041	 1.24319595063149E-02 
2042	 1.27230325740846E-02 
2043	 1.24178925346395E-02 
2044	 1.14777738196291E-02 
2045	 1.08628495696048E-02 
2046	 1.01902301649826E-02 
2047	 1.04279707051093E-02 
2048	 1.19056588420741E-02 
2049	 1.23502973289862E-02 
2050	 1.18963176217975E-02 
2051	 0.012052299610208 
2052	 1.12979924314206E-02 
2053	 1.02088427420182E-02 
2054	 9.49085333074984E-03 
2055	 8.77720420154244E-03 
2056	 8.64309397561331E-03 
2057	 8.88727537350881E-03 
2058	 8.79305973333118E-03 
2059	 8.81493525273259E-03 
2060	 0.009300939364074 
2061	 9.39559913378581E-03 
2062	 1.05663883028263E-02 
2063	 1.20684781478719E-02 
2064	 1.33711323888734E-02 
2065	 1.40699660977202E-02 
2066	 1.31287141206943E-02 
2067	 1.21654461233649E-02 
2068	 1.18925651693859E-02 
2069	 1.14041879213132E-02 
2070	 1.12346946674293E-02 
2071	 1.19069211815648E-02 
2072	 1.24321014634461E-02 
2073	 0.012420204884707 
2074	 1.23335502996929E-02 
2075	 1.19436811235912E-02 
2076	 1.06873366879138E-02 
2077	 1.04543128946475E-02 
2078	 1.06334003074538E-02 
2079	 1.05861690685039E-02 
2080	 1.07618703243055E-02 
2081	 1.09821831837718E-02 
2082	 1.10490244459881E-02 
2083	 1.17168521508498E-02 
2084	 1.22480139128958E-02 
2085	 1.23129271984814E-02 
2086	 1.25373013817183E-02 
2087	 1.29076671219675E-02 
2088	 1.31852826343556E-02 
2089	 1.31305346825405E-02 
2090	 1.31794537264071E-02 
2091	 1.29627979246793E-02 
2092	 1.25043233352747E-02 
2093	 0.011863921633133 
2094	 1.16882871593984E-02 
2095	 1.13068986419952E-02 
2096	 1.08637375180713E-02 
2097	 1.06563951196189E-02 
2098	 0.010871116415715 
2099	 1.07959349884792E-02 
2100	 1.16252946730196E-02 
2101	 0.013023061670549 
2102	 1.33202436256787E-02 
2103	 1.36091503680751E-02 
2104	 1.34360199852472E-02 
2105	 1.27461186891622E-02 
2106	 1.27962753907082E-02 
2107	 1.26608108640128E-02 
2108	 1.23414478931626E-02 
2109	 0.011968675699049 
2110	 1.16899746723563E-02 
2111	 1.18516364156223E-02 
2112	 1.18302088909045E-02 
2113	 1.19199852352701E-02 
2114	 1.26088434328769E-02 
2115	 1.25475674755861E-02 
2116	 1.17164675546865E-02 
2117	 1.16243568686669E-02 
2118	 1.14894014942484E-02 
2119	 1.16778950979011E-02 
2120	 1.25105143116184E-02 
2121	 1.31888584563636E-02 
2122	 1.32206691890148E-02 
2123	 1.29616258891737E-02 
2124	 1.26207664710619E-02 
2125	 1.26842687996161E-02 
2126	 1.31929457136405E-02 
2127	 1.34690060803242E-02 
2128	 1.35047516626617E-02 
2129	 1.36603844430952E-02 
2130	 1.31132039122596E-02 
2131	 0.012848972832917 
2132	 1.29686268168953E-02 
2133	 1.22071135166381E-02 
2134	 1.17830244862805E-02 
2135	 1.11945672505484E-02 
2136	 1.13471868099655E-02 
2137	 0.012000270845138 
2138	 1.21020051509744E-02 
2139	 1.28093515809217E-02 
2140	 1.28858176969745E-02 
2141	 1.19142774395998E-02 
2142	 1.15642580085123E-02 
2143	 1.15307385323723E-02 
2144	 1.11233496972552E-02 
2145	 1.07034396553676E-02 
2146	 1.10680619285626E-02 
2147	 1.19920295911567E-02 
2148	 1.23109063037154E-02 
2149	 1.21034473292018E-02 
2150	 1.21595025091541E-02 
2151	 1.17297070203103E-02 
2152	 1.15120715010322E-02 
2153	 1.23050031838224E-02 
2154	 1.24949812378255E-02 
2155	 1.25429394075927E-02 
2156	 1.32606267328361E-02 
2157	 1.32296617797208E-02 
2158	 1.25959584919064E-02 
2159	 0.012421780558614 
2160	 1.20946666748971E-02 
2161	 1.16587855461524E-02 
2162	 1.10046545020101E-02 
2163	 1.13495866825013E-02 
2164	 1.25772324071676E-02 
2165	 1.26454960762998E-02 
2166	 1.27361531261167E-02 
2167	 1.28708113319737E-02 
2168	 0.011897499538928 
2169	 1.17000985368596E-02 
2170	 1.20377921466144E-02 
2171	 1.28523577885292E-02 
2172	 1.40963653363123E-02 
2173	 1.51162974511045E-02 
2174	 1.49220350085157E-02 
2175	 1.39512910412733E-02 
2176	 1.29249285354974E-02 
2177	 1.20377388185498E-02 
2178	 1.22331741581683E-02 
2179	 1.27376880004653E-02 
2180	 1.26184418976712E-02 
2181	 1.22565822711356E-02 
2182	 1.22621909433216E-02 
2183	 1.29449206910488E-02 
2184	 1.26618646406635E-02 
2185	 1.22776443355795E-02 
2186	 1.22941362656874E-02 
2187	 1.17358365794794E-02 
2188	 1.21787800160305E-02 
2189	 0.014334173612139 
2190	 1.44839166302313E-02 
2191	 0.01392891999475 
2192	 1.38108668915696E-02 
2193	 1.27764461060371E-02 
2194	 1.20867586412796E-02 
2195	 1.14559049537276E-02 
2196	 1.14719847149525E-02 
2197	 0.012046067719916 
2198	 1.22946528427559E-02 
2199	 0.013425177998996 
2200	 1.38068034145677E-02 
2201	 1.26446805267976E-02 
2202	 1.02545608741336E-02 
2203	 8.33721132903835E-03 
2204	 7.80508893920331E-03 
2205	 8.62784522703051E-03 
2206	 9.95416645463998E-03 
2207	 1.15781165846251E-02 
2208	 0.012585415051626 
2209	 1.25556566246797E-02 
2210	 1.40271469602282E-02 
2211	 1.43749682325796E-02 
2212	 1.33126695884596E-02 
2213	 1.41907961812506E-02 
2214	 1.38806757433096E-02 
2215	 1.28879795046815E-02 
2216	 1.36101581940886E-02 
2217	 1.32896978716074E-02 
2218	 1.12786571715681E-02 
2219	 1.11051286450714E-02 
2220	 1.20207202834342E-02 
2221	 1.23551982767243E-02 
2222	 1.33382189145416E-02 
2223	 1.39329956651565E-02 
2224	 1.40026254710041E-02 
2225	 1.43920439762052E-02 
2226	 0.015131361585737 
2227	 1.58115509570443E-02 
2228	 1.65078916528042E-02 
2229	 1.63601410218558E-02 
2230	 1.61715860017811E-02 
2231	 1.55910524961959E-02 
2232	 1.38374405606802E-02 
2233	 1.32560936820054E-02 
2234	 1.31050304276538E-02 
2235	 1.24448619150477E-02 
2236	 1.38639220404088E-02 
2237	 1.48381553557966E-02 
2238	 1.48763335424092E-02 
2239	 1.54256285967513E-02 
2240	 0.015162353232966 
2241	 1.44313409943649E-02 
2242	 1.46631610316692E-02 
2243	 1.39524071095384E-02 
2244	 1.28248245230063E-02 
2245	 1.27346640229998E-02 
2246	 1.29035384003809E-02 
2247	 1.37376926009977E-02 
2248	 1.31737448474919E-02 
2249	 1.23624508454211E-02 
2250	 1.32735264626336E-02 
2251	 1.37521401847919E-02 
2252	 1.38409447593562E-02 
2253	 1.26911711618259E-02 
2254	 1.26144780746207E-02 
2255	 1.38693405764531E-02 
2256	 1.29573558010649E-02 
2257	 1.32398860380997E-02 
2258	 0.013762679529112 
2259	 0.011180870161554 
2260	 1.05942360352033E-02 
2261	 1.26346054516109E-02 
2262	 1.35152969626109E-02 
2263	 1.42853104963467E-02 
2264	 1.37567370792192E-02 
2265	 1.14021452655837E-02 
2266	 1.13785239750486E-02 
2267	 1.21923625877503E-02 
2268	 1.20886927119115E-02 
2269	 1.40022243243775E-02 
2270	 1.43930663856439E-02 
2271	 1.08453356136685E-02 
2272	 1.02884400254785E-02 
2273	 1.26105104296563E-02 
2274	 1.33693391176883E-02 
2275	 1.41970784338882E-02 
2276	 1.45245404483782E-02 
2277	 1.41637874355339E-02 
2278	 1.31233722266765E-02 
2279	 1.08043813223264E-02 
2280	 1.07349042687854E-02 
2281	 1.19925574695157E-02 
2282	 1.16239132771289E-02 
2283	 1.12503409400385E-02 
2284	 1.18148039950107E-02 
2285	 8.82690728469638E-03 
2286	 7.24677259297836E-03 
2287	 1.04205141074844E-02 
2288	 1.01184297265855E-02 
2289	 1.05028724736958E-02 
2290	 1.23541006820938E-02 
2291	 9.42296020842462E-03 
2292	 9.58879463718448E-03 
2293	 1.26079250620834E-02 
2294	 1.08099443853702E-02 
2295	 1.11765674388736E-02 
2296	 1.24521123437119E-02 
2297	 9.36125691031092E-03 
2298	 1.00432206018198E-02 
2299	 8.98286587279099E-03 
2300	 5.86329987591325E-03 
2301	 9.93655488590044E-03 
2302	 1.08973118618609E-02 
2303	 8.75356992333084E-03 
2304	 8.21109107087555E-03 
2305	 6.99143748680801E-03 
2306	 6.92329160194838E-03 
2307	 6.3173903667015E-03 
2308	 7.25361421587944E-03 
2309	 9.80334305468287E-03 
2310	 1.00224918131983E-02 
2311	 8.60980334582912E-03 
2312	 8.59430575797701E-03 
2313	 9.06984424602554E-03 
2314	 8.79694904551604E-03 
2315	 1.05936673360922E-02 
2316	 0.014265122569491 
2317	 1.49677551287154E-02 
2318	 1.20625935455305E-02 
2319	 1.11732338330167E-02 
2320	 1.29183592869889E-02 
2321	 1.51801356412433E-02 
2322	 1.61899123924238E-02 
2323	 1.43898827494492E-02 
2324	 1.06614402543219E-02 
2325	 6.6220468297495E-03 
2326	 4.32953240714562E-03 
2327	 5.37429170471662E-03 
2328	 8.61119731254643E-03 
2329	 1.05280171217321E-02 
2330	 1.22986925025547E-02 
2331	 9.70836147175746E-03 
2332	 6.76972171614255E-03 
2333	 1.15571148679058E-02 
2334	 1.42063832992255E-02 
2335	 1.80323077868042E-02 
2336	 2.35320489321428E-02 
2337	 2.20332041184305E-02 
2338	 1.68217638004862E-02 
2339	 1.36862248168141E-02 
2340	 1.27787555797724E-02 
2341	 1.02709059012147E-02 
2342	 1.09876719845922E-02 
2343	 1.38798750257139E-02 
2344	 2.05094680217541E-02 
2345	 2.55038386173094E-02 
2346	 2.03349910525121E-02 
2347	 1.91763735873536E-02 
2348	 1.47943473762267E-02 
2349	 1.46821765847714E-02 
2350	 2.96033762562787E-02 
2351	 2.85731903892276E-02 
2352	 1.58969150605125E-02 
2353	 3.49284647585466E-03 
2354	-9.64292683880829E-03 
2355	-1.48619487485019E-02 
2356	-0.011443357694943 
2357	-5.903472929057E-04 
2358	 1.13850503225777E-03 
2359	-8.35594745949972E-03 
2360	-1.23872377962503E-02 
2361	-9.21553047383677E-03 
2362	-4.1273919304495E-03 
2363	 6.09178222477528E-03 
2364	 1.72872474656371E-02 
2365	 1.30879655021818E-02 
2366	 2.87274361464892E-03 
2367	-3.55912932534955E-03 
2368	 3.22904546412638E-03 
2369	 0.017828480326914 
2370	 1.60802619450427E-02 
2371	 9.22836614836478E-03 
2372	-3.36446536079564E-05 
2373	-6.87679965481228E-03 
2374	-3.88060283755238E-03 
2375	-5.63275454109529E-03 
2376	-1.52982711215184E-02 
2377	-2.98182271666285E-02 
2378	-4.32477298641773E-02 
2379	-3.18061586295394E-02 
2380	-1.06301752617501E-02 
2381	-2.29452773373451E-02 
2382	-2.23432052010199E-02 
2383	-6.89548949547818E-03 
2384	-0.012045076989398 
2385	 1.04286936545908E-02 
2386	 2.00125485941856E-02 
2387	-1.02013491970629E-02 
2388	-3.04015263482453E-02 
2389	-4.10399148267081E-02 
2390	-4.19765065608528E-02 
2391	-3.43645369234716E-02 
2392	-3.23310673909671E-02 
2393	-2.40767061361154E-02 
2394	 8.75960771136683E-03 
2395	 3.57063891368403E-02 
2396	 4.56625742835012E-02 
2397	 4.34301910477088E-02 
2398	 1.33923798713251E-02 
2399	-1.63541925188245E-02 
2400	-1.90252801798022E-02 
2401	-9.28844061087932E-03 
2402	 1.69180063770529E-03 
2403	-4.1204599000632E-04 
2404	-2.09930661415961E-02 
2405	-4.91469069232601E-02 
2406	-6.19477358829961E-02 
2407	-3.79342113910557E-02 
2408	 1.82865239536906E-02 
2409	 5.91890330241064E-02 
2410	 0.033150382398171 
2411	-0.018592135948315 
2412	-5.21722750057836E-02 
2413	-9.89378823513683E-03 
2414	 6.62903578352505E-02 
2415	 0.113928844874803 
2416	 8.50553748093192E-02 
2417	-5.93302374579551E-02 
2418	-0.117571969343996 
2419	-0.1032268063191 
2420	-0.116226554656443 
2421	-7.70454968696759E-02 
2422	-5.77323463472805E-02 
2423	-2.23331165540785E-02 
2424	 0.040299562716563 
2425	 7.42488407936803E-02 
2426	 0.116812518814087 
2427	 0.106884378079573 
2428	 0.115104478624059 
2429	 0.111058014123678 
2430	 0.020129825695136 
2431	-2.70438587154099E-02 
2432	-7.00432070656394E-02 
2433	-0.142713771932035 
2434	-0.140063114081817 
2435	-0.120651075340707 
2436	-0.13561112010271 
2437	-0.117899151420535 
2438	-2.59221144753779E-02 
2439	 1.52837777277645E-02 
2440	 7.62996906709978E-03 
2441	 0.121505337115898 
2442	 0.112175509788225 
2443	 9.37773849679498E-03 
2444	 0.154399585168962 
2445	 0.254656149782968 
2446	 0.296010478096453 
2447	 0.351121120174715 
2448	 0.235660090825951 
2449	-0.115699687930636 
2450	-0.391621654991036 
2451	-0.614678754311421 
2452	-0.565741679663715 
2453	-0.59881426519759 
2454	-0.101162678867675 
2455	 0.144823912687156 
2456	 0.30763422351668 
2457	 0.140337161062889 
2458	-0.192427274385321 
2459	-0.414907060547308 
2460	-0.340048384187032 
2461	-0.169957182192819 
2462	-1.57389839811322E-02 
2463	 4.73648696169632E-02 
2464	 0.531198380039965 
2465	 0.674339203741945 
2466	 0.529719328219128 
2467	 0.81482550721353 
2468	-3.77784279918054E-02 
2469	-0.225837910321764 
2470	-5.97781694983708E-02 
2471	 2.15184889926367E-02 
2472	 0.924786259227551 
2473	 1.57022047392756 
2474	 0.787203519554314 
2475	 1.35267112870146 
2476	 2.35112861628813 
2477	 1.60165309737147 
2478	 0.862773772417279 
2479	 0.443961040374433 
2480	 0.408395410660272 
2481	-0.15614533376319 
2482	-1.026259224209 
2483	-1.08668976406762 
2484	-0.880645302245931 
2485	-0.519396448274137 
2486	-0.510192011996922 
2487	 0.532386452153065 
2488	 0.431098326866183 
2489	 0.642404146845761 
2490	 0.798647948298558 
2491	 0.688910747534158 
2492	-0.368068897797414 
2493	 0.666352374195172 
2494	-4.49260678525527E-02 
2495	-0.651347057581095 
2496	 12.5208124623113 
2497	-4.52806653571778 
2498	 7.05680599583164 
2499	 0.581273570764257 
2500	 0.186423672377147 
