Wavelength	rt0713east_close200007.asd
350	 9.59894311450605E-02 
351	 9.56027000913912E-02 
352	 9.58131032670995E-02 
353	 9.53142232325674E-02 
354	 9.38786484668346E-02 
355	 9.41677050596745E-02 
356	 9.41019835485735E-02 
357	 9.41213307043045E-02 
358	 9.48253470649339E-02 
359	 9.41054694532701E-02 
360	 9.35645465218732E-02 
361	 9.36945255438395E-02 
362	 9.40775687616236E-02 
363	 9.43833593613929E-02 
364	 9.40101745103061E-02 
365	 9.31626689186954E-02 
366	 9.32339148341631E-02 
367	 0.093314799276125 
368	 9.33492630656644E-02 
369	 9.34375085594025E-02 
370	 0.093443172360828 
371	 9.35590044321614E-02 
372	 0.093434611576604 
373	 9.26588649218065E-02 
374	 9.31188666938345E-02 
375	 9.34867479408144E-02 
376	 0.093281424555218 
377	 9.36255884496451E-02 
378	 9.38112580470317E-02 
379	 9.36943576222218E-02 
380	 9.32877625263144E-02 
381	 0.092528009184337 
382	 9.27242667089703E-02 
383	 9.32919465054853E-02 
384	 9.30034142618539E-02 
385	 9.33072618619451E-02 
386	 9.38851068620444E-02 
387	 9.40460922225038E-02 
388	 9.29915163736229E-02 
389	 9.35768548796858E-02 
390	 9.42119700942735E-02 
391	 0.093756910253642 
392	 0.094423053495268 
393	 9.44439315956458E-02 
394	 9.41844555221183E-02 
395	 9.44879000785189E-02 
396	 9.42143231312811E-02 
397	 9.40448241849643E-02 
398	 9.42181043863528E-02 
399	 9.44865861968813E-02 
400	 0.094314629505812 
401	 9.42699795494502E-02 
402	 9.46236292546253E-02 
403	 9.46165255947804E-02 
404	 9.46462921207578E-02 
405	 9.46581914211353E-02 
406	 9.45402691824687E-02 
407	 9.48124713981676E-02 
408	 9.50264597986125E-02 
409	 9.50541578529132E-02 
410	 9.51305341424909E-02 
411	 9.50508337102515E-02 
412	 0.095055873139541 
413	 9.52811268477494E-02 
414	 9.54546155391354E-02 
415	 9.55202631016428E-02 
416	 9.56099570304709E-02 
417	 9.58800464319198E-02 
418	 9.61073488764773E-02 
419	 9.61775955666779E-02 
420	 9.61755993147652E-02 
421	 9.63773122928239E-02 
422	 9.67137042168188E-02 
423	 9.69328738434818E-02 
424	 9.69534536705613E-02 
425	 9.72725595837202E-02 
426	 9.75700327256944E-02 
427	 9.78340854750898E-02 
428	 0.098165643519971 
429	 9.83369499965145E-02 
430	 0.098664566592687 
431	 9.90846002469116E-02 
432	 9.90506380355982E-02 
433	 9.93698784140427E-02 
434	 9.98165997791738E-02 
435	 0.100088567400711 
436	 0.100378386591236 
437	 0.100617453068797 
438	 0.10089639293271 
439	 0.101343058798964 
440	 0.101634610988115 
441	 0.101887164335837 
442	 0.102188843932003 
443	 0.102518865861218 
444	 0.102678769441337 
445	 0.102899136844181 
446	 0.103366856157179 
447	 0.103624519700805 
448	 0.103900920940382 
449	 0.1041960226652 
450	 0.104355963249626 
451	 0.104622696259315 
452	 0.104877734785855 
453	 0.105054050800769 
454	 0.105292072279342 
455	 0.105579664794458 
456	 0.105824311812367 
457	 0.105952371523476 
458	 0.106177368116473 
459	 0.106356541043456 
460	 0.10648303822252 
461	 0.106699279260704 
462	 0.107003530009208 
463	 0.107184315750864 
464	 0.107163223301173 
465	 0.107325812552137 
466	 0.107551687673862 
467	 0.107780803675918 
468	 0.107977056659046 
469	 0.108125521956328 
470	 0.108281074053495 
471	 0.108453276216538 
472	 0.10858163391016 
473	 0.108782879823104 
474	 0.109027544084793 
475	 0.109258397100837 
476	 0.109471102417115 
477	 0.109667575026617 
478	 0.109919461565277 
479	 0.110310655476552 
480	 0.11051798996332 
481	 0.11065991521298 
482	 0.110872032123808 
483	 0.111191464007646 
484	 0.111676279490826 
485	 0.11208201080846 
486	 0.112203184016873 
487	 0.112679660681644 
488	 0.113022137526163 
489	 0.113160087263413 
490	 0.113471609927271 
491	 0.11381177987729 
492	 0.114232160126807 
493	 0.11471780561449 
494	 0.114991372757017 
495	 0.11523166051654 
496	 0.115523492574278 
497	 0.115889893327885 
498	 0.11622469230494 
499	 0.116646089611649 
500	 0.117171249573707 
501	 0.117639139737966 
502	 0.117828741136451 
503	 0.117998487247744 
504	 0.118442322722798 
505	 0.118982183188193 
506	 0.119476496193381 
507	 0.119905757571459 
508	 0.120351990423267 
509	 0.120860541004042 
510	 0.121380281182816 
511	 0.121867884890852 
512	 0.122336253390821 
513	 0.122843715269176 
514	 0.123361084879171 
515	 0.123841898146256 
516	 0.124467228455744 
517	 0.125002841318037 
518	 0.125390048745179 
519	 0.125829034894034 
520	 0.126427203911758 
521	 0.127013997549291 
522	 0.127439918225163 
523	 0.1278276218182 
524	 0.12839396555054 
525	 0.129088713260884 
526	 0.129678414299448 
527	 0.130189800799746 
528	 0.130720467521796 
529	 0.131319006579271 
530	 0.1319286626736 
531	 0.13248858090983 
532	 0.133049316920218 
533	 0.133667947057319 
534	 0.134159282327049 
535	 0.134638310377282 
536	 0.135188504543171 
537	 0.135829899594033 
538	 0.136374628877677 
539	 0.136914386719798 
540	 0.137533936182439 
541	 0.138059250670201 
542	 0.138553774119505 
543	 0.139123863424652 
544	 0.139857363229267 
545	 0.140316123614514 
546	 0.14088001607873 
547	 0.141675465875301 
548	 0.142125193278718 
549	 0.142748097778681 
550	 0.14340185163803 
551	 0.143833265801302 
552	 0.144562775479625 
553	 0.145175460780723 
554	 0.145585186402926 
555	 0.146126751964659 
556	 0.146621172156678 
557	 0.147189985970968 
558	 0.147890707916433 
559	 0.148389146926467 
560	 0.148800090251395 
561	 0.149216696880649 
562	 0.149705522162512 
563	 0.15015939184989 
564	 0.150624125156029 
565	 0.151062604581249 
566	 0.151218702065474 
567	 0.151508622495758 
568	 0.151871923593377 
569	 0.15213550541015 
570	 0.152610979351567 
571	 0.152972784932524 
572	 0.153154089930282 
573	 0.153400685457285 
574	 0.153695966944855 
575	 0.15393740265472 
576	 0.15409496286933 
577	 0.154466891854086 
578	 0.154773032425344 
579	 0.15497916028066 
580	 0.155209987057419 
581	 0.155521229413816 
582	 0.155798128027789 
583	 0.155908606411528 
584	 0.155707871585904 
585	 0.155534574066819 
586	 0.155217290983081 
587	 0.15453091408166 
588	 0.154162991537421 
589	 0.153947205652255 
590	 0.153859994160633 
591	 0.154059530105634 
592	 0.154176158369147 
593	 0.154051351661917 
594	 0.153768045340113 
595	 0.153989648151354 
596	 0.15403618769586 
597	 0.153904325243659 
598	 0.153936518552118 
599	 0.153809387394479 
600	 0.153703224676403 
601	 0.153721408366294 
602	 0.153744327847364 
603	 0.153663019288121 
604	 0.15361967107633 
605	 0.153747904996224 
606	 0.15364313763755 
607	 0.15373701942379 
608	 0.153981235746766 
609	 0.153819750598092 
610	 0.153777374661855 
611	 0.153856647252437 
612	 0.153946407231601 
613	 0.153934207380381 
614	 0.153983250968916 
615	 0.154063365907991 
616	 0.154054948231209 
617	 0.154110857261905 
618	 0.154179680834404 
619	 0.154226706316134 
620	 0.154283427644738 
621	 0.154224670687432 
622	 0.154179806796017 
623	 0.154272531538435 
624	 0.154165198242855 
625	 0.154074506467579 
626	 0.154014528485818 
627	 0.153812919729492 
628	 0.153971874064237 
629	 0.154247361779845 
630	 0.154366754648686 
631	 0.154380243612878 
632	 0.154333982863927 
633	 0.154339015619157 
634	 0.154485243724734 
635	 0.154454914778524 
636	 0.154555097384337 
637	 0.154823618170967 
638	 0.154835328375505 
639	 0.154897943969246 
640	 0.154884789065552 
641	 0.154678993422336 
642	 0.154733056034036 
643	 0.154525787995176 
644	 0.154015934313726 
645	 0.153568092627813 
646	 0.153086704603889 
647	 0.15284852025863 
648	 0.152984541095887 
649	 0.153211441797426 
650	 0.153081878705944 
651	 0.152800608135626 
652	 0.152757833964728 
653	 0.15256340732581 
654	 0.152168356362913 
655	 0.151724202887102 
656	 0.151666589997824 
657	 0.151482860418816 
658	 0.151267844756012 
659	 0.151146443353937 
660	 0.150941695142835 
661	 0.150806338685967 
662	 0.150693463020215 
663	 0.150447885338523 
664	 0.150129462039977 
665	 0.149972094534046 
666	 0.150000629404957 
667	 0.149841140681154 
668	 0.149671683959793 
669	 0.149549366788216 
670	 0.149505650420858 
671	 0.149611505930055 
672	 0.149757704691245 
673	 0.149796001047864 
674	 0.149586042770876 
675	 0.149681662938306 
676	 0.149868828568943 
677	 0.149928262366706 
678	 0.150004230354394 
679	 0.15021642044613 
680	 0.150463027566912 
681	 0.150578451668686 
682	 0.15079585850431 
683	 0.150945822671949 
684	 0.150855098385755 
685	 0.150353971529805 
686	 0.150108611027407 
687	 0.150197427331005 
688	 0.150413696979488 
689	 0.150661070968535 
690	 0.150520567728309 
691	 0.149947595044784 
692	 0.149189571283207 
693	 0.148989892393275 
694	 0.149252135648363 
695	 0.149686350608547 
696	 0.150128575390652 
697	 0.149641840122426 
698	 0.148706804310469 
699	 0.1481988038028 
700	 0.14800577721039 
701	 0.147838520481855 
702	 0.147653445345389 
703	 0.147588565196693 
704	 0.147248070860402 
705	 0.146840406227396 
706	 0.146473718196478 
707	 0.145779407771679 
708	 0.145179135031925 
709	 0.1445667476008 
710	 0.143717372640733 
711	 0.142935723908842 
712	 0.141928012652201 
713	 0.140523896582455 
714	 0.138657784510847 
715	 0.13604254171107 
716	 0.132946145108889 
717	 0.1302937546445 
718	 0.128707006618348 
719	 0.12834641456795 
720	 0.128309061784631 
721	 0.127636972965699 
722	 0.125897195962203 
723	 0.123523590353479 
724	 0.12141859993085 
725	 0.120199075879851 
726	 0.118730749588624 
727	 0.117099054682022 
728	 0.115499084839522 
729	 0.113431725633679 
730	 0.111795981728307 
731	 0.110805275696729 
732	 0.110071362414011 
733	 0.108871787585301 
734	 0.107591865149058 
735	 0.106499037060297 
736	 0.105629688410769 
737	 0.105458351912418 
738	 0.105431218634018 
739	 0.105103189859582 
740	 0.105077778039415 
741	 0.10517290734651 
742	 0.105194947190924 
743	 0.105006313021347 
744	 0.104929927711047 
745	 0.105018859165688 
746	 0.105191460710456 
747	 0.105233673934787 
748	 0.105051495599854 
749	 0.104911810304233 
750	 0.105008162819859 
751	 0.104977333526349 
752	 0.104825203995508 
753	 0.104716203219527 
754	 0.104849626322603 
755	 0.104965611980443 
756	 0.104800406952469 
757	 0.104279646812546 
758	 0.103401482520908 
759	 0.101907498562652 
760	 0.100562876702427 
761	 0.10081967159093 
762	 0.100986228182823 
763	 0.101955144518533 
764	 0.103140107934712 
765	 0.10383107436182 
766	 0.104549172980594 
767	 0.105034357783013 
768	 0.105301078852111 
769	 0.105612457988153 
770	 0.105831627204329 
771	 0.106061149137887 
772	 0.106349295392313 
773	 0.10645933400389 
774	 0.106742122946045 
775	 0.107006625908974 
776	 0.106979916858223 
777	 0.107419257772987 
778	 0.107791831109533 
779	 0.107943865787898 
780	 0.10818984489027 
781	 0.108388597176782 
782	 0.108642923200873 
783	 0.108980156880178 
784	 0.109181554112493 
785	 0.109203894762724 
786	 0.109260274180607 
787	 0.109555686367044 
788	 0.109652884383831 
789	 0.109896544757941 
790	 0.110378750386838 
791	 0.110959577677574 
792	 0.111790180438598 
793	 0.112198512515763 
794	 0.112056186393272 
795	 0.112243150224946 
796	 0.112669432582616 
797	 0.11313679935408 
798	 0.113458721109703 
799	 0.113620098346883 
800	 0.113612450799373 
801	 0.113704017747565 
802	 0.114208474114244 
803	 0.114595383936577 
804	 0.115003907874696 
805	 0.115421005280865 
806	 0.115603261341731 
807	 0.115102616236354 
808	 0.114532966490073 
809	 0.114317986647091 
810	 0.113805948463578 
811	 0.112701805667233 
812	 0.111275615901613 
813	 0.110108859843531 
814	 0.109257036443215 
815	 0.10881199135158 
816	 0.108634958107685 
817	 0.108439266137967 
818	 0.108420790338007 
819	 0.108432387940101 
820	 0.108171262954563 
821	 0.107121418907703 
822	 0.105885501627659 
823	 0.104701959884961 
824	 0.103686810255039 
825	 0.102983536451491 
826	 0.101125446223003 
827	 9.89328384100538E-02 
828	 9.79234496863489E-02 
829	 9.65874176520251E-02 
830	 9.50262016678893E-02 
831	 9.36559568866284E-02 
832	 9.30245712668029E-02 
833	 9.28577372159664E-02 
834	 9.25101263937138E-02 
835	 9.17694068973124E-02 
836	 9.10162773187845E-02 
837	 9.08992579154774E-02 
838	 9.09416771157487E-02 
839	 9.06887686714151E-02 
840	 9.03707367788249E-02 
841	 9.04591511173068E-02 
842	 9.05558723287506E-02 
843	 9.01577830916901E-02 
844	 8.99541930598126E-02 
845	 8.95479287390831E-02 
846	 8.91141609038594E-02 
847	 8.91465628037249E-02 
848	 8.91207541876621E-02 
849	 8.87476568817108E-02 
850	 8.82851688002534E-02 
851	 8.85467317363869E-02 
852	 8.79451238349179E-02 
853	 8.75681522824728E-02 
854	 0.087972650731429 
855	 8.73931607132394E-02 
856	 8.71436625468548E-02 
857	 8.69331686385745E-02 
858	 8.64351928247693E-02 
859	 8.68897195421661E-02 
860	 8.67216283554457E-02 
861	 8.60851626048845E-02 
862	 8.58885581823695E-02 
863	 8.55127466446823E-02 
864	 0.085712961373045 
865	 8.60144491900258E-02 
866	 0.085067947148615 
867	 8.53474677121941E-02 
868	 8.51042315677285E-02 
869	 8.40420877655887E-02 
870	 8.43749571819787E-02 
871	 8.41309863256982E-02 
872	 8.36550245526948E-02 
873	 8.34469032243133E-02 
874	 8.32369782776141E-02 
875	 8.27839307403316E-02 
876	 8.22526565383464E-02 
877	 8.18722347052621E-02 
878	 8.15315594764563E-02 
879	 8.14908372255403E-02 
880	 8.14130245369159E-02 
881	 8.08571081027648E-02 
882	 8.04874157074672E-02 
883	 8.01729386402326E-02 
884	 7.97479231462184E-02 
885	 7.91221703410057E-02 
886	 7.87421734142143E-02 
887	 7.85633663720386E-02 
888	 7.83848505517823E-02 
889	 7.79164165623421E-02 
890	 7.71029650415606E-02 
891	 7.64713494438511E-02 
892	 7.61693010917281E-02 
893	 7.53834683574637E-02 
894	 7.46010758412655E-02 
895	 7.35447565718214E-02 
896	 7.20924653435104E-02 
897	 7.12471484407639E-02 
898	 0.071309532184145 
899	 0.07129942140329 
900	 0.070510039561566 
901	 7.06567724700066E-02 
902	 7.16233598126959E-02 
903	 7.19779722544399E-02 
904	 7.04908853627401E-02 
905	 6.90069270654829E-02 
906	 6.97213449878708E-02 
907	 7.10309277891588E-02 
908	 0.069124426871207 
909	 6.80603980875518E-02 
910	 6.74854145590402E-02 
911	 6.71853023652897E-02 
912	 6.74188023071367E-02 
913	 6.85044133857176E-02 
914	 0.067418028648072 
915	 6.51192135312379E-02 
916	 6.66003971545127E-02 
917	 6.59996557575441E-02 
918	 6.52878106885174E-02 
919	 6.53347289142414E-02 
920	 6.42705504982867E-02 
921	 6.46517146559719E-02 
922	 6.42455034185438E-02 
923	 6.19961301881051E-02 
924	 6.12972123305059E-02 
925	 6.20396709830439E-02 
926	 6.19971278154286E-02 
927	 5.91948229490629E-02 
928	 5.62596173881017E-02 
929	 5.70906572643362E-02 
930	 5.68461619257135E-02 
931	 4.76184212696841E-02 
932	 5.17549165820356E-02 
933	 5.87451798088512E-02 
934	 5.92090277871225E-02 
935	 5.26857849441862E-02 
936	 5.33282810329495E-02 
937	 5.27776558236655E-02 
938	 5.02635937046337E-02 
939	 4.77250872540145E-02 
940	 4.73827087725096E-02 
941	 4.69517155814311E-02 
942	 4.50793313011924E-02 
943	 4.20101592229597E-02 
944	 0.043444282023555 
945	 4.81379946007166E-02 
946	 4.95746919885818E-02 
947	 4.34483521051029E-02 
948	 4.96458543039299E-02 
949	 5.02295093112987E-02 
950	 4.58724105819432E-02 
951	 4.79203970702819E-02 
952	 4.81328936959297E-02 
953	 4.76248356551198E-02 
954	 4.51423952582905E-02 
955	 4.00770017716389E-02 
956	 0.048034785700009 
957	 5.08513304068714E-02 
958	 4.73256538459599E-02 
959	 4.82933794308166E-02 
960	 5.02541469173488E-02 
961	 0.054579658330062 
962	 0.055968699637401 
963	 4.84811259940777E-02 
964	 4.71031359399309E-02 
965	 0.050747691103249 
966	 5.41930761860713E-02 
967	 5.24347434745133E-02 
968	 5.38043563767216E-02 
969	 5.38821700989433E-02 
970	 0.052731807009139 
971	 0.054316191032991 
972	 5.45258892413324E-02 
973	 0.051918040928698 
974	 5.07588907028595E-02 
975	 5.75975586549133E-02 
976	 5.40558905981346E-02 
977	 5.20999195605253E-02 
978	 5.43879915271806E-02 
979	 5.35908078291308E-02 
980	 5.54817373101188E-02 
981	 5.66441081254342E-02 
982	 5.61777979067542E-02 
983	 0.055939841807654 
984	 5.73807884989785E-02 
985	 5.64111603359167E-02 
986	 5.41930015666902E-02 
987	 0.055403875758954 
988	 5.66078961720383E-02 
989	 5.74857912949171E-02 
990	 5.76168599249864E-02 
991	 0.056579498453196 
992	 5.47547230894493E-02 
993	 5.67285461019218E-02 
994	 5.94495930524839E-02 
995	 5.63079489494445E-02 
996	 5.32809150719552E-02 
997	 5.65655934196775E-02 
998	 0.059304188775863 
999	 5.17705678167672E-02 
1000	 5.36830493356383E-02 
1001	 5.03248809202011E-02 
1002	 5.05624149428685E-02 
1003	 5.06605930889669E-02 
1004	 5.04715841634951E-02 
1005	 5.07019207229266E-02 
1006	 5.11828093847126E-02 
1007	 5.14521394420863E-02 
1008	 5.22747776260865E-02 
1009	 5.24770792228641E-02 
1010	 0.051849985139371 
1011	 5.17636376218393E-02 
1012	 5.14707023699072E-02 
1013	 5.08633374819702E-02 
1014	 5.11460798626263E-02 
1015	 5.26291850016876E-02 
1016	 5.29154712806446E-02 
1017	 5.29377660220152E-02 
1018	 5.31254655062314E-02 
1019	 5.28789168038126E-02 
1020	 5.27755852493742E-02 
1021	 0.052653420589712 
1022	 5.32298020171472E-02 
1023	 0.053285636959996 
1024	 5.26189627723836E-02 
1025	 5.25879003978816E-02 
1026	 5.24699905844547E-02 
1027	 0.052596121559031 
1028	 5.29865474257854E-02 
1029	 5.31807631415843E-02 
1030	 5.35114003256983E-02 
1031	 0.05368544519081 
1032	 5.35619106737927E-02 
1033	 5.37937001756825E-02 
1034	 5.43262614595661E-02 
1035	 5.44321551606824E-02 
1036	 5.47459682098097E-02 
1037	 5.46303233945159E-02 
1038	 5.33165489674499E-02 
1039	 5.30898014985687E-02 
1040	 5.40563419923045E-02 
1041	 5.48745058465368E-02 
1042	 5.53796866991125E-02 
1043	 5.69125556800251E-02 
1044	 5.69060182796737E-02 
1045	 5.52826779892338E-02 
1046	 5.49199737372832E-02 
1047	 5.45256036720432E-02 
1048	 5.46106615511135E-02 
1049	 5.56507729627758E-02 
1050	 5.58639483531602E-02 
1051	 5.60450286448314E-02 
1052	 5.59258262330388E-02 
1053	 5.45179088687979E-02 
1054	 5.43673219578879E-02 
1055	 5.52756237372337E-02 
1056	 5.55492329034225E-02 
1057	 0.055855619907398 
1058	 5.68870870756992E-02 
1059	 5.69252601215245E-02 
1060	 5.59404957840523E-02 
1061	 5.57071162641677E-02 
1062	 5.56221619526908E-02 
1063	 5.54628645321966E-02 
1064	 5.52545361623875E-02 
1065	 0.0553156744905 
1066	 5.55661681465891E-02 
1067	 0.055671163398871 
1068	 5.59342232705025E-02 
1069	 5.61366808255013E-02 
1070	 5.64514913760126E-02 
1071	 5.63753452545373E-02 
1072	 5.60754150111295E-02 
1073	 5.57353432465824E-02 
1074	 5.55442887580425E-02 
1075	 5.48080675339986E-02 
1076	 5.50038408775088E-02 
1077	 0.056230893462206 
1078	 5.63147574030208E-02 
1079	 5.62570623490855E-02 
1080	 5.60779601949169E-02 
1081	 5.49047486059779E-02 
1082	 5.46868308776315E-02 
1083	 5.52141538095727E-02 
1084	 5.53177591056843E-02 
1085	 5.59707170569021E-02 
1086	 5.58147422835832E-02 
1087	 5.44037498468528E-02 
1088	 5.38975050507561E-02 
1089	 5.35123876189871E-02 
1090	 5.30890582367509E-02 
1091	 5.30206458017602E-02 
1092	 5.41816955760831E-02 
1093	 5.38007174536138E-02 
1094	 5.21075235826048E-02 
1095	 5.17817491701242E-02 
1096	 5.17884073841112E-02 
1097	 5.13512878578331E-02 
1098	 5.15974459439866E-02 
1099	 5.15151683000889E-02 
1100	 0.050090905433925 
1101	 4.97323898758785E-02 
1102	 5.10871627600142E-02 
1103	 5.10810247934462E-02 
1104	 0.05088930805772 
1105	 4.97072420622523E-02 
1106	 4.79179697420093E-02 
1107	 4.72107066852569E-02 
1108	 4.76334790572865E-02 
1109	 4.78101767647077E-02 
1110	 4.79541434874392E-02 
1111	 4.84532683521425E-02 
1112	 4.82924572360675E-02 
1113	 4.81748845674333E-02 
1114	 4.72940969678319E-02 
1115	 4.36871206055432E-02 
1116	 4.29407416757351E-02 
1117	 4.44026420349799E-02 
1118	 0.04339866080867 
1119	 4.39705842397996E-02 
1120	 4.54295078247612E-02 
1121	 4.63232189146553E-02 
1122	 4.14970818446254E-02 
1123	 3.92395517033273E-02 
1124	 3.90879563011778E-02 
1125	 3.06981165431027E-02 
1126	 2.88620179262909E-02 
1127	 3.90880574868065E-02 
1128	 4.57112344181746E-02 
1129	 4.51191653725833E-02 
1130	 3.74050161797762E-02 
1131	 3.97495594376168E-02 
1132	 4.23799958778213E-02 
1133	 4.34548462578388E-02 
1134	 5.15580932908468E-02 
1135	 5.14991868456715E-02 
1136	 4.24233319078825E-02 
1137	 4.13839121404332E-02 
1138	 0.043574666092047 
1139	 4.27070896357225E-02 
1140	 4.25653428115689E-02 
1141	 4.39926411463575E-02 
1142	 3.85896291983797E-02 
1143	 3.56086270659309E-02 
1144	 4.01961366776468E-02 
1145	 4.45172747220734E-02 
1146	 4.65782705813269E-02 
1147	 0.046227559025728 
1148	 0.045342845721203 
1149	 4.01652543608554E-02 
1150	 3.80039799006376E-02 
1151	 3.85284371807909E-02 
1152	 4.05351185693913E-02 
1153	 4.23938507283435E-02 
1154	 4.36142826276577E-02 
1155	 4.69732541146471E-02 
1156	 4.65710271497808E-02 
1157	 4.28663468033285E-02 
1158	 4.24246632200401E-02 
1159	 4.35004256218876E-02 
1160	 4.32909324068728E-02 
1161	 4.48405803065023E-02 
1162	 4.71225109098232E-02 
1163	 4.72521512184735E-02 
1164	 4.72558939583338E-02 
1165	 4.81106705165614E-02 
1166	 4.76427274997057E-02 
1167	 0.046544044714623 
1168	 4.70692289019067E-02 
1169	 4.76995531350176E-02 
1170	 4.76641999480382E-02 
1171	 4.78624130650917E-02 
1172	 4.87267349777516E-02 
1173	 4.86233381316658E-02 
1174	 4.77156953323729E-02 
1175	 4.74828586254915E-02 
1176	 4.79725604386905E-02 
1177	 0.048416365641523 
1178	 4.84760347464771E-02 
1179	 0.048410148254866 
1180	 4.85689315745299E-02 
1181	 4.85397874082869E-02 
1182	 4.83488155327759E-02 
1183	 4.84733813329807E-02 
1184	 4.86161978257956E-02 
1185	 4.89173236658848E-02 
1186	 4.94776311842179E-02 
1187	 4.97796851565995E-02 
1188	 4.95047627612247E-02 
1189	 4.90397321941635E-02 
1190	 4.90362686019908E-02 
1191	 4.93197175441417E-02 
1192	 4.93527891491018E-02 
1193	 0.049462751865471 
1194	 4.92693801194139E-02 
1195	 4.93111239687854E-02 
1196	 4.99188339873625E-02 
1197	 5.02254855280296E-02 
1198	 0.050186688023327 
1199	 5.02203740073604E-02 
1200	 4.94985563933817E-02 
1201	 4.93170460650535E-02 
1202	 4.99594164648228E-02 
1203	 4.97914394997041E-02 
1204	 4.98136069563577E-02 
1205	 5.03420126612856E-02 
1206	 0.049999252351834 
1207	 4.95326365476326E-02 
1208	 5.00604138165979E-02 
1209	 5.02662763979514E-02 
1210	 5.00448134520171E-02 
1211	 0.050121543042538 
1212	 4.99470639455382E-02 
1213	 5.00782243930802E-02 
1214	 5.00418099160758E-02 
1215	 5.02953817756761E-02 
1216	 5.02671618008385E-02 
1217	 5.04049875822386E-02 
1218	 5.03413806796417E-02 
1219	 5.06016210976693E-02 
1220	 5.13514197440453E-02 
1221	 5.15101031299843E-02 
1222	 5.13063045933663E-02 
1223	 5.11629213974615E-02 
1224	 5.12430798426258E-02 
1225	 5.15948176297258E-02 
1226	 5.17355685303786E-02 
1227	 5.15745179125531E-02 
1228	 5.14346693685334E-02 
1229	 5.11574311082288E-02 
1230	 5.08430643956413E-02 
1231	 5.12365540511417E-02 
1232	 5.16926358970284E-02 
1233	 5.16029646472399E-02 
1234	 5.14408168943495E-02 
1235	 5.15070357388124E-02 
1236	 5.14487412212681E-02 
1237	 5.13713668220069E-02 
1238	 5.14087821751834E-02 
1239	 5.18300402670595E-02 
1240	 5.16215863753352E-02 
1241	 5.13171880546814E-02 
1242	 5.18359451962859E-02 
1243	 5.20509936370737E-02 
1244	 5.18245439503263E-02 
1245	 5.18254364687121E-02 
1246	 5.18764945374792E-02 
1247	 5.18331697987962E-02 
1248	 5.20601078754576E-02 
1249	 0.05237911994431 
1250	 0.052445803354771 
1251	 5.22384728571792E-02 
1252	 5.20884780460523E-02 
1253	 0.052006834522651 
1254	 5.19802190598318E-02 
1255	 5.21705419501933E-02 
1256	 5.19715883060573E-02 
1257	 5.15454091830782E-02 
1258	 0.05150045798231 
1259	 5.14642037176088E-02 
1260	 5.12171896204703E-02 
1261	 0.051020232141856 
1262	 5.12432684583246E-02 
1263	 5.16889763385112E-02 
1264	 5.13453129759234E-02 
1265	 5.10806326399528E-02 
1266	 5.15934624440148E-02 
1267	 5.11772597195842E-02 
1268	 5.04043585598389E-02 
1269	 5.12061253957792E-02 
1270	 0.051677380163376 
1271	 5.12856936705299E-02 
1272	 5.17664566523436E-02 
1273	 5.19174833699687E-02 
1274	 0.051082996579509 
1275	 5.08055195018941E-02 
1276	 0.051363160022773 
1277	 5.15122837697551E-02 
1278	 5.12622431066631E-02 
1279	 5.15750074520986E-02 
1280	 5.17627712966647E-02 
1281	 5.16288114703841E-02 
1282	 5.11766154281844E-02 
1283	 5.12307628768863E-02 
1284	 5.14407940967413E-02 
1285	 5.13115164829258E-02 
1286	 0.051202776940508 
1287	 0.051192241203962 
1288	 5.09208577789304E-02 
1289	 5.06239189509479E-02 
1290	 5.02938063811118E-02 
1291	 5.05009852579752E-02 
1292	 5.02875488621203E-02 
1293	 5.00081030704694E-02 
1294	 5.02577262908611E-02 
1295	 5.09360484838333E-02 
1296	 5.11068846132373E-02 
1297	 5.05653094594517E-02 
1298	 5.00630332361614E-02 
1299	 4.93577203067819E-02 
1300	 4.88252001740748E-02 
1301	 4.91002145057755E-02 
1302	 4.93803415313553E-02 
1303	 4.91569499027591E-02 
1304	 4.87919581357128E-02 
1305	 0.048621855296236 
1306	 4.86037111375629E-02 
1307	 4.86352831183132E-02 
1308	 4.83138271012306E-02 
1309	 4.80061461684077E-02 
1310	 4.77670571742999E-02 
1311	 0.047083732647544 
1312	 4.66181744893944E-02 
1313	 4.64930569262677E-02 
1314	 4.65387506820278E-02 
1315	 4.65916489824496E-02 
1316	 4.62304536000753E-02 
1317	 4.63280355743227E-02 
1318	 4.62067011720992E-02 
1319	 0.044815139953436 
1320	 4.46689075410793E-02 
1321	 4.62710953488566E-02 
1322	 0.045779137464074 
1323	 4.42678379210707E-02 
1324	 4.49117636715183E-02 
1325	 4.44624531645067E-02 
1326	 4.35137021082031E-02 
1327	 4.42083428083905E-02 
1328	 4.34060499695646E-02 
1329	 4.20694758399661E-02 
1330	 4.25158673397889E-02 
1331	 4.24261219081634E-02 
1332	 4.19792373761537E-02 
1333	 4.20421640561051E-02 
1334	 4.19890751393132E-02 
1335	 4.16912924563498E-02 
1336	 4.20243117609308E-02 
1337	 4.25288553230636E-02 
1338	 0.043106607680406 
1339	 4.14469827557456E-02 
1340	 3.78402906265561E-02 
1341	 3.80246476103007E-02 
1342	 3.80516268517424E-02 
1343	 3.83819275758921E-02 
1344	 4.63828583132189E-02 
1345	 0.049001018269391 
1346	 4.16510836254202E-02 
1347	 3.97528953200991E-02 
1348	 4.20594542763155E-02 
1349	 0.043120632260635 
1350	 4.86129120952408E-02 
1351	 5.65691532546075E-02 
1352	 6.00648789056328E-02 
1353	 6.73190296972299E-02 
1354	 0.074684381104737 
1355	 0.112333901971376 
1356	 0.190851942083754 
1357	 0.276302740577037 
1358	 0.296930706694552 
1359	 0.37738270099444 
1360	 0.427801157594761 
1361	 0.369037387160361 
1362	 0.332974927196037 
1363	 0.31708492642128 
1364	 0.508751366473091 
1365	 1.02262378759185 
1366	 1.12098605732278 
1367	 0.634322732921461 
1368	 0.589678256267398 
1369	 0.030595228267647 
1370	-6.24398820493402E-03 
1371	 0.519761397998354 
1372	 0.673983979514592 
1373	 1.07620698980136 
1374	 0.776856469758519 
1375	 0.505975995011737 
1376	 0.358137301534056 
1377	-0.323744309504131 
1378	-0.238050874186869 
1379	 0.261890796224829 
1380	 0.283800649312643 
1381	 0.314555645446072 
1382	 0.437491742094244 
1383	-0.117272300304446 
1384	-0.558317317809947 
1385	 0.572096333850603 
1386	 0.627520737684994 
1387	 0.696008194405019 
1388	 0.849071141772881 
1389	 0.168104609124876 
1390	-1.26936535881242E-02 
1391	 0.345503201499134 
1392	-1.29459098379576 
1393	-2.04385410044183 
1394	-1.18888300379306 
1395	-0.397061911550754 
1396	 0.272778053341499 
1397	 2.57308819841118 
1398	 0.8997757536987 
1399	 0.900366784823458 
1400	 1.6205957496097 
1401	 1.01561656492509 
1402	-0.425120524393678 
1403	-0.767372248163526 
1404	-1.04808921981967 
1405	-1.37688944633118 
1406	-0.205787721459889 
1407	 0.142664078189426 
1408	 0.358833612938212 
1409	 0.259177919067346 
1410	 1.60776716777413E-02 
1411	 0.13381381253545 
1412	 1.02862796827584 
1413	 0.904299977255687 
1414	 0.478530763634453 
1415	 0.478994153722022 
1416	 0.239626776011889 
1417	 0.151916548329994 
1418	 0.236469122933466 
1419	 0.229457844802164 
1420	 9.03439414849986E-02 
1421	 6.43596089552676E-02 
1422	 0.107468601891022 
1423	 0.150898195782844 
1424	 0.219886441540393 
1425	 0.194362544438068 
1426	 0.149948060280229 
1427	 0.129981503837099 
1428	 5.00158265590879E-02 
1429	 2.30903872805472E-02 
1430	 6.11665561157718E-02 
1431	 5.54696249179143E-02 
1432	 2.02226361397693E-02 
1433	 2.63301525282822E-02 
1434	 2.90486278279529E-02 
1435	 3.78501638029742E-02 
1436	 7.36172623844385E-02 
1437	 0.133917050674433 
1438	 0.121363221635393 
1439	 0.111266182403447 
1440	 0.110709261384058 
1441	 8.20040068522027E-02 
1442	 7.93288971849274E-02 
1443	 8.09664050967118E-02 
1444	 6.03860892362876E-02 
1445	 0.055075997229673 
1446	 4.17700634964091E-02 
1447	 3.18876701807755E-02 
1448	 0.041400243769008 
1449	 3.50699234718136E-02 
1450	 2.32660990078347E-02 
1451	 2.03767345972995E-02 
1452	 2.78896080991861E-02 
1453	 3.92326043093397E-02 
1454	 4.00349629740563E-02 
1455	 4.47895868129084E-02 
1456	 4.27600369332573E-02 
1457	 2.93943525703376E-02 
1458	 2.79036477337555E-02 
1459	 3.24368410439455E-02 
1460	 3.33516488772078E-02 
1461	 3.37871742891875E-02 
1462	 3.74790088958925E-02 
1463	 4.52202585467024E-02 
1464	 4.41835124253181E-02 
1465	 0.039371066145667 
1466	 4.18966532910491E-02 
1467	 4.40346602853752E-02 
1468	 3.77488375232452E-02 
1469	 2.87874493011536E-02 
1470	 3.31393047156197E-02 
1471	 3.80671564745497E-02 
1472	 3.48522095723058E-02 
1473	 4.05999424638726E-02 
1474	 0.045563234789662 
1475	 3.78251361862652E-02 
1476	 3.52378507564243E-02 
1477	 4.47933774622075E-02 
1478	 4.67552281453498E-02 
1479	 3.74536226726805E-02 
1480	 3.72616658868658E-02 
1481	 0.044791816987483 
1482	 4.68334790349535E-02 
1483	 4.74723660532938E-02 
1484	 4.70678564025204E-02 
1485	 4.57902330806563E-02 
1486	 4.45980723336332E-02 
1487	 4.19764618941514E-02 
1488	 4.15732422753149E-02 
1489	 4.21534731204824E-02 
1490	 4.22063707105284E-02 
1491	 4.15608790457986E-02 
1492	 4.27345950384452E-02 
1493	 4.54753119645652E-02 
1494	 4.64763645180706E-02 
1495	 4.78642982395383E-02 
1496	 4.86572780898569E-02 
1497	 4.79375597964958E-02 
1498	 4.78951629502469E-02 
1499	 4.81642924944229E-02 
1500	 4.84627007792674E-02 
1501	 4.91730820577692E-02 
1502	 4.93103743112983E-02 
1503	 4.90585343441084E-02 
1504	 4.92265428386999E-02 
1505	 0.049472123287198 
1506	 4.94096354250436E-02 
1507	 4.91235429165634E-02 
1508	 0.049630920973799 
1509	 5.00836603960361E-02 
1510	 4.96548335460862E-02 
1511	 5.06931454131977E-02 
1512	 5.16207299587504E-02 
1513	 5.07802746834163E-02 
1514	 5.08659294101793E-02 
1515	 5.16265827791439E-02 
1516	 5.06922969352038E-02 
1517	 4.98019737501101E-02 
1518	 5.04928090615703E-02 
1519	 5.10150252551834E-02 
1520	 5.12360084390222E-02 
1521	 5.19766888186713E-02 
1522	 5.25753346724018E-02 
1523	 5.21353141572501E-02 
1524	 5.09623456589802E-02 
1525	 5.08088534786964E-02 
1526	 5.13889121153163E-02 
1527	 0.051375038569968 
1528	 5.15820262097369E-02 
1529	 5.16369719740106E-02 
1530	 5.12751671880511E-02 
1531	 5.12958201153231E-02 
1532	 0.05134259066696 
1533	 0.051510148980009 
1534	 5.16317077483309E-02 
1535	 5.17216821515539E-02 
1536	 0.052369207203713 
1537	 5.30282837331179E-02 
1538	 5.34022933086206E-02 
1539	 5.33405682069806E-02 
1540	 5.27448093431465E-02 
1541	 5.23687468023688E-02 
1542	 5.23618332405695E-02 
1543	 5.24111338539649E-02 
1544	 5.25992578470837E-02 
1545	 0.052702010423306 
1546	 5.22077634250238E-02 
1547	 5.21129668207464E-02 
1548	 5.28527829203108E-02 
1549	 5.27846626064139E-02 
1550	 5.25499189574906E-02 
1551	 5.29882782529842E-02 
1552	 5.28368808188862E-02 
1553	 5.29015050185946E-02 
1554	 5.37213356797608E-02 
1555	 0.053723238774808 
1556	 5.31204156369922E-02 
1557	 5.33479689817376E-02 
1558	 0.053503713382359 
1559	 5.26839459058825E-02 
1560	 5.24630086214227E-02 
1561	 5.29908312260712E-02 
1562	 0.052922013423495 
1563	 5.25864810140689E-02 
1564	 5.31224409903643E-02 
1565	 5.37917612095791E-02 
1566	 5.38288865849089E-02 
1567	 5.38512065115109E-02 
1568	 0.053662482673526 
1569	 5.35334608002602E-02 
1570	 5.36123341340551E-02 
1571	 5.36727611871064E-02 
1572	 5.36954136715753E-02 
1573	 5.33199411298287E-02 
1574	 5.30028893798887E-02 
1575	 5.29244631673367E-02 
1576	 5.28642194960946E-02 
1577	 5.24945886956996E-02 
1578	 5.22209101589372E-02 
1579	 5.24303051058955E-02 
1580	 5.25752622877818E-02 
1581	 5.27939880417775E-02 
1582	 5.31065660565046E-02 
1583	 5.33722336081214E-02 
1584	 5.36090907050045E-02 
1585	 5.39159160525338E-02 
1586	 5.41567009340389E-02 
1587	 5.38926308014672E-02 
1588	 5.34907859061134E-02 
1589	 5.36245361525766E-02 
1590	 5.36421390238984E-02 
1591	 5.31766931210049E-02 
1592	 5.35918411612386E-02 
1593	 5.40885593753193E-02 
1594	 5.33854303537548E-02 
1595	 5.27907802018137E-02 
1596	 5.29691000196396E-02 
1597	 5.35574860349082E-02 
1598	 5.39075475667005E-02 
1599	 5.38755053738321E-02 
1600	 5.38936155037219E-02 
1601	 5.36506148334619E-02 
1602	 5.32806677708847E-02 
1603	 5.33227661333948E-02 
1604	 5.28620590419952E-02 
1605	 5.20996284478447E-02 
1606	 5.27427487878372E-02 
1607	 5.35770669571477E-02 
1608	 5.34514490623443E-02 
1609	 0.053609281605448 
1610	 0.05341271508366 
1611	 5.21335536377984E-02 
1612	 5.17602035208707E-02 
1613	 5.28990837166198E-02 
1614	 5.32913033033595E-02 
1615	 0.052866458079838 
1616	 5.33405493450602E-02 
1617	 5.35602074847327E-02 
1618	 5.30000658762517E-02 
1619	 5.31080044063266E-02 
1620	 5.36686765516146E-02 
1621	 5.41096205317378E-02 
1622	 5.42488367029275E-02 
1623	 5.40522569667306E-02 
1624	 5.43230884924253E-02 
1625	 5.47939712779617E-02 
1626	 5.43295349525048E-02 
1627	 5.38792759437038E-02 
1628	 5.45008267522432E-02 
1629	 5.47965851283095E-02 
1630	 5.42348507475068E-02 
1631	 5.42195999414165E-02 
1632	 5.46161245463975E-02 
1633	 5.41493575103953E-02 
1634	 5.36436225726642E-02 
1635	 5.38107771091617E-02 
1636	 5.36236757387768E-02 
1637	 5.34054400384964E-02 
1638	 5.37953938477827E-02 
1639	 5.41200992164295E-02 
1640	 5.39233023217008E-02 
1641	 5.36804455112623E-02 
1642	 5.39848325881342E-02 
1643	 5.44748292338824E-02 
1644	 5.47704759820916E-02 
1645	 5.48524532249979E-02 
1646	 5.46169926459088E-02 
1647	 5.45170761608192E-02 
1648	 5.43997588706713E-02 
1649	 5.46459145971249E-02 
1650	 5.51284060734722E-02 
1651	 5.47042959792414E-02 
1652	 5.47053062321563E-02 
1653	 5.47740399051082E-02 
1654	 5.45097423716772E-02 
1655	 5.41998527303371E-02 
1656	 5.44754560682651E-02 
1657	 5.47948448162558E-02 
1658	 5.45287767635027E-02 
1659	 5.46235885396621E-02 
1660	 5.46642946844698E-02 
1661	 5.40656737222721E-02 
1662	 5.42544337535559E-02 
1663	 5.49493357688016E-02 
1664	 5.46695803640402E-02 
1665	 5.41114766637586E-02 
1666	 0.054328765587353 
1667	 5.48331440013687E-02 
1668	 5.47279965153873E-02 
1669	 0.054376083931598 
1670	 0.054096618168124 
1671	 5.41832120526318E-02 
1672	 5.49609738910423E-02 
1673	 5.52981885822479E-02 
1674	 5.46642565805849E-02 
1675	 5.45314556240689E-02 
1676	 5.49378601690544E-02 
1677	 5.50652058161676E-02 
1678	 5.57391441892816E-02 
1679	 5.58470578501345E-02 
1680	 5.49338520050403E-02 
1681	 5.53023489714081E-02 
1682	 5.56760904339923E-02 
1683	 0.054850325066153 
1684	 5.46535274986516E-02 
1685	 5.51338147359029E-02 
1686	 5.56781433411633E-02 
1687	 5.59704596065605E-02 
1688	 5.57211269029418E-02 
1689	 5.51019364938808E-02 
1690	 5.41414836455492E-02 
1691	 5.38620329545858E-02 
1692	 5.45899393413338E-02 
1693	 5.48252117756394E-02 
1694	 5.45395720961485E-02 
1695	 5.49157262160317E-02 
1696	 5.51170821265571E-02 
1697	 5.46615559430532E-02 
1698	 5.47138103517464E-02 
1699	 5.48220550919067E-02 
1700	 0.054834631932183 
1701	 5.48800616342091E-02 
1702	 5.41983565055668E-02 
1703	 5.41336388598591E-02 
1704	 5.44746729194569E-02 
1705	 0.05431924381164 
1706	 5.47757087930317E-02 
1707	 5.39601578846467E-02 
1708	 5.26910349317835E-02 
1709	 5.37101085409535E-02 
1710	 5.45493225161071E-02 
1711	 5.46042136363692E-02 
1712	 5.47252544188231E-02 
1713	 5.26039576803217E-02 
1714	 5.21929575247255E-02 
1715	 5.36672127740915E-02 
1716	 5.46545816566924E-02 
1717	 5.48394663927602E-02 
1718	 5.42451977879714E-02 
1719	 5.34701040892009E-02 
1720	 5.35564440373115E-02 
1721	 5.35825984606388E-02 
1722	 5.44407995751796E-02 
1723	 5.54268162472866E-02 
1724	 5.47745912181417E-02 
1725	 5.44698968538827E-02 
1726	 5.52150738749419E-02 
1727	 5.49708368078619E-02 
1728	 5.38915929546082E-02 
1729	 5.43493240302167E-02 
1730	 5.46086152562444E-02 
1731	 5.38073824155626E-02 
1732	 5.41642289650225E-02 
1733	 5.41888344629734E-02 
1734	 5.33545269666578E-02 
1735	 5.26095943914897E-02 
1736	 5.18973590119527E-02 
1737	 5.22163541368939E-02 
1738	 0.053354256747899 
1739	 5.42972153790414E-02 
1740	 5.46958570648872E-02 
1741	 5.40926246137828E-02 
1742	 0.053159491874713 
1743	 5.23647967963074E-02 
1744	 5.27334264457153E-02 
1745	 5.43667858394661E-02 
1746	 5.42546875662276E-02 
1747	 5.40491551292825E-02 
1748	 5.34896636343532E-02 
1749	 5.26351132157141E-02 
1750	 5.08240140946927E-02 
1751	 5.06254157151933E-02 
1752	 0.051122746137734 
1753	 5.19599888320696E-02 
1754	 5.51955315873561E-02 
1755	 5.50479773177425E-02 
1756	 5.25940525941184E-02 
1757	 5.28777993596527E-02 
1758	 5.08895915909101E-02 
1759	 5.02398847730556E-02 
1760	 5.19915374575561E-02 
1761	 5.25765670810499E-02 
1762	 5.29488270165229E-02 
1763	 5.34984105542189E-02 
1764	 5.38235061331051E-02 
1765	 5.11786324076794E-02 
1766	 4.86478675824433E-02 
1767	 4.97714245920889E-02 
1768	 4.96904997382087E-02 
1769	 5.03453478639457E-02 
1770	 5.35147713598343E-02 
1771	 5.44017468114424E-02 
1772	 0.054072664635738 
1773	 5.25867285290676E-02 
1774	 5.09767583798128E-02 
1775	 5.16682905982125E-02 
1776	 5.14409757644486E-02 
1777	 5.48214423483174E-02 
1778	 5.40628029334741E-02 
1779	 4.74521984193146E-02 
1780	 4.57393071723741E-02 
1781	 4.35081046856834E-02 
1782	 4.21701637070195E-02 
1783	 4.57833816128086E-02 
1784	 4.65243430111024E-02 
1785	 0.04520323393904 
1786	 4.56287720946624E-02 
1787	 4.66960545945813E-02 
1788	 4.74149417328373E-02 
1789	 4.92553420997786E-02 
1790	 4.71916844212393E-02 
1791	 4.74176647358202E-02 
1792	 5.31054206592136E-02 
1793	 0.060905430416723 
1794	 6.19233505220002E-02 
1795	 4.85823108463333E-02 
1796	 3.35718151574059E-02 
1797	 1.95460029860297E-02 
1798	 4.05956930820912E-02 
1799	 8.55369374371266E-02 
1800	 8.50658566634939E-02 
1801	 8.41079349127721E-02 
1802	-1.02980695850918E-02 
1803	-3.03649371196154E-02 
1804	 6.64172861942227E-02 
1805	 0.119441717126685 
1806	 0.351772752895437 
1807	 0.482613720108775 
1808	 3.20780984233351E-02 
1809	-0.191362705931389 
1810	-0.293868465458836 
1811	-0.275598983571524 
1812	 0.210107214267526 
1813	 0.410207708586943 
1814	-3.31392357672527 
1815	-2.00757948843542 
1816	 129.914992428148 
1817	 1.6245184189215 
1818	 0.663457621497417 
1819	 1.25354829177368 
1820	 1.71975944231624 
1821	-0.208592383076038 
1822	-9.49392384542051E-02 
1823	-0.528182959366769 
1824	-0.64368262230928 
1825	-0.567851218250813 
1826	-0.364386461468128 
1827	 2.35444961435743 
1828	-0.788217800274119 
1829	 3.69191048015434 
1830	 2.81588887077741 
1831	-3.35379655269617 
1832	-3.36403082113872 
1833	-1.9960592303196 
1834	-2.29359641143425 
1835	-14.8113902974781 
1836	 129.248308786668 
1837	 5.20390604590546 
1838	 21.5015313556302 
1839	-1.30379876211763 
1840	-9.13538245370721E-02 
1841	 9.43879723811172E-02 
1842	-0.333315305900678 
1843	-0.350480915510183 
1844	-1.03019023925619 
1845	-6.7341418552131 
1846	-3.07055806359552 
1847	-2.60625774995316 
1848	-3.24824179327381 
1849	-2.23926120607485 
1850	-0.924271517531458 
1851	-0.879083494579814 
1852	-0.429695224167072 
1853	 1.70889823041787 
1854	-2.95267711930285 
1855	-0.285589647936694 
1856	-0.195423604515607 
1857	 0.383590445167533 
1858	 1.16604898701591 
1859	 2.1258658644592 
1860	 2.0397588514745 
1861	 14.2951391911204 
1862	-1.91826295170709 
1863	-1.59680545162195 
1864	 3.42424740772572 
1865	 0.724106904991805 
1866	 0.38152122079064 
1867	 0.373626914810774 
1868	 0.911100690653906 
1869	-0.823504457750752 
1870	 0.282808593469777 
1871	 0.297635958011012 
1872	-0.045874267403793 
1873	-0.628265654017297 
1874	-0.255204130693428 
1875	 8.34981524137051E-02 
1876	-2.75232815579168E-02 
1877	-0.177429084642241 
1878	-0.227393285814659 
1879	-1.42941312628722 
1880	-2.14665682264383 
1881	-0.890256324959825 
1882	-0.560120765615387 
1883	-1.2016808865122 
1884	-1.26434823622455 
1885	-4.66132354449352 
1886	 2.46190897166267 
1887	-1.4986634742371 
1888	 0.359744538734337 
1889	 0.412977822996012 
1890	-1.13013615634737 
1891	-1.28574417637994 
1892	-4.48632281152249 
1893	-2.57089863883234 
1894	-1.66587016251751 
1895	-1.28412638848068 
1896	-0.996582897355132 
1897	-1.68924998174624 
1898	-1.60881699093429 
1899	 2.70202677374326 
1900	 1.49978229310441 
1901	-4.01020610607563E-02 
1902	-0.181995530371018 
1903	-0.909254043982454 
1904	-0.766781221582373 
1905	-0.483539165418478 
1906	-0.44448175308389 
1907	-0.413220950718029 
1908	-0.587498140715651 
1909	-0.926716367403969 
1910	-1.83286203024481 
1911	 2.30225879750941 
1912	 4.56675264316229 
1913	 4.7301073658529 
1914	 3.20680488932269 
1915	 2.09477462951849 
1916	 0.967222739289798 
1917	 0.12245461218895 
1918	-0.171953564733916 
1919	 0.136236093909755 
1920	 0.564567644961588 
1921	-0.274907309381477 
1922	-0.195739931095366 
1923	 0.183040957265501 
1924	 0.164912172196936 
1925	 0.429653077929025 
1926	 0.897575248180967 
1927	 2.75143035143686 
1928	-2.4677398202723 
1929	 1.15213826903722 
1930	 0.263099523200704 
1931	 0.030226363217071 
1932	-8.54495596352315E-02 
1933	 0.53239444537189 
1934	-0.178138746026995 
1935	-2.79942701668458 
1936	-0.409024792389114 
1937	-0.411614028191265 
1938	-0.333782424248611 
1939	-4.62911094084746E-02 
1940	-83.8275476574404 
1941	 1.26377808676089 
1942	 0.743644613740673 
1943	 1.24304233389018 
1944	 0.14648778103673 
1945	 0.291729938985901 
1946	 0.372222086315337 
1947	 0.208087824454655 
1948	 0.277489915850136 
1949	 0.194750538400888 
1950	-5.45899687579339E-02 
1951	-2.29368642742496E-02 
1952	-1.63210663473202E-02 
1953	 2.99026904901231E-02 
1954	-2.42865370301728E-02 
1955	-4.59428644347813E-02 
1956	-0.112918765824524 
1957	-0.165284882670432 
1958	-7.44669373995957E-02 
1959	 1.77080605964252E-02 
1960	 0.050515242266082 
1961	 5.92974921182463E-02 
1962	 5.11352068961718E-02 
1963	 3.75904801923007E-02 
1964	 4.08286377420957E-02 
1965	 5.22090051693539E-02 
1966	 0.054431976166701 
1967	 5.71315105854449E-02 
1968	 5.43535420025557E-02 
1969	 4.63064153377411E-02 
1970	 4.20497403809654E-02 
1971	 4.43231068537211E-02 
1972	 4.58821482230823E-02 
1973	 4.17739108707513E-02 
1974	 0.043442912099363 
1975	 4.81564311756851E-02 
1976	 4.47707511362582E-02 
1977	 4.78551294228291E-02 
1978	 5.55617074580655E-02 
1979	 5.68724041975834E-02 
1980	 5.18680174954662E-02 
1981	 0.054305877651003 
1982	 5.97972723997608E-02 
1983	 5.38950565248611E-02 
1984	 5.35491953388286E-02 
1985	 5.57639051851809E-02 
1986	 5.24427042067274E-02 
1987	 5.28599562793634E-02 
1988	 5.42221324835108E-02 
1989	 5.33387476756048E-02 
1990	 0.052060233412969 
1991	 5.45594444176854E-02 
1992	 5.72871935163259E-02 
1993	 5.67350360960155E-02 
1994	 5.66788437160887E-02 
1995	 5.69223241565381E-02 
1996	 5.66305711660199E-02 
1997	 5.59200156721936E-02 
1998	 5.71961532660237E-02 
1999	 5.99282858456817E-02 
2000	 5.97716180566276E-02 
2001	 5.51264921317545E-02 
2002	 4.76560047229927E-02 
2003	 3.89997511179431E-02 
2004	 2.56055848981506E-02 
2005	 2.42986474880279E-02 
2006	 3.33366591825641E-02 
2007	 3.66343544487582E-02 
2008	 5.12576341530594E-02 
2009	 0.058119970089223 
2010	 5.32930087951094E-02 
2011	 5.45184421362515E-02 
2012	 5.94125237074753E-02 
2013	 6.14667442745076E-02 
2014	 6.14374054772321E-02 
2015	 5.74960204429238E-02 
2016	 5.23822635433773E-02 
2017	 5.20447487790727E-02 
2018	 4.98006217740573E-02 
2019	 5.26801931689593E-02 
2020	 6.31053287045758E-02 
2021	 6.84421737427264E-02 
2022	 6.82890196972686E-02 
2023	 6.47491301277891E-02 
2024	 6.13911139750121E-02 
2025	 5.17860382716724E-02 
2026	 4.88552743957766E-02 
2027	 4.78840777189704E-02 
2028	 5.00144484668494E-02 
2029	 4.92058589771012E-02 
2030	 4.90343986342823E-02 
2031	 0.05283913706379 
2032	 5.25030447382309E-02 
2033	 5.25032806389047E-02 
2034	 5.66612275156822E-02 
2035	 5.44588891930297E-02 
2036	 5.20347005115895E-02 
2037	 0.054661720967348 
2038	 5.35457848604531E-02 
2039	 5.35733825631392E-02 
2040	 5.57690399991033E-02 
2041	 5.62274184702521E-02 
2042	 5.50456775342532E-02 
2043	 5.40262768222927E-02 
2044	 5.15111325946425E-02 
2045	 5.14724294765826E-02 
2046	 0.051356698834282 
2047	 5.06742767041672E-02 
2048	 5.42567402267723E-02 
2049	 5.66825740338822E-02 
2050	 5.55941858309344E-02 
2051	 5.80587099930846E-02 
2052	 5.86377397245346E-02 
2053	 5.41675694158297E-02 
2054	 4.96820096027834E-02 
2055	 4.43758976515488E-02 
2056	 4.41032420383955E-02 
2057	 4.88635850141366E-02 
2058	 4.90344951517867E-02 
2059	 5.05090018175098E-02 
2060	 5.30570099976693E-02 
2061	 5.43444576862688E-02 
2062	 5.17845255810499E-02 
2063	 5.29907135354219E-02 
2064	 5.56598933413728E-02 
2065	 5.65527034581622E-02 
2066	 5.66443995084724E-02 
2067	 5.83564549236061E-02 
2068	 5.90580672886642E-02 
2069	 5.53137841146299E-02 
2070	 5.29833480817046E-02 
2071	 0.054520294107284 
2072	 5.70573252195182E-02 
2073	 5.71906779089109E-02 
2074	 0.058478923661097 
2075	 5.78929978194538E-02 
2076	 5.24095177763287E-02 
2077	 5.08050710644365E-02 
2078	 5.15878438827143E-02 
2079	 5.14932944957915E-02 
2080	 5.12079600239301E-02 
2081	 5.33079041956181E-02 
2082	 5.47425520117324E-02 
2083	 5.52961625954103E-02 
2084	 0.053886940466394 
2085	 5.03296547282252E-02 
2086	 4.56145802567346E-02 
2087	 4.32617401478375E-02 
2088	 4.62240952122726E-02 
2089	 5.06227131010363E-02 
2090	 5.52356713138486E-02 
2091	 5.79775191633886E-02 
2092	 5.82831788213454E-02 
2093	 5.36734179928342E-02 
2094	 5.27958234542278E-02 
2095	 5.29681528734942E-02 
2096	 5.15887937252565E-02 
2097	 4.89626610076442E-02 
2098	 4.88123041299029E-02 
2099	 4.89964394844371E-02 
2100	 4.91199306830662E-02 
2101	 5.23136357506267E-02 
2102	 0.054455099208052 
2103	 5.42895222744854E-02 
2104	 5.38015369722185E-02 
2105	 5.49238914516915E-02 
2106	 5.47376609469945E-02 
2107	 0.052620893475016 
2108	 5.30048065061498E-02 
2109	 5.12082338144705E-02 
2110	 5.16082837336868E-02 
2111	 5.55303685990516E-02 
2112	 5.36866763700943E-02 
2113	 5.41269391515792E-02 
2114	 5.53346053022449E-02 
2115	 5.58357417112083E-02 
2116	 5.67027364006037E-02 
2117	 5.81778507571432E-02 
2118	 5.94892912652718E-02 
2119	 5.91175711126118E-02 
2120	 5.81929288358244E-02 
2121	 5.68735428487681E-02 
2122	 5.53407600554447E-02 
2123	 5.46233398604572E-02 
2124	 5.45386090102791E-02 
2125	 0.054101267379512 
2126	 5.21633841646051E-02 
2127	 5.25519982255876E-02 
2128	 5.57922048999195E-02 
2129	 5.62876450581994E-02 
2130	 5.81076045964605E-02 
2131	 5.91878345281856E-02 
2132	 0.057124364291309 
2133	 5.78769855955011E-02 
2134	 5.75465709474699E-02 
2135	 5.69106651181264E-02 
2136	 5.63373206805793E-02 
2137	 5.43514231055894E-02 
2138	 5.47376262451247E-02 
2139	 5.79063966431137E-02 
2140	 5.81660392051779E-02 
2141	 5.93228909483369E-02 
2142	 5.86779828988196E-02 
2143	 5.55768819139921E-02 
2144	 0.050816163440442 
2145	 4.90936870361056E-02 
2146	 4.92915422994956E-02 
2147	 4.97807375021932E-02 
2148	 5.10413899564636E-02 
2149	 5.32521281071964E-02 
2150	 5.32912257133342E-02 
2151	 5.28573043341921E-02 
2152	 5.64747860713186E-02 
2153	 5.57589104615362E-02 
2154	 5.34043818422058E-02 
2155	 5.45105549690661E-02 
2156	 5.24690333772308E-02 
2157	 5.32243152546463E-02 
2158	 0.058022665602094 
2159	 5.82104897695325E-02 
2160	 5.77527519289066E-02 
2161	 5.68509351174208E-02 
2162	 5.18676532017584E-02 
2163	 5.14868546294498E-02 
2164	 5.36763733567506E-02 
2165	 5.33568547291388E-02 
2166	 5.30446908326276E-02 
2167	 0.053998767365967 
2168	 5.55622868669118E-02 
2169	 5.59654808604355E-02 
2170	 5.64560454090067E-02 
2171	 5.72937786246836E-02 
2172	 6.08881535314345E-02 
2173	 0.060944123911699 
2174	 6.22502800299912E-02 
2175	 6.35581906021194E-02 
2176	 6.04025611769111E-02 
2177	 0.059199993027874 
2178	 5.53488113157708E-02 
2179	 5.50920947881376E-02 
2180	 5.86495897279082E-02 
2181	 5.65128485522324E-02 
2182	 5.94166518876646E-02 
2183	 6.26009482749413E-02 
2184	 5.90303509902394E-02 
2185	 5.92793310848556E-02 
2186	 0.060129046786679 
2187	 6.12550483264083E-02 
2188	 6.13845741587526E-02 
2189	 6.35661049021422E-02 
2190	 6.40880289700062E-02 
2191	 6.29038002367982E-02 
2192	 6.31353797619924E-02 
2193	 6.21590354871418E-02 
2194	 6.22688787527568E-02 
2195	 6.44918925869088E-02 
2196	 6.35187947639299E-02 
2197	 6.41955625673298E-02 
2198	 6.37349400896818E-02 
2199	 6.05103801731125E-02 
2200	 5.41196489984398E-02 
2201	 5.14046222510368E-02 
2202	 4.98727497303639E-02 
2203	 5.49397625134774E-02 
2204	 5.74794150393297E-02 
2205	 5.74786358007419E-02 
2206	 6.09895396782208E-02 
2207	 6.35764713875459E-02 
2208	 0.064445027282894 
2209	 6.44037897945625E-02 
2210	 6.42048416723212E-02 
2211	 6.21761918820144E-02 
2212	 5.91045148703922E-02 
2213	 5.65997279692188E-02 
2214	 5.70261576222605E-02 
2215	 5.38922984897442E-02 
2216	 4.65670909436575E-02 
2217	 4.46339022735384E-02 
2218	 4.63321613579588E-02 
2219	 4.78241169204447E-02 
2220	 5.19105535508145E-02 
2221	 5.31931693986745E-02 
2222	 0.054378407173099 
2223	 5.49617062926891E-02 
2224	 5.47409969048411E-02 
2225	 5.33838059371456E-02 
2226	 5.29581982133998E-02 
2227	 5.01230755347742E-02 
2228	 3.97918022943259E-02 
2229	 3.89907345812194E-02 
2230	 0.042739641956891 
2231	 4.45408225890112E-02 
2232	 5.16969771579987E-02 
2233	 5.45987523068471E-02 
2234	 5.36362186247575E-02 
2235	 5.61700706575625E-02 
2236	 5.62667979762793E-02 
2237	 5.85138038179047E-02 
2238	 5.94566120570685E-02 
2239	 5.74704675903872E-02 
2240	 5.61443846495799E-02 
2241	 5.28253360105199E-02 
2242	 5.19274127502002E-02 
2243	 5.22030780725431E-02 
2244	 5.09939230137029E-02 
2245	 5.37223692871976E-02 
2246	 5.80983878130307E-02 
2247	 5.56354475232437E-02 
2248	 4.65529639035972E-02 
2249	 4.41700914891557E-02 
2250	 4.70926281772065E-02 
2251	 4.26421158141016E-02 
2252	 0.042035857846126 
2253	 4.65447764480987E-02 
2254	 0.047982317234962 
2255	 5.37679073590802E-02 
2256	 6.14332284335626E-02 
2257	 5.93769580317034E-02 
2258	 4.88268544386342E-02 
2259	 0.041869370504243 
2260	 3.77678354877624E-02 
2261	 3.65883881937385E-02 
2262	 3.62117881775923E-02 
2263	 3.86402504500505E-02 
2264	 4.01967807719063E-02 
2265	 0.042584194018434 
2266	 4.70871830668375E-02 
2267	 5.36000122699637E-02 
2268	 5.71654101572005E-02 
2269	 6.17671662572623E-02 
2270	 6.36289405051665E-02 
2271	 6.22735531724668E-02 
2272	 6.24796018233475E-02 
2273	 6.26415004021363E-02 
2274	 6.11420547270784E-02 
2275	 5.75143143991285E-02 
2276	 5.82995436909898E-02 
2277	 6.14713498817279E-02 
2278	 5.95998722934719E-02 
2279	 5.76142305426435E-02 
2280	 5.66110790151494E-02 
2281	 4.98396061509241E-02 
2282	 5.05860308551708E-02 
2283	 5.34319987681272E-02 
2284	 5.24632991657048E-02 
2285	 5.38920891976476E-02 
2286	 4.65517457432618E-02 
2287	 4.99207317088524E-02 
2288	 6.16320305502877E-02 
2289	 6.02983634351594E-02 
2290	 0.065993624065186 
2291	 7.10960275946407E-02 
2292	 6.43283448515393E-02 
2293	 6.47701402083919E-02 
2294	 7.06750346690306E-02 
2295	 6.39593555688538E-02 
2296	 5.75348080894332E-02 
2297	 5.50554964575671E-02 
2298	 5.33232515209159E-02 
2299	 6.15820718586382E-02 
2300	 6.61308921681259E-02 
2301	 6.51629530216486E-02 
2302	 5.16280786840213E-02 
2303	 0.043905854598283 
2304	 5.24470364416847E-02 
2305	 5.16870298947967E-02 
2306	 0.054885228372977 
2307	 6.01079352472264E-02 
2308	 0.048162269182427 
2309	 3.97641675396319E-02 
2310	 5.20640912573712E-02 
2311	 0.053644467879568 
2312	 0.0548641433658 
2313	 6.29813306733204E-02 
2314	 5.23550916844729E-02 
2315	 5.94588119645265E-02 
2316	 6.91643707852421E-02 
2317	 7.51328346606018E-02 
2318	 9.86724454414173E-02 
2319	 0.110163552510955 
2320	 0.105701531813307 
2321	 8.88683340225613E-02 
2322	 7.74753528372635E-02 
2323	 5.60938373990203E-02 
2324	 4.29810481792824E-02 
2325	 5.44191268482908E-02 
2326	 0.04665933359734 
2327	 5.45045985084983E-02 
2328	 7.60129355714723E-02 
2329	 8.14966793489912E-02 
2330	 8.65238093977018E-02 
2331	 8.13600752875611E-02 
2332	 6.20417507510456E-02 
2333	 4.90392202364552E-02 
2334	 5.47275463253045E-02 
2335	 6.60680632507423E-02 
2336	 6.83079092256741E-02 
2337	 6.53632442910678E-02 
2338	 6.38386735109819E-02 
2339	 7.14173894468513E-02 
2340	 0.076821267334795 
2341	 7.59099352407939E-02 
2342	 7.24415392505476E-02 
2343	 5.95020892197772E-02 
2344	 0.05014080896867 
2345	 0.049196369062959 
2346	 5.80013023209016E-02 
2347	 5.30946994334352E-02 
2348	 4.89177539182689E-02 
2349	 5.93794363684032E-02 
2350	 3.56597616193719E-02 
2351	 1.25670152065394E-02 
2352	 2.92122167753658E-03 
2353	-1.31963870882316E-02 
2354	 5.33087173744292E-03 
2355	 3.77520037196681E-02 
2356	 8.26910357906719E-02 
2357	 0.143415540843767 
2358	 0.161252105019823 
2359	 0.178910164682701 
2360	 0.175224065291855 
2361	 0.1311504808299 
2362	 0.110215393742468 
2363	 8.11252192160365E-02 
2364	 0.060546242422512 
2365	 5.18926899914904E-02 
2366	 7.49232383007362E-03 
2367	 7.82266532146596E-03 
2368	 5.68271246325031E-02 
2369	 5.27171591189314E-02 
2370	 0.079662168808683 
2371	 0.163481708958325 
2372	 0.149164728598398 
2373	 0.114093732414383 
2374	 0.125657312317066 
2375	 7.73384973367883E-02 
2376	 2.62809977289779E-02 
2377	 2.60003876359234E-02 
2378	 5.89441294248539E-02 
2379	 2.55382250570898E-02 
2380	-6.80036027810972E-02 
2381	-0.12081208589723 
2382	-0.134320628545459 
2383	-1.94681784004717E-03 
2384	 7.18958614935561E-02 
2385	 5.87276913613168E-02 
2386	 0.151811449001381 
2387	 7.26191405653205E-02 
2388	 3.58673932847723E-02 
2389	 0.180348776558559 
2390	 0.216886123403989 
2391	 0.253128725374577 
2392	 0.298699753186753 
2393	 0.304432805392879 
2394	 0.384141321083511 
2395	 0.254430876975719 
2396	 0.105152747905513 
2397	 9.11093619999576E-02 
2398	-7.30438751524468E-03 
2399	-9.66780382280005E-02 
2400	-7.40895249935307E-02 
2401	 2.07130316373105E-02 
2402	 7.55205597407916E-03 
2403	 4.39038793798783E-02 
2404	 0.196183463665217 
2405	 0.135399582644152 
2406	 0.172336295436703 
2407	 0.274398212557809 
2408	 0.203004216329236 
2409	 0.260375247911397 
2410	 0.273616318003676 
2411	 0.246191045839035 
2412	 0.667472833614439 
2413	 1.27906516807884 
2414	 1.24662253478666 
2415	 1.37606695239894 
2416	 1.05187607946131 
2417	 0.528505337158778 
2418	 0.463067853876046 
2419	 0.320751032965687 
2420	 0.102938777809921 
2421	-0.217237208721502 
2422	-0.718604967956601 
2423	-1.69030147831027 
2424	-1.51431213587589 
2425	-0.369805846755998 
2426	-0.534436909342569 
2427	-0.561813976824728 
2428	-0.362840560843448 
2429	-0.215737523540637 
2430	-1.31445634742038E-02 
2431	 4.58789940800556E-02 
2432	-0.185098967456852 
2433	-0.303733222746293 
2434	-0.501826999478296 
2435	-0.616775357026054 
2436	-0.702533071277792 
2437	-198.411329689241 
2438	 2.23178755460231 
2439	 7.87143952376049 
2440	-94.2958561746213 
2441	-47.6338195929751 
2442	-0.384089623414196 
2443	 1.25480984937099 
2444	-17.4421516799944 
2445	-3.44487482998611 
2446	-1.08708791895496 
2447	-0.740292020418569 
2448	-0.499280529638579 
2449	-0.220400910298193 
2450	-6.77817456020491E-02 
2451	 0.272633360383528 
2452	-9.35407949405992E-02 
2453	-0.322520898051874 
2454	-0.403559804314906 
2455	-0.312577283045059 
2456	-6.82486187178311E-02 
2457	 0.225640515956897 
2458	 0.487086486637218 
2459	 1.18393607003704 
2460	 2.12802623351131 
2461	 0.605667811347464 
2462	-0.343109375352275 
2463	-0.661139275729346 
2464	-0.904866478554701 
2465	-1.18834175799004 
2466	-1.75759989620565 
2467	-3.15841615937842 
2468	-5.53124587919751 
2469	-15.7335496115681 
2470	 9.56648080049005 
2471	 13.5561855302491 
2472	 3.34038861817394 
2473	-0.185056151114549 
2474	-1.39657954162144 
2475	 6.16090240014591E-02 
2476	 0.693148536009119 
2477	 2.10156419460088 
2478	 4.26933117536182 
2479	-2.80556571666217E-02 
2480	 0.281154497722735 
2481	 0.349196668546778 
2482	 0.613831669883087 
2483	 0.391582809570281 
2484	-0.166684100237332 
2485	-0.04692023893924 
2486	-3.61996100078053E-02 
2487	-0.687252534004345 
2488	 0.199091129493292 
2489	-0.103827286635029 
2490	-0.86690933828789 
2491	-0.805057516540525 
2492	-0.757387554405017 
2493	-1.52344000326237 
2494	-1.45293009338422 
2495	-1.90609017544276 
2496	 0.704669913388001 
2497	 0.188430025979084 
2498	 2.79231748241344 
2499	 4.48791136156664 
2500	 3.28359493145257 
