Wavelength	rt0713east_far200001.asd
350	 8.35293831735781E-02 
351	 8.40518108947389E-02 
352	 8.38678824352861E-02 
353	 8.38374757189299E-02 
354	 8.41813474251935E-02 
355	 8.29607608603804E-02 
356	 0.08267871673221 
357	 8.30875304294681E-02 
358	 8.31707111388076E-02 
359	 8.26887179744079E-02 
360	 8.23843173051443E-02 
361	 8.24621818814009E-02 
362	 8.27183019798349E-02 
363	 8.32978256374122E-02 
364	 8.29984454915125E-02 
365	 8.19123657739682E-02 
366	 8.22559185693306E-02 
367	 8.20717363921643E-02 
368	 8.22751866771966E-02 
369	 8.34994576358453E-02 
370	 8.27112424996094E-02 
371	 8.23381921728555E-02 
372	 8.25987545093905E-02 
373	 8.24470142951333E-02 
374	 8.23908095565898E-02 
375	 8.23780474889603E-02 
376	 8.25261241235776E-02 
377	 8.32266209563115E-02 
378	 8.34950677723546E-02 
379	 8.31948932953776E-02 
380	 8.26398691903032E-02 
381	 8.27106417210811E-02 
382	 8.30937876276443E-02 
383	 8.34514324674769E-02 
384	 8.34899246505732E-02 
385	 8.33194109272127E-02 
386	 0.08345829974046 
387	 8.37848468133213E-02 
388	 8.35023635184516E-02 
389	 8.38925495968078E-02 
390	 8.42404964939695E-02 
391	 8.40485898449867E-02 
392	 8.43420442484367E-02 
393	 8.41433717003304E-02 
394	 8.39574197748187E-02 
395	 8.44799548785421E-02 
396	 8.44035292413145E-02 
397	 8.43149398142181E-02 
398	 8.43898102010045E-02 
399	 8.43722844496413E-02 
400	 8.46851141084791E-02 
401	 8.47694565579086E-02 
402	 8.44516086333833E-02 
403	 8.47189643379681E-02 
404	 8.49947888740673E-02 
405	 8.51058469341845E-02 
406	 8.50799309227482E-02 
407	 8.51848158428015E-02 
408	 8.53934089528284E-02 
409	 8.55479978996547E-02 
410	 8.54190160869832E-02 
411	 8.55584923799605E-02 
412	 8.57597928503887E-02 
413	 8.58281703334848E-02 
414	 8.59375036817829E-02 
415	 8.60738826995008E-02 
416	 8.62526037620532E-02 
417	 0.086476350332545 
418	 8.66193701975803E-02 
419	 8.68405970071735E-02 
420	 8.71542620211357E-02 
421	 8.74015107478694E-02 
422	 0.087480134968629 
423	 8.75845473713414E-02 
424	 8.78736156267937E-02 
425	 8.82444575546532E-02 
426	 8.85358155269275E-02 
427	 8.88292389730032E-02 
428	 8.92623791459615E-02 
429	 8.94151956379575E-02 
430	 8.97333847010018E-02 
431	 9.02056663191401E-02 
432	 9.02129639082342E-02 
433	 9.04706350967034E-02 
434	 9.09405512474962E-02 
435	 9.14075701664603E-02 
436	 9.16676646567011E-02 
437	 9.19344975037738E-02 
438	 9.22626745341757E-02 
439	 9.26060920179756E-02 
440	 9.28893895524367E-02 
441	 9.32183566466642E-02 
442	 9.36103091573784E-02 
443	 9.39295948032167E-02 
444	 9.41140870604742E-02 
445	 9.44097759023555E-02 
446	 9.49551129828286E-02 
447	 9.51251877594007E-02 
448	 9.54344088192324E-02 
449	 9.58701823287033E-02 
450	 9.60517163807906E-02 
451	 9.63397302914104E-02 
452	 9.65897439341308E-02 
453	 9.67368978394455E-02 
454	 9.70269759738145E-02 
455	 9.72932637454752E-02 
456	 9.74652201658439E-02 
457	 9.75655690742831E-02 
458	 0.097917845755825 
459	 9.81872323833651E-02 
460	 9.83345865297696E-02 
461	 9.86348039718816E-02 
462	 9.88005993538731E-02 
463	 9.89497674889477E-02 
464	 9.91785082773778E-02 
465	 9.92789158450614E-02 
466	 9.95470241035348E-02 
467	 0.099863286500476 
468	 9.99697509534034E-02 
469	 0.10026262579492 
470	 0.100481062942993 
471	 0.10056666693052 
472	 0.100806286831375 
473	 0.100915008336432 
474	 0.101127404256002 
475	 0.101611532188061 
476	 0.101846727495615 
477	 0.101876241133312 
478	 0.102004500895167 
479	 0.102611773535515 
480	 0.102832660429862 
481	 0.103006087715067 
482	 0.103356926820522 
483	 0.103521592345816 
484	 0.103892372170435 
485	 0.10434300128035 
486	 0.104649802838229 
487	 0.105198156513062 
488	 0.105585641319325 
489	 0.105752739865442 
490	 0.106003635042536 
491	 0.106348851227824 
492	 0.106790242163784 
493	 0.107264175925401 
494	 0.107556280206145 
495	 0.107900537228446 
496	 0.108290201912778 
497	 0.10861736328322 
498	 0.109015315578838 
499	 0.10950717645856 
500	 0.110031073011564 
501	 0.110420239938411 
502	 0.110708512855169 
503	 0.111050631405242 
504	 0.111560660318328 
505	 0.112036808283729 
506	 0.112560536660844 
507	 0.113058064064707 
508	 0.113361102423152 
509	 0.11386784055768 
510	 0.114446150903528 
511	 0.114949497601763 
512	 0.115404483328584 
513	 0.115897055599341 
514	 0.116450911664343 
515	 0.117039772889309 
516	 0.117554693845003 
517	 0.118130658801594 
518	 0.118731632703419 
519	 0.119094286717324 
520	 0.119674638608487 
521	 0.120336508606849 
522	 0.120864328674283 
523	 0.121232933491615 
524	 0.121777691488251 
525	 0.1224796870373 
526	 0.123073523008225 
527	 0.123601228565189 
528	 0.12416971353305 
529	 0.124818047517602 
530	 0.12544049613967 
531	 0.126064278400383 
532	 0.126673985574412 
533	 0.127234921383621 
534	 0.127665061503084 
535	 0.128239331423543 
536	 0.128954973007567 
537	 0.129476222547012 
538	 0.130041431379103 
539	 0.130690019761603 
540	 0.131373408493657 
541	 0.131926179546863 
542	 0.132433551079313 
543	 0.132975920426052 
544	 0.133611212524102 
545	 0.134173377038424 
546	 0.134822610239839 
547	 0.135574459227678 
548	 0.13608225371493 
549	 0.136616080230736 
550	 0.137222983041012 
551	 0.137871221519247 
552	 0.138558791498972 
553	 0.139125965005994 
554	 0.139590671774393 
555	 0.140170463259324 
556	 0.140695342657395 
557	 0.141244059150094 
558	 0.141886443661666 
559	 0.142522241885714 
560	 0.14293460723976 
561	 0.143261969724919 
562	 0.143830074020227 
563	 0.144349535057456 
564	 0.144805922651078 
565	 0.145179011415345 
566	 0.14534694074707 
567	 0.145641254552717 
568	 0.146080350825098 
569	 0.14653006013826 
570	 0.146778513247025 
571	 0.147069352152374 
572	 0.147438374870452 
573	 0.147671860027984 
574	 0.147969556414633 
575	 0.148239587400182 
576	 0.148419956800363 
577	 0.148783686394666 
578	 0.149000102873578 
579	 0.149131353476852 
580	 0.149447444505774 
581	 0.149671824898671 
582	 0.149830380450765 
583	 0.149910742275804 
584	 0.149742931674078 
585	 0.149637193054646 
586	 0.149428091888416 
587	 0.148890442739141 
588	 0.148600838721666 
589	 0.148355920859217 
590	 0.148182468087086 
591	 0.148356666084614 
592	 0.148252264505841 
593	 0.147992679597101 
594	 0.147805327589826 
595	 0.147720000274144 
596	 0.147608382029361 
597	 0.14741152402281 
598	 0.147126801130927 
599	 0.146829245892255 
600	 0.146602537340043 
601	 0.146455682785174 
602	 0.146269115621846 
603	 0.146162868646139 
604	 0.146138882604994 
605	 0.146144694683662 
606	 0.146041643863499 
607	 0.146106670490707 
608	 0.14627974991102 
609	 0.146154021943525 
610	 0.14613941796562 
611	 0.146239225906851 
612	 0.146352537404431 
613	 0.146339889653494 
614	 0.146305183158873 
615	 0.146309817721524 
616	 0.146377547223774 
617	 0.146422687442579 
618	 0.146459361771148 
619	 0.146501958652172 
620	 0.146547134549312 
621	 0.146548499284327 
622	 0.146494838599779 
623	 0.146427565417019 
624	 0.146583706378605 
625	 0.146545751322923 
626	 0.146321275227468 
627	 0.146333187629304 
628	 0.146435453183774 
629	 0.146508159031912 
630	 0.146511089089682 
631	 0.146619369693521 
632	 0.146598252551405 
633	 0.146558669190576 
634	 0.14671724481325 
635	 0.146701778550667 
636	 0.146756204848121 
637	 0.146939009377479 
638	 0.146964755951129 
639	 0.147020803305904 
640	 0.14698053504268 
641	 0.146761274943195 
642	 0.146830926515774 
643	 0.146706956693556 
644	 0.14630574523673 
645	 0.145892435540074 
646	 0.14554878962196 
647	 0.145306438347983 
648	 0.145215417880836 
649	 0.145462131816474 
650	 0.145345355181182 
651	 0.145043436824308 
652	 0.144988052177989 
653	 0.144731659024234 
654	 0.144190369393358 
655	 0.143542305161827 
656	 0.143359358816282 
657	 0.143043829885167 
658	 0.142761672891537 
659	 0.142659439304624 
660	 0.14235407247266 
661	 0.142035055514896 
662	 0.141788670132899 
663	 0.141624528752241 
664	 0.14139226523576 
665	 0.141125481119821 
666	 0.140889877421818 
667	 0.140768578313191 
668	 0.140681766499215 
669	 0.140624691382738 
670	 0.140603568896097 
671	 0.140536804787706 
672	 0.14063355851417 
673	 0.140733426578833 
674	 0.140379163761543 
675	 0.140492041016726 
676	 0.140688694839624 
677	 0.140633560350919 
678	 0.140743963267895 
679	 0.141042768200838 
680	 0.141323459596955 
681	 0.141342246527295 
682	 0.141494569151169 
683	 0.141594852713312 
684	 0.141556288653649 
685	 0.141482016853783 
686	 0.141215256694085 
687	 0.140922994391463 
688	 0.140870503538092 
689	 0.141242655443284 
690	 0.141251388039426 
691	 0.14078981896874 
692	 0.140195865174365 
693	 0.139824480180272 
694	 0.139763231122724 
695	 0.139915807769218 
696	 0.140094936589246 
697	 0.139659394155289 
698	 0.138845410918463 
699	 0.13818030337656 
700	 0.137693200149253 
701	 0.137402603080531 
702	 0.137159666223003 
703	 0.136712626387876 
704	 0.136208061084744 
705	 0.135584008165476 
706	 0.134823607708207 
707	 0.13400360913784 
708	 0.133219911073822 
709	 0.132414948650283 
710	 0.13148203450573 
711	 0.130443335615423 
712	 0.129193764071297 
713	 0.127757725627916 
714	 0.126234780796214 
715	 0.123856251234042 
716	 0.120990557372807 
717	 0.118657363419435 
718	 0.117042397251411 
719	 0.116097183964489 
720	 0.115482500360001 
721	 0.11466076981613 
722	 0.112868785913005 
723	 0.110605550045828 
724	 0.108673237907023 
725	 0.107314775622584 
726	 0.105698604869227 
727	 0.103898916922876 
728	 0.102091211007566 
729	 9.99438021328032E-02 
730	 9.82221519350301E-02 
731	 9.70052117919128E-02 
732	 9.58765158598091E-02 
733	 0.094603033134817 
734	 9.32542484817039E-02 
735	 9.20650966080264E-02 
736	 9.14484225101486E-02 
737	 9.10394656993042E-02 
738	 0.090678744088299 
739	 9.03491485629594E-02 
740	 9.02623563217676E-02 
741	 9.03359801359586E-02 
742	 0.090390605843666 
743	 9.02362801473838E-02 
744	 8.99726369240407E-02 
745	 8.99280814395364E-02 
746	 9.01177249723939E-02 
747	 9.01178910947481E-02 
748	 9.00729167481549E-02 
749	 0.089960131511767 
750	 8.97982682484505E-02 
751	 8.98606622355935E-02 
752	 8.97691321306984E-02 
753	 8.95819399848565E-02 
754	 8.95811543072012E-02 
755	 8.97168579855239E-02 
756	 8.97273938054819E-02 
757	 8.94478029383296E-02 
758	 8.86977382563069E-02 
759	 8.77885527500815E-02 
760	 8.71354265476463E-02 
761	 8.72269153135822E-02 
762	 8.75823317851109E-02 
763	 8.78998572356212E-02 
764	 8.83532949699456E-02 
765	 8.90975263550571E-02 
766	 8.94420353129895E-02 
767	 8.97251332906875E-02 
768	 9.00967889197223E-02 
769	 9.04975866776106E-02 
770	 0.090458974609751 
771	 9.04811112500737E-02 
772	 9.08864804374345E-02 
773	 9.09580526835502E-02 
774	 9.11429639558423E-02 
775	 9.13581327472748E-02 
776	 9.13881816589978E-02 
777	 9.16356927027802E-02 
778	 9.20106624842006E-02 
779	 9.23455673906102E-02 
780	 9.24633944323275E-02 
781	 9.27624106246918E-02 
782	 9.30049542170013E-02 
783	 9.30979151923801E-02 
784	 9.35733441878168E-02 
785	 9.37915665956369E-02 
786	 9.38164379836523E-02 
787	 0.093933613651335 
788	 9.40703482203792E-02 
789	 9.43718807183532E-02 
790	 9.48349028384294E-02 
791	 9.53512399184725E-02 
792	 9.62079503614182E-02 
793	 9.66208123499404E-02 
794	 9.64358743624096E-02 
795	 9.67101296980804E-02 
796	 9.70482886154832E-02 
797	 0.097352040924561 
798	 9.76424061643692E-02 
799	 0.098102638640879 
800	 9.82079418310699E-02 
801	 9.82013077656427E-02 
802	 9.86473803044903E-02 
803	 9.88517180170937E-02 
804	 9.91791053505507E-02 
805	 9.95935357617984E-02 
806	 9.95608561507057E-02 
807	 9.93160775626229E-02 
808	 9.89401301753684E-02 
809	 9.85278702246841E-02 
810	 9.83032445721008E-02 
811	 9.76159277294994E-02 
812	 9.66222219317786E-02 
813	 9.58453566195963E-02 
814	 9.52999578381156E-02 
815	 9.47238051713089E-02 
816	 9.41656502504998E-02 
817	 0.093906476059964 
818	 9.38115379814714E-02 
819	 9.38700884310364E-02 
820	 9.37158472872757E-02 
821	 9.24770902612553E-02 
822	 9.14021043203781E-02 
823	 9.03805177680311E-02 
824	 8.91587328595283E-02 
825	 0.087942829069441 
826	 8.64500621113023E-02 
827	 8.50070959645333E-02 
828	 8.40512971969191E-02 
829	 8.24998729033132E-02 
830	 8.08197584510876E-02 
831	 7.95908689964543E-02 
832	 0.079281949916268 
833	 7.89125333632077E-02 
834	 7.84150800363685E-02 
835	 7.78587998039403E-02 
836	 7.73304532989654E-02 
837	 7.70488549718233E-02 
838	 7.69982530215669E-02 
839	 7.69751306676415E-02 
840	 7.64167965182969E-02 
841	 7.61954168433397E-02 
842	 7.63487397503969E-02 
843	 7.65168468153607E-02 
844	 7.62010722916044E-02 
845	 7.55599874965873E-02 
846	 7.50846948225391E-02 
847	 7.53112875324013E-02 
848	 7.52839299128356E-02 
849	 7.51140056983275E-02 
850	 7.48782458658484E-02 
851	 7.44540638505283E-02 
852	 7.37850403325084E-02 
853	 7.34548262486617E-02 
854	 7.36880759100723E-02 
855	 7.37098112796223E-02 
856	 7.33428351813151E-02 
857	 7.30593365514115E-02 
858	 7.32278567584413E-02 
859	 7.31834963704524E-02 
860	 7.29035156564823E-02 
861	 7.24750404435929E-02 
862	 0.072108685835501 
863	 7.23097923806574E-02 
864	 7.23291630888635E-02 
865	 7.19496386849079E-02 
866	 7.15717537983411E-02 
867	 7.16433430989473E-02 
868	 7.15083231570757E-02 
869	 7.10101273642479E-02 
870	 7.08210683626987E-02 
871	 7.08633632987379E-02 
872	 7.06128503072777E-02 
873	 6.99602526011127E-02 
874	 6.99548864562543E-02 
875	 6.95729506489914E-02 
876	 6.90722317372797E-02 
877	 6.88836521981113E-02 
878	 6.85057103786129E-02 
879	 6.84798466657179E-02 
880	 6.84711631457411E-02 
881	 0.067952227464135 
882	 6.79021876959219E-02 
883	 6.72642998891834E-02 
884	 6.63965693432206E-02 
885	 6.65457396608091E-02 
886	 6.62581491486624E-02 
887	 0.065917435921472 
888	 6.57469535370899E-02 
889	 6.55439630445856E-02 
890	 0.064972244920101 
891	 6.47736772287435E-02 
892	 6.50662344307111E-02 
893	 6.43697474633359E-02 
894	 6.34625800571475E-02 
895	 6.23531544073193E-02 
896	 6.11824165324177E-02 
897	 6.10480695158373E-02 
898	 6.13067638153715E-02 
899	 6.14328317443719E-02 
900	 6.12177257668158E-02 
901	 6.12398140562667E-02 
902	 6.09095751059569E-02 
903	 6.07791900376154E-02 
904	 6.12649212548576E-02 
905	 0.059827086435785 
906	 5.96561961080051E-02 
907	 6.02421744957098E-02 
908	 5.87268584116185E-02 
909	 5.86127900525216E-02 
910	 5.84701704874413E-02 
911	 5.79481542660027E-02 
912	 5.80420216083286E-02 
913	 5.87378898191294E-02 
914	 5.75855622274611E-02 
915	 5.56110871121272E-02 
916	 5.72163205206958E-02 
917	 5.67525715370526E-02 
918	 5.58466039234954E-02 
919	 5.55735678990402E-02 
920	 5.49631977919892E-02 
921	 5.52551169324187E-02 
922	 5.51218243258324E-02 
923	 5.40596205342963E-02 
924	 5.43553127971843E-02 
925	 5.53602214702268E-02 
926	 5.47569321136219E-02 
927	 5.10389084738399E-02 
928	 4.85488039891685E-02 
929	 5.12345341533868E-02 
930	 5.29766968137258E-02 
931	 4.43578219109116E-02 
932	 0.054917473533036 
933	 5.61106838835514E-02 
934	 4.73933287161484E-02 
935	 4.68607934353519E-02 
936	 0.051652776135622 
937	 5.15415049815331E-02 
938	 4.92231873567208E-02 
939	 4.89467011665409E-02 
940	 4.46140098483349E-02 
941	 4.31058787406189E-02 
942	 4.52269282704082E-02 
943	 4.80953246690734E-02 
944	 4.83721985343091E-02 
945	 4.94765450898844E-02 
946	 4.77446846640382E-02 
947	 3.95608067170031E-02 
948	 4.49505749827984E-02 
949	 5.01693133692349E-02 
950	 4.97719397879079E-02 
951	 4.62378603648797E-02 
952	 4.40108498107706E-02 
953	 4.61719996581791E-02 
954	 4.79804372643485E-02 
955	 4.30025088109594E-02 
956	 0.047416086931301 
957	 4.70444046436933E-02 
958	 4.25666703344945E-02 
959	 4.43740412725613E-02 
960	 4.56394123455675E-02 
961	 4.43027176223694E-02 
962	 4.26631109923746E-02 
963	 4.42254800289632E-02 
964	 0.043660572640969 
965	 4.50379203406571E-02 
966	 4.77587635505909E-02 
967	 0.048110395990502 
968	 4.75573770718802E-02 
969	 4.66017283406953E-02 
970	 4.68431204920514E-02 
971	 4.98639777923825E-02 
972	 4.88154115371354E-02 
973	 4.57465085138307E-02 
974	 4.44361730455046E-02 
975	 4.77118528831693E-02 
976	 4.58566555936704E-02 
977	 4.48679167830149E-02 
978	 4.68601942420381E-02 
979	 0.048648707349927 
980	 0.046987601712583 
981	 4.71525993190177E-02 
982	 4.88519820394762E-02 
983	 4.78002138480621E-02 
984	 4.97128671781356E-02 
985	 0.048709626552577 
986	 0.04522313750574 
987	 4.50351697447004E-02 
988	 4.94163439275857E-02 
989	 5.15144008686988E-02 
990	 5.01882889293414E-02 
991	 4.89442477361014E-02 
992	 4.60222131652333E-02 
993	 0.0482746323625 
994	 0.051464257733096 
995	 4.67021485560929E-02 
996	 4.78592814676216E-02 
997	 0.049825719170216 
998	 4.99890113301944E-02 
999	 4.86693126328672E-02 
1000	 4.72498128435314E-02 
1001	 0.045473872250787 
1002	 4.61453876786213E-02 
1003	 4.61173045475164E-02 
1004	 4.57200465860523E-02 
1005	 4.54159897874785E-02 
1006	 4.45501163819132E-02 
1007	 4.42885633393454E-02 
1008	 4.42113355090233E-02 
1009	 4.41889698315714E-02 
1010	 4.47727670603218E-02 
1011	 4.48224573480392E-02 
1012	 4.51671693190589E-02 
1013	 4.59346991753065E-02 
1014	 4.60274167207076E-02 
1015	 4.56179702218713E-02 
1016	 4.56231262503696E-02 
1017	 4.55311630410878E-02 
1018	 4.53113148608686E-02 
1019	 4.50077473208722E-02 
1020	 4.51443141005776E-02 
1021	 4.51989335994109E-02 
1022	 4.55907574308116E-02 
1023	 4.64211988416993E-02 
1024	 4.72939048065139E-02 
1025	 4.76540217167797E-02 
1026	 4.70933470514676E-02 
1027	 0.047002810129552 
1028	 4.66162684760198E-02 
1029	 4.66026890399456E-02 
1030	 4.70854799056892E-02 
1031	 4.70345783767322E-02 
1032	 4.65034543728735E-02 
1033	 4.64436043708189E-02 
1034	 4.61836072653057E-02 
1035	 4.63703845970162E-02 
1036	 4.78014807566165E-02 
1037	 4.80383222357736E-02 
1038	 4.75200377850774E-02 
1039	 4.72983341590102E-02 
1040	 4.74236908889995E-02 
1041	 4.70417216902695E-02 
1042	 4.71570903175736E-02 
1043	 4.82355636823604E-02 
1044	 4.83694946563902E-02 
1045	 4.78088921549943E-02 
1046	 4.77723045294244E-02 
1047	 4.78551800028382E-02 
1048	 4.78878946581161E-02 
1049	 4.79619036868864E-02 
1050	 4.81175307565288E-02 
1051	 4.82131734264485E-02 
1052	 4.84298052226815E-02 
1053	 4.90732599761215E-02 
1054	 0.049288550492283 
1055	 4.92641234293313E-02 
1056	 4.92909282678794E-02 
1057	 4.92267918405149E-02 
1058	 0.048793408746949 
1059	 4.88388872197121E-02 
1060	 4.93589535484561E-02 
1061	 4.91726991301302E-02 
1062	 4.85599082897307E-02 
1063	 4.85361486467472E-02 
1064	 4.82042175048695E-02 
1065	 4.84034896542128E-02 
1066	 4.98162569433847E-02 
1067	 5.01566871393461E-02 
1068	 5.00073225939014E-02 
1069	 4.99467834720828E-02 
1070	 4.92473627211456E-02 
1071	 0.048987877352844 
1072	 4.90408267860478E-02 
1073	 4.90890836453387E-02 
1074	 4.91608220540943E-02 
1075	 4.94784760904299E-02 
1076	 4.93986588198316E-02 
1077	 4.91441537624042E-02 
1078	 4.89270442304838E-02 
1079	 4.84182568726107E-02 
1080	 4.81556682800794E-02 
1081	 4.82167684681985E-02 
1082	 4.78892411044242E-02 
1083	 4.72141492577014E-02 
1084	 4.69899762074849E-02 
1085	 4.66745960236564E-02 
1086	 0.046508978324316 
1087	 4.67456328684762E-02 
1088	 0.04699949317493 
1089	 4.73081094484903E-02 
1090	 4.78940945730171E-02 
1091	 4.76962153156952E-02 
1092	 4.71408885749058E-02 
1093	 4.69455166599449E-02 
1094	 4.61899109896157E-02 
1095	 4.59242642665665E-02 
1096	 0.046511570763038 
1097	 4.64948398447854E-02 
1098	 4.61917594616367E-02 
1099	 4.57702192770035E-02 
1100	 4.47768294196264E-02 
1101	 4.44344719609496E-02 
1102	 4.45749518736022E-02 
1103	 4.41937295651937E-02 
1104	 4.34800707220682E-02 
1105	 4.37462107558613E-02 
1106	 4.48161195542291E-02 
1107	 4.38387263308309E-02 
1108	 4.20709982035926E-02 
1109	 0.043165113116002 
1110	 4.29126075373637E-02 
1111	 4.02228297207679E-02 
1112	 4.01327007056777E-02 
1113	 4.35001556828513E-02 
1114	 4.33878569574751E-02 
1115	 0.042790574609306 
1116	 4.12578067324638E-02 
1117	 3.26066897411248E-02 
1118	 2.98192689071191E-02 
1119	 3.30982592039478E-02 
1120	 0.034007358528339 
1121	 4.54579079143212E-02 
1122	 0.04630065452746 
1123	 3.48029049154442E-02 
1124	 2.62816518437009E-02 
1125	 2.14872123297738E-02 
1126	 3.19620389264251E-02 
1127	 4.40514208399265E-02 
1128	 4.80446390148226E-02 
1129	 5.00194947802653E-02 
1130	 4.49404466856732E-02 
1131	 4.26798817326882E-02 
1132	 4.05771849180457E-02 
1133	 4.02249988623828E-02 
1134	 4.04504791935754E-02 
1135	 3.96696703798689E-02 
1136	 3.95643001761214E-02 
1137	 3.86059836160952E-02 
1138	 3.65483867280557E-02 
1139	 3.49000570127799E-02 
1140	 3.19366429986791E-02 
1141	 3.02797574081569E-02 
1142	 3.00206821050813E-02 
1143	 3.21635634602378E-02 
1144	 3.98917174768032E-02 
1145	 4.42251914801583E-02 
1146	 4.32647753039003E-02 
1147	 0.039882057417192 
1148	 0.032134615368308 
1149	 2.89962715331243E-02 
1150	 0.029556809773573 
1151	 3.48177190966894E-02 
1152	 0.036441762197398 
1153	 3.96101386032271E-02 
1154	 3.97525962482049E-02 
1155	 3.76398779878893E-02 
1156	 0.037119759126004 
1157	 3.86154933684938E-02 
1158	 3.97312245414868E-02 
1159	 4.06252093902025E-02 
1160	 4.07466299061003E-02 
1161	 3.97397527810593E-02 
1162	 3.87341392009889E-02 
1163	 3.85627594092377E-02 
1164	 3.95867730243849E-02 
1165	 4.05694313204817E-02 
1166	 4.05198127366476E-02 
1167	 0.040129586592632 
1168	 4.03852354496566E-02 
1169	 4.12045271785474E-02 
1170	 4.13680265719541E-02 
1171	 4.14213497708067E-02 
1172	 4.17298364554953E-02 
1173	 4.17578273277344E-02 
1174	 4.11352468667883E-02 
1175	 4.09146247660911E-02 
1176	 4.12105539020737E-02 
1177	 4.13207637297642E-02 
1178	 4.18238457597236E-02 
1179	 4.25266129171003E-02 
1180	 4.26146488673253E-02 
1181	 4.27677406354706E-02 
1182	 4.27160429032191E-02 
1183	 4.23675009277972E-02 
1184	 4.25684952244671E-02 
1185	 4.28226347416507E-02 
1186	 4.24651519518004E-02 
1187	 4.23196309184444E-02 
1188	 4.28782665719859E-02 
1189	 4.28577307776568E-02 
1190	 4.25647400030691E-02 
1191	 4.29789984153194E-02 
1192	 4.29166600742074E-02 
1193	 4.24849072845389E-02 
1194	 4.19342361104247E-02 
1195	 4.22019254561388E-02 
1196	 4.22453262785968E-02 
1197	 4.19420708863738E-02 
1198	 4.21999410118455E-02 
1199	 4.23889478310225E-02 
1200	 4.21121657015949E-02 
1201	 4.25070129051124E-02 
1202	 4.30138581763089E-02 
1203	 4.28269585884365E-02 
1204	 4.26549812145047E-02 
1205	 4.24530599224179E-02 
1206	 4.22716752796616E-02 
1207	 4.26068414125695E-02 
1208	 4.31826852042482E-02 
1209	 4.32083003975402E-02 
1210	 4.27349752682983E-02 
1211	 4.26587589863848E-02 
1212	 4.32678357060297E-02 
1213	 4.33822789169937E-02 
1214	 0.043232687556346 
1215	 4.31216427600424E-02 
1216	 0.043450003023321 
1217	 4.32622562703072E-02 
1218	 4.28939096865813E-02 
1219	 4.29706335028332E-02 
1220	 4.30340209117587E-02 
1221	 4.31061390103393E-02 
1222	 4.32653321122705E-02 
1223	 4.35341295108976E-02 
1224	 4.37781611910003E-02 
1225	 4.32718182587784E-02 
1226	 4.28446065417526E-02 
1227	 4.36041012922876E-02 
1228	 4.41872925479523E-02 
1229	 4.40129284866618E-02 
1230	 0.043858836774104 
1231	 4.37674390458827E-02 
1232	 4.37124623879959E-02 
1233	 4.37658827054453E-02 
1234	 4.38927094954813E-02 
1235	 4.39724534229719E-02 
1236	 4.37598766664625E-02 
1237	 4.37619828899262E-02 
1238	 4.39532284196773E-02 
1239	 4.40619137528188E-02 
1240	 4.38338181828546E-02 
1241	 4.36955352219808E-02 
1242	 4.37709143875166E-02 
1243	 4.38686075280567E-02 
1244	 0.044246273486352 
1245	 4.46132625063689E-02 
1246	 4.43805035695974E-02 
1247	 4.39845714425406E-02 
1248	 0.043843909833006 
1249	 4.36908653881846E-02 
1250	 4.34273125191254E-02 
1251	 4.35427490345537E-02 
1252	 4.37667985875921E-02 
1253	 4.37632496445619E-02 
1254	 4.40781395727485E-02 
1255	 0.044182914257727 
1256	 4.41941863682847E-02 
1257	 4.42281626539757E-02 
1258	 4.41277676239865E-02 
1259	 4.35387117979576E-02 
1260	 4.35509664254956E-02 
1261	 4.39002049077891E-02 
1262	 4.37641623200012E-02 
1263	 4.34507376436978E-02 
1264	 0.043917634295466 
1265	 4.40396063279522E-02 
1266	 4.37202104225218E-02 
1267	 4.36058874858751E-02 
1268	 4.35582745097537E-02 
1269	 4.34629215646496E-02 
1270	 4.32325438102984E-02 
1271	 4.33010932548304E-02 
1272	 0.043623386436963 
1273	 4.32045179804155E-02 
1274	 4.26879738232571E-02 
1275	 4.29275595502372E-02 
1276	 4.29700264387189E-02 
1277	 4.27615531403401E-02 
1278	 4.31540270723046E-02 
1279	 4.37142141213137E-02 
1280	 4.36296732669257E-02 
1281	 4.36066037768439E-02 
1282	 4.37944481456993E-02 
1283	 4.38192790942862E-02 
1284	 4.34077989432472E-02 
1285	 4.32021184340223E-02 
1286	 4.30860278789935E-02 
1287	 4.29121117281509E-02 
1288	 4.25920425208886E-02 
1289	 4.25481264825117E-02 
1290	 4.26625422992038E-02 
1291	 4.29750932310557E-02 
1292	 4.32063063384078E-02 
1293	 4.29273859081539E-02 
1294	 4.30144410777205E-02 
1295	 4.34631192671168E-02 
1296	 4.33976019686961E-02 
1297	 4.34702011436797E-02 
1298	 4.37432498570887E-02 
1299	 4.32772159900397E-02 
1300	 4.28164950708845E-02 
1301	 4.29237869183669E-02 
1302	 4.25435397830793E-02 
1303	 0.041665247543541 
1304	 4.17012365222505E-02 
1305	 4.22888687870187E-02 
1306	 4.18699126688328E-02 
1307	 4.08972042027169E-02 
1308	 4.08308988836914E-02 
1309	 4.06060709292247E-02 
1310	 4.02661477689191E-02 
1311	 4.07888589383903E-02 
1312	 4.11133331306326E-02 
1313	 4.07971548232037E-02 
1314	 4.02973849117701E-02 
1315	 4.01135325755844E-02 
1316	 4.03325669828733E-02 
1317	 4.00344904233662E-02 
1318	 0.039697216547512 
1319	 4.01523833087171E-02 
1320	 4.04652333538545E-02 
1321	 4.03912781118543E-02 
1322	 4.03218778426057E-02 
1323	 3.94295379992928E-02 
1324	 3.90670476721346E-02 
1325	 4.03354484834615E-02 
1326	 3.96686766799135E-02 
1327	 3.82567965709744E-02 
1328	 3.91001440498813E-02 
1329	 3.88256849323729E-02 
1330	 3.73082532063742E-02 
1331	 0.037216259635312 
1332	 3.78256545626648E-02 
1333	 0.038165629412388 
1334	 3.83147539013218E-02 
1335	 3.85847310553556E-02 
1336	 4.12412281116519E-02 
1337	 4.12877525850501E-02 
1338	 3.87149319836867E-02 
1339	 3.81431856755381E-02 
1340	 3.75300262157232E-02 
1341	 3.78953804984488E-02 
1342	 3.89013401869769E-02 
1343	 4.01478152910858E-02 
1344	 4.37685809216505E-02 
1345	 4.72037913233139E-02 
1346	 5.30894152470948E-02 
1347	 5.87762064945394E-02 
1348	 6.67253765547392E-02 
1349	 7.25936374751336E-02 
1350	 7.12009817866609E-02 
1351	 6.97108215914063E-02 
1352	 0.040099058258501 
1353	 2.78462544007956E-02 
1354	 5.90588880679257E-02 
1355	 8.60474501464149E-02 
1356	 8.13665377270515E-03 
1357	 3.74016207322409E-02 
1358	 0.242719491138604 
1359	 0.314422346946506 
1360	 0.258815107978221 
1361	 0.340938182026198 
1362	 0.505401355425461 
1363	 0.337019718944466 
1364	 0.109864860938667 
1365	 0.245510008906872 
1366	 0.771773472454021 
1367	 0.502851549452867 
1368	 0.216343076218728 
1369	 0.2793823935949 
1370	 0.666203896260041 
1371	 0.509343822243864 
1372	 0.311659290488165 
1373	 0.746787918363288 
1374	 1.0482921174742 
1375	 0.585662605766581 
1376	 0.243304721458005 
1377	 0.333828892762736 
1378	 0.370272690401002 
1379	-9.37414194125024E-02 
1380	-0.295895675890937 
1381	 0.303905274335994 
1382	 0.569031793079521 
1383	 0.370934651867839 
1384	 0.359960915666463 
1385	 0.111509756133852 
1386	 0.281512383698999 
1387	 0.54327511109517 
1388	 0.86992669008708 
1389	 2.45005723680453 
1390	 2.04465517534569 
1391	 1.76806937246717 
1392	 3.83070265832195E-02 
1393	 0.467718806448411 
1394	-1.6214687414752 
1395	-0.808280162489001 
1396	-0.284474769819003 
1397	 1.10053222008779 
1398	-1.90030108270624E-02 
1399	 0.26856267384804 
1400	 1.37653414506 
1401	 0.728238695212251 
1402	 0.549821412824218 
1403	 1.78783777062034 
1404	 0.502831029522341 
1405	 0.288836050661025 
1406	 0.297091409230692 
1407	 0.343090461603566 
1408	 0.424015907675366 
1409	 0.502046394693414 
1410	 0.463523079213728 
1411	 0.548520419243243 
1412	 1.32253361061039 
1413	 1.23130804325025 
1414	 0.932114475579554 
1415	 0.625368298450024 
1416	 0.2227109725102 
1417	 0.129851284978301 
1418	 8.38172715539562E-02 
1419	-4.98418694942376E-03 
1420	-0.166150761802712 
1421	-7.31917984007492E-02 
1422	 0.228367689509493 
1423	 0.208451603003257 
1424	 9.39890494931124E-02 
1425	 0.131094345173633 
1426	 0.109660203860352 
1427	 7.05307515317625E-02 
1428	 0.132410732263744 
1429	 0.163844621164059 
1430	 0.119465499108654 
1431	 8.25075698400793E-02 
1432	 7.11109766949075E-02 
1433	 7.02281156124977E-02 
1434	 3.65950914713374E-02 
1435	 0.025155801354629 
1436	 5.15872938701957E-02 
1437	 0.101696973620271 
1438	 8.90671031223013E-02 
1439	 4.81293532597165E-02 
1440	 3.27293146981721E-02 
1441	 1.53867724145604E-02 
1442	 6.01801057119793E-03 
1443	 1.12525190331959E-02 
1444	 4.18980865358458E-02 
1445	 5.96797152270446E-02 
1446	 5.17402144723815E-02 
1447	 4.89285312585754E-02 
1448	 3.92279579629162E-02 
1449	 3.73536623321343E-02 
1450	 4.04527200707866E-02 
1451	 3.84922810534393E-02 
1452	 0.034109274263688 
1453	 2.95867045940736E-02 
1454	 3.06012617811023E-02 
1455	 3.91319555695811E-02 
1456	 3.82984684450783E-02 
1457	 3.47010478557593E-02 
1458	 3.48781384659532E-02 
1459	 3.35262976573383E-02 
1460	 3.27176618433799E-02 
1461	 3.43916824735705E-02 
1462	 3.50643448719886E-02 
1463	 3.47068994336975E-02 
1464	 3.34246350109893E-02 
1465	 2.95878120767147E-02 
1466	 3.32667400791892E-02 
1467	 4.25439488985948E-02 
1468	 4.34350176430374E-02 
1469	 4.59204521189832E-02 
1470	 4.89265449737436E-02 
1471	 4.84043451859102E-02 
1472	 4.02248715408549E-02 
1473	 0.026468714157126 
1474	 2.76371534752208E-02 
1475	 2.83276201079754E-02 
1476	 2.64984566526215E-02 
1477	 3.67173850333594E-02 
1478	 4.02751173565265E-02 
1479	 3.19593256783089E-02 
1480	 3.23505340987905E-02 
1481	 4.15046357340969E-02 
1482	 4.25017927277262E-02 
1483	 3.85637738796096E-02 
1484	 3.93291122995234E-02 
1485	 4.23175587478058E-02 
1486	 4.06674054572925E-02 
1487	 3.73849269113519E-02 
1488	 3.72183253352655E-02 
1489	 3.62545187627233E-02 
1490	 0.035507072758519 
1491	 3.68303296202716E-02 
1492	 3.74354452624227E-02 
1493	 3.68198223008597E-02 
1494	 3.64816438834903E-02 
1495	 3.69376092927054E-02 
1496	 3.72281721888829E-02 
1497	 3.66009630693708E-02 
1498	 3.65322455749044E-02 
1499	 0.037638493854303 
1500	 3.77290910600659E-02 
1501	 3.66320963093519E-02 
1502	 3.68902691544344E-02 
1503	 3.78959242598792E-02 
1504	 3.80949082910829E-02 
1505	 3.82430625922706E-02 
1506	 3.88604513819419E-02 
1507	 3.92260016953896E-02 
1508	 3.91691752552534E-02 
1509	 3.88418880376926E-02 
1510	 3.91207805619683E-02 
1511	 3.91430659242373E-02 
1512	 3.86000130954308E-02 
1513	 3.90268980959087E-02 
1514	 3.94908847208694E-02 
1515	 3.95783590173208E-02 
1516	 3.99014912807676E-02 
1517	 3.97473705183568E-02 
1518	 3.96148868092623E-02 
1519	 3.97850429114003E-02 
1520	 3.97522876909374E-02 
1521	 3.97935960380565E-02 
1522	 0.040191409410479 
1523	 3.99255618918406E-02 
1524	 3.93698598275029E-02 
1525	 0.040089796792372 
1526	 4.05074997523552E-02 
1527	 0.040227027206307 
1528	 4.07293760169261E-02 
1529	 4.09684907914471E-02 
1530	 0.040409491244546 
1531	 4.02501925665281E-02 
1532	 4.05017388015772E-02 
1533	 4.06416815667666E-02 
1534	 4.09755944059825E-02 
1535	 4.09286116066502E-02 
1536	 4.06680626416415E-02 
1537	 4.12256542410272E-02 
1538	 4.14992049094583E-02 
1539	 4.13845590553235E-02 
1540	 4.17424218865556E-02 
1541	 0.041897338249191 
1542	 4.12266839415232E-02 
1543	 4.02226178067858E-02 
1544	 0.040440586434523 
1545	 4.12422384742018E-02 
1546	 0.040989617063736 
1547	 4.11950012467875E-02 
1548	 0.04200919944924 
1549	 0.041706792618849 
1550	 4.13892426999709E-02 
1551	 4.18597585250294E-02 
1552	 4.21509950142052E-02 
1553	 4.20216612958032E-02 
1554	 4.19646028199158E-02 
1555	 4.22112449429642E-02 
1556	 4.19843019144426E-02 
1557	 4.14245891036442E-02 
1558	 4.12431031356222E-02 
1559	 4.16183434679254E-02 
1560	 4.22474615801184E-02 
1561	 4.23231419011689E-02 
1562	 4.24095073976063E-02 
1563	 4.25110824063849E-02 
1564	 4.22652190205438E-02 
1565	 4.23561912818217E-02 
1566	 4.25032361212412E-02 
1567	 4.22212163072533E-02 
1568	 4.18726512401532E-02 
1569	 4.22251425974964E-02 
1570	 4.28414052922771E-02 
1571	 4.28685277895369E-02 
1572	 4.30332308426686E-02 
1573	 4.32791546799268E-02 
1574	 4.28191449685343E-02 
1575	 4.25941414124378E-02 
1576	 4.27866935817731E-02 
1577	 4.26396645966024E-02 
1578	 4.30369878672319E-02 
1579	 4.33583753004991E-02 
1580	 4.26591820547817E-02 
1581	 0.042360180053258 
1582	 4.24373126109149E-02 
1583	 4.24025974177828E-02 
1584	 4.26343465255506E-02 
1585	 4.29902341422632E-02 
1586	 4.32704696840042E-02 
1587	 4.33310936375301E-02 
1588	 4.33164155759179E-02 
1589	 4.29665424510846E-02 
1590	 4.23416327021265E-02 
1591	 4.24185730320158E-02 
1592	 4.27511070667865E-02 
1593	 4.26736284055138E-02 
1594	 4.24161244039929E-02 
1595	 4.22798828877903E-02 
1596	 4.26187082242487E-02 
1597	 4.24691345224563E-02 
1598	 4.19795994451348E-02 
1599	 4.25274554375422E-02 
1600	 4.28555687266145E-02 
1601	 4.23350860243363E-02 
1602	 4.25487503578175E-02 
1603	 4.28391022067251E-02 
1604	 4.23985333855838E-02 
1605	 4.24719374391566E-02 
1606	 4.29589696909457E-02 
1607	 4.30443950818666E-02 
1608	 4.25911251466434E-02 
1609	 4.26130008494323E-02 
1610	 4.34008499501426E-02 
1611	 0.043068117947928 
1612	 4.21018046032829E-02 
1613	 4.24248727060355E-02 
1614	 0.042952131473497 
1615	 4.24144928021661E-02 
1616	 4.27204053009523E-02 
1617	 4.36898686213445E-02 
1618	 4.33932883415636E-02 
1619	 4.30085756749961E-02 
1620	 4.26840262201799E-02 
1621	 4.23184930061068E-02 
1622	 4.22310426842915E-02 
1623	 4.21498852866535E-02 
1624	 4.27939271945704E-02 
1625	 4.29407376547738E-02 
1626	 4.22012743948016E-02 
1627	 4.24836519830402E-02 
1628	 4.30336681418186E-02 
1629	 4.27788994203121E-02 
1630	 0.042733284371356 
1631	 4.29447603237811E-02 
1632	 4.28786591313604E-02 
1633	 0.042558181020177 
1634	 4.22237926410496E-02 
1635	 0.042194952395489 
1636	 4.20439634138028E-02 
1637	 4.19965251912464E-02 
1638	 4.23627318100505E-02 
1639	 4.23288409951483E-02 
1640	 4.23964789273453E-02 
1641	 4.29256034204628E-02 
1642	 4.30911387860795E-02 
1643	 4.27911697257199E-02 
1644	 4.26747352064897E-02 
1645	 4.28606804671212E-02 
1646	 4.29913604816155E-02 
1647	 4.34558500772304E-02 
1648	 4.37969026329234E-02 
1649	 4.36316819501591E-02 
1650	 4.38069919123793E-02 
1651	 4.37419704610655E-02 
1652	 4.33985425867137E-02 
1653	 4.41769944529557E-02 
1654	 4.38991669814678E-02 
1655	 4.28946819056819E-02 
1656	 0.042846558778285 
1657	 0.04276548207056 
1658	 4.26150657921714E-02 
1659	 4.31093696593822E-02 
1660	 4.34984355637216E-02 
1661	 4.35898655877795E-02 
1662	 4.31796292287715E-02 
1663	 4.26203089945157E-02 
1664	 4.29159346907674E-02 
1665	 4.32104032212423E-02 
1666	 0.04334394129548 
1667	 4.42052597078407E-02 
1668	 4.46921595719198E-02 
1669	 0.044217435352942 
1670	 4.38837796508223E-02 
1671	 4.42322542028088E-02 
1672	 4.40781900278142E-02 
1673	 4.37680946570536E-02 
1674	 4.41563054136688E-02 
1675	 4.40454558074608E-02 
1676	 4.27601794586915E-02 
1677	 4.20738801866656E-02 
1678	 4.24994339386504E-02 
1679	 4.25802386203205E-02 
1680	 4.25406528746262E-02 
1681	 4.32733195517165E-02 
1682	 4.32938202673594E-02 
1683	 4.31627391095437E-02 
1684	 4.39294771938045E-02 
1685	 4.31536367375478E-02 
1686	 4.23861488052535E-02 
1687	 4.29239691810835E-02 
1688	 4.25606421845592E-02 
1689	 4.26808590881131E-02 
1690	 4.35511658095477E-02 
1691	 4.32740766338245E-02 
1692	 4.21179271631856E-02 
1693	 4.18513755157443E-02 
1694	 4.25806448714791E-02 
1695	 4.21573393119746E-02 
1696	 4.18137011273413E-02 
1697	 4.29687596040362E-02 
1698	 4.25619776596763E-02 
1699	 0.041904874052064 
1700	 4.37866137485723E-02 
1701	 4.52092291780577E-02 
1702	 4.45304812398212E-02 
1703	 4.33732865642652E-02 
1704	 4.28969028941683E-02 
1705	 4.27563588485913E-02 
1706	 0.043405108111867 
1707	 4.50814051190724E-02 
1708	 4.50873539676432E-02 
1709	 4.29324523140618E-02 
1710	 4.22217965863761E-02 
1711	 4.39309092158559E-02 
1712	 4.47132760058752E-02 
1713	 4.41189174002517E-02 
1714	 4.42106675190838E-02 
1715	 4.20346189663351E-02 
1716	 4.18025318727961E-02 
1717	 4.27055068699322E-02 
1718	 4.27145724527358E-02 
1719	 4.25305096455711E-02 
1720	 4.32864310077092E-02 
1721	 4.36766940080233E-02 
1722	 4.30096141343647E-02 
1723	 4.30717080335656E-02 
1724	 4.38277938639723E-02 
1725	 4.43927531534531E-02 
1726	 4.43952940940559E-02 
1727	 4.32531111890505E-02 
1728	 4.18716387676608E-02 
1729	 4.15728655738639E-02 
1730	 4.19442095966121E-02 
1731	 4.23290935479329E-02 
1732	 4.29630094720294E-02 
1733	 4.31554595010397E-02 
1734	 4.21724803121086E-02 
1735	 4.13112394719759E-02 
1736	 4.13546304005509E-02 
1737	 4.16422335937403E-02 
1738	 4.27349672433134E-02 
1739	 4.37519664476426E-02 
1740	 4.24355772399076E-02 
1741	 4.09673678907417E-02 
1742	 4.09791164747377E-02 
1743	 4.12595592978304E-02 
1744	 4.20454298517955E-02 
1745	 4.23595445057558E-02 
1746	 4.29663785517241E-02 
1747	 4.26016148047186E-02 
1748	 4.26163138455523E-02 
1749	 4.27242438257702E-02 
1750	 3.99318123148873E-02 
1751	 3.96335396915935E-02 
1752	 4.27892797922717E-02 
1753	 0.042950285671238 
1754	 4.19315326928157E-02 
1755	 4.25588612790394E-02 
1756	 4.33850503989541E-02 
1757	 4.18906059553293E-02 
1758	 4.11919712844593E-02 
1759	 0.03892072189165 
1760	 3.62240257385788E-02 
1761	 3.84104984658752E-02 
1762	 0.040120055637587 
1763	 3.95924174261647E-02 
1764	 4.08819618116292E-02 
1765	 4.08395997657959E-02 
1766	 0.039819424544461 
1767	 4.20636925732207E-02 
1768	 4.37386232770272E-02 
1769	 4.12618742003416E-02 
1770	 3.93598334438626E-02 
1771	 3.81171520809772E-02 
1772	 3.61094999540232E-02 
1773	 3.77146045829147E-02 
1774	 3.95239914821456E-02 
1775	 3.91603013468026E-02 
1776	 0.039324295169924 
1777	 3.81647706762025E-02 
1778	 3.90300752649814E-02 
1779	 4.36809485868177E-02 
1780	 4.19821041335903E-02 
1781	 3.50905095409619E-02 
1782	 3.53834170384111E-02 
1783	 3.53897167044282E-02 
1784	 0.035719507196919 
1785	 0.044858379167356 
1786	 4.61097087056021E-02 
1787	 3.90989097594674E-02 
1788	 3.79064226581474E-02 
1789	 3.80230568834602E-02 
1790	 3.60677866314775E-02 
1791	 3.39952550694771E-02 
1792	 3.35897911190409E-02 
1793	 3.17817935494494E-02 
1794	 2.99069400310053E-02 
1795	 0.038411338027029 
1796	 4.49821162216685E-02 
1797	 5.40836849052558E-02 
1798	 7.22133358209942E-02 
1799	 7.26773656457192E-02 
1800	 4.52362961043305E-02 
1801	 4.49982575774325E-02 
1802	 7.02678513957351E-02 
1803	 8.53749269251918E-02 
1804	 0.13811938337228 
1805	 0.167795125782041 
1806	 0.150692849693859 
1807	 0.153301069225427 
1808	 0.102150859669384 
1809	 0.172639734520058 
1810	 0.301010574864726 
1811	 0.319295556649993 
1812	 0.267263994286133 
1813	 0.39593282801746 
1814	-2.02510723086072 
1815	-1.16634163826544 
1816	 176.660223421988 
1817	 1.75071498262107 
1818	 0.71290095165415 
1819	 0.511321668553917 
1820	-0.243723985697472 
1821	-1.37504572669703 
1822	-1.58794248002211 
1823	 4.3787719260134 
1824	 2.78522189085631 
1825	 0.384677984615926 
1826	 3.29311735887779E-02 
1827	-15.8468369929409 
1828	-2.3343370320298 
1829	 2.00968926500622 
1830	 1.10219600640224 
1831	 0.667001286501143 
1832	 1.50154943041297 
1833	 3.80924684614473 
1834	 4.40264284712403 
1835	 15.550851224154 
1836	-102.106317082515 
1837	 0.221677433605922 
1838	 11.0392963227571 
1839	-0.910320338192827 
1840	-0.460970787606159 
1841	-0.405464891295427 
1842	-7.66029707753029E-02 
1843	 0.148109093497924 
1844	 2.14087784202376 
1845	 11.573469473449 
1846	 5.55698851759688 
1847	 4.84623077810212 
1848	 3.24877330187413 
1849	 2.00903499663205 
1850	 1.61005896667561 
1851	 2.09103837315422 
1852	 4.261464588657 
1853	 19.7816130169489 
1854	-22.3359255688594 
1855	-4.06593251705537 
1856	-2.59748126645171 
1857	-3.22363789801925 
1858	-3.53678806852718 
1859	-4.29547893436319 
1860	-3.2767236107523 
1861	-6.10567406321062 
1862	 0.426753528799097 
1863	 0.207360157989744 
1864	-2.39078829984774 
1865	-0.894847198179238 
1866	-0.579120483605032 
1867	-0.98016086705375 
1868	-6.07832181511607 
1869	 14.1222829208153 
1870	 2.03264774143499 
1871	 2.02871351322278 
1872	 3.39639538856556 
1873	 2.16877559156297 
1874	 1.16901122262371 
1875	 0.994254427849375 
1876	 0.995030967675642 
1877	 1.22972808012628 
1878	 1.32582968901939 
1879	 2.84134563238781 
1880	 2.74555279662612 
1881	 0.766119251551459 
1882	 0.39628364987633 
1883	 0.59570270566912 
1884	 1.27517832284104 
1885	 8.90654049559291 
1886	-5.98366575473968 
1887	 7.85041538376209 
1888	 4.08497768436433 
1889	 3.2686630593023 
1890	 2.41248082305565 
1891	 1.80108887194575 
1892	 5.16139073366135 
1893	 2.48555505231609 
1894	 1.42824662225642 
1895	 0.922895179933255 
1896	 0.929530490307961 
1897	 1.16704665612401 
1898	 3.23506881939003 
1899	 4.90821106477656 
1900	 2.62736836837041 
1901	 1.2442349618548 
1902	 1.08330134425689 
1903	 0.878840203834296 
1904	 0.523782431769294 
1905	 0.38531041818937 
1906	 0.328473568813217 
1907	 0.772710355841415 
1908	 1.65476263452788 
1909	 5.71521155872088 
1910	-15.6925984101109 
1911	 5.3077466410427 
1912	 5.01691702022395 
1913	 4.53794468993557 
1914	 4.86111246926071 
1915	 3.96548416777634 
1916	 5.30345277908561 
1917	 1.86903628809341 
1918	 1.36937667643579 
1919	 0.580005072111615 
1920	 0.634406262205978 
1921	 0.820731371215562 
1922	 0.683514038649914 
1923	 0.665440672494813 
1924	 0.618056572648935 
1925	 0.990724828356927 
1926	 1.53062849748615 
1927	 3.53877346277991 
1928	-7.34485632557551 
1929	 7.34145834423087 
1930	 0.707340252727101 
1931	 0.139799681892871 
1932	 0.311027733967364 
1933	 0.484238321362584 
1934	 1.50398658673636 
1935	 8.67357389522024 
1936	 3.1669540066563 
1937	 0.508454769391911 
1938	 1.39146338931098 
1939	 1.6883401782514 
1940	-25.2163102808699 
1941	 0.29072580998706 
1942	 2.7022732064241 
1943	-5.57516574318378 
1944	-2.62937850394837 
1945	-2.06371375881951 
1946	-1.10033973698793 
1947	-0.975576524996987 
1948	-1.02745604102437 
1949	-0.716405340948989 
1950	-0.435341741439246 
1951	-0.414351754291806 
1952	-0.344194903714644 
1953	-0.282177928599694 
1954	-0.20975993781441 
1955	-0.237954777095697 
1956	-0.221217596884633 
1957	-0.170197123815435 
1958	-0.161060021310118 
1959	-0.121337353086235 
1960	-2.63724705937207E-02 
1961	 4.55782643561353E-02 
1962	 5.01560825350487E-02 
1963	 2.64388275093143E-02 
1964	-0.002394623531016 
1965	-2.84650997116464E-02 
1966	-3.53137454058519E-02 
1967	-3.57998811499447E-02 
1968	-2.14032901814466E-02 
1969	-1.34719385888935E-02 
1970	-1.06360279105184E-02 
1971	-1.28199438070343E-02 
1972	-1.43611151860216E-02 
1973	-0.013290746257423 
1974	-0.022789023429005 
1975	-2.48427842597552E-02 
1976	-1.86495981233069E-02 
1977	-1.04069391681016E-02 
1978	 5.42072667657435E-03 
1979	 1.06763159045652E-02 
1980	 1.45964082562397E-02 
1981	 1.06426488172366E-02 
1982	 7.4022700039035E-03 
1983	 5.53627192038029E-03 
1984	 9.65899983156231E-03 
1985	 1.15632057218244E-02 
1986	 1.10715660342941E-02 
1987	 1.10279089951804E-02 
1988	 9.2205128216531E-03 
1989	 1.01770189501786E-02 
1990	 1.36138930898291E-02 
1991	 1.90292359068308E-02 
1992	 2.36603583733937E-02 
1993	 0.027993733992568 
1994	 3.01129167695569E-02 
1995	 0.030730787709023 
1996	 2.32625783666167E-02 
1997	 2.15922598679009E-02 
1998	 2.30231185564589E-02 
1999	 1.72526463060238E-02 
2000	 0.018275513376195 
2001	 1.38855644996022E-02 
2002	-4.5550071650333E-04 
2003	-1.21900859571795E-02 
2004	-2.13194227368758E-02 
2005	-1.73307121601954E-02 
2006	-5.86168855228036E-03 
2007	 1.31569243333057E-02 
2008	 2.15048617963127E-02 
2009	 2.39671583587529E-02 
2010	 0.013795699645381 
2011	 1.53844737915293E-02 
2012	 0.019055627434722 
2013	 1.54520130977871E-02 
2014	 2.01069878720304E-02 
2015	 8.5669914514601E-03 
2016	-1.29294285521656E-02 
2017	-1.65402211037476E-02 
2018	-1.45576753124528E-02 
2019	-9.69789849155074E-03 
2020	 2.60818733871812E-03 
2021	 1.04773841658281E-02 
2022	 9.25364970635861E-03 
2023	 1.33496316466388E-02 
2024	 1.67737123888182E-02 
2025	 1.80485978730434E-02 
2026	 1.87868150168796E-02 
2027	 2.22388523194924E-02 
2028	 2.29120090870184E-02 
2029	 1.78078377031839E-02 
2030	 1.80716021116082E-02 
2031	 2.23381233067388E-02 
2032	 2.30966760137839E-02 
2033	 2.43494397569631E-02 
2034	 2.63783314861844E-02 
2035	 2.83029225240971E-02 
2036	 2.81606781873899E-02 
2037	 2.64472303351319E-02 
2038	 2.72815421255906E-02 
2039	 0.027963462833935 
2040	 2.84947914008533E-02 
2041	 2.77383023496576E-02 
2042	 2.68145944763194E-02 
2043	 2.63809006942735E-02 
2044	 2.43470570614415E-02 
2045	 2.14837407067314E-02 
2046	 2.44860935020696E-02 
2047	 2.98214999331832E-02 
2048	 3.12543883812501E-02 
2049	 3.16130609861708E-02 
2050	 3.42381498483078E-02 
2051	 3.72086474984027E-02 
2052	 3.56550956605255E-02 
2053	 3.32604981003616E-02 
2054	 0.032866062242653 
2055	 2.94463803617336E-02 
2056	 2.54611542881325E-02 
2057	 2.17704971444242E-02 
2058	 2.26832200845571E-02 
2059	 2.55313638172078E-02 
2060	 2.36414721680514E-02 
2061	 2.23556042035358E-02 
2062	 2.44533176957813E-02 
2063	 2.14960546096802E-02 
2064	 1.30570927672652E-02 
2065	 1.60579332829375E-02 
2066	 2.40414755349795E-02 
2067	 0.022106123711705 
2068	 2.43899546183598E-02 
2069	 2.77169286038711E-02 
2070	 2.40465631721145E-02 
2071	 2.29519652204442E-02 
2072	 0.024719511272802 
2073	 2.62821681033299E-02 
2074	 2.69168020134387E-02 
2075	 2.76689611900217E-02 
2076	 3.17667304682591E-02 
2077	 3.17947305431881E-02 
2078	 0.02761994527844 
2079	 2.69746826982829E-02 
2080	 2.72186201964538E-02 
2081	 2.58206618375106E-02 
2082	 2.62912918159168E-02 
2083	 2.89144590828306E-02 
2084	 2.90399165021715E-02 
2085	 0.027296095398525 
2086	 0.02599691097273 
2087	 2.51223764134959E-02 
2088	 0.026247335510866 
2089	 2.73128355651128E-02 
2090	 2.86886240794833E-02 
2091	 2.91563679103581E-02 
2092	 2.92170808267009E-02 
2093	 2.80127131201915E-02 
2094	 2.79458914337371E-02 
2095	 2.81223464122263E-02 
2096	 2.90399892745868E-02 
2097	 3.05464054318216E-02 
2098	 3.12102398588824E-02 
2099	 3.26730410663442E-02 
2100	 3.23687184409229E-02 
2101	 3.18520891624631E-02 
2102	 3.16522897049356E-02 
2103	 3.15599490782858E-02 
2104	 3.15252660491551E-02 
2105	 3.02799727475301E-02 
2106	 3.08307013001813E-02 
2107	 3.15991098973286E-02 
2108	 3.10996096205049E-02 
2109	 3.15062419254701E-02 
2110	 2.99383408560878E-02 
2111	 2.77924586548617E-02 
2112	 2.90388032627525E-02 
2113	 2.98551231806346E-02 
2114	 3.20527398833053E-02 
2115	 3.29407794392629E-02 
2116	 3.30196470122969E-02 
2117	 3.32738496070175E-02 
2118	 0.033442013233003 
2119	 3.37254620140769E-02 
2120	 3.44994582315059E-02 
2121	 3.52891225826984E-02 
2122	 3.49699675091901E-02 
2123	 3.17115339105668E-02 
2124	 2.90070728739679E-02 
2125	 2.91339764830404E-02 
2126	 2.98413510259228E-02 
2127	 3.10995220176197E-02 
2128	 3.08230296383709E-02 
2129	 2.98838147210806E-02 
2130	 3.05809813336477E-02 
2131	 3.00696237045122E-02 
2132	 2.99224852196354E-02 
2133	 3.12387578898227E-02 
2134	 3.18189625385392E-02 
2135	 3.10190803746704E-02 
2136	 3.12073487251363E-02 
2137	 3.22443438715729E-02 
2138	 3.32532026599907E-02 
2139	 3.54890217433339E-02 
2140	 3.58335872338523E-02 
2141	 0.035132343295062 
2142	 0.03415657369215 
2143	 3.19360095960089E-02 
2144	 2.90162411924517E-02 
2145	 0.02620811422028 
2146	 2.70954768022614E-02 
2147	 2.71158941497684E-02 
2148	 2.49432401198998E-02 
2149	 2.63423381896304E-02 
2150	 2.74759617587231E-02 
2151	 2.82278121793643E-02 
2152	 2.89038488508443E-02 
2153	 2.70692297121298E-02 
2154	 2.56049942394911E-02 
2155	 2.57024844721866E-02 
2156	 0.028685860256084 
2157	 2.92067188268981E-02 
2158	 2.98928227087055E-02 
2159	 3.02639227211388E-02 
2160	 2.80984190780153E-02 
2161	 2.82491283678627E-02 
2162	 3.09783759787792E-02 
2163	 3.18793615871577E-02 
2164	 3.23588620008049E-02 
2165	 3.31941807063635E-02 
2166	 3.42327066205623E-02 
2167	 3.40776219239204E-02 
2168	 3.12476166822418E-02 
2169	 3.20481345240963E-02 
2170	 3.37148079472148E-02 
2171	 3.71148188481696E-02 
2172	 4.01323975866767E-02 
2173	 4.32193139270378E-02 
2174	 4.07771893899804E-02 
2175	 3.61071483663241E-02 
2176	 0.033843474555368 
2177	 3.04542284685409E-02 
2178	 2.64238510432084E-02 
2179	 2.37090782666483E-02 
2180	 2.43526320470938E-02 
2181	 0.024744905378231 
2182	 2.53694810706768E-02 
2183	 2.77484652232419E-02 
2184	 2.93412586318119E-02 
2185	 3.13694481361378E-02 
2186	 3.07516074694302E-02 
2187	 2.82644758011406E-02 
2188	 2.67027382867004E-02 
2189	 0.023035933122991 
2190	 2.22776292504744E-02 
2191	 2.42283832688619E-02 
2192	 2.70140160427604E-02 
2193	 3.07909680395068E-02 
2194	 3.22309242968588E-02 
2195	 3.59871857255876E-02 
2196	 3.59617280893012E-02 
2197	 2.95255914701528E-02 
2198	 2.89826343491448E-02 
2199	 0.029844088051061 
2200	 3.15607916935532E-02 
2201	 3.19271654823608E-02 
2202	 3.30993781066472E-02 
2203	 3.31906574611563E-02 
2204	 2.88575282737932E-02 
2205	 3.13576755386204E-02 
2206	 3.00932527306061E-02 
2207	 2.29373592017615E-02 
2208	 2.31408286176186E-02 
2209	 0.024630770538483 
2210	 0.027112754045707 
2211	 0.029488061963248 
2212	 2.96454141527857E-02 
2213	 2.64928860696545E-02 
2214	 2.68067546934977E-02 
2215	 2.77785282039666E-02 
2216	 2.52669229022147E-02 
2217	 2.71029776159663E-02 
2218	 3.18705829475376E-02 
2219	 3.09621974959916E-02 
2220	 3.24261946804058E-02 
2221	 3.09207047220275E-02 
2222	 0.019361769682437 
2223	 1.77862426161685E-02 
2224	 2.23645537501715E-02 
2225	 2.33507031015363E-02 
2226	 2.74141546463752E-02 
2227	 2.89918067498686E-02 
2228	 2.67912990765951E-02 
2229	 2.57289204754138E-02 
2230	 0.025731938398365 
2231	 2.73574023801722E-02 
2232	 2.98244969864178E-02 
2233	 2.95839005331747E-02 
2234	 2.92094161838933E-02 
2235	 2.74143112628934E-02 
2236	 2.38130776624592E-02 
2237	 2.53435973829057E-02 
2238	 2.85241617393869E-02 
2239	 3.07806597311796E-02 
2240	 3.16445687639094E-02 
2241	 2.82922810300008E-02 
2242	 2.86874328503256E-02 
2243	 2.75160998472603E-02 
2244	 2.46050521454579E-02 
2245	 2.61326096682831E-02 
2246	 2.45435865125611E-02 
2247	 2.31493628869022E-02 
2248	 2.21995103373265E-02 
2249	 1.84858372365695E-02 
2250	 1.86361872592395E-02 
2251	 1.77664912715281E-02 
2252	 1.31550722219203E-02 
2253	 1.44292046278952E-02 
2254	 1.60222583335055E-02 
2255	 1.16421662941559E-02 
2256	 1.16507066349408E-02 
2257	 1.53504263986438E-02 
2258	 1.40405037209627E-02 
2259	 1.55485199731836E-02 
2260	 1.99317736545545E-02 
2261	 2.73029525481544E-02 
2262	 0.030948765857146 
2263	 3.78295281243186E-02 
2264	 4.17132452694788E-02 
2265	 4.17722005256739E-02 
2266	 3.90775776295168E-02 
2267	 2.99652672977928E-02 
2268	 3.16680426159547E-02 
2269	 0.03986226478558 
2270	 3.99960593511812E-02 
2271	 4.57179180497949E-02 
2272	 4.39488101979243E-02 
2273	 2.56968140280959E-02 
2274	 2.17934146627604E-02 
2275	 2.55695080549368E-02 
2276	 2.77212665423603E-02 
2277	 3.52427728832031E-02 
2278	 3.36891658771176E-02 
2279	 3.02384438371065E-02 
2280	 2.72072521567462E-02 
2281	 1.67226106278172E-02 
2282	 1.09716254586442E-02 
2283	 2.31931426735327E-02 
2284	 0.02153032064713 
2285	 1.51982885774233E-02 
2286	 2.04311205213791E-02 
2287	 0.016258889253789 
2288	 9.25555981716822E-03 
2289	 1.11545295000173E-02 
2290	 1.75999728013572E-02 
2291	 2.24783892636451E-02 
2292	 2.02112686397284E-02 
2293	 2.68380389178532E-02 
2294	 3.41309307507844E-02 
2295	 2.92828179650916E-02 
2296	 3.47800303062813E-02 
2297	 3.83716543921655E-02 
2298	 3.19051873288099E-02 
2299	 2.52929087696669E-02 
2300	 1.84925000256201E-02 
2301	 1.25870621906692E-02 
2302	 4.37138420508326E-03 
2303	 6.38204782116702E-03 
2304	 6.82333112009764E-03 
2305	-1.00099696776331E-02 
2306	-1.62370079256544E-02 
2307	-1.08870759688214E-02 
2308	-9.10406637928565E-03 
2309	-4.20094069795162E-03 
2310	 5.42026256769433E-03 
2311	 1.81490641024202E-02 
2312	 1.78561628069823E-02 
2313	 7.62415501190293E-03 
2314	 1.95551673897769E-03 
2315	-1.33114077461267E-02 
2316	-2.23666225890331E-02 
2317	-8.81057291383044E-03 
2318	 9.86290883325705E-03 
2319	 2.46280564149181E-02 
2320	 2.99640582181142E-02 
2321	 0.02985642224418 
2322	 3.53907630152182E-02 
2323	 2.95934759165078E-02 
2324	 1.77192908135773E-02 
2325	 0.021134218036742 
2326	 2.01635430337989E-02 
2327	 1.27592335691402E-02 
2328	 1.67197769745364E-02 
2329	 1.78258453259868E-02 
2330	 1.52784611770095E-02 
2331	 1.03250779586328E-02 
2332	-0.010504965966266 
2333	-2.39002591989606E-02 
2334	-2.62601350843842E-02 
2335	-2.78783072280217E-02 
2336	-8.71715979731131E-03 
2337	 1.21156623383588E-02 
2338	-5.88271412058105E-03 
2339	-2.18137867092205E-02 
2340	-1.54421698936276E-02 
2341	-3.76240744177177E-02 
2342	-5.91576037392249E-02 
2343	-7.74967637633606E-02 
2344	-9.47928390165767E-02 
2345	-8.88766622707732E-02 
2346	-0.073362239479846 
2347	-2.79303830590783E-02 
2348	-2.21438656170802E-02 
2349	-4.33730776734914E-02 
2350	-4.60623763499914E-02 
2351	-8.05014927138973E-02 
2352	-0.053506360083939 
2353	-2.20134191388345E-02 
2354	-5.12304839835729E-02 
2355	-4.49888871676616E-02 
2356	-5.08025918050749E-02 
2357	-5.63849946322798E-02 
2358	-3.90870373364934E-03 
2359	 1.12870813085518E-02 
2360	-9.51872240499108E-03 
2361	-1.66254771012439E-02 
2362	-5.01307894737699E-02 
2363	-0.063700595033212 
2364	-6.53889926902976E-02 
2365	-6.72491614128858E-02 
2366	-6.84734750994751E-02 
2367	-8.26288211377674E-02 
2368	-6.00788744310128E-02 
2369	-3.97149352309509E-02 
2370	-2.03100195187919E-02 
2371	-2.73352767959686E-02 
2372	-6.59608202507841E-02 
2373	-5.99537248739799E-02 
2374	-6.84250756944929E-02 
2375	-8.93434825792336E-02 
2376	-0.111949950065772 
2377	-0.134756726193361 
2378	-0.18727901703084 
2379	-0.270146155453499 
2380	-0.226711804926033 
2381	-0.1486717725332 
2382	-0.115382763939278 
2383	-0.067536178132196 
2384	 6.05538409072177E-03 
2385	-5.24808521461531E-02 
2386	-0.160052190175103 
2387	-6.35910172849751E-02 
2388	-0.09531802920923 
2389	-0.167836003976165 
2390	-0.166696071654272 
2391	-0.22436245501755 
2392	-0.305055862881694 
2393	-0.386169235970816 
2394	-0.39846039677716 
2395	-0.482512680565076 
2396	-0.495982717413833 
2397	-0.347784157326464 
2398	-0.352072644236449 
2399	-0.378018965799783 
2400	-0.405613261756847 
2401	-0.496292673418173 
2402	-0.458642150500815 
2403	-0.380186884212264 
2404	-0.344881152979569 
2405	-0.379892520582372 
2406	-0.446662949694578 
2407	-0.497515099495065 
2408	-0.493310813911118 
2409	-0.431587422940528 
2410	-0.524509322100664 
2411	-0.790688635899056 
2412	-1.29229087554639 
2413	-2.08679349910991 
2414	-1.72428185657123 
2415	-1.25507163473225 
2416	-0.664134588691911 
2417	-0.556083287885985 
2418	-0.692335965009286 
2419	-0.723130677845343 
2420	-1.07138885266913 
2421	-1.36677999439977 
2422	-1.1822869228662 
2423	-3.24511268382994 
2424	-3.45467681254665 
2425	-2.61372243711267 
2426	-4.42904801634672 
2427	-0.696655497444692 
2428	-0.564573665485304 
2429	-0.456064397783322 
2430	-0.45106714169623 
2431	-1.00318369367782 
2432	-1.33185380375439 
2433	-1.87154121749139 
2434	-1.97167639587602 
2435	-1.34767505416868 
2436	-1.65859893040042 
2437	-295.727887154419 
2438	 1.1851445542744 
2439	 1.71493969161655 
2440	-6.35836470418942 
2441	-5.47565306815971 
2442	-0.909691729311357 
2443	-1.70018960566596 
2444	 22.2441806417681 
2445	 5.1753549569897 
2446	 0.945808075360771 
2447	 1.00377953375184 
2448	 1.0910703566384 
2449	 0.694123863656433 
2450	 0.512061350408988 
2451	 0.447134123355437 
2452	 4.00708065596177E-02 
2453	-0.156928756006161 
2454	-0.252552557982862 
2455	-0.144969864211468 
2456	-0.145957972445348 
2457	-0.102697091294515 
2458	 0.307088219591909 
2459	 1.10623288876666 
2460	 2.57862195633879 
2461	 2.12235355986911 
2462	 1.268590742896 
2463	 1.13695468616488 
2464	 1.19171870777962 
2465	 1.10111951760232 
2466	 1.51299718123313 
2467	 2.37130737226618 
2468	 2.6345006551648 
2469	 10.7855897662093 
2470	-9.00059209890362 
2471	-18.7945458416117 
2472	-11.7506666252678 
2473	-3.83216864774674 
2474	-4.5515273916025 
2475	-1.5136481497199 
2476	-1.49349525696568 
2477	-3.65246269594721 
2478	-9.38673092802356 
2479	 2.12610876883047 
2480	 1.10759584458108 
2481	 1.28112159906269 
2482	 1.03523391019458 
2483	 0.74771487423979 
2484	 0.333421049939036 
2485	 0.105250915909882 
2486	-6.18439540143819E-03 
2487	-1.36875771408259 
2488	-0.915992537698764 
2489	-0.683282730168985 
2490	-0.631442053588828 
2491	 0.412279722678755 
2492	 0.567535914343374 
2493	 1.98541839106062 
2494	 1.9758330243449 
2495	 4.32265857734417 
2496	-18.1754436663225 
2497	-1.90639653348341 
2498	-3.73453240906124 
2499	-9.65598708933242 
2500	-9.43648793825603 
