Wavelength	rt0713west_close_sunny_200009.asd
350	 5.05547416436788E-02 
351	 4.97411592091058E-02 
352	 0.04967300273751 
353	 5.00302703244814E-02 
354	 5.01558581090016E-02 
355	 4.94140436372189E-02 
356	 4.92846534426303E-02 
357	 4.93449166603025E-02 
358	 4.89296725013765E-02 
359	 4.90818407533661E-02 
360	 4.92751101623278E-02 
361	 4.92268735090868E-02 
362	 4.89121529586958E-02 
363	 4.86425607817151E-02 
364	 4.87509579476285E-02 
365	 4.90507299310953E-02 
366	 4.85987684024247E-02 
367	 4.85623420689456E-02 
368	 4.86491523334747E-02 
369	 4.84036501035799E-02 
370	 4.81567788249817E-02 
371	 4.84072530882283E-02 
372	 4.87035127951483E-02 
373	 4.82312503561629E-02 
374	 4.82359368065146E-02 
375	 4.84759851884889E-02 
376	 4.86054859846427E-02 
377	 0.048377495916845 
378	 4.82779181447148E-02 
379	 4.83050566451015E-02 
380	 4.83932355387055E-02 
381	 4.87293257279445E-02 
382	 4.86722706121508E-02 
383	 4.85495879182061E-02 
384	 4.89737082347714E-02 
385	 4.89862321789297E-02 
386	 4.89129850979889E-02 
387	 4.89460445307055E-02 
388	 0.049002862820329 
389	 4.88628868647088E-02 
390	 4.89447637987499E-02 
391	 4.94002305640401E-02 
392	 4.94808658651504E-02 
393	 0.049505276280558 
394	 4.95796323083986E-02 
395	 4.96783626605372E-02 
396	 4.94707418248328E-02 
397	 4.95663328866029E-02 
398	 4.98982754960046E-02 
399	 4.98321665588247E-02 
400	 4.98423783170065E-02 
401	 4.99080208598387E-02 
402	 4.99542615712336E-02 
403	 4.99607362426067E-02 
404	 4.99966475178188E-02 
405	 5.00360925608012E-02 
406	 5.00394314229738E-02 
407	 5.00942281278879E-02 
408	 0.050247777825856 
409	 5.04192146074406E-02 
410	 5.04256158869382E-02 
411	 5.04969302964846E-02 
412	 5.05850667879731E-02 
413	 5.06373697504528E-02 
414	 5.07071156772603E-02 
415	 5.08445866485757E-02 
416	 5.10142740366246E-02 
417	 5.11561396095069E-02 
418	 5.13132708681481E-02 
419	 5.14542019876772E-02 
420	 0.051558745968737 
421	 5.16295750302865E-02 
422	 5.19327203934554E-02 
423	 5.22614657568493E-02 
424	 5.24424717046655E-02 
425	 5.26776046338665E-02 
426	 0.052939266358814 
427	 5.31658981529643E-02 
428	 5.33176194380416E-02 
429	 5.36568399581217E-02 
430	 5.39549832402126E-02 
431	 5.41583804545983E-02 
432	 5.44685498126628E-02 
433	 5.47041139368196E-02 
434	 5.49335223818883E-02 
435	 5.52343075139978E-02 
436	 5.55555935335752E-02 
437	 0.055832908078067 
438	 5.60920774005148E-02 
439	 5.63993009277539E-02 
440	 5.66997961938683E-02 
441	 5.70030198597859E-02 
442	 5.72962379951559E-02 
443	 5.75234724942313E-02 
444	 5.77606930710228E-02 
445	 5.80092783395999E-02 
446	 5.82589252508741E-02 
447	 5.85531660880964E-02 
448	 5.87824280134472E-02 
449	 0.058947974625931 
450	 0.059137607992114 
451	 0.059392768004415 
452	 0.059618401192427 
453	 5.97647286024083E-02 
454	 5.99019591148806E-02 
455	 0.060159789953658 
456	 6.04007041388497E-02 
457	 6.04498434117357E-02 
458	 6.05003825775892E-02 
459	 6.06616951864167E-02 
460	 0.060883992231372 
461	 6.09710984901514E-02 
462	 6.10387035757055E-02 
463	 6.11314803903852E-02 
464	 6.12737381141044E-02 
465	 6.14881985464791E-02 
466	 6.16039978356584E-02 
467	 6.16253025458864E-02 
468	 6.16625305053702E-02 
469	 6.18485797264782E-02 
470	 6.20135656573223E-02 
471	 6.21146321167169E-02 
472	 0.062315411336326 
473	 6.24283102544887E-02 
474	 6.25542176227722E-02 
475	 6.27912024929683E-02 
476	 6.29515412678261E-02 
477	 6.31303870033889E-02 
478	 6.33434045901197E-02 
479	 6.35513037012241E-02 
480	 0.063751870300568 
481	 6.39866189082996E-02 
482	 6.42601789727986E-02 
483	 6.44922531320548E-02 
484	 6.46827298573854E-02 
485	 6.49280105358751E-02 
486	 6.53065780963159E-02 
487	 6.55978740224498E-02 
488	 6.58823706421002E-02 
489	 6.61848162833064E-02 
490	 6.64629372690966E-02 
491	 6.67332177541844E-02 
492	 6.70554404264691E-02 
493	 6.74472138726043E-02 
494	 0.067801435834001 
495	 6.81448914740101E-02 
496	 6.84902164065522E-02 
497	 6.88424497162073E-02 
498	 6.91804627518575E-02 
499	 6.95041394972902E-02 
500	 6.98451544414356E-02 
501	 7.02819000898184E-02 
502	 7.06460250760333E-02 
503	 7.09811370000249E-02 
504	 0.071371756793349 
505	 7.17850394158275E-02 
506	 7.22516699931871E-02 
507	 7.27102438589627E-02 
508	 7.30458248396803E-02 
509	 7.34853006950652E-02 
510	 7.40214938052867E-02 
511	 0.074562208114409 
512	 0.074898794746524 
513	 7.53434623300057E-02 
514	 7.59026483419663E-02 
515	 0.076448952425553 
516	 7.69845474954716E-02 
517	 7.75224880430518E-02 
518	 7.80664492115389E-02 
519	 7.86077392990105E-02 
520	 0.079138827545149 
521	 7.96266540612087E-02 
522	 8.00799392562819E-02 
523	 0.080651242800199 
524	 8.12414789816562E-02 
525	 8.18266496286667E-02 
526	 8.24368387546254E-02 
527	 8.30343989897712E-02 
528	 8.36221454375605E-02 
529	 8.41945040867867E-02 
530	 8.47106608897098E-02 
531	 8.52614276299106E-02 
532	 8.58788842321803E-02 
533	 8.65519811805835E-02 
534	 8.71973185068173E-02 
535	 0.087791079127962 
536	 8.83602683986904E-02 
537	 8.89767376237465E-02 
538	 8.95716732180149E-02 
539	 9.01714523765396E-02 
540	 9.08049092913283E-02 
541	 9.14363068688342E-02 
542	 0.092067860877819 
543	 9.26965896664762E-02 
544	 9.33235397777425E-02 
545	 9.39949890949312E-02 
546	 9.46691954340599E-02 
547	 9.53126892055777E-02 
548	 9.59307425623306E-02 
549	 9.65335124013955E-02 
550	 9.71216176414258E-02 
551	 9.77088275791284E-02 
552	 9.83943521772062E-02 
553	 9.90484885064019E-02 
554	 9.96462954923568E-02 
555	 0.100289703170057 
556	 0.100869582343762 
557	 0.101430319022925 
558	 0.102017095724941 
559	 0.102574279261508 
560	 0.103127802562704 
561	 0.103653099536556 
562	 0.10410592755012 
563	 0.104545660130602 
564	 0.104988329284532 
565	 0.105412333737083 
566	 0.10573211657584 
567	 0.106078340828017 
568	 0.106428570650371 
569	 0.106728366899107 
570	 0.107098786018837 
571	 0.10743513911739 
572	 0.107689115335915 
573	 0.107889354387683 
574	 0.108152860706113 
575	 0.108429873193021 
576	 0.108651663182859 
577	 0.108834773753746 
578	 0.108997748521818 
579	 0.109159087681964 
580	 0.109319814081753 
581	 0.109335037197089 
582	 0.109263104482842 
583	 0.109156483154141 
584	 0.109011678694448 
585	 0.10876324320146 
586	 0.108427343714044 
587	 0.108051325686469 
588	 0.107673598605437 
589	 0.107347855988703 
590	 0.107120940782601 
591	 0.106993403960668 
592	 0.106649891330226 
593	 0.106255999955995 
594	 0.105962241401504 
595	 0.105534202143238 
596	 0.104980308944203 
597	 0.1043585938679 
598	 0.103755984843491 
599	 0.103141747462801 
600	 0.102594565117555 
601	 0.102164547725393 
602	 0.101830233077341 
603	 0.101635391771311 
604	 0.101482401984479 
605	 0.101287925859968 
606	 0.101283408445809 
607	 0.101268977675434 
608	 0.101216442735443 
609	 0.101286924373295 
610	 0.101297353511391 
611	 0.101257699906641 
612	 0.101222241884395 
613	 0.101251147223893 
614	 0.10125516380317 
615	 0.101231381375028 
616	 0.101222445213359 
617	 0.101202107413003 
618	 0.101134571908998 
619	 0.101034002175769 
620	 0.100997113818691 
621	 0.100937504185201 
622	 0.100897161756964 
623	 0.100912472911436 
624	 0.100798455331579 
625	 0.100641598917509 
626	 0.100510209074925 
627	 0.100441144205489 
628	 0.100395291316994 
629	 0.100392603382817 
630	 0.100419152728639 
631	 0.100336008834424 
632	 0.100335739437601 
633	 0.100361485638548 
634	 0.100270868794458 
635	 0.100276291872694 
636	 0.100250770360894 
637	 0.100135962579481 
638	 0.100013561164197 
639	 9.98935968687357E-02 
640	 9.97658498432582E-02 
641	 9.96138227152768E-02 
642	 9.94332291623095E-02 
643	 9.92140813404574E-02 
644	 9.89205835184964E-02 
645	 9.85106457250002E-02 
646	 9.81723990159307E-02 
647	 0.097947894201292 
648	 9.78225917282865E-02 
649	 9.77350565950089E-02 
650	 9.75830581306186E-02 
651	 9.73676199773122E-02 
652	 9.71237934147082E-02 
653	 9.67284959742846E-02 
654	 9.62620795621565E-02 
655	 9.57959021978325E-02 
656	 9.54243295994727E-02 
657	 9.50437854092492E-02 
658	 9.46587949121579E-02 
659	 9.43051559899354E-02 
660	 9.40941876632587E-02 
661	 9.38327066766488E-02 
662	 9.35546081468242E-02 
663	 9.34216417352553E-02 
664	 9.32702330970937E-02 
665	 9.31208599629114E-02 
666	 9.29950209443323E-02 
667	 9.28786487112584E-02 
668	 9.27462291874961E-02 
669	 9.26455945208335E-02 
670	 0.092619842915144 
671	 9.25626696553746E-02 
672	 9.24656004686238E-02 
673	 9.23780566966635E-02 
674	 0.092389379053159 
675	 9.23616252265329E-02 
676	 9.23601576907073E-02 
677	 9.24229210237251E-02 
678	 9.24208881454578E-02 
679	 9.24060869541583E-02 
680	 9.24392499618057E-02 
681	 0.092559822150961 
682	 0.092622806502792 
683	 9.26803419346592E-02 
684	 9.27087237788319E-02 
685	 9.25521318549913E-02 
686	 9.23859567387465E-02 
687	 9.23563646571419E-02 
688	 9.24684783258818E-02 
689	 0.092406475243305 
690	 9.21840102612978E-02 
691	 9.18068114998497E-02 
692	 9.12976649230031E-02 
693	 9.09250195154381E-02 
694	 9.07459097253346E-02 
695	 9.06297711306028E-02 
696	 9.02464220117558E-02 
697	 8.96046033894026E-02 
698	 8.88243211429993E-02 
699	 0.088105438571443 
700	 8.74396413381721E-02 
701	 8.68369616443777E-02 
702	 8.62215064215067E-02 
703	 8.54445467802739E-02 
704	 8.45427146285126E-02 
705	 8.35954853514581E-02 
706	 8.26554176644526E-02 
707	 8.16316520323482E-02 
708	 8.04862132743754E-02 
709	 7.92471845644757E-02 
710	 7.79526466914704E-02 
711	 7.65172728259977E-02 
712	 7.49542819764499E-02 
713	 7.32634741112907E-02 
714	 7.13717776119723E-02 
715	 6.93021733683624E-02 
716	 0.06698509394697 
717	 6.46680441622059E-02 
718	 6.27305195693048E-02 
719	 6.11391260702811E-02 
720	 5.98597849555138E-02 
721	 5.85355068813391E-02 
722	 5.67812289013074E-02 
723	 5.46925454553551E-02 
724	 5.27308797970475E-02 
725	 5.10624416638795E-02 
726	 0.049200832682927 
727	 4.71517107555819E-02 
728	 4.50618781406252E-02 
729	 4.30189638362816E-02 
730	 4.10706358495386E-02 
731	 3.94261197823051E-02 
732	 3.81246966649713E-02 
733	 3.68016402512928E-02 
734	 3.55269230641269E-02 
735	 3.44606577723181E-02 
736	 3.38167156850238E-02 
737	 3.33736043495581E-02 
738	 3.30224405434134E-02 
739	 3.27296508118894E-02 
740	 3.25645305781426E-02 
741	 3.24857310456517E-02 
742	 3.24519999559858E-02 
743	 3.24210488697308E-02 
744	 3.23566970445215E-02 
745	 3.22675721241666E-02 
746	 3.21887765016571E-02 
747	 3.21802792095901E-02 
748	 3.21877989455165E-02 
749	 3.21747080954744E-02 
750	 3.21208824233724E-02 
751	 3.20298558880895E-02 
752	 3.20243430451756E-02 
753	 3.20773802430931E-02 
754	 3.20789107330937E-02 
755	 3.20186252928659E-02 
756	 3.19111915979135E-02 
757	 3.17455052187696E-02 
758	 3.13969358709011E-02 
759	 3.08003775292929E-02 
760	 0.030227609935253 
761	 3.02682514793687E-02 
762	 3.03785112169899E-02 
763	 3.06102446751814E-02 
764	 3.10409205120782E-02 
765	 3.16353545996218E-02 
766	 3.18520897617641E-02 
767	 3.20132220704221E-02 
768	 3.22493599400401E-02 
769	 3.24950710454845E-02 
770	 3.26495224796568E-02 
771	 3.27609505565872E-02 
772	 0.032870153495662 
773	 0.032878164339789 
774	 3.30862309048523E-02 
775	 3.33683626961936E-02 
776	 3.34743240026947E-02 
777	 3.36537892196034E-02 
778	 3.38940166585304E-02 
779	 3.41403978743102E-02 
780	 3.43228579867644E-02 
781	 3.45321917607325E-02 
782	 3.47105223564766E-02 
783	 3.48484270260392E-02 
784	 3.51075696682257E-02 
785	 3.54040821996717E-02 
786	 3.56264588461911E-02 
787	 0.035707866453773 
788	 3.58579040184088E-02 
789	 3.61915113518394E-02 
790	 3.66269699472583E-02 
791	 3.69532396672174E-02 
792	 3.73177861662635E-02 
793	 3.76842322923704E-02 
794	 0.038013794452039 
795	 3.82863588993775E-02 
796	 3.85528685712042E-02 
797	 3.87780623492079E-02 
798	 3.89639393103441E-02 
799	 3.92933948781109E-02 
800	 3.95632952695012E-02 
801	 3.97491802990921E-02 
802	 3.99393387937409E-02 
803	 4.01609452088443E-02 
804	 4.03427531648506E-02 
805	 4.04234333212666E-02 
806	 0.040373870058926 
807	 4.04839382600007E-02 
808	 4.04127871340391E-02 
809	 3.99689806103975E-02 
810	 3.96722821832775E-02 
811	 3.94760183730382E-02 
812	 3.91286635211088E-02 
813	 3.83944428603422E-02 
814	 3.79264886025362E-02 
815	 3.75146132350257E-02 
816	 3.70601495473647E-02 
817	 3.66287737696813E-02 
818	 3.65094544749894E-02 
819	 3.63159371990989E-02 
820	 0.035792135424872 
821	 0.034888348759962 
822	 3.38415676938071E-02 
823	 3.29537426447839E-02 
824	 3.22600847546054E-02 
825	 3.11786333168593E-02 
826	 2.99620261010432E-02 
827	 2.86828717895004E-02 
828	 2.74727258673551E-02 
829	 2.64815201380247E-02 
830	 2.56013480530477E-02 
831	 2.48960587475184E-02 
832	 2.45156991633461E-02 
833	 2.38144845121244E-02 
834	 2.34013919748876E-02 
835	 2.33742939270163E-02 
836	 0.023022748097389 
837	 2.27825032570774E-02 
838	 2.25944691700102E-02 
839	 2.24158086546977E-02 
840	 2.25543877122017E-02 
841	 0.022349076350785 
842	 2.20024875834565E-02 
843	 2.19302719116111E-02 
844	 2.18772211210281E-02 
845	 2.17620183801041E-02 
846	 2.16112563400356E-02 
847	 2.15146200927369E-02 
848	 2.14220472940746E-02 
849	 2.12910083874676E-02 
850	 2.11507836090678E-02 
851	 2.11079234421476E-02 
852	 2.10173830952746E-02 
853	 2.07955000759362E-02 
854	 2.05257681129116E-02 
855	 2.05890270983242E-02 
856	 2.04807604730551E-02 
857	 0.020381357547552 
858	 2.04889504162286E-02 
859	 2.03685701170488E-02 
860	 2.01265411956141E-02 
861	 1.99697510388744E-02 
862	 2.00493593141978E-02 
863	 0.019890883017887 
864	 1.96843277852545E-02 
865	 1.95920119693534E-02 
866	 1.96546399283163E-02 
867	 1.94345435863065E-02 
868	 1.92842419573946E-02 
869	 0.01932933109672 
870	 1.92671201549488E-02 
871	 1.90930780644418E-02 
872	 0.018918202893575 
873	 1.88357615082348E-02 
874	 1.88427499133014E-02 
875	 1.86126214995251E-02 
876	 1.82937659853333E-02 
877	 0.018132549681747 
878	 1.81290183369758E-02 
879	 1.80097851131573E-02 
880	 1.78498164718496E-02 
881	 0.017811903104513 
882	 1.74641992095281E-02 
883	 1.74716042580412E-02 
884	 1.76254803467589E-02 
885	 1.71793154645652E-02 
886	 1.70706303721339E-02 
887	 1.70521025093019E-02 
888	 0.01697157797406 
889	 1.69238901189025E-02 
890	 1.67179501401827E-02 
891	 1.64996193223305E-02 
892	 1.63257013091948E-02 
893	 0.015967749562847 
894	 1.53475750548515E-02 
895	 1.48417697749358E-02 
896	 1.47968008174652E-02 
897	 1.49109993785942E-02 
898	 1.51096459532806E-02 
899	 1.50744439826442E-02 
900	 1.46644573858384E-02 
901	 1.43853577459028E-02 
902	 1.44475790326593E-02 
903	 1.45762145465266E-02 
904	 1.44393558474777E-02 
905	 1.44251426909675E-02 
906	 1.41224538812167E-02 
907	 1.37890511589768E-02 
908	 1.39989555965805E-02 
909	 1.34969266237939E-02 
910	 0.01323760335934 
911	 1.34558760926034E-02 
912	 1.35364720166703E-02 
913	 1.33538998038924E-02 
914	 1.32321633091427E-02 
915	 0.013261028007647 
916	 1.31956388659621E-02 
917	 1.30895176864155E-02 
918	 1.29338902319553E-02 
919	 1.27705274789259E-02 
920	 1.27101103871948E-02 
921	 1.30086752361978E-02 
922	 1.30779897649724E-02 
923	 1.26728563012891E-02 
924	 1.26133732469417E-02 
925	 0.012467935385528 
926	 1.23391647891849E-02 
927	 1.22285526974759E-02 
928	 0.011086748857704 
929	 1.07357126879264E-02 
930	 1.15233478306092E-02 
931	 0.012431938873461 
932	 1.09649004433456E-02 
933	 1.13750244260869E-02 
934	 1.26440418980543E-02 
935	 1.12146157958374E-02 
936	 9.10063217773012E-03 
937	 8.78860837726798E-03 
938	 9.27637005470703E-03 
939	 9.20122800053659E-03 
940	 1.02008296851362E-02 
941	 1.00902742035237E-02 
942	 0.010087691459523 
943	 1.23266120799719E-02 
944	 1.33810239899756E-02 
945	 1.19293083520852E-02 
946	 1.04758401023204E-02 
947	 1.19487251611116E-02 
948	 9.10309755809838E-03 
949	 8.06791199183784E-03 
950	 8.90923124401543E-03 
951	 8.22773609584804E-03 
952	 8.99176493774298E-03 
953	 1.06635314378379E-02 
954	 1.14797626755489E-02 
955	 9.9193896577459E-03 
956	 9.3155309682943E-03 
957	 9.98235025671521E-03 
958	 1.16195748703149E-02 
959	 1.32208038309139E-02 
960	 1.07093177174478E-02 
961	 8.38375163612291E-03 
962	 8.89372334805807E-03 
963	 1.19461041201161E-02 
964	 1.20581374210631E-02 
965	 1.12002830544691E-02 
966	 0.010420728894645 
967	 9.77848250942877E-03 
968	 0.011032220282937 
969	 1.21350407086724E-02 
970	 0.012046386040039 
971	 1.10931436943499E-02 
972	 1.06614162777262E-02 
973	 1.12626477256881E-02 
974	 1.20210658549216E-02 
975	 1.12681954360288E-02 
976	 1.09859547399431E-02 
977	 0.011676628010493 
978	 1.25532794773622E-02 
979	 1.22440197602337E-02 
980	 1.18654436478659E-02 
981	 1.11801070821961E-02 
982	 1.12229978491996E-02 
983	 0.01331224718595 
984	 1.29143595648065E-02 
985	 0.012802851269211 
986	 0.013354163033924 
987	 1.27656872004849E-02 
988	 1.18766365339697E-02 
989	 1.15864498570481E-02 
990	 0.012314875598157 
991	 1.36889497855073E-02 
992	 1.33367359125634E-02 
993	 1.27505838561044E-02 
994	 0.012825217519438 
995	 1.33536212020645E-02 
996	 1.19585450224349E-02 
997	 1.23428315671803E-02 
998	 1.40179714979283E-02 
999	 1.40777348944653E-02 
1000	 1.37732917380077E-02 
1001	 1.15493005868112E-02 
1002	 1.13968342674562E-02 
1003	 0.011360846865537 
1004	 1.13627517932954E-02 
1005	 1.14583090993066E-02 
1006	 1.18003534174834E-02 
1007	 1.20304752429991E-02 
1008	 1.19222804934691E-02 
1009	 1.19559483097211E-02 
1010	 1.20069002968817E-02 
1011	 1.17284331414693E-02 
1012	 1.18296110773382E-02 
1013	 1.21853171262773E-02 
1014	 1.22756186917725E-02 
1015	 1.24385810297675E-02 
1016	 1.23756908974395E-02 
1017	 1.19329563898413E-02 
1018	 1.17010761095201E-02 
1019	 1.13415046123741E-02 
1020	 1.12552907289883E-02 
1021	 1.13450807917428E-02 
1022	 0.01161545447856 
1023	 1.17345262589328E-02 
1024	 1.16962477234283E-02 
1025	 1.15555109849446E-02 
1026	 1.15014532134642E-02 
1027	 1.15792817111231E-02 
1028	 1.18196489669337E-02 
1029	 1.19465639584917E-02 
1030	 1.21291330005516E-02 
1031	 1.22491599046338E-02 
1032	 1.24332474390423E-02 
1033	 0.012415819749099 
1034	 1.22011170405856E-02 
1035	 1.21120847984588E-02 
1036	 1.18294760974858E-02 
1037	 1.17597113494535E-02 
1038	 1.18733399005421E-02 
1039	 1.21065760944741E-02 
1040	 1.19794028205781E-02 
1041	 0.011950516381748 
1042	 1.19081722138304E-02 
1043	 1.16390278987249E-02 
1044	 1.17003175170516E-02 
1045	 1.20953023038653E-02 
1046	 1.21215571494952E-02 
1047	 1.20314234659431E-02 
1048	 1.20866341496858E-02 
1049	 1.20307926210081E-02 
1050	 1.20807156199379E-02 
1051	 1.24550186946114E-02 
1052	 1.25065704880289E-02 
1053	 1.21956200827497E-02 
1054	 1.21654109478311E-02 
1055	 1.22787802283457E-02 
1056	 1.22395701907837E-02 
1057	 0.012194330522879 
1058	 1.23302381594156E-02 
1059	 0.012194783644892 
1060	 1.16406383647958E-02 
1061	 1.16162845338181E-02 
1062	 1.18248008700761E-02 
1063	 1.19077267833727E-02 
1064	 0.012308311612451 
1065	 1.23468090995867E-02 
1066	 1.20173631714744E-02 
1067	 1.19292612529796E-02 
1068	 1.18241653372155E-02 
1069	 0.011764703877918 
1070	 1.18567491942917E-02 
1071	 1.18853170615818E-02 
1072	 1.20270872699493E-02 
1073	 1.18406679250099E-02 
1074	 1.18315444411133E-02 
1075	 1.18425142236527E-02 
1076	 1.18331568675099E-02 
1077	 1.18038451385588E-02 
1078	 1.18379456350948E-02 
1079	 1.20025061146298E-02 
1080	 1.19015053400825E-02 
1081	 1.16737886559597E-02 
1082	 1.15155426584736E-02 
1083	 1.11030157385477E-02 
1084	 1.09430248144605E-02 
1085	 1.09689879997811E-02 
1086	 1.09855671904435E-02 
1087	 1.12125772467633E-02 
1088	 1.12610313137001E-02 
1089	 1.12025474362329E-02 
1090	 1.12601012130351E-02 
1091	 1.11439698660499E-02 
1092	 1.06869734262482E-02 
1093	 1.06174620436482E-02 
1094	 1.08267180095524E-02 
1095	 1.07640871839013E-02 
1096	 1.08188535816827E-02 
1097	 1.06806759863005E-02 
1098	 9.99112367008683E-03 
1099	 9.77750363169832E-03 
1100	 9.84559241452308E-03 
1101	 9.84702917233369E-03 
1102	 1.03860261819198E-02 
1103	 1.03602678632917E-02 
1104	 0.010024420712246 
1105	 9.24728608449236E-03 
1106	 8.72466264060975E-03 
1107	 8.3094721149214E-03 
1108	 8.38701912659534E-03 
1109	 9.30928309641564E-03 
1110	 9.36070512829598E-03 
1111	 8.94959005768283E-03 
1112	 8.78697369182566E-03 
1113	 8.17480423184789E-03 
1114	 7.80272410171806E-03 
1115	 8.18265119935655E-03 
1116	 8.35416931628018E-03 
1117	 7.66624592099077E-03 
1118	 7.36533051525276E-03 
1119	 8.68936158729919E-03 
1120	 8.39990685423547E-03 
1121	 5.40349034671897E-03 
1122	 5.17853893160234E-03 
1123	 6.94278936439267E-03 
1124	 4.27081996972613E-03 
1125	 2.00585092930924E-03 
1126	 4.85560001752527E-03 
1127	 7.69448295217682E-03 
1128	 7.16330337819112E-03 
1129	 6.90076345917067E-03 
1130	 9.28967455076176E-03 
1131	 7.69755423908038E-03 
1132	 1.00308016393044E-03 
1133	 1.36623360000186E-03 
1134	 5.13672036221448E-03 
1135	 5.71948567153217E-03 
1136	 7.23711136443538E-03 
1137	 7.81098249924461E-03 
1138	 0.007326919504149 
1139	 5.24617289255542E-03 
1140	 3.99380065251587E-03 
1141	 5.40729843261516E-03 
1142	 6.03118802027996E-03 
1143	 6.25328288761639E-03 
1144	 7.85993043718029E-03 
1145	 6.96629488132879E-03 
1146	 6.01783263867042E-03 
1147	 6.27033137845427E-03 
1148	 5.8158812721125E-03 
1149	 6.62477276736994E-03 
1150	 0.006778634540022 
1151	 6.3492354549473E-03 
1152	 6.60335721814981E-03 
1153	 6.93902196634588E-03 
1154	 7.23459301863272E-03 
1155	 7.86240751228419E-03 
1156	 8.16588462097915E-03 
1157	 7.67729060275232E-03 
1158	 7.65634420431642E-03 
1159	 7.92055017309665E-03 
1160	 8.00151040102518E-03 
1161	 8.25471283663879E-03 
1162	 8.57992437770284E-03 
1163	 8.48285922878637E-03 
1164	 8.36878417673788E-03 
1165	 8.70063910002642E-03 
1166	 8.94625064633769E-03 
1167	 9.00823677821692E-03 
1168	 9.04391689166438E-03 
1169	 9.12627944781847E-03 
1170	 9.5356250271721E-03 
1171	 9.64249643615546E-03 
1172	 9.68927533856326E-03 
1173	 9.62614414765995E-03 
1174	 9.33538158095706E-03 
1175	 9.3020465061876E-03 
1176	 9.31745086401015E-03 
1177	 9.58843797780977E-03 
1178	 1.00285217924049E-02 
1179	 9.84753714867011E-03 
1180	 9.44564038263495E-03 
1181	 9.60303352326234E-03 
1182	 9.69017023521906E-03 
1183	 9.28513764231939E-03 
1184	 9.21777840448575E-03 
1185	 9.46721245837002E-03 
1186	 9.33054080382559E-03 
1187	 9.2828261964921E-03 
1188	 9.5008477706082E-03 
1189	 9.48049011723497E-03 
1190	 9.65514671303398E-03 
1191	 9.82783347348198E-03 
1192	 9.83654364229497E-03 
1193	 9.62611540809756E-03 
1194	 9.63399781699906E-03 
1195	 9.7008329387109E-03 
1196	 9.77753627309347E-03 
1197	 9.92506223833438E-03 
1198	 9.84087134869848E-03 
1199	 9.85952304068582E-03 
1200	 1.01744141332558E-02 
1201	 1.04764353559873E-02 
1202	 1.03433098505147E-02 
1203	 9.87675710844459E-03 
1204	 9.67546665077411E-03 
1205	 9.68232690793139E-03 
1206	 9.76042177417189E-03 
1207	 1.00392242683333E-02 
1208	 9.97856329975707E-03 
1209	 9.63496101605588E-03 
1210	 9.95827418358267E-03 
1211	 1.03725881569374E-02 
1212	 1.01638297787988E-02 
1213	 1.00296382740595E-02 
1214	 1.00926198640425E-02 
1215	 1.00537271288016E-02 
1216	 9.88136934229358E-03 
1217	 0.010097875901348 
1218	 1.04809875581247E-02 
1219	 1.04295194391809E-02 
1220	 1.00393923080977E-02 
1221	 9.8382070480132E-03 
1222	 9.98918607885741E-03 
1223	 1.02554546467962E-02 
1224	 1.04068811637297E-02 
1225	 1.03697991497684E-02 
1226	 1.03119211168925E-02 
1227	 1.03076300350808E-02 
1228	 0.010272328791081 
1229	 1.05830302594705E-02 
1230	 1.09285383629924E-02 
1231	 1.05915735925291E-02 
1232	 1.03805954563032E-02 
1233	 1.06917847749269E-02 
1234	 1.06675301974057E-02 
1235	 1.06038538797666E-02 
1236	 1.07402547132766E-02 
1237	 1.08253151969771E-02 
1238	 1.06949596049513E-02 
1239	 1.05153848180431E-02 
1240	 1.07358909311504E-02 
1241	 1.08361413669889E-02 
1242	 1.07367742653776E-02 
1243	 1.07219178084116E-02 
1244	 1.08142245297787E-02 
1245	 1.09382770806779E-02 
1246	 1.08754698897414E-02 
1247	 1.06998903137401E-02 
1248	 1.06847642962061E-02 
1249	 0.010727435494804 
1250	 1.07461138152478E-02 
1251	 1.08341302981206E-02 
1252	 1.07484338293022E-02 
1253	 1.04352532064041E-02 
1254	 1.03751622384225E-02 
1255	 1.05598446336683E-02 
1256	 1.05183444892816E-02 
1257	 1.04147955416581E-02 
1258	 0.010408070725538 
1259	 1.03345875844335E-02 
1260	 1.01954582266484E-02 
1261	 9.96121205335296E-03 
1262	 1.00351107394801E-02 
1263	 1.01830030019646E-02 
1264	 1.04316324859357E-02 
1265	 1.03485326724122E-02 
1266	 1.04470515982504E-02 
1267	 1.06263783456559E-02 
1268	 1.02517113342135E-02 
1269	 1.00500478016875E-02 
1270	 1.01629291602808E-02 
1271	 9.98522216381887E-03 
1272	 9.93464220974263E-03 
1273	 1.01167248612122E-02 
1274	 1.02643356129027E-02 
1275	 1.04037398199387E-02 
1276	 1.04285957737887E-02 
1277	 1.03796892286533E-02 
1278	 1.03932738510888E-02 
1279	 1.03613670365445E-02 
1280	 1.02811173937324E-02 
1281	 1.02774248830315E-02 
1282	 0.010564225239654 
1283	 1.05706532325199E-02 
1284	 0.010320454316026 
1285	 1.02971313943497E-02 
1286	 1.03864044573426E-02 
1287	 1.03217964718375E-02 
1288	 1.02394890673671E-02 
1289	 1.02306995809033E-02 
1290	 1.00894421732702E-02 
1291	 1.00706800562325E-02 
1292	 1.02969740010645E-02 
1293	 0.010248379905507 
1294	 9.91996020024687E-03 
1295	 9.73469459540741E-03 
1296	 9.67501672665774E-03 
1297	 9.75668520985974E-03 
1298	 9.71967963358096E-03 
1299	 9.67626559029041E-03 
1300	 9.63087086228244E-03 
1301	 9.15694787724968E-03 
1302	 9.11717908418472E-03 
1303	 9.27970471668097E-03 
1304	 9.03086089012931E-03 
1305	 9.09410455149384E-03 
1306	 9.0598165945137E-03 
1307	 8.87209010180666E-03 
1308	 8.81938928245248E-03 
1309	 8.91339285020563E-03 
1310	 8.77823847348618E-03 
1311	 8.51889124709438E-03 
1312	 8.44110913215884E-03 
1313	 8.40983496892636E-03 
1314	 8.40492318420721E-03 
1315	 8.56188159583154E-03 
1316	 8.53563344108172E-03 
1317	 8.24790791750308E-03 
1318	 8.1561553126252E-03 
1319	 8.22056650695152E-03 
1320	 8.23220885608389E-03 
1321	 8.50842894645949E-03 
1322	 8.2994902165234E-03 
1323	 7.35051499055769E-03 
1324	 7.26803815428185E-03 
1325	 7.99521185555621E-03 
1326	 7.9257307657613E-03 
1327	 7.91104297501331E-03 
1328	 8.67660532208619E-03 
1329	 8.38675828449888E-03 
1330	 7.76062096205315E-03 
1331	 8.14890337247566E-03 
1332	 8.33726051982506E-03 
1333	 7.64344489056721E-03 
1334	 6.32674200022073E-03 
1335	 6.01235656933298E-03 
1336	 6.33469066988882E-03 
1337	 6.58302716784706E-03 
1338	 7.67774206435413E-03 
1339	 8.15648708566511E-03 
1340	 8.53666581967907E-03 
1341	 8.12278234893224E-03 
1342	 6.1047140215488E-03 
1343	 6.0286387154397E-03 
1344	 7.30407632054721E-03 
1345	 7.04668847271805E-03 
1346	 7.18710539851476E-03 
1347	 8.09311371024802E-03 
1348	 7.47622550420429E-03 
1349	 6.09997799005681E-03 
1350	 5.75993826146251E-03 
1351	 6.83954674128254E-03 
1352	 6.38196990645089E-03 
1353	 4.43471201025266E-03 
1354	 1.16009791981103E-02 
1355	 2.34476061842731E-02 
1356	 1.12390366809911E-02 
1357	-1.31988541114594E-02 
1358	 1.93365280296887E-02 
1359	 8.71026744369645E-02 
1360	 9.32237673222585E-02 
1361	 0.109036532488856 
1362	 0.106895074821782 
1363	 3.18347598272415E-02 
1364	 0.119108322826607 
1365	 0.132033552624041 
1366	-6.49363627215521E-02 
1367	-6.06822684762402E-02 
1368	-6.86880920655495E-03 
1369	-2.42326190722485E-03 
1370	 1.18387166974503E-02 
1371	 0.296888948089677 
1372	 0.329285138092946 
1373	 0.169102871260419 
1374	-1.87813699358658E-02 
1375	-0.117142284696493 
1376	-8.70424148625318E-02 
1377	-0.236477432798652 
1378	-0.205905153745368 
1379	 0.137971079801152 
1380	 0.1269501423281 
1381	-0.194793756766744 
1382	-0.216312342101569 
1383	-0.129938099920634 
1384	-0.200725860267969 
1385	-6.01091198499276E-02 
1386	 2.99633592903886E-02 
1387	 7.62429898506278E-02 
1388	-1.55540118215669E-03 
1389	-0.299191514482993 
1390	-0.35071755912225 
1391	-0.384051749172031 
1392	-0.521452663534594 
1393	-0.206090452939708 
1394	-0.273503722001345 
1395	-0.519298524868191 
1396	-0.364765932771099 
1397	-0.396446145877305 
1398	-0.427787744102952 
1399	-0.157253289169712 
1400	 0.152672689484091 
1401	 0.257179115996149 
1402	 0.42227708832928 
1403	 0.473612217482697 
1404	 4.28424526758362E-03 
1405	-0.147322063311073 
1406	-0.101382135477955 
1407	-0.047878442113335 
1408	-1.89249941101265E-02 
1409	-9.27049652872759E-02 
1410	-0.224387769947378 
1411	-0.128563805651124 
1412	 0.028176236638156 
1413	 9.96069040417482E-03 
1414	-2.95353584901647E-02 
1415	-3.19201182008575E-03 
1416	-2.97011699621032E-02 
1417	-7.14415928289914E-02 
1418	-6.07834927059023E-02 
1419	-2.33875099271808E-02 
1420	-1.41539397182211E-02 
1421	-2.26991420776285E-02 
1422	-1.45999107902931E-03 
1423	 1.33871022812511E-02 
1424	 4.56046132903973E-03 
1425	-6.7195423062675E-03 
1426	-1.01925106050149E-02 
1427	-4.05257738847948E-03 
1428	-4.81959497053578E-03 
1429	-5.36629090453915E-03 
1430	 5.98990147768763E-03 
1431	 1.63646982019029E-02 
1432	 3.01997842888218E-02 
1433	 2.35316280378709E-02 
1434	-2.8223042546722E-03 
1435	-3.51046845498158E-03 
1436	-3.0544480320652E-03 
1437	-5.95156334326726E-03 
1438	 2.61895507918621E-04 
1439	 4.13963870085994E-03 
1440	-3.59752271020747E-03 
1441	-1.03276486347356E-02 
1442	-1.8486486239364E-03 
1443	 1.13750482297433E-02 
1444	 0.010593563337696 
1445	 4.00636769320363E-03 
1446	 6.05335138568873E-03 
1447	 1.04034138923265E-02 
1448	 7.32892349972611E-03 
1449	 4.0989620135104E-03 
1450	 7.63535517200608E-03 
1451	 9.08292305067429E-03 
1452	 5.12694316985888E-03 
1453	 4.50048167228363E-03 
1454	 5.75240096278144E-03 
1455	 4.96373724283861E-03 
1456	 4.05261678721706E-03 
1457	 6.58830459787369E-03 
1458	 6.31228362162573E-03 
1459	 1.3637072381285E-03 
1460	 1.50166227243705E-03 
1461	 6.36345863150351E-03 
1462	 6.42200873215576E-03 
1463	 3.91679701842116E-03 
1464	 4.57417491931103E-03 
1465	 5.56394808398577E-03 
1466	 4.62672267235368E-03 
1467	 4.99510225225704E-03 
1468	 5.95036266419385E-03 
1469	 3.89653313731164E-03 
1470	 3.36933736572727E-03 
1471	 7.39080371391947E-03 
1472	 7.32295681481641E-03 
1473	 2.86465349839404E-03 
1474	 2.15321569186254E-03 
1475	 2.67257799222622E-03 
1476	 3.19855280144602E-03 
1477	 5.43469292171274E-03 
1478	 5.59882706235131E-03 
1479	 3.83663457146673E-03 
1480	 4.46683570292587E-03 
1481	 6.24582519986302E-03 
1482	 6.15926806591798E-03 
1483	 5.65297697849353E-03 
1484	 6.51399101970052E-03 
1485	 7.55244327353041E-03 
1486	 7.20825524473604E-03 
1487	 7.0467910544239E-03 
1488	 7.28896897644258E-03 
1489	 6.65496149241444E-03 
1490	 6.39385399242932E-03 
1491	 6.80381473811545E-03 
1492	 7.11264636789678E-03 
1493	 7.18265417991625E-03 
1494	 7.16704524917854E-03 
1495	 7.23663055450172E-03 
1496	 7.55158875132621E-03 
1497	 7.97673969515811E-03 
1498	 8.01572037034667E-03 
1499	 7.98156522651072E-03 
1500	 8.13023197800112E-03 
1501	 8.05571642916748E-03 
1502	 8.08740910752649E-03 
1503	 8.63575428959207E-03 
1504	 8.7736259735335E-03 
1505	 8.70794490713601E-03 
1506	 8.31482506622905E-03 
1507	 8.35232922295142E-03 
1508	 8.42773919570395E-03 
1509	 8.53925827899882E-03 
1510	 8.6965031735943E-03 
1511	 8.73714458811956E-03 
1512	 8.77474101379578E-03 
1513	 8.70813094655287E-03 
1514	 8.83632538380141E-03 
1515	 9.30371247580962E-03 
1516	 9.46828851623149E-03 
1517	 9.22323861110863E-03 
1518	 9.13590695307405E-03 
1519	 9.02568918057966E-03 
1520	 8.74539498205576E-03 
1521	 8.85142338893707E-03 
1522	 9.20190720411597E-03 
1523	 9.23666938009296E-03 
1524	 9.03844688665281E-03 
1525	 8.92252586657284E-03 
1526	 9.00459092664956E-03 
1527	 9.1862326071113E-03 
1528	 9.33249907653779E-03 
1529	 9.57502183374315E-03 
1530	 9.82815602708548E-03 
1531	 9.87146802848279E-03 
1532	 9.84640112387597E-03 
1533	 9.73451504968584E-03 
1534	 9.62443849839188E-03 
1535	 9.6198614778181E-03 
1536	 9.59163838078673E-03 
1537	 9.64489853148406E-03 
1538	 0.009739937844202 
1539	 9.75579619797504E-03 
1540	 9.64654097961562E-03 
1541	 9.48460900981299E-03 
1542	 9.5536935068113E-03 
1543	 9.76218252552054E-03 
1544	 9.81538177838852E-03 
1545	 9.78899122675017E-03 
1546	 9.79977854885103E-03 
1547	 9.76877311507888E-03 
1548	 9.79326307063564E-03 
1549	 9.82316288179454E-03 
1550	 9.77025550565795E-03 
1551	 9.79528661167578E-03 
1552	 9.84468447367175E-03 
1553	 1.00194095986143E-02 
1554	 1.02074788002377E-02 
1555	 1.02365481200192E-02 
1556	 1.02864788256167E-02 
1557	 0.010281431090032 
1558	 1.01591905233583E-02 
1559	 9.96377798399886E-03 
1560	 9.85887418191717E-03 
1561	 9.93208205106682E-03 
1562	 1.00172207518042E-02 
1563	 1.00156913283989E-02 
1564	 1.00097248744656E-02 
1565	 1.00740263946433E-02 
1566	 1.01155479167837E-02 
1567	 1.00344796135966E-02 
1568	 9.91716106272832E-03 
1569	 9.88292274611148E-03 
1570	 9.90248873572552E-03 
1571	 1.00126778673743E-02 
1572	 1.00536117696309E-02 
1573	 9.92424061506169E-03 
1574	 9.9324362592874E-03 
1575	 9.94774833852589E-03 
1576	 9.79729787495239E-03 
1577	 9.78842918379923E-03 
1578	 9.96666686960021E-03 
1579	 1.00299125753158E-02 
1580	 9.89862552589402E-03 
1581	 9.75240462029745E-03 
1582	 9.63546776183698E-03 
1583	 9.73028180310955E-03 
1584	 9.95718244307098E-03 
1585	 9.98716068285045E-03 
1586	 9.92817385381691E-03 
1587	 9.86106107106558E-03 
1588	 9.87896260057599E-03 
1589	 1.00618893639366E-02 
1590	 0.010111147171301 
1591	 9.85324069035902E-03 
1592	 9.73416450157349E-03 
1593	 9.92921693364389E-03 
1594	 1.01291270110357E-02 
1595	 1.02274906712507E-02 
1596	 1.00833491563447E-02 
1597	 9.89755197505926E-03 
1598	 9.79964324943525E-03 
1599	 9.61723973086196E-03 
1600	 9.63849809552391E-03 
1601	 9.88431153314761E-03 
1602	 0.009958121589292 
1603	 9.93768577744528E-03 
1604	 1.00771103028346E-02 
1605	 1.00142424151246E-02 
1606	 9.66699865984818E-03 
1607	 9.53943684306644E-03 
1608	 9.72751713225072E-03 
1609	 9.85942808448444E-03 
1610	 9.67835650535016E-03 
1611	 9.65205898279134E-03 
1612	 9.91508378553015E-03 
1613	 9.99154511061859E-03 
1614	 1.00595396854521E-02 
1615	 1.01105713540251E-02 
1616	 9.86971556064179E-03 
1617	 9.83851764188785E-03 
1618	 1.00490824435102E-02 
1619	 1.00519214159357E-02 
1620	 1.01964023776841E-02 
1621	 1.03675559939133E-02 
1622	 1.00814248015853E-02 
1623	 9.98560324012154E-03 
1624	 1.01689775899081E-02 
1625	 9.98479142039116E-03 
1626	 1.00105834038888E-02 
1627	 1.04385876631888E-02 
1628	 1.03812323231718E-02 
1629	 0.010052006260466 
1630	 1.01106864548967E-02 
1631	 1.01685442956279E-02 
1632	 1.00287931101345E-02 
1633	 9.96289741530708E-03 
1634	 9.90385597121002E-03 
1635	 9.90951127072056E-03 
1636	 9.88950996077953E-03 
1637	 9.86631223736482E-03 
1638	 1.00863547447478E-02 
1639	 1.01359792335982E-02 
1640	 9.87925267898344E-03 
1641	 9.85050215496873E-03 
1642	 9.88351115529872E-03 
1643	 9.63365502119083E-03 
1644	 0.009583466483477 
1645	 9.91279365093675E-03 
1646	 1.00886838192951E-02 
1647	 9.78373290807608E-03 
1648	 9.59303040511366E-03 
1649	 9.7824274570296E-03 
1650	 9.84384209714768E-03 
1651	 9.91575414475957E-03 
1652	 1.00553789792679E-02 
1653	 9.71702344648837E-03 
1654	 9.53276879572935E-03 
1655	 9.45923986148259E-03 
1656	 9.65133267112702E-03 
1657	 1.01563836736882E-02 
1658	 1.02214956970221E-02 
1659	 1.02836929511902E-02 
1660	 0.01032987933939 
1661	 9.93336178471583E-03 
1662	 9.77123007829882E-03 
1663	 9.90839761752587E-03 
1664	 9.9271117007081E-03 
1665	 9.7446930367179E-03 
1666	 9.68233065137331E-03 
1667	 9.86689918124559E-03 
1668	 9.75690173644012E-03 
1669	 9.67930660088187E-03 
1670	 9.87853918300637E-03 
1671	 9.94063735340213E-03 
1672	 1.00917152101178E-02 
1673	 0.010243460514013 
1674	 1.00525987340394E-02 
1675	 9.84497553830306E-03 
1676	 9.74711006753079E-03 
1677	 9.63930859832942E-03 
1678	 9.48739509317388E-03 
1679	 9.59028817627561E-03 
1680	 9.87158410471717E-03 
1681	 9.9005974048887E-03 
1682	 9.87352192138869E-03 
1683	 9.78729282954127E-03 
1684	 9.53613086792143E-03 
1685	 9.42609074131224E-03 
1686	 9.51393622303387E-03 
1687	 9.54246916021423E-03 
1688	 9.48419402803592E-03 
1689	 9.5139296156155E-03 
1690	 9.62027215100745E-03 
1691	 9.69531189360627E-03 
1692	 9.77529733894914E-03 
1693	 9.80228310431044E-03 
1694	 9.65970744962127E-03 
1695	 9.49582406991337E-03 
1696	 9.49854288284249E-03 
1697	 9.71795496193419E-03 
1698	 9.8904126557313E-03 
1699	 9.82362651839903E-03 
1700	 9.8833335938103E-03 
1701	 9.91665431649215E-03 
1702	 9.45387955872279E-03 
1703	 9.27172429299561E-03 
1704	 9.61410695973718E-03 
1705	 9.6140434366739E-03 
1706	 9.43026932769033E-03 
1707	 9.61680793440655E-03 
1708	 9.81193914436565E-03 
1709	 9.77790649322689E-03 
1710	 9.92923884173508E-03 
1711	 1.01387895507736E-02 
1712	 0.010012488389396 
1713	 9.77331334626982E-03 
1714	 9.67476238296737E-03 
1715	 9.70891992837088E-03 
1716	 9.53160749554752E-03 
1717	 9.46755217590633E-03 
1718	 9.37822658686286E-03 
1719	 9.4157879527109E-03 
1720	 9.33284827717013E-03 
1721	 8.93831946598422E-03 
1722	 8.96568668673647E-03 
1723	 9.02145154920077E-03 
1724	 8.52848741824071E-03 
1725	 8.77299247422752E-03 
1726	 9.39029820251915E-03 
1727	 9.16992051513349E-03 
1728	 8.97215000260476E-03 
1729	 8.98915190401871E-03 
1730	 8.60941822471731E-03 
1731	 8.67060818463734E-03 
1732	 8.97002953076296E-03 
1733	 8.50043026268826E-03 
1734	 8.64085254621834E-03 
1735	 9.17195124253428E-03 
1736	 8.74818881268696E-03 
1737	 8.94775019804037E-03 
1738	 9.25412737784765E-03 
1739	 0.008596107464493 
1740	 8.93916659096636E-03 
1741	 9.50237575968047E-03 
1742	 8.84884150812891E-03 
1743	 8.75020775410474E-03 
1744	 9.08758845864077E-03 
1745	 8.98712346448312E-03 
1746	 9.10286009771269E-03 
1747	 8.94289632633291E-03 
1748	 8.49682581391479E-03 
1749	 8.51769725255648E-03 
1750	 8.64666321784597E-03 
1751	 8.52327846363671E-03 
1752	 8.4261729306055E-03 
1753	 8.47910686346143E-03 
1754	 8.70510702367916E-03 
1755	 8.62109174453025E-03 
1756	 8.57956866728057E-03 
1757	 8.25989385500383E-03 
1758	 7.28982458396975E-03 
1759	 7.62669359361017E-03 
1760	 8.04298056123825E-03 
1761	 7.43081361976581E-03 
1762	 7.8920991082573E-03 
1763	 8.89447337256005E-03 
1764	 8.69048672010258E-03 
1765	 8.50931828171124E-03 
1766	 8.27512453980437E-03 
1767	 7.02651448185079E-03 
1768	 7.33374229160321E-03 
1769	 8.43835392125477E-03 
1770	 8.08241381908344E-03 
1771	 7.51657536410865E-03 
1772	 6.35906586341537E-03 
1773	 5.56678653533399E-03 
1774	 6.66675829895588E-03 
1775	 7.57541654193013E-03 
1776	 7.58117558456128E-03 
1777	 5.91977688848224E-03 
1778	 5.86647278617981E-03 
1779	 7.1878421056422E-03 
1780	 7.27415067516751E-03 
1781	 7.74529722446419E-03 
1782	 7.59944497712157E-03 
1783	 5.44575414642183E-03 
1784	 4.83606148959326E-03 
1785	 5.27978141201456E-03 
1786	 5.6607187270133E-03 
1787	 6.61724570004256E-03 
1788	 7.05939952227409E-03 
1789	 7.95252469954727E-03 
1790	 5.70410133435402E-03 
1791	 5.41851880324946E-03 
1792	 8.20967485977014E-03 
1793	 8.21051732854831E-03 
1794	 9.31619035559635E-03 
1795	 7.02328571757547E-03 
1796	-2.46543552362452E-03 
1797	-4.77524297233339E-03 
1798	 4.66557345422976E-04 
1799	 8.7462088707657E-03 
1800	 9.23167189007511E-03 
1801	 7.96322740555503E-03 
1802	-0.01265423848895 
1803	-2.31267332953034E-02 
1804	-1.32495661559528E-02 
1805	-1.74324007272411E-02 
1806	-3.43191159511286E-02 
1807	-3.54660556343675E-02 
1808	-3.85022775456593E-02 
1809	-2.34459025330552E-02 
1810	 8.31621009781403E-02 
1811	 0.127221904649262 
1812	 0.133357318867932 
1813	 5.54814724297502E-02 
1814	-0.369676324221777 
1815	-0.531526200722527 
1816	-0.623837694026157 
1817	-0.236291848916856 
1818	 0.283721472315501 
1819	 0.223435248254554 
1820	 0.150561224812299 
1821	 0.107991515739934 
1822	 4.36249354338762E-02 
1823	-0.13769785699507 
1824	-9.17009301166321E-02 
1825	 0.385066809254613 
1826	 0.600242030335118 
1827	 0.727696271088925 
1828	 0.572783984610473 
1829	-0.159546106420605 
1830	-0.27477206404585 
1831	 5.51733298269925 
1832	-84.6401859526111 
1833	-1.33106766680677 
1834	-0.645819494632088 
1835	-1.02382430977134 
1836	-2.0312820993014 
1837	 2.06931632806743E-02 
1838	-0.165614929240163 
1839	-0.180496213089996 
1840	-0.333907986685498 
1841	-0.775850234590065 
1842	-0.676488027448943 
1843	-7.49460674609906E-02 
1844	 0.187726359537667 
1845	 0.308886855413296 
1846	 0.618988773173625 
1847	 0.576287800170653 
1848	 7.50067056324454E-02 
1849	-0.387738984818042 
1850	-0.647374842254446 
1851	-0.445854194818828 
1852	 0.251237421959132 
1853	 0.889630748588388 
1854	 0.933819429898673 
1855	 0.283394038484737 
1856	 8.23713901519862E-02 
1857	 3.52973462627477 
1858	 4.01851126968558 
1859	-2.95920538661513 
1860	-0.352778707681156 
1861	-0.508496816234781 
1862	-1.1320241354826 
1863	-0.945277169418915 
1864	-9.98625827406033 
1865	 1.16423167908891 
1866	 0.803198352438589 
1867	 1.44997944186641 
1868	 6.39506945251911 
1869	 18.6521950601097 
1870	 4.18887168161436 
1871	 5.88961932597716 
1872	-2.21950806893738 
1873	-38.9643725452093 
1874	 2.2120590469571 
1875	 3.19724257893626 
1876	 2.82001817503679 
1877	 1.31834552146499 
1878	 1.38584324924847 
1879	-8.05238792315629 
1880	-1.6974713316751 
1881	-0.497297205705136 
1882	-0.117672570020809 
1883	-0.739961010667289 
1884	 0.369954020031216 
1885	 0.382112257626283 
1886	-0.241104177062756 
1887	 1.76192547426681 
1888	 0.815717879867666 
1889	 0.431035062555885 
1890	-0.849934565060446 
1891	-0.975686762575239 
1892	-4.35060238557945 
1893	-0.891709600137504 
1894	 5.45574746785358E-02 
1895	 0.341560461229877 
1896	 0.476122508980946 
1897	-4.68442479015604 
1898	 1.6990514769734 
1899	-11.5874994871829 
1900	-0.831597637099351 
1901	 0.286913458192201 
1902	 0.336119559719409 
1903	 0.257091316654684 
1904	 0.382585033500648 
1905	 0.364484671300932 
1906	 2.89386782491504E-02 
1907	-0.23885508931673 
1908	-0.866003472815948 
1909	-1.44219895389529 
1910	-10.2596237742123 
1911	 1.35506871417268 
1912	-0.067380316219684 
1913	-0.627281938470714 
1914	 0.545519038562768 
1915	 0.268744868934199 
1916	 0.123440406300904 
1917	 0.125697010267803 
1918	-0.039586210027483 
1919	-0.204173084845243 
1920	-0.252761355024894 
1921	-0.120043328611183 
1922	-0.379796635375014 
1923	-0.939711656821947 
1924	-0.809284499702628 
1925	-0.424823101528186 
1926	-0.762502755787091 
1927	-4.54176188451655 
1928	 0.278715970716905 
1929	-0.384878760852354 
1930	 0.468623042332373 
1931	 0.712912288850154 
1932	 0.774714196878868 
1933	 0.481416428936064 
1934	-0.032699759404485 
1935	-0.432380058176754 
1936	-0.153306071536266 
1937	 8.13670876439038E-02 
1938	 7.88966786287787E-02 
1939	 0.12403836525872 
1940	 0.157063723888199 
1941	 1.94850270369038E-02 
1942	-7.22332908427986E-02 
1943	 5.83290681675069E-03 
1944	 3.74935656735604E-02 
1945	 1.79889142291196E-02 
1946	 2.03623874178757E-02 
1947	 2.36671864901094E-02 
1948	 4.75548843553012E-03 
1949	-5.94591154007484E-03 
1950	 7.23571949567793E-03 
1951	-1.06391859311492E-02 
1952	-1.16928758499926E-02 
1953	-8.70320710294015E-03 
1954	 9.99894645984204E-03 
1955	-2.86890090821795E-03 
1956	-1.35159977966099E-02 
1957	-2.72675818707449E-03 
1958	-1.53920021682321E-02 
1959	-2.07342208101255E-02 
1960	-3.20045044656899E-03 
1961	-1.37830665372667E-03 
1962	 5.01788593315248E-06 
1963	 7.53340130730701E-03 
1964	 4.15434508635953E-03 
1965	 2.72737059915571E-03 
1966	 3.81491628539149E-03 
1967	 6.37482014110787E-03 
1968	 3.66124984223743E-03 
1969	 4.82632212750459E-03 
1970	 7.39352232060015E-03 
1971	 5.68848111831562E-03 
1972	 3.62535757833258E-03 
1973	 2.22158821654089E-03 
1974	 2.61881905678547E-03 
1975	 4.11619911174649E-03 
1976	 7.31249623234892E-03 
1977	 8.74447244941026E-03 
1978	 7.14625052626546E-03 
1979	 6.97077692897022E-03 
1980	 6.18208020054537E-03 
1981	 4.83643927133751E-03 
1982	 4.47585587455383E-03 
1983	 5.72268146852753E-03 
1984	 5.38511985720395E-03 
1985	 5.34601666600699E-03 
1986	 6.88632242573664E-03 
1987	 7.15927782087613E-03 
1988	 7.14202607390672E-03 
1989	 7.63697900249637E-03 
1990	 6.54217674947525E-03 
1991	 5.45540479547244E-03 
1992	 4.86306074102619E-03 
1993	 3.95296991384071E-03 
1994	 3.80215837368961E-03 
1995	 4.54971577428369E-03 
1996	 6.34409084272847E-03 
1997	 8.1357788736336E-03 
1998	 9.00059484312681E-03 
1999	 8.16041330077829E-03 
2000	 6.96003935322048E-03 
2001	 5.57305919651207E-03 
2002	 4.36963208964657E-03 
2003	 7.14893247996158E-03 
2004	 1.01257435494397E-02 
2005	 1.04914950754967E-02 
2006	 0.011473382835411 
2007	 1.12779540351183E-02 
2008	 8.60798185664627E-03 
2009	 7.04590271385364E-03 
2010	 5.58511790905515E-03 
2011	 5.2347119616359E-03 
2012	 5.13036628942542E-03 
2013	 5.82742406520716E-03 
2014	 5.49024444478982E-03 
2015	 5.68770786401092E-03 
2016	 8.38812813089553E-03 
2017	 8.88425783432936E-03 
2018	 0.007849247713209 
2019	 7.72949673524967E-03 
2020	 5.76452600474987E-03 
2021	 5.03267507524724E-03 
2022	 7.91261254025176E-03 
2023	 8.34108676259585E-03 
2024	 8.56646903683263E-03 
2025	 8.73779486847716E-03 
2026	 9.01188897127356E-03 
2027	 8.80809844591795E-03 
2028	 8.52997258442473E-03 
2029	 8.73122712045858E-03 
2030	 0.00815264736391 
2031	 7.16267520624445E-03 
2032	 7.04275976526978E-03 
2033	 7.98609207919156E-03 
2034	 8.09049556157722E-03 
2035	 7.36172263642648E-03 
2036	 0.007416528219056 
2037	 7.70833424163621E-03 
2038	 7.59266230708454E-03 
2039	 7.47265117839467E-03 
2040	 7.84127532139509E-03 
2041	 7.82478664645334E-03 
2042	 7.03035023390653E-03 
2043	 7.02023133991841E-03 
2044	 7.44735111781826E-03 
2045	 8.14895674756829E-03 
2046	 8.74601696323808E-03 
2047	 8.65125695671856E-03 
2048	 8.28644064272362E-03 
2049	 7.93303745562896E-03 
2050	 7.70886549150115E-03 
2051	 7.85566354031733E-03 
2052	 7.3742645808155E-03 
2053	 7.37132181349451E-03 
2054	 7.71162869737511E-03 
2055	 7.55260173201393E-03 
2056	 7.34143797483133E-03 
2057	 7.06522357297727E-03 
2058	 6.82082644524972E-03 
2059	 6.13107956056419E-03 
2060	 6.3098049413295E-03 
2061	 6.94306000783802E-03 
2062	 8.30909726243968E-03 
2063	 9.43962413030229E-03 
2064	 9.35533747471533E-03 
2065	 7.99566455755857E-03 
2066	 7.23450951791113E-03 
2067	 6.79398298090983E-03 
2068	 5.71627823623131E-03 
2069	 6.07333634668539E-03 
2070	 6.6349831247753E-03 
2071	 7.17248879234625E-03 
2072	 8.21654550015934E-03 
2073	 7.98357049705919E-03 
2074	 6.73560243664639E-03 
2075	 6.49658862676357E-03 
2076	 5.97757847139719E-03 
2077	 5.57573571643515E-03 
2078	 5.53490781780117E-03 
2079	 5.77660823824004E-03 
2080	 5.91400635587571E-03 
2081	 6.24691765446224E-03 
2082	 7.06683287425507E-03 
2083	 7.78061515687174E-03 
2084	 8.1060549678849E-03 
2085	 7.94174014211669E-03 
2086	 7.36615962018182E-03 
2087	 7.30066407766432E-03 
2088	 7.18504768716051E-03 
2089	 6.57899711861022E-03 
2090	 6.31552284279571E-03 
2091	 6.60181947779588E-03 
2092	 6.91776417462084E-03 
2093	 7.79073752653973E-03 
2094	 7.80826349354016E-03 
2095	 7.25066367708138E-03 
2096	 7.22756209051586E-03 
2097	 6.97431436177354E-03 
2098	 6.98317542144684E-03 
2099	 7.71776205579661E-03 
2100	 7.98540364269525E-03 
2101	 7.30270630552915E-03 
2102	 6.81779922673469E-03 
2103	 6.96236099542383E-03 
2104	 7.68951432621324E-03 
2105	 8.85472627972622E-03 
2106	 9.26470846592083E-03 
2107	 8.87337469635234E-03 
2108	 8.88677049759705E-03 
2109	 8.98619706525152E-03 
2110	 8.51929706145814E-03 
2111	 8.27552505186268E-03 
2112	 8.01327984338003E-03 
2113	 8.03456887187942E-03 
2114	 8.62265924896668E-03 
2115	 8.69495164249397E-03 
2116	 8.73497677058499E-03 
2117	 8.63474949851235E-03 
2118	 7.73336864366057E-03 
2119	 7.44100071953745E-03 
2120	 7.45915151823338E-03 
2121	 7.75633439331817E-03 
2122	 7.83039755739444E-03 
2123	 7.90570038671026E-03 
2124	 8.10092463103575E-03 
2125	 7.89695264302431E-03 
2126	 7.61407148302966E-03 
2127	 7.95064061915329E-03 
2128	 8.09915754850407E-03 
2129	 7.81904552879962E-03 
2130	 8.03979200333411E-03 
2131	 7.9997491680874E-03 
2132	 7.73677719562601E-03 
2133	 7.97857496747186E-03 
2134	 7.78491533164001E-03 
2135	 6.81263877992311E-03 
2136	 6.90630709762013E-03 
2137	 7.84148007052242E-03 
2138	 8.17263521324289E-03 
2139	 8.83415679597077E-03 
2140	 9.02836417533883E-03 
2141	 8.4339658859283E-03 
2142	 8.02132831254989E-03 
2143	 7.49417591757499E-03 
2144	 7.2523664509721E-03 
2145	 7.40683320064997E-03 
2146	 7.44204914005608E-03 
2147	 6.96907336520815E-03 
2148	 7.85151010246048E-03 
2149	 8.10680339884358E-03 
2150	 7.34407584006562E-03 
2151	 8.4293407156466E-03 
2152	 8.96624553025722E-03 
2153	 8.48162083243651E-03 
2154	 9.36005697236368E-03 
2155	 9.1991204373761E-03 
2156	 8.76867912554893E-03 
2157	 8.98667497676132E-03 
2158	 1.05710702851552E-02 
2159	 9.74175606816668E-03 
2160	 7.26256742209005E-03 
2161	 6.80921716289005E-03 
2162	 5.83202163890215E-03 
2163	 5.91156830624205E-03 
2164	 8.63580257326302E-03 
2165	 9.16785092159898E-03 
2166	 8.46708567632051E-03 
2167	 0.008119852873555 
2168	 6.9648367020781E-03 
2169	 0.006631569704824 
2170	 6.82674371385904E-03 
2171	 6.84824893350413E-03 
2172	 6.93900488507094E-03 
2173	 6.86005756880024E-03 
2174	 6.46771147942479E-03 
2175	 7.04868636372149E-03 
2176	 7.50251556053841E-03 
2177	 7.45052383683962E-03 
2178	 7.32437581377577E-03 
2179	 6.50910954636503E-03 
2180	 5.76725210553623E-03 
2181	 5.7795449117206E-03 
2182	 5.58998608305246E-03 
2183	 5.34741970862569E-03 
2184	 5.39986977710256E-03 
2185	 5.22329025116498E-03 
2186	 5.54465791218153E-03 
2187	 6.36253198842902E-03 
2188	 6.56436239085857E-03 
2189	 7.21096683416991E-03 
2190	 7.45622997164325E-03 
2191	 6.65857701196934E-03 
2192	 6.65825764947673E-03 
2193	 7.25115299272049E-03 
2194	 7.0678238028738E-03 
2195	 6.34445745201701E-03 
2196	 6.46656213004234E-03 
2197	 6.61635722147517E-03 
2198	 6.61756771337871E-03 
2199	 6.76955210601722E-03 
2200	 8.20215420714579E-03 
2201	 8.70486791652977E-03 
2202	 7.94762565963206E-03 
2203	 7.78214021267506E-03 
2204	 8.61873072154662E-03 
2205	 8.53357706357953E-03 
2206	 8.57551769767483E-03 
2207	 9.58877575938431E-03 
2208	 9.93294604533276E-03 
2209	 9.48716812407909E-03 
2210	 9.32127949348049E-03 
2211	 8.56685949452395E-03 
2212	 6.7904692675522E-03 
2213	 4.95892372392428E-03 
2214	 4.82149556894401E-03 
2215	 5.91525001830304E-03 
2216	 5.85422286404486E-03 
2217	 6.01592898139623E-03 
2218	 6.86307480109824E-03 
2219	 6.91385076327342E-03 
2220	 5.98972609737748E-03 
2221	 6.21107905771927E-03 
2222	 7.0556137322227E-03 
2223	 7.39958627733748E-03 
2224	 8.07925384549349E-03 
2225	 8.14714249325533E-03 
2226	 7.21980776084803E-03 
2227	 7.28549486868335E-03 
2228	 7.2779741375769E-03 
2229	 7.77873271668672E-03 
2230	 9.81936823087698E-03 
2231	 1.05498899836069E-02 
2232	 1.16171723428545E-02 
2233	 1.10940735505514E-02 
2234	 8.32737440320337E-03 
2235	 7.04518365602978E-03 
2236	 6.58909909374939E-03 
2237	 5.34576152249137E-03 
2238	 6.07842447335587E-03 
2239	 6.54214503818374E-03 
2240	 6.10562223320757E-03 
2241	 6.44308784251181E-03 
2242	 6.17092667493981E-03 
2243	 5.59635769242491E-03 
2244	 0.005727539915863 
2245	 5.69986828664004E-03 
2246	 6.31242032127083E-03 
2247	 6.26920373587025E-03 
2248	 4.05220885020504E-03 
2249	 2.23791537119545E-03 
2250	 1.52820696501475E-03 
2251	 2.51536167234215E-03 
2252	 4.47649038036892E-03 
2253	 5.37712558448667E-03 
2254	 5.28405633685421E-03 
2255	 3.34791523183913E-03 
2256	 1.71115629629939E-03 
2257	 2.9207884946173E-03 
2258	 5.52534988557879E-03 
2259	 7.87078530979108E-03 
2260	 8.41065341823469E-03 
2261	 6.67289136710421E-03 
2262	 6.40533716778295E-03 
2263	 5.79839664410953E-03 
2264	 5.37593263577803E-03 
2265	 6.03065546264995E-03 
2266	 6.79444830946602E-03 
2267	 7.18990080549604E-03 
2268	 6.8360598244216E-03 
2269	 6.61252951721055E-03 
2270	 7.25491945253511E-03 
2271	 7.12752449238513E-03 
2272	 7.08840015719246E-03 
2273	 9.00547457992252E-03 
2274	 8.7774973879244E-03 
2275	 5.54821812076877E-03 
2276	 5.18325185781049E-03 
2277	 7.07344482520425E-03 
2278	 6.86182510812765E-03 
2279	 6.26012174817484E-03 
2280	 6.19187459779231E-03 
2281	 5.36098710748168E-03 
2282	 3.47844362147917E-03 
2283	 5.15273677296424E-03 
2284	 8.22092359187203E-03 
2285	 9.08320720179931E-03 
2286	 1.05513717443863E-02 
2287	 9.05197626348947E-03 
2288	 4.65430326078334E-03 
2289	 2.10850528886821E-03 
2290	 3.62524946344163E-04 
2291	-8.60527508577446E-04 
2292	 2.03312900176843E-06 
2293	 1.52382317754246E-03 
2294	 1.06918153642014E-04 
2295	 1.43882198183951E-03 
2296	 5.76434058480773E-03 
2297	 7.23669051874029E-03 
2298	 9.44473474563558E-03 
2299	 1.06833178287055E-02 
2300	 8.14813595367304E-03 
2301	 7.41489091118167E-03 
2302	 9.72983385043776E-03 
2303	 9.52411045467283E-03 
2304	 7.50481881954185E-03 
2305	 7.79161883939453E-03 
2306	 6.5202021859726E-03 
2307	 4.92500658822991E-03 
2308	 7.69413143021128E-03 
2309	 9.05669629880989E-03 
2310	 8.71722711044724E-03 
2311	 9.1858317101593E-03 
2312	 7.18251096224873E-03 
2313	 4.35870666027882E-03 
2314	 4.24850324581586E-03 
2315	 4.83647067824354E-03 
2316	 4.46437807573214E-03 
2317	 0.004094702874077 
2318	 2.49767786947517E-03 
2319	 2.48626786368441E-03 
2320	 4.88487995584951E-03 
2321	 7.98597585354036E-03 
2322	 9.50672873021866E-03 
2323	 7.34360362285057E-03 
2324	 3.12752696881953E-03 
2325	-1.01722338402042E-03 
2326	-2.52998803099802E-03 
2327	-2.09642192598463E-03 
2328	-3.86601775666866E-03 
2329	-5.34293957055615E-03 
2330	-2.50469731297557E-03 
2331	-1.94955001028418E-03 
2332	-1.18961118290611E-03 
2333	 2.93882498048002E-03 
2334	-1.93212460084629E-04 
2335	-2.20135114615121E-03 
2336	 3.33635933922211E-03 
2337	 1.84290836794439E-03 
2338	 1.94869698590967E-03 
2339	 7.55208583415371E-03 
2340	 7.01212811846037E-03 
2341	 7.98298923685881E-03 
2342	 1.16124849949525E-02 
2343	 7.27350253486008E-03 
2344	-3.96056072835048E-04 
2345	 1.35322225231375E-03 
2346	 3.15560703048949E-03 
2347	 2.72927695443821E-04 
2348	-1.63016025282379E-04 
2349	-2.91051419594106E-03 
2350	-6.46283489267308E-03 
2351	-6.04385039965247E-03 
2352	 1.30895682173614E-03 
2353	 0.014765763471153 
2354	 1.78886042325226E-02 
2355	 1.06487506508395E-02 
2356	 3.79426687053523E-03 
2357	-4.10150932219074E-03 
2358	-1.22199674407063E-03 
2359	 9.39608389219519E-03 
2360	 1.24825694909581E-02 
2361	 1.11810814912681E-02 
2362	 7.68477146995715E-03 
2363	 8.32741261402611E-03 
2364	 8.57547348939456E-03 
2365	 5.68390008956863E-05 
2366	-8.27746761721488E-04 
2367	 0.010744006844247 
2368	 1.96082468638362E-02 
2369	 2.02537729478625E-02 
2370	 1.48337383116453E-02 
2371	 5.60788456853256E-03 
2372	 4.07644893396426E-03 
2373	 1.58864293931959E-02 
2374	 2.99739137601651E-02 
2375	 2.19053155816348E-02 
2376	 8.33685206116136E-03 
2377	 1.38550550711409E-02 
2378	 1.13296481823762E-02 
2379	 8.06551005837382E-03 
2380	 1.71168817077071E-03 
2381	-1.50850705875438E-02 
2382	-3.49636969462346E-02 
2383	-5.45659268506647E-02 
2384	-5.16243104559043E-02 
2385	-4.76603037911679E-02 
2386	-4.59509610435827E-02 
2387	-1.77274868256686E-02 
2388	 7.50198580733605E-03 
2389	 1.23639758711228E-02 
2390	 1.51939326945627E-02 
2391	-6.93173848742135E-03 
2392	-2.51843133408934E-02 
2393	-0.017053284900735 
2394	-3.45509444794874E-02 
2395	-6.70905112401514E-02 
2396	-7.62060302479734E-02 
2397	-8.26181366393406E-02 
2398	-7.49472904938756E-02 
2399	-2.70816451443888E-02 
2400	-6.4586336568074E-03 
2401	-2.24993293595483E-02 
2402	-1.03526588317667E-02 
2403	 2.06758427674501E-03 
2404	 8.48130399755377E-03 
2405	-4.46659853496016E-04 
2406	-2.68020983196697E-02 
2407	-2.86400466869095E-02 
2408	-2.17546212418197E-02 
2409	-0.012122632101528 
2410	 2.83069032715605E-02 
2411	 2.56068346841119E-02 
2412	-4.84158681183332E-02 
2413	-5.84167908556152E-02 
2414	-5.25209946090482E-02 
2415	-0.105793173649067 
2416	-7.59504628381269E-02 
2417	-2.64960710450304E-03 
2418	-1.07391068552744E-02 
2419	 2.61090620024082E-02 
2420	 6.45937653588542E-02 
2421	 6.11164844373451E-03 
2422	-7.39321870602737E-02 
2423	-5.02089517327719E-02 
2424	 2.24303515402653E-02 
2425	 6.88113191785163E-02 
2426	 7.65608923007213E-02 
2427	 4.42945045714841E-02 
2428	-5.07969975322404E-02 
2429	-0.150264459930731 
2430	-0.134887452141624 
2431	-0.138049929429281 
2432	-0.181989744642495 
2433	-0.18873883126615 
2434	-0.192388186748025 
2435	-0.214779236064904 
2436	-0.126199474885349 
2437	 0.029317262403992 
2438	 6.67857190660355E-02 
2439	 8.31502572509994E-02 
2440	 2.08235739575727E-02 
2441	-0.15720480584298 
2442	-0.185579281590259 
2443	-0.103340769153467 
2444	-1.04660026500623E-02 
2445	-2.88313875690369E-02 
2446	-0.194559117661289 
2447	-0.408062117316264 
2448	-0.586200702052775 
2449	-0.392200838078123 
2450	-0.235105651169108 
2451	-0.423753900048879 
2452	-1.05015296969344 
2453	-0.53644286948796 
2454	-0.545810364894803 
2455	-0.757656737093668 
2456	-0.569429221410258 
2457	-0.288527530696527 
2458	-0.293617178405378 
2459	 0.119655390052026 
2460	 0.346218412100558 
2461	 0.193724237767778 
2462	 0.284018026658355 
2463	 0.37145735378819 
2464	 0.174156655688587 
2465	-0.320308214622686 
2466	-2.52667056587334 
2467	-14.5314362358214 
2468	-0.833218229823374 
2469	-0.515288734204506 
2470	-1.60746219164701 
2471	 108.579583072614 
2472	 5.16551367456515 
2473	 1.24360915838415 
2474	-0.230515282615558 
2475	 1.32492052940068 
2476	 0.699063016488458 
2477	 0.853868989856651 
2478	 1.82341619376214 
2479	 0.911695118831058 
2480	 0.344398914892259 
2481	-8.97790156660725 
2482	 1.30889971658461 
2483	 1.64419349711811 
2484	 15.8966741605086 
2485	 42.3502987820303 
2486	 21.5923745723391 
2487	-0.189699026385911 
2488	 2.64732912720154 
2489	-1.26242079285027 
2490	-0.740546228513377 
2491	-0.265340793992313 
2492	 0.550447784810404 
2493	 0.648596738571593 
2494	 0.491925797554272 
2495	 0.300185558146683 
2496	 0.126684763675736 
2497	 0.290006050803592 
2498	 0.395210427937839 
2499	 0.149926771076406 
2500	 0.715832295760297 
