Wavelength	rt0713east_close00006.asd
350	 9.53234617203475E-02 
351	 9.53933093866628E-02 
352	 9.50850206720044E-02 
353	 9.47317692948498E-02 
354	 9.44422025728842E-02 
355	 9.36264933762044E-02 
356	 9.39397249227595E-02 
357	 9.44688409847922E-02 
358	 9.40443052514212E-02 
359	 9.41606511587126E-02 
360	 9.36629162502757E-02 
361	 9.28215842841963E-02 
362	 9.28201788433184E-02 
363	 9.32530855624286E-02 
364	 9.34062223138677E-02 
365	 9.30911957967074E-02 
366	 9.29390173041266E-02 
367	 9.29212810738127E-02 
368	 9.30620252997329E-02 
369	 0.093327138996477 
370	 0.093608992865144 
371	 9.30845363151401E-02 
372	 9.25012391857217E-02 
373	 9.32095179994014E-02 
374	 9.31319542649379E-02 
375	 9.28273088757266E-02 
376	 9.28845003013069E-02 
377	 9.35131176942449E-02 
378	 9.35065668266301E-02 
379	 9.32026811789746E-02 
380	 9.30544222936285E-02 
381	 9.24756471468302E-02 
382	 9.29195579120312E-02 
383	 9.36962365400443E-02 
384	 9.33461782341542E-02 
385	 9.29863138011665E-02 
386	 0.093375320079686 
387	 0.093914491958262 
388	 9.27266004362029E-02 
389	 9.31006685482022E-02 
390	 9.36894606127988E-02 
391	 9.34105076457287E-02 
392	 9.42230389092519E-02 
393	 9.40615318404245E-02 
394	 9.36949161673533E-02 
395	 9.43806454780083E-02 
396	 9.39529782438809E-02 
397	 9.40112833619809E-02 
398	 9.45902356695973E-02 
399	 9.43076410716104E-02 
400	 9.41007736002733E-02 
401	 9.42056118405715E-02 
402	 9.45069736765401E-02 
403	 9.43733453848925E-02 
404	 9.43896663504164E-02 
405	 9.45991889780225E-02 
406	 9.48115244120095E-02 
407	 9.47612650903875E-02 
408	 9.47776781744192E-02 
409	 9.49135236885699E-02 
410	 9.49262613946506E-02 
411	 9.49782469740115E-02 
412	 9.50428797630708E-02 
413	 9.50910585675009E-02 
414	 9.51488712976927E-02 
415	 9.53867395662139E-02 
416	 9.56892469391558E-02 
417	 9.58574081729868E-02 
418	 9.59837798720195E-02 
419	 9.61358264301476E-02 
420	 9.63320713604103E-02 
421	 9.65421960398562E-02 
422	 9.68787941949407E-02 
423	 9.71190174436509E-02 
424	 9.71604440470156E-02 
425	 9.74041019786364E-02 
426	 9.78095883082903E-02 
427	 9.81582872232068E-02 
428	 9.82395323958812E-02 
429	 9.86081284778924E-02 
430	 9.90302158661232E-02 
431	 9.93136274449402E-02 
432	 9.94148980278973E-02 
433	 9.97043422661065E-02 
434	 0.100119760191277 
435	 0.100515706299338 
436	 0.100825848187754 
437	 0.101124685435377 
438	 0.101447272690798 
439	 0.101794909208753 
440	 0.102086806701776 
441	 0.102466843695458 
442	 0.102897495974419 
443	 0.103035054110163 
444	 0.103428239952497 
445	 0.103819121000921 
446	 0.103925998790364 
447	 0.104277959685647 
448	 0.104681440017731 
449	 0.105014356986722 
450	 0.10523492981211 
451	 0.10547251119147 
452	 0.105689721528857 
453	 0.105875056688049 
454	 0.106113114695272 
455	 0.106469882084447 
456	 0.106746573486225 
457	 0.106771082563936 
458	 0.107070523380791 
459	 0.107294336123776 
460	 0.107379668098665 
461	 0.107590323383933 
462	 0.107909616334478 
463	 0.108135143999739 
464	 0.10817321437826 
465	 0.108320990195931 
466	 0.108527839929035 
467	 0.108770072457426 
468	 0.109029558883815 
469	 0.109322759146174 
470	 0.10948346384449 
471	 0.109543683787165 
472	 0.109813356096773 
473	 0.109913054003563 
474	 0.11011437513415 
475	 0.110602880408749 
476	 0.110630348088126 
477	 0.110793070811573 
478	 0.111204253429448 
479	 0.111607591052051 
480	 0.111695347439779 
481	 0.111849437469705 
482	 0.112288178394179 
483	 0.11271926090393 
484	 0.113050834650638 
485	 0.11327653073074 
486	 0.113487348447334 
487	 0.113981586793703 
488	 0.114421796024363 
489	 0.114729874460961 
490	 0.115104580784754 
491	 0.115337733316028 
492	 0.115594843282137 
493	 0.11602703504254 
494	 0.116600972302736 
495	 0.116891268976519 
496	 0.117116517671786 
497	 0.117726815323832 
498	 0.118005763621242 
499	 0.118333302971699 
500	 0.118876717400608 
501	 0.11930846332753 
502	 0.119664760895849 
503	 0.12000811625802 
504	 0.120415068049932 
505	 0.120934786650747 
506	 0.121538708006857 
507	 0.122156605522078 
508	 0.12268665469524 
509	 0.122986162049009 
510	 0.123411386579189 
511	 0.124127297214129 
512	 0.124700902212763 
513	 0.125135684456383 
514	 0.125576917086342 
515	 0.126208621654604 
516	 0.126890039049311 
517	 0.127499908286031 
518	 0.127995874693635 
519	 0.128433129362324 
520	 0.129045373028838 
521	 0.129687102864107 
522	 0.13020392294395 
523	 0.130712096352489 
524	 0.131345131608824 
525	 0.132011897489888 
526	 0.132493464700654 
527	 0.133038942293681 
528	 0.133699114641976 
529	 0.134415962473499 
530	 0.134983113819706 
531	 0.13556573270609 
532	 0.136184710939041 
533	 0.136803308301281 
534	 0.137371940419988 
535	 0.137972588841739 
536	 0.138633728717186 
537	 0.139309832989891 
538	 0.139820181104457 
539	 0.140358471512416 
540	 0.141088127940384 
541	 0.141779330008027 
542	 0.142337501261506 
543	 0.142866740240669 
544	 0.143566663496124 
545	 0.144168416256683 
546	 0.144851515564447 
547	 0.145653497793783 
548	 0.14622651318581 
549	 0.146838183793371 
550	 0.147483317952647 
551	 0.148099180672423 
552	 0.148872287007598 
553	 0.149498927895574 
554	 0.149937201999669 
555	 0.150465157074552 
556	 0.151185364019483 
557	 0.151911375148093 
558	 0.152476941603597 
559	 0.153094757734648 
560	 0.153520638866229 
561	 0.153887506961182 
562	 0.154516885130514 
563	 0.155019746824004 
564	 0.155520101431407 
565	 0.156034047878066 
566	 0.156218378900387 
567	 0.156523787432184 
568	 0.156946654616643 
569	 0.157325189987658 
570	 0.157659295250947 
571	 0.158029241448396 
572	 0.158428335981346 
573	 0.158751211813117 
574	 0.159019943086045 
575	 0.15926656048946 
576	 0.159536520880339 
577	 0.15991667706493 
578	 0.160236346124878 
579	 0.160517919737298 
580	 0.160884045444956 
581	 0.161170094979869 
582	 0.161381179214874 
583	 0.161503846273062 
584	 0.161445354729745 
585	 0.16126904921519 
586	 0.160951836875308 
587	 0.160477863155439 
588	 0.160044400389868 
589	 0.159865332051463 
590	 0.159961021217312 
591	 0.16013052491314 
592	 0.16017201346836 
593	 0.160099569244838 
594	 0.160006341465287 
595	 0.160046668657718 
596	 0.160119168134933 
597	 0.160144289138818 
598	 0.16006770941629 
599	 0.159949537276413 
600	 0.159852748679259 
601	 0.159826422722325 
602	 0.159908573456426 
603	 0.159859540147138 
604	 0.159796314217827 
605	 0.15987756500326 
606	 0.159794299198718 
607	 0.159898843806198 
608	 0.160137958815578 
609	 0.160031231091186 
610	 0.159976519297724 
611	 0.160104179332319 
612	 0.16034114509391 
613	 0.160164274443413 
614	 0.16024888362277 
615	 0.160462565740965 
616	 0.160297009232506 
617	 0.16034638605557 
618	 0.16048080611627 
619	 0.160564544858652 
620	 0.160581385455519 
621	 0.160539346049689 
622	 0.160503761631561 
623	 0.160535364449538 
624	 0.160580884106938 
625	 0.160551127770313 
626	 0.160453645254665 
627	 0.160395923895498 
628	 0.160556985338613 
629	 0.160706674493896 
630	 0.160705582448185 
631	 0.160884642108251 
632	 0.16089760967579 
633	 0.160849357865046 
634	 0.161007371344576 
635	 0.161067575235407 
636	 0.161190794562326 
637	 0.161389047659394 
638	 0.161402535117796 
639	 0.16147618496575 
640	 0.161515407048832 
641	 0.161397565635122 
642	 0.161308329892067 
643	 0.161103269172077 
644	 0.160719464137466 
645	 0.160192116714027 
646	 0.159918957387381 
647	 0.159767961462473 
648	 0.159688687197398 
649	 0.160170206998922 
650	 0.159987041011546 
651	 0.159546766152155 
652	 0.159686863918522 
653	 0.15941540899081 
654	 0.15893767308254 
655	 0.158531214160096 
656	 0.158495001862598 
657	 0.158302066503467 
658	 0.158034360728562 
659	 0.157829735850523 
660	 0.15760497581701 
661	 0.157365982483968 
662	 0.15717988927029 
663	 0.157113468612591 
664	 0.156730442637325 
665	 0.15655432959481 
666	 0.156717411339794 
667	 0.156436929674786 
668	 0.156297095121293 
669	 0.156266548388719 
670	 0.156180997234322 
671	 0.156256467373851 
672	 0.156294222983776 
673	 0.156255184063878 
674	 0.156268946282271 
675	 0.156434063772731 
676	 0.156571433383676 
677	 0.156598675836628 
678	 0.156824791844667 
679	 0.156998117470159 
680	 0.15712781615265 
681	 0.157331617166974 
682	 0.157607532003956 
683	 0.157801055651615 
684	 0.157785634458811 
685	 0.157467014068621 
686	 0.157316284163992 
687	 0.157299642480075 
688	 0.157280200168309 
689	 0.157515267272647 
690	 0.157642421259785 
691	 0.157421717570624 
692	 0.156752279236392 
693	 0.156394048425271 
694	 0.156557066774561 
695	 0.157048105500844 
696	 0.157386128478016 
697	 0.157020604924626 
698	 0.156267551921273 
699	 0.155702258985634 
700	 0.155204731324607 
701	 0.155151416324728 
702	 0.155286504158641 
703	 0.154927576994805 
704	 0.154596546814612 
705	 0.154237171385705 
706	 0.153754639790518 
707	 0.153102293980474 
708	 0.152585189177535 
709	 0.152012272567384 
710	 0.151104161463216 
711	 0.150232950581857 
712	 0.14924042923182 
713	 0.147945354025599 
714	 0.146118022923258 
715	 0.143521887637509 
716	 0.140537681396227 
717	 0.138098821016784 
718	 0.136281337176899 
719	 0.135736082211931 
720	 0.135686089283027 
721	 0.135051528771223 
722	 0.13327583371665 
723	 0.130827332229037 
724	 0.128615036772244 
725	 0.127205471824356 
726	 0.125868859607599 
727	 0.124249341370232 
728	 0.122240671696996 
729	 0.119956199533782 
730	 0.118348500018934 
731	 0.11738626745571 
732	 0.116418749399176 
733	 0.115091947454569 
734	 0.113752652232671 
735	 0.112599807009344 
736	 0.111592359339278 
737	 0.11122664380604 
738	 0.11109694690826 
739	 0.11082339848642 
740	 0.110747034284701 
741	 0.110781006480605 
742	 0.110848059117323 
743	 0.110867269660973 
744	 0.110678313127886 
745	 0.110669926388628 
746	 0.110870303372984 
747	 0.110762042262736 
748	 0.110697821164005 
749	 0.110684004982048 
750	 0.110665469372194 
751	 0.110686019282578 
752	 0.110580432996416 
753	 0.110466415700498 
754	 0.110572019025398 
755	 0.110674577261759 
756	 0.110540972011147 
757	 0.110109241398274 
758	 0.109404693498225 
759	 0.10793621703906 
760	 0.106436505393221 
761	 0.106635148662843 
762	 0.106811986948399 
763	 0.107886529643994 
764	 0.109099801766745 
765	 0.109642944415345 
766	 0.110416562005807 
767	 0.110879902414928 
768	 0.111053402825031 
769	 0.111478033295203 
770	 0.111755336430609 
771	 0.111957071041517 
772	 0.112175939001368 
773	 0.112290260431156 
774	 0.112508257389897 
775	 0.112844526624428 
776	 0.113208727959946 
777	 0.113455409118028 
778	 0.113770963370805 
779	 0.114113179979255 
780	 0.114217928570006 
781	 0.11451845519601 
782	 0.114835113167212 
783	 0.115042515269761 
784	 0.115436602164008 
785	 0.115405689433257 
786	 0.115282366706529 
787	 0.115603060882509 
788	 0.115907239236539 
789	 0.116353805339772 
790	 0.116925917319765 
791	 0.117469719326179 
792	 0.118150124224974 
793	 0.118525999452183 
794	 0.118540056729729 
795	 0.118850381829995 
796	 0.119301298511122 
797	 0.119720602574197 
798	 0.120015875206863 
799	 0.120388811142761 
800	 0.120408047293568 
801	 0.12036536330135 
802	 0.120846432257368 
803	 0.121229414182652 
804	 0.121733041996492 
805	 0.122239740337373 
806	 0.122226437025953 
807	 0.121861006393697 
808	 0.121438074354733 
809	 0.121066474872711 
810	 0.120257599374107 
811	 0.119384335190043 
812	 0.118382145738839 
813	 0.11710567277993 
814	 0.115942526729321 
815	 0.115442518578903 
816	 0.11533174348357 
817	 0.114815424423449 
818	 0.115053750404956 
819	 0.115181375478452 
820	 0.114645676098946 
821	 0.113384858236334 
822	 0.112234335847294 
823	 0.111120350499423 
824	 0.109860908322897 
825	 0.108600414258798 
826	 0.106725632213354 
827	 0.10478932265577 
828	 0.103619724503804 
829	 0.101689048147322 
830	 0.100057176350071 
831	 9.89856082425787E-02 
832	 0.098107135114287 
833	 9.75348087733059E-02 
834	 9.71051331560061E-02 
835	 9.66335958157523E-02 
836	 9.59701403616564E-02 
837	 9.56094808676818E-02 
838	 9.55308174125265E-02 
839	 9.55053639000868E-02 
840	 9.50749491484579E-02 
841	 9.49110952229354E-02 
842	 9.47780269538707E-02 
843	 9.43404750936215E-02 
844	 9.45143180003722E-02 
845	 9.40502942830529E-02 
846	 9.33063447166602E-02 
847	 9.35501423747272E-02 
848	 9.32362109949619E-02 
849	 9.26618320623309E-02 
850	 9.22682680344771E-02 
851	 9.23441356407598E-02 
852	 0.092056643569696 
853	 9.18399865114278E-02 
854	 9.18769787433073E-02 
855	 9.12349994378914E-02 
856	 9.08821745342472E-02 
857	 9.08110860749034E-02 
858	 9.07499148191252E-02 
859	 9.05683507463192E-02 
860	 9.02623295235204E-02 
861	 8.99768450509488E-02 
862	 0.08987953118619 
863	 8.98057091636039E-02 
864	 8.96540965568944E-02 
865	 0.089266065759317 
866	 8.85542567573568E-02 
867	 8.85496356158586E-02 
868	 0.088451755179088 
869	 8.79882704325262E-02 
870	 0.087883310488674 
871	 0.087673120797538 
872	 0.087247369323521 
873	 8.66684574817887E-02 
874	 8.61881699017253E-02 
875	 8.59482813825486E-02 
876	 0.08563218488583 
877	 8.50167111125075E-02 
878	 8.47753136153705E-02 
879	 8.44554093462558E-02 
880	 8.40070767978617E-02 
881	 8.35924851258183E-02 
882	 0.083339375644937 
883	 8.29487551500311E-02 
884	 0.082511667518283 
885	 8.23337930702724E-02 
886	 8.17023479481458E-02 
887	 8.13615240448772E-02 
888	 8.13491761945625E-02 
889	 8.07558491912808E-02 
890	 7.95199256115298E-02 
891	 7.87610809139637E-02 
892	 7.88912576209611E-02 
893	 0.078482417840182 
894	 7.72690265166333E-02 
895	 7.58027850652099E-02 
896	 7.48804470841835E-02 
897	 7.48259929399007E-02 
898	 7.40462622620335E-02 
899	 7.33379377010705E-02 
900	 7.36232079608573E-02 
901	 7.29774210511945E-02 
902	 7.35708319625497E-02 
903	 7.43023390929718E-02 
904	 7.33813662713434E-02 
905	 7.18383261207255E-02 
906	 0.071778810377903 
907	 7.25314802277634E-02 
908	 7.15686547794287E-02 
909	 7.05977666350723E-02 
910	 6.97016086902077E-02 
911	 6.94664193348211E-02 
912	 7.06347265503985E-02 
913	 7.06913069273981E-02 
914	 6.85073299634605E-02 
915	 6.61571279721214E-02 
916	 0.067965979870316 
917	 6.72803228870238E-02 
918	 6.68792601323473E-02 
919	 6.73527390737793E-02 
920	 0.065032080473208 
921	 6.54210159195829E-02 
922	 6.55738915884541E-02 
923	 6.33853226559898E-02 
924	 6.20199663086413E-02 
925	 6.23975162023561E-02 
926	 6.25627258147393E-02 
927	 6.03373828145838E-02 
928	 5.72974904935048E-02 
929	 5.94007722473016E-02 
930	 5.97910337546141E-02 
931	 4.75442805111114E-02 
932	 5.82131761628517E-02 
933	 5.52739178978677E-02 
934	 4.73028451592468E-02 
935	 5.88790468577253E-02 
936	 5.11716474656698E-02 
937	 5.20097289919375E-02 
938	 5.45339774812999E-02 
939	 4.81702549037221E-02 
940	 5.04674697469734E-02 
941	 0.049590511523504 
942	 4.47582885626968E-02 
943	 0.041807835890096 
944	 0.047493075567684 
945	 5.00161778030932E-02 
946	 4.67445173153767E-02 
947	 4.30295153645492E-02 
948	 4.54574436008238E-02 
949	 4.90944969191835E-02 
950	 5.17532948719276E-02 
951	 5.30506733368202E-02 
952	 4.86774723626464E-02 
953	 4.55956266874931E-02 
954	 4.43721905765715E-02 
955	 4.18358042547136E-02 
956	 4.49100772813855E-02 
957	 4.84230853300534E-02 
958	 0.048610384954273 
959	 4.52715764532149E-02 
960	 0.049002510371819 
961	 5.23897785993671E-02 
962	 5.08303204861963E-02 
963	 4.53420002656335E-02 
964	 4.81546032648053E-02 
965	 4.82155735922882E-02 
966	 4.64771170766225E-02 
967	 5.12494093034805E-02 
968	 0.052442724658567 
969	 5.01272807731543E-02 
970	 4.86282816519198E-02 
971	 0.05320275879187 
972	 5.31119570060266E-02 
973	 4.96005409308849E-02 
974	 4.82608138022345E-02 
975	 5.47408621982687E-02 
976	 5.19946267915573E-02 
977	 5.09236519281253E-02 
978	 5.29670708472657E-02 
979	 0.050302173748412 
980	 5.14678696458303E-02 
981	 5.34974102476328E-02 
982	 0.053887463430171 
983	 5.22627242760405E-02 
984	 5.30344836523993E-02 
985	 5.32711833389448E-02 
986	 5.29914800056201E-02 
987	 5.44357884408067E-02 
988	 0.054350455904852 
989	 5.63764350712185E-02 
990	 5.76769918781532E-02 
991	 5.25177667402551E-02 
992	 5.05156705473814E-02 
993	 5.50696479775704E-02 
994	 5.94715840788372E-02 
995	 5.40697555251491E-02 
996	 5.11417264812791E-02 
997	 5.64915451602299E-02 
998	 6.06447295397994E-02 
999	 5.16221236773427E-02 
1000	 5.42572435617523E-02 
1001	 5.13289716791125E-02 
1002	 5.22730750124096E-02 
1003	 5.26146042457323E-02 
1004	 5.29524215584444E-02 
1005	 5.30170503688594E-02 
1006	 5.23482964570226E-02 
1007	 5.22463337524222E-02 
1008	 5.22286140038986E-02 
1009	 5.12514664121366E-02 
1010	 5.07807619555477E-02 
1011	 5.04718605573806E-02 
1012	 5.05979250579636E-02 
1013	 0.051174363451093 
1014	 5.16236429473671E-02 
1015	 5.27703970365237E-02 
1016	 5.30192870361349E-02 
1017	 5.26647399672247E-02 
1018	 5.25737523618239E-02 
1019	 5.18248290980975E-02 
1020	 5.18265493839814E-02 
1021	 5.24537953640227E-02 
1022	 5.30206076475049E-02 
1023	 5.27868746768803E-02 
1024	 5.27252413586208E-02 
1025	 5.22725789153875E-02 
1026	 5.17950494285466E-02 
1027	 5.18542993925295E-02 
1028	 0.052504279327804 
1029	 5.30747478517739E-02 
1030	 5.41084553041079E-02 
1031	 5.42460366612713E-02 
1032	 5.39829218520926E-02 
1033	 5.41765900443383E-02 
1034	 5.40631536107786E-02 
1035	 5.40735745412648E-02 
1036	 5.47157713009318E-02 
1037	 5.48983830277818E-02 
1038	 5.46073011371652E-02 
1039	 5.41761922579388E-02 
1040	 5.45081593201057E-02 
1041	 5.46803913995047E-02 
1042	 5.48161993543607E-02 
1043	 0.054995465782685 
1044	 0.055418297253874 
1045	 5.60621255220221E-02 
1046	 5.62023516330843E-02 
1047	 5.63551479009225E-02 
1048	 5.64170653792836E-02 
1049	 5.57154145087024E-02 
1050	 5.57141394481223E-02 
1051	 0.056395415457938 
1052	 0.056693995053463 
1053	 5.72055876707761E-02 
1054	 5.73227404380102E-02 
1055	 5.68136698877195E-02 
1056	 5.67231716664248E-02 
1057	 0.056703449361933 
1058	 5.65073018802462E-02 
1059	 0.056729401858893 
1060	 5.76614720602583E-02 
1061	 5.76878584557207E-02 
1062	 5.72946048237395E-02 
1063	 5.72630268858756E-02 
1064	 5.69152463422504E-02 
1065	 5.68209664692615E-02 
1066	 5.73181595428343E-02 
1067	 5.73439570982634E-02 
1068	 5.68523196899485E-02 
1069	 5.67694372364205E-02 
1070	 5.68373522798663E-02 
1071	 5.68184182312233E-02 
1072	 5.67789512018649E-02 
1073	 5.71967679240563E-02 
1074	 5.71037856019996E-02 
1075	 5.65818117424277E-02 
1076	 5.66222226547577E-02 
1077	 5.69895983088673E-02 
1078	 5.68563003135258E-02 
1079	 5.67801209753978E-02 
1080	 0.056624056980077 
1081	 5.57138190602208E-02 
1082	 5.54944715866196E-02 
1083	 5.60955803351249E-02 
1084	 5.60637817267844E-02 
1085	 5.59122194178864E-02 
1086	 5.57980120417681E-02 
1087	 5.48972054184465E-02 
1088	 5.46870476857075E-02 
1089	 5.52921723638439E-02 
1090	 5.56907108103391E-02 
1091	 5.53939315083952E-02 
1092	 5.51709099594797E-02 
1093	 5.45370383525413E-02 
1094	 5.24406363234629E-02 
1095	 5.19187707710745E-02 
1096	 5.22998831734852E-02 
1097	 5.22202193391537E-02 
1098	 5.27778398714982E-02 
1099	 5.27125930860042E-02 
1100	 5.20334508413244E-02 
1101	 5.17316717113537E-02 
1102	 5.12091580761784E-02 
1103	 5.09005856512725E-02 
1104	 5.13382207427293E-02 
1105	 5.07471379726545E-02 
1106	 4.95907295322868E-02 
1107	 5.05564801392566E-02 
1108	 5.05066272735174E-02 
1109	 4.94201680892085E-02 
1110	 0.048841987625996 
1111	 4.79650052640826E-02 
1112	 0.04724407779503 
1113	 0.046098211173179 
1114	 4.61180731064375E-02 
1115	 4.79637714393095E-02 
1116	 4.87545281879363E-02 
1117	 5.17190302769006E-02 
1118	 5.25514613461493E-02 
1119	 4.75656035668142E-02 
1120	 4.56949416309383E-02 
1121	 4.34824101063621E-02 
1122	 4.35392884137781E-02 
1123	 4.63977614283245E-02 
1124	 4.52242143990607E-02 
1125	 4.66478663378519E-02 
1126	 0.046559380068948 
1127	 4.21586292834629E-02 
1128	 3.99466203955033E-02 
1129	 3.72587923606969E-02 
1130	 2.75736216251919E-02 
1131	 3.14845751890269E-02 
1132	 4.62017856994299E-02 
1133	 4.60467935628102E-02 
1134	 0.041572800376369 
1135	 0.041030064588851 
1136	 3.76113886666514E-02 
1137	 3.76039893614192E-02 
1138	 4.20574597341744E-02 
1139	 4.46428439318034E-02 
1140	 4.74242735050575E-02 
1141	 4.02213843632611E-02 
1142	 3.44355889868839E-02 
1143	 3.70485612421555E-02 
1144	 3.32961327972144E-02 
1145	 3.20034384940149E-02 
1146	 4.08256219702642E-02 
1147	 4.31838834127477E-02 
1148	 3.88939062542251E-02 
1149	 3.69203290561149E-02 
1150	 3.56466946709156E-02 
1151	 2.77260821579839E-02 
1152	 2.89946833937887E-02 
1153	 0.038609049889789 
1154	 4.08053150805104E-02 
1155	 4.15554448057936E-02 
1156	 4.15758079864702E-02 
1157	 4.23046300890641E-02 
1158	 4.22171259503781E-02 
1159	 4.29693572644804E-02 
1160	 4.35977067015959E-02 
1161	 4.25406668229098E-02 
1162	 4.26584952949171E-02 
1163	 4.34164411763867E-02 
1164	 4.33844811148054E-02 
1165	 4.46383138382198E-02 
1166	 4.53234551529062E-02 
1167	 4.40928347417204E-02 
1168	 4.41212124813964E-02 
1169	 0.045017490189057 
1170	 4.50031457735376E-02 
1171	 4.51910559813601E-02 
1172	 0.046672902031974 
1173	 4.68053235378764E-02 
1174	 4.59659702079473E-02 
1175	 4.50100203603218E-02 
1176	 0.045212545608044 
1177	 4.56157686836158E-02 
1178	 4.60282283105243E-02 
1179	 4.67415053123202E-02 
1180	 4.69931663354397E-02 
1181	 4.67309501238465E-02 
1182	 4.70257685340676E-02 
1183	 4.72375787888802E-02 
1184	 4.67383947269445E-02 
1185	 4.61206593440088E-02 
1186	 4.54437637548999E-02 
1187	 4.56312871869533E-02 
1188	 4.66121489450935E-02 
1189	 4.65516339653029E-02 
1190	 4.59792280595727E-02 
1191	 4.60945552666875E-02 
1192	 4.60676607327027E-02 
1193	 4.56646908590662E-02 
1194	 4.57588597826499E-02 
1195	 4.68152048154404E-02 
1196	 4.69188098971027E-02 
1197	 4.63234077420023E-02 
1198	 4.65648269068892E-02 
1199	 4.68245565150919E-02 
1200	 4.64685965247278E-02 
1201	 4.64147924760276E-02 
1202	 4.68732170704174E-02 
1203	 4.70127995380912E-02 
1204	 4.71533040980386E-02 
1205	 4.73907278100088E-02 
1206	 4.70701028117152E-02 
1207	 0.047328838149675 
1208	 4.84089020067353E-02 
1209	 4.82613404430441E-02 
1210	 4.74237510247603E-02 
1211	 4.73667386616698E-02 
1212	 4.67478854996645E-02 
1213	 4.62116856808376E-02 
1214	 4.60845641758873E-02 
1215	 0.04695409536543 
1216	 4.67683801136647E-02 
1217	 4.66459832021218E-02 
1218	 4.70752946907593E-02 
1219	 4.75906759338537E-02 
1220	 4.83717310305139E-02 
1221	 4.83064190079899E-02 
1222	 4.79022951385418E-02 
1223	 4.77370336210459E-02 
1224	 4.70877094931041E-02 
1225	 4.70155601675933E-02 
1226	 4.77237261553374E-02 
1227	 4.82154186766794E-02 
1228	 4.85701305408303E-02 
1229	 4.87566255602074E-02 
1230	 4.85358879773791E-02 
1231	 4.83870924746603E-02 
1232	 4.86393214865578E-02 
1233	 4.88109327032437E-02 
1234	 4.90244699247158E-02 
1235	 0.04904882873944 
1236	 4.88134574773836E-02 
1237	 4.86477958314287E-02 
1238	 4.82611044241743E-02 
1239	 4.84272090841436E-02 
1240	 4.88761785937246E-02 
1241	 4.90235859248938E-02 
1242	 4.91899793230974E-02 
1243	 4.90671231820692E-02 
1244	 4.86884731078173E-02 
1245	 4.89188873581907E-02 
1246	 4.92702369595967E-02 
1247	 4.93741167525132E-02 
1248	 0.049418253209337 
1249	 4.92997921721356E-02 
1250	 4.93889154706187E-02 
1251	 4.94740390348182E-02 
1252	 4.89943983561912E-02 
1253	 4.87887007157776E-02 
1254	 4.91842198970989E-02 
1255	 4.92861549088262E-02 
1256	 0.049027453609064 
1257	 4.85767568950931E-02 
1258	 4.86034683340792E-02 
1259	 0.048374535089184 
1260	 4.82741475180935E-02 
1261	 4.90451734609368E-02 
1262	 4.93021470951955E-02 
1263	 4.93010727713313E-02 
1264	 4.83452536408448E-02 
1265	 4.79919093760347E-02 
1266	 4.84032030271539E-02 
1267	 4.83060922912773E-02 
1268	 4.83527171892788E-02 
1269	 4.84640442353162E-02 
1270	 4.81333993110898E-02 
1271	 0.048093891215356 
1272	 4.82889761972649E-02 
1273	 4.80868039290939E-02 
1274	 4.79482283634882E-02 
1275	 4.82635883957265E-02 
1276	 4.80944311872111E-02 
1277	 0.047859639973382 
1278	 4.85324877529347E-02 
1279	 4.87738897646686E-02 
1280	 4.82694755239988E-02 
1281	 4.82005611710738E-02 
1282	 4.88409988794869E-02 
1283	 4.88734416034041E-02 
1284	 0.048342197403491 
1285	 4.81830285631473E-02 
1286	 4.81537719662011E-02 
1287	 0.048188872440056 
1288	 4.83361871653207E-02 
1289	 4.83404041974668E-02 
1290	 4.86220445521298E-02 
1291	 4.83240440998735E-02 
1292	 4.79871522948541E-02 
1293	 4.78357489976833E-02 
1294	 0.047954475137578 
1295	 4.81889439162034E-02 
1296	 4.77434729427053E-02 
1297	 4.73482021207541E-02 
1298	 4.79624620113589E-02 
1299	 4.83034039507723E-02 
1300	 4.75513798298526E-02 
1301	 4.73989632593252E-02 
1302	 4.73650642934037E-02 
1303	 4.59442618010543E-02 
1304	 4.53446731572187E-02 
1305	 4.63990961530659E-02 
1306	 4.65263546060261E-02 
1307	 4.59623569754936E-02 
1308	 4.57949591390666E-02 
1309	 4.58938522542333E-02 
1310	 0.045523369617057 
1311	 0.044809171771814 
1312	 4.48607612383732E-02 
1313	 4.56560799150346E-02 
1314	 4.53127509022171E-02 
1315	 4.40297181523027E-02 
1316	 4.37950595554864E-02 
1317	 4.36347671181642E-02 
1318	 4.32062842898299E-02 
1319	 4.35338798867321E-02 
1320	 4.41328850390834E-02 
1321	 4.48712494691381E-02 
1322	 4.42054699164029E-02 
1323	 4.39601162236781E-02 
1324	 4.47876505748393E-02 
1325	 4.49267997226924E-02 
1326	 4.39569140436583E-02 
1327	 4.46317255227497E-02 
1328	 4.49662055385069E-02 
1329	 4.20638581431148E-02 
1330	 4.04691553357046E-02 
1331	 4.19780095857474E-02 
1332	 4.29271699770605E-02 
1333	 0.040924106503165 
1334	 0.039278476321651 
1335	 3.96347102010671E-02 
1336	 3.87350062475421E-02 
1337	 3.73350592482978E-02 
1338	 3.93246139033076E-02 
1339	 4.03304958480987E-02 
1340	 3.71660114023255E-02 
1341	 3.71450194440531E-02 
1342	 4.25555587060182E-02 
1343	 4.50095211267905E-02 
1344	 0.046028319684244 
1345	 4.64910327845943E-02 
1346	 0.043465770250714 
1347	 4.54982708794896E-02 
1348	 5.53015976012696E-02 
1349	 5.86404176113679E-02 
1350	 5.82668608417453E-02 
1351	 6.53980102475387E-02 
1352	 5.93795814328581E-02 
1353	 5.68189936965879E-02 
1354	 7.76701949713441E-02 
1355	 0.141325670205508 
1356	 0.189614274101408 
1357	 0.240300103099643 
1358	 0.314014931091555 
1359	 0.433619778336066 
1360	 0.548600647881321 
1361	 0.45582459394478 
1362	 0.597135447302389 
1363	 0.99578185611259 
1364	 1.04849750757668 
1365	 1.07965743172278 
1366	 0.460984528879976 
1367	 0.114081109719813 
1368	-3.58127378177525E-02 
1369	 0.283299879495937 
1370	 0.24625911722257 
1371	 0.225303940673443 
1372	 0.187962212270304 
1373	 5.42318016358168E-02 
1374	-9.19209392820781E-02 
1375	-0.350464944956806 
1376	-0.261520969509369 
1377	 0.294714484874534 
1378	 0.193847922314691 
1379	-5.47601895244517E-02 
1380	 2.72309593517389E-02 
1381	 5.95210494994915E-02 
1382	-1.66944872097142E-02 
1383	 0.571168765996564 
1384	 1.67426081680275 
1385	 1.11876278874794 
1386	 0.481668655297248 
1387	 0.283525082851618 
1388	 0.637688439473434 
1389	 0.845976932716844 
1390	 0.617626660291055 
1391	 2.08380176276565 
1392	 4.80990944042045 
1393	 5.52741862541711 
1394	 6.22176712703958 
1395	 1.32062189817426 
1396	 1.83118646664435 
1397	 2.28708791140914 
1398	 0.573122336823302 
1399	 0.23559681513901 
1400	 0.16215626343824 
1401	 0.123290979197985 
1402	 0.315979742594672 
1403	 1.2801804882883 
1404	 1.89431525392879 
1405	 3.23913185826474 
1406	 2.20908320033277 
1407	 1.6053486359857 
1408	 1.67295509688857 
1409	 1.28007727331324 
1410	 0.489889752689785 
1411	 0.453666252804541 
1412	 0.933178441587513 
1413	 0.907827382375907 
1414	 1.01480276735639 
1415	 0.627827572989875 
1416	 0.142927824118141 
1417	 0.189404993668578 
1418	 0.331182071804096 
1419	 0.277170881559052 
1420	 0.27070400248423 
1421	 0.258844874121859 
1422	 0.144072006409694 
1423	 0.129081106465807 
1424	 0.243171162628356 
1425	 0.229575677345122 
1426	 0.124337402369141 
1427	 0.103067981274373 
1428	 0.125420120377843 
1429	 8.67012434987692E-02 
1430	-1.69283339712925E-02 
1431	-1.37919982020281E-02 
1432	 2.82189798573035E-02 
1433	 3.35149357284526E-02 
1434	 0.109628580495734 
1435	 0.146896068090818 
1436	 0.146994236696058 
1437	 0.105477406646033 
1438	 3.70630165228462E-02 
1439	 0.033562478874011 
1440	 0.043555920310393 
1441	 1.95769040454469E-02 
1442	 4.51332956761616E-02 
1443	 6.38397074618198E-02 
1444	 6.95803952371082E-02 
1445	 7.78170577758612E-02 
1446	 6.78076672803337E-02 
1447	 6.44403328086999E-02 
1448	 4.99435062631384E-02 
1449	 0.031900525269963 
1450	 3.15740294181574E-02 
1451	 3.34125750130631E-02 
1452	 3.58200024002978E-02 
1453	 3.75733175281853E-02 
1454	 3.80578749558447E-02 
1455	 3.50333262382269E-02 
1456	 3.50696154768842E-02 
1457	 3.61219648187888E-02 
1458	 0.038322075386278 
1459	 4.27020990872186E-02 
1460	 4.30628305211679E-02 
1461	 4.25201558601865E-02 
1462	 4.33758293709791E-02 
1463	 4.20225150002631E-02 
1464	 4.12328482725695E-02 
1465	 4.37485880902174E-02 
1466	 4.37736714002059E-02 
1467	 3.86630844862759E-02 
1468	 3.82879074282291E-02 
1469	 4.29219465585986E-02 
1470	 4.31505197899826E-02 
1471	 4.06746242945991E-02 
1472	 0.042890595171493 
1473	 0.047731131935227 
1474	 4.56481436397171E-02 
1475	 4.13818176554326E-02 
1476	 4.16280016288407E-02 
1477	 4.05993580643176E-02 
1478	 3.82388493294458E-02 
1479	 3.90078140457709E-02 
1480	 3.94651652250475E-02 
1481	 3.65693016322739E-02 
1482	 0.035691648037965 
1483	 3.62901878903807E-02 
1484	 3.73172732674715E-02 
1485	 3.87989876207472E-02 
1486	 3.94192629254364E-02 
1487	 4.08883480421702E-02 
1488	 4.20778903197379E-02 
1489	 0.041779644992803 
1490	 4.16699494815765E-02 
1491	 4.19827712416296E-02 
1492	 4.28467046565267E-02 
1493	 4.43827063566535E-02 
1494	 4.42801104196275E-02 
1495	 4.37202190378967E-02 
1496	 4.35795830223136E-02 
1497	 4.19241288574223E-02 
1498	 4.19554420368925E-02 
1499	 4.41498722467709E-02 
1500	 4.44617393179129E-02 
1501	 0.043948626194681 
1502	 4.41786853026748E-02 
1503	 4.42843549844297E-02 
1504	 4.40303605625967E-02 
1505	 4.38627964843309E-02 
1506	 4.38202316170361E-02 
1507	 4.45071875052196E-02 
1508	 0.044905698802393 
1509	 4.47627597227023E-02 
1510	 4.52221948939794E-02 
1511	 4.52199337970154E-02 
1512	 4.51429301273631E-02 
1513	 4.61085002005783E-02 
1514	 4.68738908629685E-02 
1515	 4.67756356536918E-02 
1516	 4.61790251850859E-02 
1517	 4.58425898498155E-02 
1518	 4.56128320843301E-02 
1519	 4.54113837216949E-02 
1520	 4.54028454320163E-02 
1521	 4.51904854127507E-02 
1522	 4.54269308164669E-02 
1523	 4.64027711987569E-02 
1524	 4.67713097816002E-02 
1525	 4.63980349453401E-02 
1526	 4.65393694528773E-02 
1527	 4.65552967621856E-02 
1528	 4.61019319389213E-02 
1529	 0.046174594155818 
1530	 4.66901160140662E-02 
1531	 0.047106949705438 
1532	 4.73769639238336E-02 
1533	 4.76241664128706E-02 
1534	 4.74508660144081E-02 
1535	 4.68316409649752E-02 
1536	 0.046560074865446 
1537	 4.67732714772601E-02 
1538	 4.71206417023161E-02 
1539	 4.73740534796625E-02 
1540	 4.75377471481541E-02 
1541	 4.80915792993733E-02 
1542	 4.81764494746886E-02 
1543	 4.75253846450819E-02 
1544	 4.77062446341703E-02 
1545	 4.79560349417355E-02 
1546	 4.77994383612292E-02 
1547	 4.83950420108172E-02 
1548	 4.86921488885243E-02 
1549	 4.81129586649122E-02 
1550	 4.79042350581547E-02 
1551	 4.76877097451293E-02 
1552	 4.72890507544103E-02 
1553	 4.76027535084733E-02 
1554	 4.79292250968869E-02 
1555	 4.83023575492378E-02 
1556	 4.86811615804305E-02 
1557	 4.83417397047261E-02 
1558	 4.80765894885336E-02 
1559	 4.76764081998653E-02 
1560	 0.047418665468951 
1561	 4.79440382340094E-02 
1562	 4.82667260733166E-02 
1563	 4.86391348117422E-02 
1564	 4.91469977699731E-02 
1565	 4.93937041908871E-02 
1566	 4.92855690588457E-02 
1567	 4.84417922621343E-02 
1568	 4.78641386083966E-02 
1569	 4.78604587148915E-02 
1570	 0.047652620409239 
1571	 4.78529932737774E-02 
1572	 0.048337215442295 
1573	 4.81532879240001E-02 
1574	 4.78782534041561E-02 
1575	 4.80309097615982E-02 
1576	 4.81709457722611E-02 
1577	 4.79637258153942E-02 
1578	 4.79201021777313E-02 
1579	 4.80265039435945E-02 
1580	 4.77035148459046E-02 
1581	 4.75109426585311E-02 
1582	 4.78253078813621E-02 
1583	 4.81802904787541E-02 
1584	 4.80136092727571E-02 
1585	 4.78103381121368E-02 
1586	 4.79271514823989E-02 
1587	 0.047840837680498 
1588	 4.79125575370841E-02 
1589	 4.80345147772461E-02 
1590	 4.76247023857286E-02 
1591	 4.72131885003692E-02 
1592	 4.75976921804871E-02 
1593	 4.87375323046713E-02 
1594	 4.92833681956075E-02 
1595	 4.89229685832459E-02 
1596	 0.04854094498499 
1597	 4.83169316878326E-02 
1598	 4.84363074538987E-02 
1599	 4.84418401414817E-02 
1600	 4.84158894600289E-02 
1601	 4.86202198126556E-02 
1602	 4.83742229926224E-02 
1603	 4.85490641483478E-02 
1604	 4.88297659602669E-02 
1605	 4.80235154792338E-02 
1606	 4.75196364307769E-02 
1607	 4.78603034100771E-02 
1608	 4.80757983224146E-02 
1609	 0.047757587737466 
1610	 4.74788211484716E-02 
1611	 4.77433058598999E-02 
1612	 4.80466133003852E-02 
1613	 4.84692803128364E-02 
1614	 0.048869327125962 
1615	 0.048381724708405 
1616	 0.048256670564577 
1617	 4.89906347487838E-02 
1618	 4.93834320903945E-02 
1619	 0.049669676765592 
1620	 4.88617188867846E-02 
1621	 4.76244090110486E-02 
1622	 4.80347046320343E-02 
1623	 4.86260409692167E-02 
1624	 0.048502852472052 
1625	 4.84967066321731E-02 
1626	 4.78734777964748E-02 
1627	 4.72071834614567E-02 
1628	 0.047692330778268 
1629	 4.81180381322004E-02 
1630	 4.86913740714467E-02 
1631	 0.049102172572014 
1632	 4.90221094055803E-02 
1633	 4.89278521257853E-02 
1634	 4.81267866163878E-02 
1635	 4.78852839333705E-02 
1636	 4.83010760838539E-02 
1637	 4.84934190971954E-02 
1638	 4.92060346646002E-02 
1639	 4.92136934818652E-02 
1640	 4.78487043817969E-02 
1641	 4.74249077447579E-02 
1642	 4.79365159410848E-02 
1643	 4.75426705047546E-02 
1644	 4.72983346831856E-02 
1645	 4.83658404161985E-02 
1646	 4.88669159371867E-02 
1647	 4.80496727856381E-02 
1648	 4.79046647868862E-02 
1649	 4.83154434869871E-02 
1650	 4.77436180104145E-02 
1651	 4.77391204617475E-02 
1652	 4.86991187237724E-02 
1653	 4.89531010369238E-02 
1654	 4.85635433422026E-02 
1655	 4.81198551717723E-02 
1656	 4.84204741614918E-02 
1657	 4.79544080865985E-02 
1658	 4.76367230701316E-02 
1659	 4.85785348001666E-02 
1660	 4.90043640894262E-02 
1661	 4.89689167269517E-02 
1662	 4.89515484453664E-02 
1663	 4.89528528383752E-02 
1664	 4.88974242675378E-02 
1665	 4.81923499240816E-02 
1666	 4.82449644916725E-02 
1667	 0.049470057633454 
1668	 0.049199586269349 
1669	 4.87246170538122E-02 
1670	 4.85955844485476E-02 
1671	 4.86718173997524E-02 
1672	 4.93206960343512E-02 
1673	 4.89265834077674E-02 
1674	 4.83560840980039E-02 
1675	 4.89721134236101E-02 
1676	 4.85320008802911E-02 
1677	 4.80073897913609E-02 
1678	 4.91313340157203E-02 
1679	 4.90677695336845E-02 
1680	 4.82411386913716E-02 
1681	 4.88862092242045E-02 
1682	 4.89164568934418E-02 
1683	 4.81317890391444E-02 
1684	 4.87963766127823E-02 
1685	 0.049479665492711 
1686	 4.82781692597332E-02 
1687	 4.75226594673409E-02 
1688	 0.048459514893337 
1689	 4.90479192766509E-02 
1690	 4.93322128206058E-02 
1691	 4.93148909126621E-02 
1692	 4.74071484937724E-02 
1693	 4.71825641429314E-02 
1694	 4.96134260074097E-02 
1695	 0.050233229987634 
1696	 5.01833259054745E-02 
1697	 4.96077267543793E-02 
1698	 4.80078675460925E-02 
1699	 4.81709593696268E-02 
1700	 0.04918899754684 
1701	 4.87392790265839E-02 
1702	 4.70701334944193E-02 
1703	 4.65474465547383E-02 
1704	 4.69151594319538E-02 
1705	 4.63886003664401E-02 
1706	 4.68472437244687E-02 
1707	 4.82012642460084E-02 
1708	 4.75325150729011E-02 
1709	 4.74411611739485E-02 
1710	 4.91359186466199E-02 
1711	 4.86266004905387E-02 
1712	 4.81336062589761E-02 
1713	 4.88866228423087E-02 
1714	 4.85891599876068E-02 
1715	 4.75137766210676E-02 
1716	 4.80101875529785E-02 
1717	 4.76769533950848E-02 
1718	 4.72313814138387E-02 
1719	 4.83204689771055E-02 
1720	 4.90266595883922E-02 
1721	 4.92320987494735E-02 
1722	 4.92251309096011E-02 
1723	 4.75259635650489E-02 
1724	 4.65303818563366E-02 
1725	 4.67994846327793E-02 
1726	 4.66608481850539E-02 
1727	 4.75419609919291E-02 
1728	 4.75699423552597E-02 
1729	 4.59756505707877E-02 
1730	 4.60137866301366E-02 
1731	 4.61344253780432E-02 
1732	 4.59011036465331E-02 
1733	 0.046812328491123 
1734	 4.74079228566107E-02 
1735	 4.72469177110197E-02 
1736	 4.67168005602948E-02 
1737	 4.60245531318847E-02 
1738	 4.48379252427856E-02 
1739	 4.42524513664856E-02 
1740	 4.45242205498678E-02 
1741	 4.45936864090899E-02 
1742	 4.54535327200604E-02 
1743	 4.64532169998085E-02 
1744	 4.63615102994311E-02 
1745	 0.045613285960517 
1746	 4.44095084345075E-02 
1747	 4.47720385925674E-02 
1748	 4.72880710026939E-02 
1749	 4.73638486635663E-02 
1750	 4.65578786648346E-02 
1751	 4.67237197911101E-02 
1752	 4.59430777665365E-02 
1753	 4.52698508488539E-02 
1754	 4.56028485308963E-02 
1755	 4.54293053370532E-02 
1756	 4.36494892081671E-02 
1757	 4.50019211176953E-02 
1758	 4.71095688971952E-02 
1759	 4.59604452132632E-02 
1760	 4.35373964266933E-02 
1761	 4.33083777016345E-02 
1762	 4.16649171231912E-02 
1763	 4.17688831328888E-02 
1764	 4.56671816372319E-02 
1765	 4.55178346305247E-02 
1766	 4.38849518551341E-02 
1767	 0.043468180603467 
1768	 3.93149143752877E-02 
1769	 3.86212070357828E-02 
1770	 4.27150459778298E-02 
1771	 4.50612355359794E-02 
1772	 4.72526840153004E-02 
1773	 4.57185836445718E-02 
1774	 0.041720934470115 
1775	 4.01605847288305E-02 
1776	 3.97099439917547E-02 
1777	 4.19317434907404E-02 
1778	 0.04373096003195 
1779	 4.75185114172966E-02 
1780	 4.85172599593109E-02 
1781	 4.79843493203116E-02 
1782	 0.046619718000253 
1783	 3.91020304478095E-02 
1784	 3.90925560375553E-02 
1785	 4.49250969922361E-02 
1786	 4.75032420111455E-02 
1787	 5.61345196951985E-02 
1788	 5.51669548017079E-02 
1789	 4.39861372365608E-02 
1790	 4.18769896887296E-02 
1791	 3.51550792336701E-02 
1792	 0.040336225328773 
1793	 4.21138310979797E-02 
1794	 4.47284544702179E-02 
1795	 5.32072898411351E-02 
1796	 5.24927571534242E-02 
1797	 5.94089235368816E-02 
1798	 5.47910516418795E-02 
1799	 4.78552128225304E-02 
1800	 6.88627254031813E-02 
1801	 6.77077240326632E-02 
1802	 3.65456102085889E-02 
1803	 2.97563035815982E-02 
1804	 1.17188750151261E-02 
1805	 7.05932607374329E-03 
1806	 6.96465073686559E-02 
1807	 0.196912011807514 
1808	 0.533745563476369 
1809	 0.718628650846632 
1810	 0.526784414301462 
1811	 0.61609499359227 
1812	 0.461773062182326 
1813	 0.587308626944464 
1814	-6.07293557906524 
1815	-2.73068673580081 
1816	 115.720411824964 
1817	 2.75055702484101 
1818	 0.784686177293326 
1819	 1.08435017810221 
1820	-1.18532712480277 
1821	 0.267895156083917 
1822	 0.455703595325393 
1823	-0.511517682818714 
1824	 0.367778624973788 
1825	 0.168377394389347 
1826	 0.270530432724607 
1827	-34.5093647365374 
1828	-4.80997591824349 
1829	 2.4818825484768 
1830	 0.915198431613153 
1831	 1.74285958626198 
1832	 0.959656043883017 
1833	 0.843855507297207 
1834	 0.647385779253764 
1835	 3.02088540078076 
1836	-23.7714103843695 
1837	 0.359430244909249 
1838	 1.42631347505074 
1839	 0.479884549451149 
1840	 0.538882845788553 
1841	 0.521885267592138 
1842	 0.509950331273328 
1843	 0.470819251394236 
1844	 0.123480167906626 
1845	-0.432142889940913 
1846	 0.778502862156488 
1847	 0.626335793278442 
1848	 0.507581908442258 
1849	 0.488924601376058 
1850	-9.96382417630743E-03 
1851	-0.166818040196082 
1852	 1.61057036320111 
1853	 3.19055559126549 
1854	-2.80548791941428 
1855	-1.00137022003261 
1856	-0.925240246959326 
1857	-1.17691397197754 
1858	-0.921859486258382 
1859	-0.726547421461547 
1860	 0.555463523026661 
1861	 6.60652121210239 
1862	-0.739640966427416 
1863	 3.38849358105781 
1864	-13.8202402458099 
1865	-3.30875856796672 
1866	-0.519203898520355 
1867	-0.442867380393069 
1868	-0.751441179677071 
1869	 1.07263573487984 
1870	 0.266719542636656 
1871	 0.108578763168924 
1872	 1.29141413905036 
1873	 1.69123930629789 
1874	 1.13562977395614 
1875	 1.28629618810913 
1876	 1.18473826740293 
1877	 0.45955157626296 
1878	 0.297813259771865 
1879	 0.781878468807353 
1880	 0.46669403890912 
1881	 5.76161669569848E-02 
1882	-0.196840310857085 
1883	-0.739577784942522 
1884	-0.810896244554336 
1885	-1.83559991811974 
1886	-0.764309882439533 
1887	 4.45006112294097 
1888	 5.38737252407478 
1889	 5.65288623482772 
1890	 3.10610795983565 
1891	 2.21328085151583 
1892	 4.723236118393 
1893	 1.47334702413424 
1894	 0.654659146018945 
1895	 0.636267731975512 
1896	 0.957193815959759 
1897	 2.68679202550361 
1898	 16.3781325598846 
1899	 24.7866277818694 
1900	 11.0648658738938 
1901	 1.48794743346959 
1902	 0.995614470005428 
1903	 0.834157665492556 
1904	 1.10488655236013 
1905	 0.399316598516224 
1906	 0.390226210514879 
1907	 0.927366701357117 
1908	 0.451354807966004 
1909	-0.475857417560008 
1910	-4.43604914430223 
1911	 0.596703295909937 
1912	-0.75832874395451 
1913	-0.207939984401724 
1914	 2.33586305207488 
1915	 2.27891904662081 
1916	 3.08074679122598 
1917	 2.28192978885926 
1918	 1.62211907591853 
1919	 2.48617826059559 
1920	 1.29209650134617 
1921	 0.309110890934323 
1922	 0.132919711933456 
1923	 4.26759929946841E-02 
1924	 0.331261800690104 
1925	 1.2064037268824 
1926	 2.0791995304821 
1927	 3.35781581529054 
1928	-6.1106618905578 
1929	 3.34327342586845 
1930	 0.159108554871672 
1931	-9.55272620036266E-02 
1932	-0.494624886024636 
1933	-1.46318502564477 
1934	-2.55329203981354 
1935	-4.4883710756893 
1936	-1.31454163206913 
1937	-0.260033683101129 
1938	-0.153628748627463 
1939	-0.101081444581191 
1940	-7.5174296969677 
1941	 0.816462336548467 
1942	 1.49057962092303 
1943	-1.45364953758541 
1944	-1.25754726061251 
1945	-0.579763071822637 
1946	-0.184915909375623 
1947	 6.06388405212587E-02 
1948	 0.297829059679391 
1949	 0.143311997257498 
1950	 0.250015947100802 
1951	 0.240379837167969 
1952	 0.140806032861484 
1953	-4.73518268390364E-02 
1954	 3.81827965140343E-02 
1955	 2.98438940662435E-02 
1956	-0.058127509660648 
1957	 4.86392817030704E-02 
1958	 4.66729405503624E-02 
1959	-4.39977636748776E-03 
1960	 3.03595410813898E-02 
1961	 0.040141781633051 
1962	 2.09024093505945E-02 
1963	 3.76652531384105E-02 
1964	 5.09665923407354E-02 
1965	 3.79511460146482E-02 
1966	 3.10913053722441E-02 
1967	 2.99870312624031E-02 
1968	 2.12834951663707E-02 
1969	 3.45955601949346E-03 
1970	 4.15148816336845E-03 
1971	 1.28482575088559E-02 
1972	 1.54830400209992E-02 
1973	 2.05547822825439E-02 
1974	 2.25535534791173E-02 
1975	 2.18969310956513E-02 
1976	 2.70808788462444E-02 
1977	 2.66974399251814E-02 
1978	 0.022588839678961 
1979	 2.40305957549705E-02 
1980	 2.67965346476874E-02 
1981	 2.82273480004996E-02 
1982	 3.04503776008797E-02 
1983	 3.45246273351228E-02 
1984	 3.56707249609119E-02 
1985	 3.29758904977062E-02 
1986	 3.25579632350522E-02 
1987	 3.66048846607276E-02 
1988	 3.98978695303182E-02 
1989	 3.75162877575889E-02 
1990	 3.65012752988375E-02 
1991	 3.82185261386453E-02 
1992	 3.36749192871344E-02 
1993	 3.49241539479294E-02 
1994	 3.57929428999795E-02 
1995	 3.75900968231496E-02 
1996	 3.22930567885423E-02 
1997	 4.26239553323395E-02 
1998	 4.78149025147496E-02 
1999	 4.38306321964254E-02 
2000	 4.99567899064041E-02 
2001	 4.08407580965616E-02 
2002	 3.70204245317968E-02 
2003	 4.33501276212709E-02 
2004	 3.45978064189004E-02 
2005	 3.25123643246511E-02 
2006	 2.81570195256138E-02 
2007	 1.79242410041941E-02 
2008	 1.92912119259916E-02 
2009	 2.01522340070839E-02 
2010	 2.28329068648348E-02 
2011	 0.019974838327795 
2012	 1.51561691243457E-02 
2013	 1.50579506182372E-02 
2014	 1.56775151282728E-02 
2015	 1.81991944421987E-02 
2016	 2.39822792028414E-02 
2017	 2.66092759858909E-02 
2018	 2.84687337972672E-02 
2019	 3.23191146064766E-02 
2020	 2.91151388973977E-02 
2021	 2.95836533906285E-02 
2022	 3.37140306096136E-02 
2023	 2.98409372513412E-02 
2024	 0.029736959681794 
2025	 3.19699345870598E-02 
2026	 3.63354311923381E-02 
2027	 4.14016480971591E-02 
2028	 4.56086769415476E-02 
2029	 4.80736756064874E-02 
2030	 4.69781461668766E-02 
2031	 0.045274096430426 
2032	 4.22663286877697E-02 
2033	 0.040448367917705 
2034	 0.042248231869014 
2035	 4.19208828525284E-02 
2036	 4.18702045670067E-02 
2037	 4.53978946643945E-02 
2038	 4.58982969920076E-02 
2039	 4.58366406011668E-02 
2040	 4.48371472548066E-02 
2041	 0.045100589186068 
2042	 4.41101030290717E-02 
2043	 4.40287755654149E-02 
2044	 4.57954614402733E-02 
2045	 4.45311963713775E-02 
2046	 4.30844022073533E-02 
2047	 4.57264545197114E-02 
2048	 5.04067946673196E-02 
2049	 5.28714671828892E-02 
2050	 5.48734969442082E-02 
2051	 5.59929640121212E-02 
2052	 5.05494608312825E-02 
2053	 4.60427174682716E-02 
2054	 4.31847851982002E-02 
2055	 0.040539486419876 
2056	 3.95515230253065E-02 
2057	 4.14491751649759E-02 
2058	 4.20312584464868E-02 
2059	 4.41886422471676E-02 
2060	 4.50318729153222E-02 
2061	 4.57399167036197E-02 
2062	 4.47925365649298E-02 
2063	 4.58962188848853E-02 
2064	 4.29368453497044E-02 
2065	 4.06596659832748E-02 
2066	 4.49485895253127E-02 
2067	 4.78029383353653E-02 
2068	 4.94803831800133E-02 
2069	 4.75041653295945E-02 
2070	 4.27767115996179E-02 
2071	 3.99783392167296E-02 
2072	 3.73290417352675E-02 
2073	 3.54744046175591E-02 
2074	 3.59214277094229E-02 
2075	 3.70237046586473E-02 
2076	 0.037406837504775 
2077	 3.77670386936649E-02 
2078	 4.02793483584404E-02 
2079	 4.20534746012529E-02 
2080	 4.18193081800145E-02 
2081	 4.48226180538217E-02 
2082	 4.88733346655642E-02 
2083	 4.83018101548778E-02 
2084	 4.81535948147512E-02 
2085	 4.92187821680056E-02 
2086	 4.51245569655687E-02 
2087	 4.25430033620507E-02 
2088	 4.35458832757736E-02 
2089	 0.04054448716487 
2090	 4.15722940151639E-02 
2091	 4.62518299122218E-02 
2092	 4.82880958127769E-02 
2093	 4.99247460340518E-02 
2094	 5.04268737437332E-02 
2095	 4.90743734499243E-02 
2096	 4.93518046052365E-02 
2097	 0.049401717015636 
2098	 4.90323662837947E-02 
2099	 4.88250816914182E-02 
2100	 0.050269712848029 
2101	 5.12138445792458E-02 
2102	 4.98196857660849E-02 
2103	 4.93689742285479E-02 
2104	 4.85082441489236E-02 
2105	 4.65647489511492E-02 
2106	 0.046828296743926 
2107	 4.71821297423642E-02 
2108	 4.63379616415544E-02 
2109	 4.41604722056052E-02 
2110	 4.13166579642678E-02 
2111	 3.94442222964947E-02 
2112	 3.80148242928083E-02 
2113	 3.81605618438866E-02 
2114	 4.03417856437629E-02 
2115	 4.20278504605662E-02 
2116	 4.50280429262035E-02 
2117	 4.61587047285369E-02 
2118	 4.66256381049751E-02 
2119	 4.64405770773253E-02 
2120	 0.044377929237172 
2121	 4.51437516644152E-02 
2122	 4.33810031093399E-02 
2123	 0.040519850113314 
2124	 4.12393910362225E-02 
2125	 4.07828295425635E-02 
2126	 4.11119320760837E-02 
2127	 4.28137504840262E-02 
2128	 4.32903013349317E-02 
2129	 4.35003642728781E-02 
2130	 4.44944181330086E-02 
2131	 4.60402792519243E-02 
2132	 4.53808885058616E-02 
2133	 4.56042597550686E-02 
2134	 4.65091890382274E-02 
2135	 4.82428797054381E-02 
2136	 4.85677311848179E-02 
2137	 4.97279842924567E-02 
2138	 4.94637230110224E-02 
2139	 4.69643279724005E-02 
2140	 4.62713377636516E-02 
2141	 4.48185965539261E-02 
2142	 0.045440096651078 
2143	 4.86523551987841E-02 
2144	 5.02429789375555E-02 
2145	 5.02642327032003E-02 
2146	 5.00071279670589E-02 
2147	 4.76330732182599E-02 
2148	 4.67231039305627E-02 
2149	 4.58874531027408E-02 
2150	 4.61792675744046E-02 
2151	 4.71885757943929E-02 
2152	 4.68974502358281E-02 
2153	 4.92808410431927E-02 
2154	 5.06136712162828E-02 
2155	 4.76229747840507E-02 
2156	 4.53471704699387E-02 
2157	 4.43121171414303E-02 
2158	 4.30326956854863E-02 
2159	 4.31357881678711E-02 
2160	 4.57919543624321E-02 
2161	 0.046774425059113 
2162	 4.71929090637098E-02 
2163	 4.70727226652442E-02 
2164	 4.62700820021597E-02 
2165	 4.55676466311465E-02 
2166	 4.44691440456311E-02 
2167	 4.49783345539358E-02 
2168	 4.68341614254244E-02 
2169	 4.69079610412842E-02 
2170	 4.63978377588762E-02 
2171	 4.69582663014709E-02 
2172	 0.04546735878728 
2173	 4.50997874225265E-02 
2174	 4.83706550175627E-02 
2175	 4.94898582093494E-02 
2176	 5.10083544607416E-02 
2177	 5.32388850468409E-02 
2178	 5.33900924998668E-02 
2179	 5.44160329960009E-02 
2180	 0.052688806382972 
2181	 4.96410455326748E-02 
2182	 4.82000577519519E-02 
2183	 0.045358157546547 
2184	 4.41454290080333E-02 
2185	 4.27037930646606E-02 
2186	 4.05800327449143E-02 
2187	 3.62391012644361E-02 
2188	 3.58170186308943E-02 
2189	 3.70574336612526E-02 
2190	 3.77729678753181E-02 
2191	 4.08994421221095E-02 
2192	 4.35155429462237E-02 
2193	 4.62664670149241E-02 
2194	 4.71057479865734E-02 
2195	 4.76816170911215E-02 
2196	 4.79239673726268E-02 
2197	 4.52926408090238E-02 
2198	 4.44105923160279E-02 
2199	 4.69494045840759E-02 
2200	 4.44662594717705E-02 
2201	 4.04303943699607E-02 
2202	 4.20215706368218E-02 
2203	 4.38220275005604E-02 
2204	 4.49703865316039E-02 
2205	 4.49926576707645E-02 
2206	 4.09649452184777E-02 
2207	 4.14748134092732E-02 
2208	 4.64269052540228E-02 
2209	 4.89651523955925E-02 
2210	 5.46589794384041E-02 
2211	 5.57677574323584E-02 
2212	 4.96992206213694E-02 
2213	 4.35744929684161E-02 
2214	 3.87093764818033E-02 
2215	 3.84893032612643E-02 
2216	 3.75274507268788E-02 
2217	 3.76755446703158E-02 
2218	 4.44920517577327E-02 
2219	 4.65158020437203E-02 
2220	 4.55037937271445E-02 
2221	 4.34959207507402E-02 
2222	 3.91745587847431E-02 
2223	 3.70300336682352E-02 
2224	 3.14102416273949E-02 
2225	 3.24299514753047E-02 
2226	 4.21854756316121E-02 
2227	 4.45939665542145E-02 
2228	 4.44795905766578E-02 
2229	 4.61950805919975E-02 
2230	 4.62623478577438E-02 
2231	 4.69566932556223E-02 
2232	 5.05579216124309E-02 
2233	 5.20234329770982E-02 
2234	 5.25381746077071E-02 
2235	 0.049814276201452 
2236	 4.69589308842935E-02 
2237	 4.31279333651718E-02 
2238	 4.04365946636727E-02 
2239	 3.79634647272613E-02 
2240	 3.52898296436505E-02 
2241	 3.68206624732022E-02 
2242	 3.88071700903997E-02 
2243	 4.09007866649859E-02 
2244	 3.73947313688693E-02 
2245	 3.53664110062062E-02 
2246	 4.16649402609223E-02 
2247	 4.23675515821448E-02 
2248	 4.52808102702548E-02 
2249	 5.02018011342914E-02 
2250	 5.03305953332194E-02 
2251	 0.048768674897878 
2252	 4.71023104927978E-02 
2253	 5.07152165232549E-02 
2254	 5.14739558648408E-02 
2255	 5.02920616498335E-02 
2256	 4.98870495089542E-02 
2257	 4.63791124883289E-02 
2258	 3.87295476777304E-02 
2259	 3.53886334116281E-02 
2260	 3.54022537914947E-02 
2261	 4.07823029842272E-02 
2262	 3.98756765707695E-02 
2263	 3.87335860426287E-02 
2264	 3.83123867884623E-02 
2265	 3.54660071675939E-02 
2266	 3.68310433176226E-02 
2267	 4.38709184518472E-02 
2268	 4.48575200259697E-02 
2269	 4.19469247399175E-02 
2270	 4.17093008999402E-02 
2271	 0.037182916647629 
2272	 4.01849055556681E-02 
2273	 5.24414749418558E-02 
2274	 5.62443341500807E-02 
2275	 6.01805721478546E-02 
2276	 6.39658479184708E-02 
2277	 6.61977899208042E-02 
2278	 0.062968907138021 
2279	 5.27287295299336E-02 
2280	 5.00456858868517E-02 
2281	 4.83498230120615E-02 
2282	 3.99019039741015E-02 
2283	 0.04103001125114 
2284	 4.83914948680924E-02 
2285	 4.59552512814424E-02 
2286	 4.08182233722949E-02 
2287	 4.01091478464968E-02 
2288	 3.78145538660689E-02 
2289	 3.39960321537082E-02 
2290	 0.032424927389399 
2291	 2.86206621006643E-02 
2292	 2.76255874372496E-02 
2293	 3.12107951507168E-02 
2294	 3.75007892530455E-02 
2295	 4.02003480003596E-02 
2296	 4.22515170408293E-02 
2297	 4.59407557991937E-02 
2298	 3.62193921251452E-02 
2299	 2.96200197681772E-02 
2300	 3.36028560282762E-02 
2301	 3.13402051079819E-02 
2302	 3.60227722923637E-02 
2303	 5.00925687920307E-02 
2304	 5.15688281301087E-02 
2305	 3.97684893879639E-02 
2306	 3.55890086335998E-02 
2307	 4.51907290138923E-02 
2308	 4.82603363839895E-02 
2309	 0.052586769046596 
2310	 5.79572357281888E-02 
2311	 4.07349814524628E-02 
2312	 3.04041232626028E-02 
2313	 2.99447264633163E-02 
2314	 0.032157521641313 
2315	 4.40984445034879E-02 
2316	 4.00842124996699E-02 
2317	 4.21715529287169E-02 
2318	 4.46137078094187E-02 
2319	 3.32893257161964E-02 
2320	 3.95122337487425E-02 
2321	 4.07483480547833E-02 
2322	 0.038034998017489 
2323	 2.98851173470704E-02 
2324	 1.93860346339238E-02 
2325	 2.49629916045932E-02 
2326	 1.41367897701494E-02 
2327	 1.32873824582551E-02 
2328	 2.69807211778561E-02 
2329	 2.73915232117319E-02 
2330	 3.28284675944255E-02 
2331	 3.06052645764964E-02 
2332	 2.24065975143071E-02 
2333	 1.58535575575289E-02 
2334	 4.94764878673169E-03 
2335	 1.49487012743077E-02 
2336	 1.64784236675106E-02 
2337	 0.002058145124957 
2338	 9.05395418513433E-03 
2339	 1.53857238494412E-02 
2340	 3.15135359616524E-02 
2341	 4.88853591350549E-02 
2342	 4.16531312998153E-02 
2343	 1.20833312534398E-02 
2344	-8.4072855743446E-03 
2345	 9.29395428189719E-03 
2346	 4.23445544793985E-03 
2347	 1.44328943375485E-03 
2348	 7.81393968763429E-03 
2349	-1.07949870513885E-02 
2350	-3.56043144651674E-03 
2351	 6.3755636069803E-03 
2352	 2.49613648641517E-02 
2353	 4.00240619207244E-02 
2354	 1.95109902307944E-02 
2355	 2.88229841244888E-02 
2356	 5.25265522450604E-02 
2357	 3.00461142701651E-02 
2358	 1.83935999857076E-02 
2359	 2.22219395450771E-02 
2360	 1.18398132669375E-03 
2361	 1.70839244669271E-02 
2362	 5.80123374118181E-02 
2363	 7.02549900467275E-02 
2364	 9.33685867774563E-02 
2365	 8.90484750059843E-02 
2366	 7.40617153339492E-02 
2367	 0.107544868768037 
2368	 8.75404198654981E-02 
2369	 0.062450635266021 
2370	 7.54086395273154E-02 
2371	 3.10857587643549E-02 
2372	-0.018107252748526 
2373	-3.25159787905356E-02 
2374	-5.53872106167017E-02 
2375	-5.46296206576225E-02 
2376	-0.035978317572168 
2377	-5.3113062809469E-03 
2378	 4.92546278907769E-02 
2379	-1.68834974940061E-02 
2380	-0.101097238714569 
2381	-6.03139058857363E-02 
2382	-0.105945321987786 
2383	-8.56970135815878E-02 
2384	 3.74784642821931E-02 
2385	 4.50218334303229E-02 
2386	 9.26440180539885E-02 
2387	 0.113552833134487 
2388	 0.033841844561735 
2389	-2.97273617865712E-02 
2390	-0.104184840773576 
2391	-9.00411734593671E-02 
2392	-1.19903794192522E-02 
2393	 6.46556804933147E-02 
2394	 0.163065393286004 
2395	 0.112848442860276 
2396	 0.103149394307718 
2397	 0.076488800672687 
2398	-3.97138249266348E-02 
2399	-7.50151297611049E-02 
2400	-0.143287403426785 
2401	-0.201437530760298 
2402	-0.111730682451975 
2403	-0.118015310510315 
2404	-0.204500822812503 
2405	-0.217037117398497 
2406	-0.294137967632025 
2407	-0.368223243109176 
2408	-0.415737063463275 
2409	-0.589556181642559 
2410	-0.707144237799139 
2411	-0.802698343330739 
2412	-1.01729231051616 
2413	-1.36667077663115 
2414	-1.37211170542585 
2415	-1.46615709532746 
2416	-1.13418223023002 
2417	-0.697182967390616 
2418	-0.608492898748745 
2419	-0.307360947241086 
2420	-0.228495306251485 
2421	-0.461224061882743 
2422	-0.676978802799499 
2423	-2.16905117529972 
2424	-1.54665936924779 
2425	-1.28457840852163 
2426	-2.37165557965123 
2427	-0.353881081382652 
2428	-0.847333260971473 
2429	-1.11376413122617 
2430	-0.757434875021174 
2431	-1.28838662086339 
2432	-1.77099634309647 
2433	-1.23805856123835 
2434	-1.23041208588268 
2435	-0.784205317302261 
2436	 0.991095649867265 
2437	 110.097430466306 
2438	 0.112927749685228 
2439	 0.19912941072624 
2440	-36.2986485205858 
2441	-35.9138830627285 
2442	-0.749663890971019 
2443	-1.13370112929025 
2444	 14.4053169749226 
2445	 2.60581252447756 
2446	 0.80413290615542 
2447	 0.857542407578351 
2448	 0.670127796467614 
2449	 0.474645472901433 
2450	 0.412637616005273 
2451	-0.1664630200061 
2452	-2.69843948491021E-02 
2453	 0.510417554810975 
2454	 0.810839828484328 
2455	 0.736416354650064 
2456	 0.500546612440265 
2457	 0.161896755951201 
2458	-0.673347899284868 
2459	-1.86779432907431 
2460	-1.01422495220587 
2461	 0.314120601931945 
2462	 0.923314828927851 
2463	 0.866029845698351 
2464	 0.733891308693231 
2465	 0.849781470697722 
2466	 1.28234895285674 
2467	 2.57053423472991 
2468	 3.44765562057738 
2469	 9.26252907815638 
2470	-7.14583893958375 
2471	-12.7791997984334 
2472	-7.61171578405451 
2473	-2.60272813006906 
2474	-1.97965538872753 
2475	-0.630284870263521 
2476	-0.901875474080477 
2477	-2.99887008822524 
2478	-8.93517384999462 
2479	 1.77460888919059 
2480	 0.981544315719435 
2481	 0.979942021140403 
2482	 0.484437776581265 
2483	 0.320704234959105 
2484	 0.173576264086948 
2485	 4.65665765221239E-02 
2486	 0.201528928522549 
2487	 1.09894136894419 
2488	 0.539144576906954 
2489	 0.115386194949039 
2490	 0.211080067489347 
2491	-0.118080522147641 
2492	 2.50603438347936E-02 
2493	 0.979978376230484 
2494	 1.78460096741484 
2495	 5.80047853869631 
2496	-31.8251132018998 
2497	-7.98972635612192 
2498	-11.2049623062428 
2499	-6.57969745773219 
2500	-2.44012070951246 
