Wavelength	rt0713east_close00001.asd
350	 8.72785542789806E-02 
351	 8.77016586811051E-02 
352	 8.68325971153877E-02 
353	 8.64400089800343E-02 
354	 8.71254745706287E-02 
355	 8.62428085091021E-02 
356	 8.55896351806241E-02 
357	 8.52928338429604E-02 
358	 8.51134514319623E-02 
359	 8.56558524377552E-02 
360	 8.55859439744165E-02 
361	 8.51575096674427E-02 
362	 8.55649746155831E-02 
363	 8.54994579291556E-02 
364	 8.52687843689035E-02 
365	 8.50560922916157E-02 
366	 8.45297184043607E-02 
367	 8.45595696965891E-02 
368	 8.50124364418734E-02 
369	 8.53784325649434E-02 
370	 0.084865644667404 
371	 8.46715555645009E-02 
372	 0.08501768759838 
373	 8.53881118863223E-02 
374	 8.46167723317837E-02 
375	 8.41074613265983E-02 
376	 0.084532663457752 
377	 8.51757216153776E-02 
378	 8.56817227557947E-02 
379	 8.55001277790147E-02 
380	 8.45982084137142E-02 
381	 8.43680644577247E-02 
382	 8.49910426599589E-02 
383	 8.55522139701147E-02 
384	 8.49606707643303E-02 
385	 0.084923723221765 
386	 8.55356960160967E-02 
387	 8.60807279373424E-02 
388	 8.52603026858867E-02 
389	 8.58012723559716E-02 
390	 8.62620181877475E-02 
391	 8.56247603292692E-02 
392	 8.58863809020112E-02 
393	 8.63779981895192E-02 
394	 8.65054516040227E-02 
395	 8.60029304133807E-02 
396	 0.086032812819035 
397	 8.63345400655306E-02 
398	 8.66083609214394E-02 
399	 8.66359356359658E-02 
400	 8.66430436481889E-02 
401	 0.086620269358694 
402	 8.65711416013811E-02 
403	 8.66151176136262E-02 
404	 8.66708006941766E-02 
405	 8.68730453656299E-02 
406	 8.72812856668989E-02 
407	 8.70782846500256E-02 
408	 8.69571981388392E-02 
409	 0.087182330110704 
410	 8.74882651307668E-02 
411	 8.74217715505389E-02 
412	 0.087362372136878 
413	 8.75522287144521E-02 
414	 8.74757166143249E-02 
415	 8.78596729105609E-02 
416	 8.82780607048534E-02 
417	 8.80655720926103E-02 
418	 8.81584720587852E-02 
419	 0.088433606110897 
420	 8.87271141951801E-02 
421	 8.89225064496372E-02 
422	 8.90501516271087E-02 
423	 8.91558717306805E-02 
424	 0.089332920007855 
425	 8.98311022577374E-02 
426	 9.00860769133468E-02 
427	 9.02527669004815E-02 
428	 9.07467793686077E-02 
429	 9.10824007238827E-02 
430	 9.14386530575546E-02 
431	 9.18002666528804E-02 
432	 9.18654269952098E-02 
433	 0.092133716225972 
434	 9.25218226063124E-02 
435	 9.28651765140045E-02 
436	 9.31759393354764E-02 
437	 9.35089885679966E-02 
438	 9.38425289023485E-02 
439	 9.41118698996622E-02 
440	 9.42592208500994E-02 
441	 9.46190083327887E-02 
442	 9.51929474423831E-02 
443	 9.54440554495098E-02 
444	 9.57124332776218E-02 
445	 9.60286736364788E-02 
446	 9.63374113086789E-02 
447	 0.09657383834798 
448	 9.68764293346868E-02 
449	 0.097215715090108 
450	 9.74471695620331E-02 
451	 9.76562147531865E-02 
452	 9.78646438516485E-02 
453	 9.81124568652911E-02 
454	 9.85058937983905E-02 
455	 0.09884725501061 
456	 9.89952595328904E-02 
457	 9.89561130469947E-02 
458	 9.93465790948027E-02 
459	 9.95894397283508E-02 
460	 9.95912686009468E-02 
461	 9.97938955820763E-02 
462	 0.100091473281452 
463	 0.100297198784992 
464	 0.100369235452144 
465	 0.100745778376205 
466	 0.100881488045535 
467	 0.100920768454196 
468	 0.101269218541591 
469	 0.101505421722925 
470	 0.101680043872396 
471	 0.101835608634463 
472	 0.101944455804047 
473	 0.102050924393765 
474	 0.102291492669543 
475	 0.102701138463746 
476	 0.1029030587527 
477	 0.103011515565036 
478	 0.103235070436168 
479	 0.103773646041557 
480	 0.104021218973821 
481	 0.104177159306497 
482	 0.104446937270023 
483	 0.104818220214628 
484	 0.105253215966204 
485	 0.105578114561276 
486	 0.10569298331335 
487	 0.106127640847441 
488	 0.106509122015598 
489	 0.106745276467008 
490	 0.107060199091543 
491	 0.107458977123623 
492	 0.107862481879653 
493	 0.108213824524643 
494	 0.108577952802112 
495	 0.108939307893907 
496	 0.109326872161481 
497	 0.109768962365049 
498	 0.110077871095583 
499	 0.110491895519101 
500	 0.111037508784734 
501	 0.111352367613295 
502	 0.111708749366182 
503	 0.112103325430666 
504	 0.112480411550403 
505	 0.112872528313591 
506	 0.113466587961735 
507	 0.114144889131636 
508	 0.114570611653104 
509	 0.114922116854056 
510	 0.115426037412828 
511	 0.11611377423066 
512	 0.116556988070665 
513	 0.116992922932577 
514	 0.117522034223847 
515	 0.118158536666869 
516	 0.118726015424209 
517	 0.119269778667398 
518	 0.119798463239876 
519	 0.120253071660248 
520	 0.12070966586327 
521	 0.121307892730318 
522	 0.122052002986373 
523	 0.122424344163959 
524	 0.122897248642528 
525	 0.12355294623235 
526	 0.124183931845495 
527	 0.124697382668743 
528	 0.125293483431226 
529	 0.12602575284812 
530	 0.126572898211485 
531	 0.127187153303134 
532	 0.127843155307902 
533	 0.128428608950956 
534	 0.128951172392196 
535	 0.129550985233824 
536	 0.130239543816928 
537	 0.130872630312618 
538	 0.131344765389186 
539	 0.131914818602501 
540	 0.132732775451699 
541	 0.133299097363207 
542	 0.133851355990545 
543	 0.13445997597676 
544	 0.135086146756611 
545	 0.135689458054842 
546	 0.136380406376975 
547	 0.137139696571548 
548	 0.137657453164362 
549	 0.138192209473647 
550	 0.138821382739142 
551	 0.139536624946633 
552	 0.140232071849731 
553	 0.140884281342356 
554	 0.14144680386588 
555	 0.141845144348377 
556	 0.142547666581735 
557	 0.143263442159414 
558	 0.14370921992084 
559	 0.144306180936373 
560	 0.144792574188025 
561	 0.145240545709431 
562	 0.145890964269529 
563	 0.146405193543775 
564	 0.146846859890301 
565	 0.14725390931705 
566	 0.147493028147422 
567	 0.14785313304631 
568	 0.148267937321526 
569	 0.148588680675744 
570	 0.14905075648419 
571	 0.149451729268079 
572	 0.149758399015186 
573	 0.150138299135566 
574	 0.150345496405254 
575	 0.150547523271486 
576	 0.15090593971093 
577	 0.151267260218511 
578	 0.151520741812947 
579	 0.151759570666097 
580	 0.152164199011182 
581	 0.152400695506056 
582	 0.152596434701523 
583	 0.152797568006156 
584	 0.152792179983764 
585	 0.15267779779404 
586	 0.152442010820002 
587	 0.152064486044849 
588	 0.151684869265827 
589	 0.151488831121194 
590	 0.151543107574501 
591	 0.151754853826894 
592	 0.151780823577067 
593	 0.151629232489579 
594	 0.151452163404783 
595	 0.151586295402498 
596	 0.1515832346026 
597	 0.151483488857406 
598	 0.151557976187336 
599	 0.151391095418425 
600	 0.151306226452942 
601	 0.151405763437344 
602	 0.151259646546255 
603	 0.151194608034938 
604	 0.151220173060452 
605	 0.151251700494805 
606	 0.151260434163371 
607	 0.151308392396159 
608	 0.151388428094628 
609	 0.151420564829685 
610	 0.151477941149829 
611	 0.151555945127553 
612	 0.151618433745658 
613	 0.151575398015083 
614	 0.151579963977961 
615	 0.151680771802414 
616	 0.151838212458417 
617	 0.151854168479985 
618	 0.151873697539558 
619	 0.151957729735142 
620	 0.151968367999093 
621	 0.151960009763837 
622	 0.151962056714761 
623	 0.151991147603681 
624	 0.152034916636967 
625	 0.152038100176802 
626	 0.151974448622957 
627	 0.151858448514573 
628	 0.151906797603028 
629	 0.152048635001498 
630	 0.152188425104366 
631	 0.152342499094161 
632	 0.152442206355601 
633	 0.152453216470074 
634	 0.152394989411734 
635	 0.152521573473778 
636	 0.152597489885658 
637	 0.152596625504643 
638	 0.152866810402126 
639	 0.152886917488752 
640	 0.152759825247754 
641	 0.152745770599404 
642	 0.152963345663518 
643	 0.15284800240701 
644	 0.152335048886422 
645	 0.15179733332646 
646	 0.151455672008651 
647	 0.15132868675075 
648	 0.151368135565144 
649	 0.151553162944296 
650	 0.151463515603432 
651	 0.151284077662777 
652	 0.151329588245137 
653	 0.151000739956794 
654	 0.150540511041341 
655	 0.150175900645889 
656	 0.150063077067341 
657	 0.149856504515645 
658	 0.149636852229754 
659	 0.14949811967946 
660	 0.149296540964089 
661	 0.149177791489401 
662	 0.149035406829108 
663	 0.14865247896147 
664	 0.148355799729191 
665	 0.1482508066529 
666	 0.148283933526363 
667	 0.148188880723056 
668	 0.148040968970713 
669	 0.147935038164921 
670	 0.147950495425543 
671	 0.148009952551492 
672	 0.148142377100103 
673	 0.148242212149775 
674	 0.148106686140364 
675	 0.14822965453481 
676	 0.148312595876923 
677	 0.148205215442756 
678	 0.148531713551583 
679	 0.148892534108618 
680	 0.14911366962722 
681	 0.149174259326947 
682	 0.149387127222115 
683	 0.149510906712722 
684	 0.149454359800201 
685	 0.149382226413574 
686	 0.149154734984936 
687	 0.148991442905624 
688	 0.149123899030805 
689	 0.149467068477161 
690	 0.149611940639151 
691	 0.149318731268992 
692	 0.148548715249514 
693	 0.148449004937231 
694	 0.148740129064025 
695	 0.149029310742686 
696	 0.149271691561706 
697	 0.148903537723911 
698	 0.148142924884969 
699	 0.147510318162437 
700	 0.147295704047035 
701	 0.147182763296268 
702	 0.147063296423444 
703	 0.147001392780021 
704	 0.146557777255815 
705	 0.146005681040432 
706	 0.14556455370335 
707	 0.145051005484225 
708	 0.144555821515959 
709	 0.143930724351865 
710	 0.143038434425456 
711	 0.142324779944398 
712	 0.141263411613838 
713	 0.139755941647661 
714	 0.138147032269203 
715	 0.135903748169747 
716	 0.133206361605347 
717	 0.130800846825596 
718	 0.129013765482016 
719	 0.128550807263378 
720	 0.128429587685149 
721	 0.127455119173922 
722	 0.1257251162753 
723	 0.123511209078346 
724	 0.121493639090619 
725	 0.120086581378239 
726	 0.118556452795981 
727	 0.116897210570595 
728	 0.115175327463293 
729	 0.113006566448725 
730	 0.111142025225558 
731	 0.109888640020951 
732	 0.10898738344844 
733	 0.107498829344349 
734	 0.105950609379991 
735	 0.104722051233194 
736	 0.103888391720676 
737	 0.103682719836623 
738	 0.103535456282185 
739	 0.103067300311202 
740	 0.103000107796559 
741	 0.103015123221987 
742	 0.102957342802079 
743	 0.102805204479358 
744	 0.102864655181071 
745	 0.102894349916607 
746	 0.102844728969837 
747	 0.102994045813576 
748	 0.10302651454969 
749	 0.102869263257247 
750	 0.102633630558482 
751	 0.102813454090894 
752	 0.102810517088072 
753	 0.102606032344859 
754	 0.102517207076467 
755	 0.102694868464381 
756	 0.102744342781436 
757	 0.102412467085478 
758	 0.10149962874705 
759	 0.100318408289833 
760	 9.93961598520709E-02 
761	 9.94726737794503E-02 
762	 9.98366760753071E-02 
763	 0.100493178167511 
764	 0.101216011770711 
765	 0.101838837355562 
766	 0.102462937783133 
767	 0.103020534872407 
768	 0.103461301826215 
769	 0.103724419571655 
770	 0.103846916906962 
771	 0.10403334292036 
772	 0.104362790957885 
773	 0.104469838062412 
774	 0.10480931944961 
775	 0.105175660754385 
776	 0.105204256443165 
777	 0.105419395432714 
778	 0.105727147830505 
779	 0.106050183359155 
780	 0.106374221820623 
781	 0.106705348659063 
782	 0.107034936016696 
783	 0.107358289023029 
784	 0.107712266402308 
785	 0.107728067017253 
786	 0.107662280836315 
787	 0.107923940763368 
788	 0.108314798789649 
789	 0.108779781489123 
790	 0.10926336252536 
791	 0.109740061412844 
792	 0.110429397255285 
793	 0.110874117327409 
794	 0.110977576261752 
795	 0.111344199633913 
796	 0.111675007769886 
797	 0.111942279391635 
798	 0.112233207870163 
799	 0.112777829525065 
800	 0.112917450433091 
801	 0.112833417505503 
802	 0.113148066823088 
803	 0.113680788256826 
804	 0.114091663596079 
805	 0.114296376772746 
806	 0.114488931136503 
807	 0.114279538434646 
808	 0.113842630995711 
809	 0.113394453832793 
810	 0.112978025188216 
811	 0.111966720941668 
812	 0.110784088259786 
813	 0.110171225986023 
814	 0.10913384703059 
815	 0.10849434762328 
816	 0.10825460571798 
817	 0.107740032942913 
818	 0.10774070586982 
819	 0.107867990752045 
820	 0.107619171174618 
821	 0.106409817647613 
822	 0.10515156898622 
823	 0.10390205980682 
824	 0.102583832779991 
825	 0.101276926234646 
826	 9.95467827710325E-02 
827	 9.77460660738649E-02 
828	 9.64520825888704E-02 
829	 9.46632543469435E-02 
830	 9.28271875819408E-02 
831	 9.14476821386618E-02 
832	 9.09091539095602E-02 
833	 9.03288188602074E-02 
834	 8.97465084358583E-02 
835	 8.90993808983283E-02 
836	 8.80705567819642E-02 
837	 8.78312392401864E-02 
838	 0.087909219382954 
839	 8.77395192873161E-02 
840	 8.74922974876001E-02 
841	 8.71741864628597E-02 
842	 0.08692064149353 
843	 8.68402717825606E-02 
844	 8.67677001766619E-02 
845	 8.63256211101495E-02 
846	 8.57048050696213E-02 
847	 8.54442781991828E-02 
848	 8.54102249733739E-02 
849	 8.52046697785832E-02 
850	 8.48083680917644E-02 
851	 8.46909565924873E-02 
852	 8.42547619123312E-02 
853	 0.083970558962667 
854	 8.40450913750399E-02 
855	 8.36558206786358E-02 
856	 8.34850180770415E-02 
857	 0.08331497722943 
858	 8.28913556077831E-02 
859	 8.27516615799785E-02 
860	 8.24991291119954E-02 
861	 8.22047004702227E-02 
862	 0.082070169486458 
863	 8.14804747773172E-02 
864	 8.13362721661357E-02 
865	 8.14440921696179E-02 
866	 8.07365986154995E-02 
867	 8.09731232655046E-02 
868	 8.06999817032381E-02 
869	 7.97626829854086E-02 
870	 8.01368991585413E-02 
871	 7.98938687602057E-02 
872	 7.92435950080156E-02 
873	 7.87091031304614E-02 
874	 7.84329760565355E-02 
875	 0.07829269254607 
876	 7.79322654158757E-02 
877	 7.72334666916047E-02 
878	 0.0771727505603 
879	 7.67697872683327E-02 
880	 7.63239525574425E-02 
881	 7.64259094299122E-02 
882	 7.55869617453622E-02 
883	 7.48788807577469E-02 
884	 7.47233024978684E-02 
885	 7.48168425559489E-02 
886	 7.42088937107653E-02 
887	 7.39125980679385E-02 
888	 7.38088263024688E-02 
889	 7.24163988639398E-02 
890	 0.071647894167958 
891	 7.17895737900518E-02 
892	 0.072110961983589 
893	 7.05272988028531E-02 
894	 6.93649011168665E-02 
895	 6.88904446401589E-02 
896	 6.85911412863177E-02 
897	 6.76037359670314E-02 
898	 6.82279829372995E-02 
899	 6.83025017700107E-02 
900	 6.60215103324614E-02 
901	 6.60267673850184E-02 
902	 6.65821142294501E-02 
903	 6.69197604357604E-02 
904	 6.66811385163281E-02 
905	 0.065223239801671 
906	 6.57112802604881E-02 
907	 6.69238230008254E-02 
908	 6.48794088577428E-02 
909	 0.063079907423638 
910	 6.31197633291247E-02 
911	 6.42446293548054E-02 
912	 6.39842309859777E-02 
913	 6.30817908655456E-02 
914	 6.18363208830909E-02 
915	 6.10722988041838E-02 
916	 6.17297690939192E-02 
917	 6.00126110017238E-02 
918	 5.93142671131692E-02 
919	 6.03192829831283E-02 
920	 5.92111478497153E-02 
921	 5.88399460338415E-02 
922	 5.85699829306534E-02 
923	 5.77272750617742E-02 
924	 5.69569465808496E-02 
925	 5.60820972204258E-02 
926	 5.53881947687347E-02 
927	 5.46137897041101E-02 
928	 5.05932346474178E-02 
929	 5.21706199891466E-02 
930	 5.45537573877768E-02 
931	 0.047109659966621 
932	 5.56492209671042E-02 
933	 5.58233576466707E-02 
934	 4.83059200027766E-02 
935	 4.88981367240035E-02 
936	 5.20027611516767E-02 
937	 4.95103341968551E-02 
938	 4.70112486639779E-02 
939	 4.97825405887736E-02 
940	 4.68035319076275E-02 
941	 4.40941402864693E-02 
942	 0.042961433044967 
943	 4.26111610949899E-02 
944	 4.59628955123927E-02 
945	 4.56285849869841E-02 
946	 4.26199532847586E-02 
947	 4.28595013448012E-02 
948	 0.04651915639123 
949	 4.23361386327226E-02 
950	 3.86261872849298E-02 
951	 4.94999071374982E-02 
952	 4.80040283465691E-02 
953	 4.38286826531594E-02 
954	 4.16416070586213E-02 
955	 4.09061751331867E-02 
956	 4.43516643149566E-02 
957	 4.67018400173821E-02 
958	 0.045175285145126 
959	 4.05666112646682E-02 
960	 3.99882115233872E-02 
961	 4.48244835273458E-02 
962	 4.79917950099839E-02 
963	 4.16933854583103E-02 
964	 0.042360398677132 
965	 4.41140216975664E-02 
966	 4.57662934535791E-02 
967	 4.96357556129638E-02 
968	 4.84756401127633E-02 
969	 4.73532741157456E-02 
970	 4.78123196319467E-02 
971	 4.76625972483039E-02 
972	 4.78121857217727E-02 
973	 0.045117628503805 
974	 4.29809312869233E-02 
975	 4.88681916303417E-02 
976	 4.66233838004808E-02 
977	 4.53893073052584E-02 
978	 4.74382925305042E-02 
979	 4.71261991297889E-02 
980	 4.63993839670473E-02 
981	 4.67398363055474E-02 
982	 4.80846419740276E-02 
983	 4.91459329890424E-02 
984	 4.90591758819511E-02 
985	 4.89148872223281E-02 
986	 4.88201883428868E-02 
987	 4.82618380122825E-02 
988	 4.93606224534521E-02 
989	 4.91290201645516E-02 
990	 4.81934657548671E-02 
991	 4.93004926307074E-02 
992	 4.79170894742697E-02 
993	 0.049162151810091 
994	 5.06574107331754E-02 
995	 4.66493691077199E-02 
996	 4.64729897513549E-02 
997	 4.94522459671975E-02 
998	 5.07592155548258E-02 
999	 4.65195553379063E-02 
1000	 4.85321604063115E-02 
1001	 4.43052274721683E-02 
1002	 4.39254199304751E-02 
1003	 4.35904407948017E-02 
1004	 4.28688570712453E-02 
1005	 4.31093146469332E-02 
1006	 4.38798153416163E-02 
1007	 4.44082790385398E-02 
1008	 4.53542895404055E-02 
1009	 4.63561141314827E-02 
1010	 4.72100262914109E-02 
1011	 4.65868426771637E-02 
1012	 4.60524546039039E-02 
1013	 0.046239959274608 
1014	 4.59837572393928E-02 
1015	 4.54083978872419E-02 
1016	 4.50365271563275E-02 
1017	 4.45008696885689E-02 
1018	 4.43816224470735E-02 
1019	 4.40155288560476E-02 
1020	 4.45374262192976E-02 
1021	 4.63462471947536E-02 
1022	 4.71944907387431E-02 
1023	 4.81146571491756E-02 
1024	 4.79341133526735E-02 
1025	 4.66008764105287E-02 
1026	 0.045752376691442 
1027	 4.52789214186591E-02 
1028	 4.48961380018428E-02 
1029	 4.50610993159909E-02 
1030	 4.58143015965684E-02 
1031	 4.62123888930814E-02 
1032	 4.67973243574834E-02 
1033	 4.72329798941941E-02 
1034	 4.77209738136254E-02 
1035	 4.79638574628359E-02 
1036	 4.81411686757839E-02 
1037	 0.048267483416678 
1038	 4.82286900358305E-02 
1039	 4.77442971988813E-02 
1040	 4.81313205999804E-02 
1041	 4.86760902263525E-02 
1042	 4.92666569284878E-02 
1043	 5.05445546486563E-02 
1044	 5.08011516720885E-02 
1045	 5.06024398999927E-02 
1046	 5.04392728229998E-02 
1047	 4.97941865081986E-02 
1048	 4.93854492554947E-02 
1049	 4.88069293329628E-02 
1050	 0.048728618147364 
1051	 4.87869083284031E-02 
1052	 4.89474968351989E-02 
1053	 4.98698150090438E-02 
1054	 5.02192289146815E-02 
1055	 5.01160655684428E-02 
1056	 5.02585426022586E-02 
1057	 5.03937236952144E-02 
1058	 5.05276630214908E-02 
1059	 5.03194283032207E-02 
1060	 4.98824395755688E-02 
1061	 4.99140998713101E-02 
1062	 4.97476234238087E-02 
1063	 4.98700687943628E-02 
1064	 0.050738760759945 
1065	 5.10574393193563E-02 
1066	 5.10660773100098E-02 
1067	 0.051129325564807 
1068	 5.13901626405006E-02 
1069	 5.12070006343028E-02 
1070	 5.02116292992406E-02 
1071	 0.05001119203804 
1072	 5.01787682517311E-02 
1073	 4.99950005930483E-02 
1074	 5.01615314684414E-02 
1075	 5.11415958374236E-02 
1076	 5.12160855605268E-02 
1077	 5.08325626415201E-02 
1078	 5.05255545055787E-02 
1079	 4.97230114932784E-02 
1080	 4.95713798415578E-02 
1081	 4.99106510818213E-02 
1082	 0.049771733469043 
1083	 4.97043558221712E-02 
1084	 4.96850326565663E-02 
1085	 4.91050204326328E-02 
1086	 4.88257257309832E-02 
1087	 4.94286322006211E-02 
1088	 4.92363168880686E-02 
1089	 4.78947707261759E-02 
1090	 4.78236865443967E-02 
1091	 0.047630107155772 
1092	 4.71101420599121E-02 
1093	 4.71055534996414E-02 
1094	 4.81619100884997E-02 
1095	 4.82570815680049E-02 
1096	 4.76662130885488E-02 
1097	 4.76762696787592E-02 
1098	 4.80660196095595E-02 
1099	 4.76401951851078E-02 
1100	 4.70977131977062E-02 
1101	 4.66583445371681E-02 
1102	 4.47751045789275E-02 
1103	 4.42898854017777E-02 
1104	 4.54515579899823E-02 
1105	 0.045693899181072 
1106	 4.58601926244936E-02 
1107	 4.55913804790122E-02 
1108	 4.37636655775831E-02 
1109	 4.26470970832821E-02 
1110	 4.19160065969688E-02 
1111	 4.20311410111681E-02 
1112	 4.11265726330471E-02 
1113	 3.99364282356182E-02 
1114	 3.82296731930705E-02 
1115	 3.37613182866783E-02 
1116	 3.27643758018889E-02 
1117	 0.036606239259303 
1118	 3.75599543304156E-02 
1119	 4.18154570086169E-02 
1120	 4.29580659094903E-02 
1121	 3.61287743230694E-02 
1122	 2.73885286088032E-02 
1123	 0.029521889138529 
1124	 3.48175328803523E-02 
1125	 3.79705677463261E-02 
1126	 3.62341688696565E-02 
1127	 2.88524585898246E-02 
1128	 1.95376642223206E-02 
1129	 2.25094143497649E-02 
1130	 4.12410787689757E-02 
1131	 3.91658122018123E-02 
1132	 3.03008640288945E-02 
1133	 2.79734622877161E-02 
1134	 2.01390697936199E-02 
1135	 1.75697400111097E-02 
1136	 1.93399700539259E-02 
1137	 2.34821622220257E-02 
1138	 3.03106478719903E-02 
1139	 0.032032119823612 
1140	 3.43920243006238E-02 
1141	 3.73758626776283E-02 
1142	 3.11769640435573E-02 
1143	 2.36062383886753E-02 
1144	 2.54760467475976E-02 
1145	 2.90296132333363E-02 
1146	 2.86666005230101E-02 
1147	 3.09409779840391E-02 
1148	 3.04719910168759E-02 
1149	 2.68648253334672E-02 
1150	 2.77962671543723E-02 
1151	 3.35277490997671E-02 
1152	 3.44035267564961E-02 
1153	 3.43810979224918E-02 
1154	 3.49025871607221E-02 
1155	 3.46359038246063E-02 
1156	 0.034402455755254 
1157	 3.51582184366471E-02 
1158	 3.47988740991174E-02 
1159	 3.53093358818983E-02 
1160	 3.69821621850913E-02 
1161	 3.73225597069619E-02 
1162	 3.64141805191788E-02 
1163	 3.62899651370474E-02 
1164	 0.036924227700212 
1165	 0.03747642722277 
1166	 3.85156770433578E-02 
1167	 3.88970391576925E-02 
1168	 3.82551027490854E-02 
1169	 3.76897990394755E-02 
1170	 0.037660454656692 
1171	 3.79046823271441E-02 
1172	 0.038802904535071 
1173	 3.90080779742866E-02 
1174	 3.91048085678117E-02 
1175	 0.039183961712179 
1176	 3.89816248069287E-02 
1177	 3.87708603151267E-02 
1178	 3.86563756459702E-02 
1179	 3.88644728746491E-02 
1180	 3.92760656379678E-02 
1181	 3.86989192793166E-02 
1182	 3.82105889110971E-02 
1183	 3.89285696553513E-02 
1184	 3.89686306924445E-02 
1185	 3.92362413107449E-02 
1186	 4.02904788265821E-02 
1187	 3.99143435409068E-02 
1188	 3.90062224647278E-02 
1189	 3.89052739784672E-02 
1190	 3.89184945768383E-02 
1191	 3.91882709470663E-02 
1192	 3.94414033509146E-02 
1193	 4.03145447184301E-02 
1194	 0.040351102271082 
1195	 3.96553813505773E-02 
1196	 3.93171778760319E-02 
1197	 3.89492524400807E-02 
1198	 3.92821525641769E-02 
1199	 4.03197196400015E-02 
1200	 4.02091408829501E-02 
1201	 3.96545071030461E-02 
1202	 3.97977121320792E-02 
1203	 3.97729518093354E-02 
1204	 3.97638690462188E-02 
1205	 4.03625438990867E-02 
1206	 4.02034365106004E-02 
1207	 3.97343394413036E-02 
1208	 3.98462052932644E-02 
1209	 3.96101684726492E-02 
1210	 3.97761104100244E-02 
1211	 4.00669675616091E-02 
1212	 3.99671804541233E-02 
1213	 4.05857793113491E-02 
1214	 4.07996386859921E-02 
1215	 4.08389545144454E-02 
1216	 4.04170838860012E-02 
1217	 4.05884861680201E-02 
1218	 4.07487660123588E-02 
1219	 4.09082448493936E-02 
1220	 4.09816319321294E-02 
1221	 4.05037727988425E-02 
1222	 4.01000255635386E-02 
1223	 4.03399194907842E-02 
1224	 4.06917465064706E-02 
1225	 4.08011673868519E-02 
1226	 4.09150324697845E-02 
1227	 4.07133665643871E-02 
1228	 4.04579314354686E-02 
1229	 4.05761083278109E-02 
1230	 4.05933461826128E-02 
1231	 4.07504402498127E-02 
1232	 4.09383841235561E-02 
1233	 0.040899737377621 
1234	 4.11071429778916E-02 
1235	 4.12753049802549E-02 
1236	 4.11224084156106E-02 
1237	 4.10851382761805E-02 
1238	 4.13188805677315E-02 
1239	 4.13556785469227E-02 
1240	 4.09790755853489E-02 
1241	 4.08637921689649E-02 
1242	 4.11975795556649E-02 
1243	 4.13671171702859E-02 
1244	 4.14518871790925E-02 
1245	 4.14405902376689E-02 
1246	 4.12324799469509E-02 
1247	 4.11402734197116E-02 
1248	 4.12355008612819E-02 
1249	 4.16646382134121E-02 
1250	 4.18561825393365E-02 
1251	 4.17170569756904E-02 
1252	 4.17823781758994E-02 
1253	 0.041742014466351 
1254	 4.16706684667352E-02 
1255	 4.17615736800138E-02 
1256	 4.17366085974219E-02 
1257	 4.16366433859637E-02 
1258	 4.16210711747127E-02 
1259	 4.15804245951395E-02 
1260	 4.15623929690656E-02 
1261	 0.04170283573367 
1262	 4.15098525037895E-02 
1263	 4.10313408373592E-02 
1264	 4.08132377198838E-02 
1265	 4.06158504133508E-02 
1266	 4.07948435281412E-02 
1267	 4.10725894712096E-02 
1268	 0.040950981445416 
1269	 4.03889624564304E-02 
1270	 4.00116894115278E-02 
1271	 4.05427136875545E-02 
1272	 4.11796387481569E-02 
1273	 0.041027058950711 
1274	 4.08805547423176E-02 
1275	 4.09481382742675E-02 
1276	 4.07481595431665E-02 
1277	 4.10348337410679E-02 
1278	 4.15703918518907E-02 
1279	 4.16668654261654E-02 
1280	 4.15075456656256E-02 
1281	 4.13845170174772E-02 
1282	 4.14497401572717E-02 
1283	 4.15788922091087E-02 
1284	 4.16597001944199E-02 
1285	 4.15180394668111E-02 
1286	 4.11781308052198E-02 
1287	 4.12344812212203E-02 
1288	 4.15685798467631E-02 
1289	 4.13565656567555E-02 
1290	 4.09280051315407E-02 
1291	 0.041214395668384 
1292	 4.12633670301967E-02 
1293	 4.06922666840569E-02 
1294	 4.06723204268938E-02 
1295	 0.040731755973994 
1296	 4.05038865336703E-02 
1297	 4.02145611473485E-02 
1298	 4.09027713698751E-02 
1299	 4.18199742638932E-02 
1300	 4.13757736782252E-02 
1301	 4.09078747210878E-02 
1302	 4.06779353979106E-02 
1303	 0.039971840784706 
1304	 3.98650531862794E-02 
1305	 4.04809901322936E-02 
1306	 4.05118327037405E-02 
1307	 4.00114024679005E-02 
1308	 3.99674088263288E-02 
1309	 4.00329725470375E-02 
1310	 4.00332046819689E-02 
1311	 4.05797910502524E-02 
1312	 4.02749560062498E-02 
1313	 3.88557652138389E-02 
1314	 3.85869409298618E-02 
1315	 3.88195414723276E-02 
1316	 0.038545056620202 
1317	 3.82977417299899E-02 
1318	 3.86880581869188E-02 
1319	 3.93891263179927E-02 
1320	 3.91843073745518E-02 
1321	 0.038814230771823 
1322	 3.98073502740187E-02 
1323	 3.89965060660025E-02 
1324	 0.037751776230642 
1325	 3.93455178032871E-02 
1326	 3.97668519254495E-02 
1327	 3.77146647938173E-02 
1328	 3.65294250295852E-02 
1329	 3.64646599346891E-02 
1330	 3.61125885974691E-02 
1331	 3.47441008350472E-02 
1332	 3.37912435700872E-02 
1333	 3.43628569357477E-02 
1334	 3.37120847949454E-02 
1335	 3.32621979081201E-02 
1336	 0.036991612132081 
1337	 3.80519080196409E-02 
1338	 3.52271527270696E-02 
1339	 0.033455537932836 
1340	 3.13856668885726E-02 
1341	 3.20138366648344E-02 
1342	 3.55306090470968E-02 
1343	 3.45740325903664E-02 
1344	 3.21121583020184E-02 
1345	 3.47068188918967E-02 
1346	 3.68178020529167E-02 
1347	 3.25550157417718E-02 
1348	 3.13254569319343E-02 
1349	 3.49858665156841E-02 
1350	 2.45034580986855E-02 
1351	 7.57501831302246E-03 
1352	 1.46472127991174E-02 
1353	 2.00145435524538E-02 
1354	-3.16895548196846E-02 
1355	-8.73668071090626E-02 
1356	 6.54700501837335E-02 
1357	 7.78662490006505E-02 
1358	-0.195821552465309 
1359	-0.184088825750577 
1360	-8.00740666671946E-02 
1361	-0.142932609743799 
1362	 8.16751880177529E-02 
1363	 0.364211325455973 
1364	 0.30789984898695 
1365	 0.142846732942259 
1366	-5.40847065163258E-02 
1367	-5.88198048117545E-02 
1368	-3.79230730263166E-02 
1369	-5.11816379613463E-02 
1370	 0.134680330273989 
1371	 0.502816980151055 
1372	 0.546408462544036 
1373	 0.534530520036918 
1374	 0.264878562308535 
1375	-0.196627890827963 
1376	-0.252446582013642 
1377	-2.10950906780152E-02 
1378	 7.55536890091878E-02 
1379	 0.321598160525383 
1380	 0.45586399471682 
1381	 0.520414516219829 
1382	 0.406064917510203 
1383	 0.105914848381439 
1384	-5.21395677500386E-02 
1385	 0.294895201657629 
1386	 0.069015391413509 
1387	-0.515213885573765 
1388	-0.625661098738644 
1389	 0.751605023937912 
1390	 0.499467607242216 
1391	 0.352527693554277 
1392	-0.551996811245201 
1393	-0.919603101539887 
1394	-3.91801344083303 
1395	-0.385637576618202 
1396	 0.947177490644636 
1397	 0.462339336408023 
1398	-0.426678868195453 
1399	-0.261521511005151 
1400	 4.14565560860889E-02 
1401	 0.308518471828973 
1402	 4.82833455464676E-02 
1403	 0.118513607349484 
1404	 0.489017403634598 
1405	 0.624358908789514 
1406	 0.878808517778278 
1407	 0.599706257631203 
1408	 3.46589694340301E-02 
1409	-5.86096736917134E-02 
1410	 4.36291855398677E-02 
1411	 2.57965723959768E-02 
1412	-0.10928108124812 
1413	 9.93987584288464E-03 
1414	 0.195106359022323 
1415	 0.169097465946854 
1416	 9.32810576485578E-02 
1417	 0.130230499150582 
1418	 0.284278704444327 
1419	 0.150438911210911 
1420	-0.058539987328788 
1421	-6.87951456644093E-02 
1422	-0.1391181641348 
1423	-0.151563692633009 
1424	-3.15364529350292E-02 
1425	 1.45146789157955E-02 
1426	-5.25331193604871E-03 
1427	-2.59642190999151E-03 
1428	 3.47892230605401E-02 
1429	 3.66908946917508E-02 
1430	 2.19466442563455E-04 
1431	-6.57302451266493E-03 
1432	 2.69631881056314E-03 
1433	-2.52502220722984E-03 
1434	-2.48260094020043E-03 
1435	-6.88342720373022E-03 
1436	-3.11621344393751E-02 
1437	-4.46760496697631E-02 
1438	-3.48499260146967E-03 
1439	 6.62029952249695E-03 
1440	 4.27053253119668E-03 
1441	 9.46315740397945E-03 
1442	-0.014369590437668 
1443	-2.49688522623436E-02 
1444	 1.48751419056417E-02 
1445	 3.34515339945087E-02 
1446	 3.38389297070582E-02 
1447	 4.69442315469254E-02 
1448	 0.05203952205243 
1449	 4.42452241784914E-02 
1450	 3.12911591742414E-02 
1451	 2.69700874079667E-02 
1452	 3.37917722838918E-02 
1453	 3.14768061004563E-02 
1454	 2.79473881267686E-02 
1455	 2.41903554766616E-02 
1456	 2.77954379642373E-02 
1457	 3.15601671748868E-02 
1458	 3.00449013142604E-02 
1459	 3.22379004341879E-02 
1460	 3.09543451337612E-02 
1461	 2.01813465439255E-02 
1462	 1.96333233615114E-02 
1463	 2.80498227329881E-02 
1464	 2.91491488018023E-02 
1465	 2.82192673485161E-02 
1466	 2.79281748381933E-02 
1467	 2.53515862729217E-02 
1468	 2.44492100671208E-02 
1469	 2.27791239301963E-02 
1470	 2.60520965391998E-02 
1471	 3.52595697592245E-02 
1472	 3.50152160388137E-02 
1473	 3.54401565879428E-02 
1474	 3.24461955150321E-02 
1475	 1.81446137047877E-02 
1476	 1.60329252989262E-02 
1477	 2.08305231188144E-02 
1478	 2.10166645093046E-02 
1479	 2.06760545095939E-02 
1480	 2.38819643611408E-02 
1481	 2.94814454687472E-02 
1482	 0.030043365272641 
1483	 2.91795741934857E-02 
1484	 3.12456412980694E-02 
1485	 3.40191785727896E-02 
1486	 3.19501312648665E-02 
1487	 0.027122519098159 
1488	 2.88010597005889E-02 
1489	 3.12388981477432E-02 
1490	 3.09626947211076E-02 
1491	 3.28440325323489E-02 
1492	 3.48595415728062E-02 
1493	 3.55533183995594E-02 
1494	 3.47033606939657E-02 
1495	 3.38491041047706E-02 
1496	 3.43368120733713E-02 
1497	 3.34118710465805E-02 
1498	 3.29860124684609E-02 
1499	 3.47787922686245E-02 
1500	 3.60326471792611E-02 
1501	 3.63156946418678E-02 
1502	 3.62869117527798E-02 
1503	 3.65320615975996E-02 
1504	 3.68242286514397E-02 
1505	 3.64032156849453E-02 
1506	 3.65175608270597E-02 
1507	 3.71931559930904E-02 
1508	 3.76038496844701E-02 
1509	 3.74837460060909E-02 
1510	 3.75956838661824E-02 
1511	 3.76665606145693E-02 
1512	 3.73021801861534E-02 
1513	 3.72201294564325E-02 
1514	 3.75259308636853E-02 
1515	 3.77741463272143E-02 
1516	 3.81159364986826E-02 
1517	 3.85937304103741E-02 
1518	 3.85356867133222E-02 
1519	 3.79987167269983E-02 
1520	 3.78008129795484E-02 
1521	 3.80971479542466E-02 
1522	 3.83230725342049E-02 
1523	 3.84863114254527E-02 
1524	 3.86951051538068E-02 
1525	 3.84035090682797E-02 
1526	 3.80962281988581E-02 
1527	 3.81837394139215E-02 
1528	 3.82634621741257E-02 
1529	 3.84161224090762E-02 
1530	 3.82813653957555E-02 
1531	 3.82528978897922E-02 
1532	 3.86277685832722E-02 
1533	 0.038855654342697 
1534	 3.91440636155123E-02 
1535	 0.039216375000137 
1536	 3.90584453940487E-02 
1537	 3.94097000913775E-02 
1538	 3.96862022889122E-02 
1539	 0.039063197861551 
1540	 3.89714486711626E-02 
1541	 3.96004026357967E-02 
1542	 0.039563615246156 
1543	 3.96932165791196E-02 
1544	 4.01368683394315E-02 
1545	 0.039875985201147 
1546	 3.94762574066867E-02 
1547	 3.99067040905564E-02 
1548	 4.04102324204664E-02 
1549	 4.02885648937782E-02 
1550	 4.01812773335561E-02 
1551	 0.039813496562249 
1552	 3.93863440510555E-02 
1553	 3.96647428311325E-02 
1554	 3.97820784971265E-02 
1555	 3.93293318306138E-02 
1556	 3.93366727089118E-02 
1557	 3.99241769933425E-02 
1558	 3.98515011221606E-02 
1559	 3.92848440893903E-02 
1560	 3.91321662075006E-02 
1561	 3.88655475436575E-02 
1562	 3.88945747506103E-02 
1563	 3.96846094116662E-02 
1564	 4.02952427674294E-02 
1565	 4.04208552547351E-02 
1566	 0.040268235233627 
1567	 4.02122089293837E-02 
1568	 0.04017581642471 
1569	 3.97712692642187E-02 
1570	 3.95367896780567E-02 
1571	 3.97761825179647E-02 
1572	 3.99849787552765E-02 
1573	 3.97882915892411E-02 
1574	 0.039344960118337 
1575	 3.91606839868881E-02 
1576	 3.96463941155629E-02 
1577	 0.040071186587805 
1578	 3.98436098562794E-02 
1579	 0.039788020290427 
1580	 3.98030066515075E-02 
1581	 3.96985917644336E-02 
1582	 3.98927716172929E-02 
1583	 3.96341725002476E-02 
1584	 3.87144679641218E-02 
1585	 3.86267188035664E-02 
1586	 3.93270864687789E-02 
1587	 3.96974972631445E-02 
1588	 3.99943843142733E-02 
1589	 4.05380734759728E-02 
1590	 4.09530165200571E-02 
1591	 4.09816708431431E-02 
1592	 4.09797983462118E-02 
1593	 4.08385828514923E-02 
1594	 4.05717836134993E-02 
1595	 4.04969395847059E-02 
1596	 4.05369110182239E-02 
1597	 4.04247521870346E-02 
1598	 3.99215238416107E-02 
1599	 3.94517958921288E-02 
1600	 3.92477992372466E-02 
1601	 3.94802607279086E-02 
1602	 3.98366115886486E-02 
1603	 3.99181932122807E-02 
1604	 4.01426613595459E-02 
1605	 3.97646423000748E-02 
1606	 3.92377381852587E-02 
1607	 0.039973958642341 
1608	 4.04700486234687E-02 
1609	 4.01244506135827E-02 
1610	 0.04007717838848 
1611	 3.99296454474848E-02 
1612	 3.98345395560162E-02 
1613	 4.00846722472246E-02 
1614	 3.98066105468011E-02 
1615	 3.95112645136503E-02 
1616	 3.96777684702863E-02 
1617	 3.96871188823699E-02 
1618	 0.040070765160098 
1619	 4.11686460429467E-02 
1620	 4.12202343998271E-02 
1621	 4.05051590796169E-02 
1622	 4.04887598430987E-02 
1623	 3.98013088709135E-02 
1624	 3.91313796592801E-02 
1625	 3.93062729867425E-02 
1626	 3.92136890447862E-02 
1627	 3.91317150399803E-02 
1628	 3.92432745963016E-02 
1629	 3.96659049780078E-02 
1630	 4.03050711946333E-02 
1631	 4.03092984947091E-02 
1632	 3.97946933746395E-02 
1633	 3.93769121114614E-02 
1634	 3.90195577822831E-02 
1635	 3.93140413290703E-02 
1636	 3.99505009865181E-02 
1637	 3.94660518012889E-02 
1638	 3.92003812612636E-02 
1639	 4.01726843684165E-02 
1640	 4.01263326763912E-02 
1641	 3.95425571633705E-02 
1642	 3.99946773801262E-02 
1643	 3.97259429311381E-02 
1644	 3.88018307685695E-02 
1645	 3.91578896560424E-02 
1646	 3.97216914243841E-02 
1647	 3.95390827562141E-02 
1648	 3.97533893759277E-02 
1649	 4.00697555189862E-02 
1650	 4.01735314077916E-02 
1651	 4.06365869456018E-02 
1652	 4.06024481662753E-02 
1653	 4.02529836790743E-02 
1654	 0.040319578251982 
1655	 4.00962544271761E-02 
1656	 3.97184003605252E-02 
1657	 3.92660118418513E-02 
1658	 3.92999952415373E-02 
1659	 3.98158964813184E-02 
1660	 3.98271858612867E-02 
1661	 3.97296086893451E-02 
1662	 4.00478943943283E-02 
1663	 4.02154478265107E-02 
1664	 3.98668753969798E-02 
1665	 3.97151096532873E-02 
1666	 4.00723548385238E-02 
1667	 4.00032411051312E-02 
1668	 4.03585497475389E-02 
1669	 0.040901328888266 
1670	 4.04290735957434E-02 
1671	 0.039410324861595 
1672	 0.039212750422866 
1673	 3.96575626893939E-02 
1674	 3.99598637500268E-02 
1675	 4.03099859886134E-02 
1676	 4.00059007784661E-02 
1677	 3.97932453385182E-02 
1678	 4.00728444603419E-02 
1679	 3.98277685323021E-02 
1680	 0.03994254584356 
1681	 4.00327983094981E-02 
1682	 3.97669901108377E-02 
1683	 3.99550219753384E-02 
1684	 4.02957343347996E-02 
1685	 4.06734074221236E-02 
1686	 4.05185910901649E-02 
1687	 4.02819886757632E-02 
1688	 0.040178714119254 
1689	 4.00100760426716E-02 
1690	 4.01332146712259E-02 
1691	 4.06015098429288E-02 
1692	 4.11903821225781E-02 
1693	 4.01239517959932E-02 
1694	 3.91886315996687E-02 
1695	 3.91268671278029E-02 
1696	 0.038305940997207 
1697	 3.90374825320055E-02 
1698	 4.02420530559188E-02 
1699	 4.01321135469277E-02 
1700	 4.08824478975124E-02 
1701	 4.14729091342365E-02 
1702	 0.040162318091719 
1703	 0.039640415738813 
1704	 0.039654057345594 
1705	 3.88227843105744E-02 
1706	 3.94804286221923E-02 
1707	 3.97631725308545E-02 
1708	 3.85601518866386E-02 
1709	 3.89271568389843E-02 
1710	 3.97695063862503E-02 
1711	 3.96501901211362E-02 
1712	 3.94398549778874E-02 
1713	 3.80048213996297E-02 
1714	 3.77556228556669E-02 
1715	 3.91118805668234E-02 
1716	 4.06928214717454E-02 
1717	 4.05318703164681E-02 
1718	 4.00908314816937E-02 
1719	 3.98142465394906E-02 
1720	 0.03885512614706 
1721	 3.92077998277341E-02 
1722	 4.01023306938887E-02 
1723	 3.97901795090923E-02 
1724	 3.86091908386594E-02 
1725	 3.78795253492439E-02 
1726	 3.84672671273137E-02 
1727	 3.84268095073364E-02 
1728	 3.84459462378762E-02 
1729	 3.92166575942101E-02 
1730	 3.89944116072339E-02 
1731	 3.90176682263847E-02 
1732	 3.95077347656937E-02 
1733	 3.97323767605218E-02 
1734	 3.95948711025883E-02 
1735	 3.87840041263548E-02 
1736	 3.78981797924966E-02 
1737	 3.75338819891755E-02 
1738	 3.79358725319724E-02 
1739	 3.85918620977938E-02 
1740	 3.92292927236779E-02 
1741	 3.95435027263864E-02 
1742	 3.94456070423948E-02 
1743	 0.03944620412318 
1744	 4.00304917335741E-02 
1745	 4.00865531130911E-02 
1746	 3.92654272088225E-02 
1747	 3.90427927106417E-02 
1748	 3.98179285015059E-02 
1749	 3.95955644697262E-02 
1750	 3.79932449289426E-02 
1751	 3.75064738287576E-02 
1752	 3.78866520689934E-02 
1753	 3.80219434492444E-02 
1754	 3.86324201003757E-02 
1755	 3.80482387629294E-02 
1756	 3.59402733536674E-02 
1757	 3.66087505139386E-02 
1758	 3.73550242295005E-02 
1759	 3.78807022825729E-02 
1760	 3.82344470312621E-02 
1761	 3.75549628888756E-02 
1762	 3.79149213907943E-02 
1763	 3.93826868760239E-02 
1764	 3.92802731123759E-02 
1765	 3.81628417476479E-02 
1766	 3.88401742952808E-02 
1767	 4.03168573320741E-02 
1768	 0.040302791433503 
1769	 4.04460816571604E-02 
1770	 3.84388091432728E-02 
1771	 3.53131666706938E-02 
1772	 0.036575683962488 
1773	 3.89592103303143E-02 
1774	 3.81273831250793E-02 
1775	 3.39857906004824E-02 
1776	 3.37854647827364E-02 
1777	 3.54762506714763E-02 
1778	 3.63608906359433E-02 
1779	 4.32774186075824E-02 
1780	 4.32049587799141E-02 
1781	 3.39123238043699E-02 
1782	 3.24088372243707E-02 
1783	 3.05244244975848E-02 
1784	 3.04226887288028E-02 
1785	 3.93495390306802E-02 
1786	 4.20349102613447E-02 
1787	 4.10532374961326E-02 
1788	 3.95564020914413E-02 
1789	 3.42870208022404E-02 
1790	 2.47759229413152E-02 
1791	 2.62269203927597E-02 
1792	 2.53354668699299E-02 
1793	 2.21387806901571E-02 
1794	 3.49583012677483E-02 
1795	 4.00378066079129E-02 
1796	 4.49961552922409E-02 
1797	 5.81262655027524E-02 
1798	 0.031399697459255 
1799	 4.24713635336649E-03 
1800	-1.12111899124041E-02 
1801	-1.66723012515147E-02 
1802	 6.76359758805971E-02 
1803	 7.90008886931236E-02 
1804	 2.41658264692189E-03 
1805	-1.68697278535685E-02 
1806	-0.11687194419636 
1807	-0.160010566831082 
1808	 0.344167438604639 
1809	 0.316489468426288 
1810	-0.186163393320751 
1811	-0.38877833406363 
1812	-0.808993855157182 
1813	-0.905330571161712 
1814	-0.207057876445849 
1815	-0.859893180767631 
1816	 140.760548338838 
1817	-9.37769256635482E-02 
1818	-0.99954367935624 
1819	-2.01936049736873 
1820	-5.75295687381533 
1821	-0.219813584674443 
1822	-0.706839210433503 
1823	 2.20017816072201 
1824	 1.46000953633399 
1825	 0.307375639013504 
1826	 0.107765201932428 
1827	-0.133898231393171 
1828	 9.01316829358243E-02 
1829	 1.21839380394449 
1830	 0.481896467899137 
1831	-1.57205714801966 
1832	-1.55597845772726 
1833	-0.630533489282316 
1834	-0.226860413622788 
1835	-6.23583710603098E-02 
1836	-11.2858643342732 
1837	-2.48611695121747 
1838	-12.6457076778181 
1839	 0.448987031445231 
1840	-6.0050591679696E-03 
1841	-0.121219220218281 
1842	-0.425850912441705 
1843	-0.52033018138351 
1844	-1.10374944525372 
1845	-5.45672483582854 
1846	-2.62026748156118 
1847	-2.33497645711851 
1848	-3.51527447237549 
1849	-1.54497438893532 
1850	-0.294205760192156 
1851	-0.200045067611202 
1852	 0.5950613035115 
1853	 5.33941885200058 
1854	-8.25949499647195 
1855	-2.31272406707065 
1856	-1.71512820917268 
1857	-1.35451889481362 
1858	-1.88376276704512 
1859	-3.34897172404972 
1860	-2.21846727324528 
1861	-20.2471111461131 
1862	 3.39165713420933 
1863	 3.61966376377398 
1864	-14.0167609321192 
1865	-2.79294977238664 
1866	-0.298258631081025 
1867	-0.377431600294936 
1868	-4.03072719185391 
1869	 6.0159041435973 
1870	 3.40808423724842E-02 
1871	 4.34736128158348E-02 
1872	-0.165383323952578 
1873	-0.910175387989071 
1874	 7.26983169748684E-03 
1875	 0.587312968703252 
1876	 0.57238874201486 
1877	 0.11129527128637 
1878	 0.121999220481398 
1879	-0.244893393698092 
1880	-0.313673478192855 
1881	 0.343851381327478 
1882	 0.840343925886722 
1883	 0.87137553458389 
1884	 0.447933693200555 
1885	 1.40468828502983 
1886	-0.78180175577918 
1887	 2.0832615262014 
1888	 2.56771385594969 
1889	 2.51952723741294 
1890	 1.21333026122598 
1891	 0.440987678095026 
1892	-1.62806276784204 
1893	-0.717572936481605 
1894	-0.238486000307151 
1895	-0.109074578491139 
1896	 0.374440307167878 
1897	 1.43710730102065 
1898	 6.48457100407497 
1899	 8.50113054360807 
1900	 3.9336624556526 
1901	 0.584674916804993 
1902	 0.577093998904526 
1903	 1.23048309845984 
1904	 1.00952014904025 
1905	 0.934461134184966 
1906	 0.9076449158259 
1907	 1.11097346106429 
1908	 1.60213255045937 
1909	 3.73304243309966 
1910	-7.89677851713773 
1911	 2.21712688330958 
1912	 2.12417947699015 
1913	 2.13662974954205 
1914	 4.33464294160136 
1915	 3.98149977479438 
1916	 4.49789767960432 
1917	 1.87590083189538 
1918	 1.84490666188263 
1919	 2.21363557690299 
1920	 1.17482241544273 
1921	 0.203146656908157 
1922	-0.301019673926652 
1923	-0.144043960908826 
1924	-0.176422115583078 
1925	-0.455372864058355 
1926	-0.766253854009184 
1927	-0.972656354298327 
1928	 1.81536299525342 
1929	-4.35691314905143 
1930	-0.689957001241461 
1931	-0.157521863704465 
1932	-0.257645866714476 
1933	-3.82425678205917E-02 
1934	 1.84874796181501 
1935	 1.00753773978722 
1936	-0.892445623139957 
1937	-0.67897545811936 
1938	-2.04650069375799 
1939	-2.90940652881694 
1940	 98.4205338525703 
1941	-1.00917180911368 
1942	 8.58334465072185E-02 
1943	-3.21384294472583 
1944	-0.29970362177149 
1945	-0.030806778229357 
1946	-0.148699289573113 
1947	 8.55991137598105E-02 
1948	 0.225864797206417 
1949	 0.354051640128645 
1950	 0.484298755756829 
1951	 0.400300172095278 
1952	 0.301677709387067 
1953	 0.110967080319037 
1954	 1.9233115282147E-03 
1955	-8.77129655839806E-02 
1956	-6.53924957997169E-02 
1957	-7.27265878785334E-03 
1958	-3.95116099344762E-02 
1959	-7.02646155411641E-02 
1960	-7.10296142264792E-02 
1961	-0.082143857604755 
1962	-6.92756028208703E-02 
1963	-4.65121392931388E-02 
1964	-2.37176950774586E-02 
1965	 9.45427743411201E-03 
1966	 0.016709273657497 
1967	 0.017712933424232 
1968	 1.46936002832292E-02 
1969	 2.23612786606849E-02 
1970	 1.59427979992778E-02 
1971	 1.44044824429697E-02 
1972	 2.64592473194649E-02 
1973	 2.58376869541029E-02 
1974	 2.43285405333439E-02 
1975	 2.67626148058195E-02 
1976	 2.73331105401143E-02 
1977	 2.60965649389947E-02 
1978	 1.80769427866118E-02 
1979	 1.68558998779219E-02 
1980	 1.77642705424817E-02 
1981	 2.17657811003806E-02 
1982	 2.19298421608067E-02 
1983	 2.42997354270474E-02 
1984	 2.62770755613452E-02 
1985	 2.37515298879859E-02 
1986	 2.04362392776364E-02 
1987	 2.07277356617299E-02 
1988	 1.87992769839952E-02 
1989	 1.88067518930734E-02 
1990	 2.67362239575035E-02 
1991	 3.48968209918234E-02 
1992	 4.19849637810753E-02 
1993	 4.42439223563684E-02 
1994	 4.45325077829073E-02 
1995	 3.91472667720948E-02 
1996	 3.32412075810816E-02 
1997	 2.60689201227886E-02 
1998	 2.73627393148324E-02 
1999	 3.30062633461213E-02 
2000	 4.14364048955751E-02 
2001	 5.86367546897882E-02 
2002	 6.47583079158214E-02 
2003	 5.18356205405944E-02 
2004	 3.75999802794008E-02 
2005	 3.04946780846069E-02 
2006	 2.77802518626224E-02 
2007	 4.01919057556971E-02 
2008	 4.50990276602306E-02 
2009	 0.045582494135788 
2010	 4.21959535610055E-02 
2011	 3.86026602598998E-02 
2012	 2.69751417320856E-02 
2013	 2.32968624502854E-02 
2014	 3.41471437116204E-02 
2015	 2.58441234955364E-02 
2016	 3.05393726040927E-02 
2017	 0.043380085775199 
2018	 3.74482996672735E-02 
2019	 3.94879990104696E-02 
2020	 3.87039092653577E-02 
2021	 2.66107966698008E-02 
2022	 2.82842900635534E-02 
2023	 3.16512924468084E-02 
2024	 3.20842017273572E-02 
2025	 3.50185072721259E-02 
2026	 3.59584895335796E-02 
2027	 3.47779780665325E-02 
2028	 3.25944699581004E-02 
2029	 3.32932580657063E-02 
2030	 3.51206459716727E-02 
2031	 3.47913204651342E-02 
2032	 3.39377271051686E-02 
2033	 3.53055640307219E-02 
2034	 3.76811337020227E-02 
2035	 3.87122244351307E-02 
2036	 3.75622568542825E-02 
2037	 3.51447939518823E-02 
2038	 3.19592132504062E-02 
2039	 3.12914209192889E-02 
2040	 3.37713015066551E-02 
2041	 3.52521634396465E-02 
2042	 3.85579055521385E-02 
2043	 3.97646835595712E-02 
2044	 3.98083739875172E-02 
2045	 3.94499290422553E-02 
2046	 4.10786094712336E-02 
2047	 4.03382078781405E-02 
2048	 3.81952118630775E-02 
2049	 3.70526609225097E-02 
2050	 3.33743663447261E-02 
2051	 2.69723762429069E-02 
2052	 2.36363605924988E-02 
2053	 2.48837468034454E-02 
2054	 2.34405001358422E-02 
2055	 2.07241452300744E-02 
2056	 2.14881499393746E-02 
2057	 0.022970140720078 
2058	 2.46885047197616E-02 
2059	 3.29136498621344E-02 
2060	 3.54353160429911E-02 
2061	 3.47077066448248E-02 
2062	 3.31974645823187E-02 
2063	 0.033409352441158 
2064	 2.68920106866175E-02 
2065	 2.35536946387693E-02 
2066	 2.40083799323983E-02 
2067	 2.43901351643836E-02 
2068	 2.95624287907072E-02 
2069	 3.38020642200261E-02 
2070	 3.37957561286944E-02 
2071	 3.24714182768962E-02 
2072	 3.28221969400133E-02 
2073	 0.034694221512905 
2074	 3.97575084300048E-02 
2075	 4.06737828148498E-02 
2076	 4.11883365303002E-02 
2077	 4.04776606060019E-02 
2078	 3.69959871267167E-02 
2079	 3.56867131922877E-02 
2080	 3.44898811056821E-02 
2081	 3.43622586898295E-02 
2082	 0.036486841992809 
2083	 3.56459469117151E-02 
2084	 0.035512364107345 
2085	 3.63817540494841E-02 
2086	 0.035159073226044 
2087	 3.65234765252099E-02 
2088	 3.81867441971527E-02 
2089	 3.71175532583961E-02 
2090	 3.70509928717506E-02 
2091	 3.63268194474116E-02 
2092	 3.66810222124645E-02 
2093	 3.93956161029728E-02 
2094	 4.01640758116815E-02 
2095	 4.00524478278824E-02 
2096	 3.99038196378863E-02 
2097	 3.82093229198462E-02 
2098	 3.76320686323638E-02 
2099	 3.67452490240271E-02 
2100	 3.85307015882126E-02 
2101	 0.039839198153363 
2102	 4.09916352044269E-02 
2103	 4.15476718186985E-02 
2104	 3.92359424211208E-02 
2105	 3.87421854978023E-02 
2106	 3.96269151408529E-02 
2107	 3.99860433216089E-02 
2108	 4.07694171318937E-02 
2109	 4.11058014214597E-02 
2110	 4.16658604922333E-02 
2111	 4.04179195292685E-02 
2112	 3.96515325219424E-02 
2113	 3.95546653201741E-02 
2114	 3.83885773648121E-02 
2115	 0.03764024793664 
2116	 3.88793942752553E-02 
2117	 3.86059908310293E-02 
2118	 0.037987540660735 
2119	 3.69745437283317E-02 
2120	 3.48832500061454E-02 
2121	 3.30277399040827E-02 
2122	 3.36797461736786E-02 
2123	 3.23968273354238E-02 
2124	 3.49684910624122E-02 
2125	 3.92222049850341E-02 
2126	 3.81226292222769E-02 
2127	 3.69429420157885E-02 
2128	 3.59289796457362E-02 
2129	 3.41870690408453E-02 
2130	 3.46910476780661E-02 
2131	 3.67781953522637E-02 
2132	 0.037174287848216 
2133	 3.84590786428597E-02 
2134	 3.97534129356285E-02 
2135	 4.21080803199006E-02 
2136	 4.19594728753119E-02 
2137	 4.04008893663503E-02 
2138	 3.95939394410547E-02 
2139	 3.68960631520814E-02 
2140	 3.70154044978008E-02 
2141	 4.06489911859072E-02 
2142	 4.12342654821834E-02 
2143	 4.04767606362803E-02 
2144	 0.041324285985997 
2145	 4.17330111674702E-02 
2146	 4.12295652071139E-02 
2147	 4.15123965266156E-02 
2148	 4.07361115053276E-02 
2149	 3.83643826452885E-02 
2150	 3.56260286555885E-02 
2151	 3.31680374080881E-02 
2152	 3.16344208514257E-02 
2153	 3.20598679040781E-02 
2154	 3.15124717158597E-02 
2155	 3.41255849204775E-02 
2156	 3.81083165577795E-02 
2157	 0.038380981208099 
2158	 3.63061647425216E-02 
2159	 3.77028441565543E-02 
2160	 3.81623609147874E-02 
2161	 3.84076758484223E-02 
2162	 4.13643606106868E-02 
2163	 0.042311262596453 
2164	 4.08884727840753E-02 
2165	 3.97214605859655E-02 
2166	 3.89444024107299E-02 
2167	 3.89656327566882E-02 
2168	 3.78127561195202E-02 
2169	 0.037090172277048 
2170	 3.89835842605199E-02 
2171	 3.81343319343268E-02 
2172	 3.49640616312412E-02 
2173	 3.43300991578787E-02 
2174	 3.24057578934181E-02 
2175	 3.25794531670802E-02 
2176	 3.25928609695667E-02 
2177	 2.95802705925631E-02 
2178	 2.75323138665112E-02 
2179	 2.78031426862501E-02 
2180	 0.028963114231614 
2181	 3.15382708276372E-02 
2182	 3.31351595775715E-02 
2183	 2.67574734408194E-02 
2184	 2.11917193602847E-02 
2185	 2.28688070211653E-02 
2186	 2.42043470508103E-02 
2187	 2.97937142045848E-02 
2188	 3.56067568801042E-02 
2189	 4.32199623305969E-02 
2190	 4.59839645111126E-02 
2191	 0.049115051192888 
2192	 4.98834732868698E-02 
2193	 4.60226960733946E-02 
2194	 4.33542849576022E-02 
2195	 4.02898732616232E-02 
2196	 3.77191234111454E-02 
2197	 3.30063955321697E-02 
2198	 3.15579777592587E-02 
2199	 3.39753540545856E-02 
2200	 3.25003320398074E-02 
2201	 3.03608971161013E-02 
2202	 3.22246074046108E-02 
2203	 3.28631530873755E-02 
2204	 3.20075977751749E-02 
2205	 3.17434286564527E-02 
2206	 2.58584086451731E-02 
2207	 0.018501879053799 
2208	 1.84817768621551E-02 
2209	 2.35352452311302E-02 
2210	 2.82315945516775E-02 
2211	 3.37328315812254E-02 
2212	 3.48691205650736E-02 
2213	 3.05878116040043E-02 
2214	 3.17515153424016E-02 
2215	 3.59509571467651E-02 
2216	 3.76410464748604E-02 
2217	 0.040692058110726 
2218	 4.81936302627275E-02 
2219	 4.96044023847608E-02 
2220	 4.72452785639634E-02 
2221	 4.73174039886967E-02 
2222	 4.40068962256059E-02 
2223	 4.32444302014968E-02 
2224	 4.72783798889059E-02 
2225	 4.69210776318957E-02 
2226	 4.48160488265093E-02 
2227	 4.39044201763357E-02 
2228	 4.09149165644327E-02 
2229	 3.79290866469452E-02 
2230	 3.37820174420347E-02 
2231	 3.32852495427909E-02 
2232	 3.77877103989171E-02 
2233	 3.59162607999965E-02 
2234	 3.26181442706861E-02 
2235	 0.028852637204863 
2236	 2.52051716714218E-02 
2237	 2.06698118099271E-02 
2238	 1.91014653162653E-02 
2239	 2.14781291771062E-02 
2240	 2.19830790466382E-02 
2241	 2.21894089342049E-02 
2242	 0.027142463416751 
2243	 3.29289772501918E-02 
2244	 4.35930014827928E-02 
2245	 4.70613575799796E-02 
2246	 4.16356654581758E-02 
2247	 4.73296791207598E-02 
2248	 4.83626341473423E-02 
2249	 0.047878463981047 
2250	 4.88936336681206E-02 
2251	 4.09478486718778E-02 
2252	 3.49447329360376E-02 
2253	 2.50241905704563E-02 
2254	 2.07975646314678E-02 
2255	 2.77248309218254E-02 
2256	 0.027672788390425 
2257	 2.78417317820784E-02 
2258	 3.14090268996576E-02 
2259	 3.23198204001148E-02 
2260	 3.26818491462637E-02 
2261	 3.05524242390467E-02 
2262	 3.26418353663487E-02 
2263	 4.03533789366914E-02 
2264	 3.94136385220066E-02 
2265	 3.43522287411513E-02 
2266	 3.29757989317035E-02 
2267	 2.53666921947939E-02 
2268	 2.34703613606419E-02 
2269	 3.02571766263056E-02 
2270	 3.36728181668803E-02 
2271	 3.58153711604984E-02 
2272	 3.59431025013748E-02 
2273	 3.55695521145189E-02 
2274	 3.55166021885748E-02 
2275	 3.36675707532967E-02 
2276	 3.37610040484275E-02 
2277	 0.034989317030536 
2278	 3.40317508205163E-02 
2279	 3.08505415308119E-02 
2280	 3.14423153910172E-02 
2281	 3.05253518790139E-02 
2282	 3.95362058828679E-02 
2283	 0.044078372678633 
2284	 4.20184238752695E-02 
2285	 3.79083230126018E-02 
2286	 2.88350671719691E-02 
2287	 2.90125711778987E-02 
2288	 0.037056549254099 
2289	 0.046251453372631 
2290	 5.54439469196589E-02 
2291	 5.26907529309843E-02 
2292	 4.82115928107587E-02 
2293	 4.99834653838735E-02 
2294	 4.73081227131962E-02 
2295	 4.97026153725059E-02 
2296	 0.051093818445525 
2297	 4.54478173476068E-02 
2298	 4.30200326601755E-02 
2299	 3.69037988894141E-02 
2300	 0.036723255765666 
2301	 0.041423736431237 
2302	 3.51136824226088E-02 
2303	 3.21756261278602E-02 
2304	 3.10345357385788E-02 
2305	 3.06820217974619E-02 
2306	 3.58695275221897E-02 
2307	 2.32543447189546E-02 
2308	 8.11486875174786E-03 
2309	 8.55157189654489E-03 
2310	 1.34264570622943E-02 
2311	 2.78900863283678E-02 
2312	 0.050028985750523 
2313	 5.50016198432111E-02 
2314	 3.42912792200808E-02 
2315	 1.91797970896563E-02 
2316	 1.56044681042311E-02 
2317	 0.016395684774992 
2318	 2.13490548009529E-02 
2319	 2.20585287889702E-02 
2320	 2.81421836239526E-02 
2321	 0.031179700275224 
2322	 1.39189211803091E-02 
2323	-5.44457500743486E-03 
2324	-9.40675764345062E-03 
2325	-0.02768016763209 
2326	-3.61087528475649E-02 
2327	-9.33089038342449E-03 
2328	-3.26642011528592E-03 
2329	 1.58020738230758E-02 
2330	 5.61819799365025E-02 
2331	 4.72742987092507E-02 
2332	 3.45956585831755E-02 
2333	 3.39734684021775E-02 
2334	 9.34631210487421E-03 
2335	 2.91778337280775E-03 
2336	 1.34012658186921E-02 
2337	 1.79541410730284E-02 
2338	 4.05267442349577E-02 
2339	 6.11466856319365E-02 
2340	 6.87759336686217E-02 
2341	 8.06995204968005E-02 
2342	 7.19184133551251E-02 
2343	 3.35318030297088E-02 
2344	 1.38582702337338E-02 
2345	 1.67871357396714E-02 
2346	 7.90462274410324E-03 
2347	 1.13859397619497E-02 
2348	 2.63210086895517E-02 
2349	 1.77426637076342E-02 
2350	 3.12070845835745E-03 
2351	 2.89704000347018E-02 
2352	 5.84860965628126E-02 
2353	 5.33649543586805E-02 
2354	 3.68391647521745E-02 
2355	-1.51282296059475E-02 
2356	-4.73865644386515E-02 
2357	-6.05718746009499E-02 
2358	-7.37068084558881E-02 
2359	-3.99143172048697E-02 
2360	-2.52559679772507E-02 
2361	-1.69739218505946E-02 
2362	-2.27533827643126E-03 
2363	-0.019190904966725 
2364	 1.66963168702865E-03 
2365	 6.53393474679471E-02 
2366	 8.47105208942344E-02 
2367	 7.19849156065477E-02 
2368	 3.00200454087686E-02 
2369	-4.63743533816627E-02 
2370	-6.04192330108261E-02 
2371	-9.26156712540965E-03 
2372	 3.05166110428865E-02 
2373	 2.09766500882328E-02 
2374	-7.00297607341369E-02 
2375	-0.110143819321829 
2376	-0.047343896865745 
2377	 5.63456925815743E-02 
2378	 0.141206145423265 
2379	 0.154423091790766 
2380	 5.25597032802715E-02 
2381	-5.06653807924986E-02 
2382	-9.07949338908062E-02 
2383	-6.93372781736249E-02 
2384	 3.78004209680876E-02 
2385	 0.140337936880688 
2386	 0.220786571194091 
2387	 0.177682794985637 
2388	-3.3380616086928E-03 
2389	-0.162311467417906 
2390	-0.242807681646291 
2391	-0.26394572437866 
2392	-0.304183109754297 
2393	-0.237186823734438 
2394	-0.156959691167285 
2395	-0.249805733963923 
2396	-9.40968784595196E-02 
2397	-9.26690286078923E-03 
2398	-5.39863013636606E-02 
2399	 5.10075586376997E-02 
2400	 8.52865543452086E-02 
2401	-6.79903266999917E-02 
2402	-0.153930132677528 
2403	-9.32966949404529E-02 
2404	-0.142300372013947 
2405	-0.168928122136763 
2406	-0.195168554604003 
2407	-0.187140547860259 
2408	-7.54051436751238E-02 
2409	-6.16925586617623E-02 
2410	-1.88761966923184E-02 
2411	 2.63132717781755E-02 
2412	-9.82543027103711E-02 
2413	-3.34740906809545E-02 
2414	 0.448019021596034 
2415	 0.327956374543336 
2416	 0.189575292849875 
2417	 0.325245956178014 
2418	 0.269625986325179 
2419	 0.24604277646606 
2420	 0.221844508509882 
2421	-0.275601011054155 
2422	-0.388760129014266 
2423	 0.252220437419482 
2424	 0.901948556157019 
2425	 0.410252672809302 
2426	 2.25191352203295 
2427	 1.12092338885468 
2428	 0.712937324169819 
2429	 0.415268078541409 
2430	 0.124103414321598 
2431	-0.453677661821373 
2432	-0.81708475735285 
2433	-0.274195649571082 
2434	 0.079757745062904 
2435	 0.621267033192748 
2436	 2.26599929519358 
2437	 359.69479289389 
2438	-1.09603642542306 
2439	-0.139959185991551 
2440	-47.0460184374116 
2441	-49.9834197999562 
2442	-1.38306656935403 
2443	-0.369608274475227 
2444	-5.03144539161749 
2445	-0.949120777122538 
2446	 4.13191862677209E-02 
2447	 1.34875836394825 
2448	 1.59653889795756 
2449	 1.01465496874136 
2450	 0.760842347540526 
2451	 0.17867338860064 
2452	 9.07810450049847E-02 
2453	 0.101688056267255 
2454	 0.256362342864365 
2455	 0.264574886710146 
2456	 4.01802869085968E-03 
2457	-0.129114930412111 
2458	 3.18411078883786E-02 
2459	 0.358351235240529 
2460	 1.39397937515891 
2461	 0.909800138584806 
2462	 0.012875984181599 
2463	-0.331042695285407 
2464	-0.518188705205306 
2465	-0.281465678133765 
2466	 0.303681859459579 
2467	 1.44027728867368 
2468	 3.36683666365453 
2469	 9.39771574256601 
2470	-6.59027380547971 
2471	-10.72873531609 
2472	-3.20368685298781 
2473	-1.38880842513613 
2474	-1.70840925050077 
2475	-0.545213249558602 
2476	-0.78258896098537 
2477	-1.3767258523908 
2478	-2.34854399781869 
2479	 0.74294998252615 
2480	 0.407025350827731 
2481	 0.280539591539125 
2482	 0.380259533426835 
2483	 0.422196895499514 
2484	 0.211877603340669 
2485	 0.166690197950438 
2486	-1.44212938945669E-03 
2487	-0.517027182581885 
2488	 2.15408449858251E-02 
2489	 0.260289827830445 
2490	 0.248785747860461 
2491	 0.115408585812059 
2492	 0.169407464157311 
2493	 0.890263581340703 
2494	 1.17216421477216 
2495	 2.98645363671775 
2496	-11.0368820899998 
2497	-2.71152742687069 
2498	-4.47186134325256 
2499	 1.58400667335106 
2500	 2.93657587282138 
