Wavelength	rt0713west_close_sunny_100003.asd
350	 4.57627813912059E-02 
351	 4.49475739332737E-02 
352	 4.47504983687562E-02 
353	 4.53279955849605E-02 
354	 4.59563942830959E-02 
355	 0.044731765459449 
356	 4.43021755571974E-02 
357	 4.45758301950262E-02 
358	 4.46953892173618E-02 
359	 4.46235172458936E-02 
360	 4.45212494486661E-02 
361	 4.43853489342919E-02 
362	 4.41096154011373E-02 
363	 4.37508488361366E-02 
364	 4.37441517898292E-02 
365	 4.41068301960388E-02 
366	 4.41977239430654E-02 
367	 4.41241622337319E-02 
368	 0.043926537648824 
369	 4.36950958272039E-02 
370	 4.36473405609261E-02 
371	 4.39917270073106E-02 
372	 4.41620878739311E-02 
373	 4.34416901437822E-02 
374	 4.39126307518773E-02 
375	 4.42575334440342E-02 
376	 4.38940337911879E-02 
377	 4.37182148179889E-02 
378	 4.38389367516711E-02 
379	 4.39233867305719E-02 
380	 4.37873950088553E-02 
381	 4.41186475266768E-02 
382	 4.42286120525748E-02 
383	 4.41474032697066E-02 
384	 4.42316040574884E-02 
385	 4.44394876875037E-02 
386	 4.44428672553348E-02 
387	 4.44107550682226E-02 
388	 4.50130628732534E-02 
389	 4.47089150489968E-02 
390	 4.44845631616491E-02 
391	 4.49918211327588E-02 
392	 4.48709799701085E-02 
393	 4.49341701304908E-02 
394	 4.50741090706709E-02 
395	 4.49656979558058E-02 
396	 0.044970299119755 
397	 4.51844107743908E-02 
398	 4.54252287420623E-02 
399	 4.53319736806646E-02 
400	 4.53152071385845E-02 
401	 0.045447572616701 
402	 4.56325477730781E-02 
403	 0.045512629132417 
404	 4.55548665621975E-02 
405	 4.56833163565027E-02 
406	 4.56675350457564E-02 
407	 4.56281767651258E-02 
408	 4.57654632053743E-02 
409	 4.59668120548603E-02 
410	 4.58484874893536E-02 
411	 4.58633922811751E-02 
412	 4.60789902554119E-02 
413	 4.63765127302503E-02 
414	 4.63687203545689E-02 
415	 4.64584136194509E-02 
416	 4.66439834721306E-02 
417	 4.67789451547592E-02 
418	 4.69324481625587E-02 
419	 4.70320802058363E-02 
420	 4.70812052683672E-02 
421	 4.71722648129398E-02 
422	 4.74012690110548E-02 
423	 4.76940573664237E-02 
424	 4.79548177497384E-02 
425	 4.81382817329006E-02 
426	 4.83172213437321E-02 
427	 4.85296714741496E-02 
428	 4.87946362985555E-02 
429	 4.91592070182506E-02 
430	 4.93970276873944E-02 
431	 4.95349626736584E-02 
432	 4.99129014319034E-02 
433	 5.01616574329525E-02 
434	 5.03318425468248E-02 
435	 5.05531810050371E-02 
436	 0.050908270727975 
437	 5.12257730275548E-02 
438	 0.051496381702034 
439	 5.17925871474236E-02 
440	 5.20466820659957E-02 
441	 5.23266820626475E-02 
442	 5.26375427936011E-02 
443	 5.28717444111189E-02 
444	 5.31319506395834E-02 
445	 5.33879940329315E-02 
446	 5.35989453593809E-02 
447	 5.38354501725135E-02 
448	 5.40135603872147E-02 
449	 5.41509507339585E-02 
450	 5.43416431738974E-02 
451	 5.46100793096378E-02 
452	 5.48601505904617E-02 
453	 5.50171744956898E-02 
454	 5.50650127056676E-02 
455	 5.52733880424239E-02 
456	 5.55182391815921E-02 
457	 5.55921502486943E-02 
458	 5.57043424512579E-02 
459	 5.58273606109079E-02 
460	 5.59364613823794E-02 
461	 0.056021982921636 
462	 0.056111226377373 
463	 5.62369800651679E-02 
464	 5.64133530449248E-02 
465	 5.66247601766156E-02 
466	 5.66866676993538E-02 
467	 5.66889036854486E-02 
468	 5.68354231600285E-02 
469	 0.057032103441096 
470	 5.71289775337408E-02 
471	 5.71371171538232E-02 
472	 5.72831902060527E-02 
473	 0.057436396550528 
474	 5.76152452127392E-02 
475	 5.78348685977555E-02 
476	 5.79666794178157E-02 
477	 5.81128129199696E-02 
478	 5.83121049895689E-02 
479	 5.85470163316272E-02 
480	 5.86977336451786E-02 
481	 5.89281622024085E-02 
482	 5.92595928549688E-02 
483	 5.93317182202542E-02 
484	 5.95630626590708E-02 
485	 5.98767725220736E-02 
486	 6.00803927654016E-02 
487	 6.04239380897771E-02 
488	 6.07608611743991E-02 
489	 6.10237015103112E-02 
490	 6.12471803333394E-02 
491	 6.15161656519505E-02 
492	 6.18469773773765E-02 
493	 6.22120862156572E-02 
494	 6.25148611704074E-02 
495	 6.28585151228417E-02 
496	 6.32220516310808E-02 
497	 6.35332184379367E-02 
498	 6.38538638902412E-02 
499	 6.41910222832531E-02 
500	 6.45536163917591E-02 
501	 6.49639777041416E-02 
502	 6.53303047578486E-02 
503	 6.56886102023137E-02 
504	 0.066095879114056 
505	 6.65170596549159E-02 
506	 6.70038621442913E-02 
507	 0.067507662849673 
508	 6.79085796076693E-02 
509	 0.068275515308314 
510	 0.068678472100989 
511	 6.91532831948735E-02 
512	 6.96708356443067E-02 
513	 7.01887265021564E-02 
514	 7.06882834625862E-02 
515	 7.11746826714127E-02 
516	 7.17355365897922E-02 
517	 7.23242237708996E-02 
518	 7.28896552925215E-02 
519	 7.33970192215402E-02 
520	 7.39318780163012E-02 
521	 7.44444319963365E-02 
522	 7.49063583004002E-02 
523	 0.075459804772273 
524	 7.60337082066958E-02 
525	 7.66095426206517E-02 
526	 7.72054036883131E-02 
527	 7.77705212753404E-02 
528	 7.83348389192061E-02 
529	 7.89061426777375E-02 
530	 7.94183955030602E-02 
531	 7.99925168807893E-02 
532	 8.06204840447078E-02 
533	 8.12432106803397E-02 
534	 0.081845812762793 
535	 8.24006883510928E-02 
536	 8.29416880822958E-02 
537	 8.35647338725578E-02 
538	 0.084180041544837 
539	 8.47715553861006E-02 
540	 8.53517795270134E-02 
541	 8.59647845400518E-02 
542	 8.65825052734033E-02 
543	 0.087188179985471 
544	 8.77822810148105E-02 
545	 8.84365176805249E-02 
546	 8.90855891968037E-02 
547	 8.96796533960317E-02 
548	 9.02264016508744E-02 
549	 9.08207578422026E-02 
550	 9.14331821515824E-02 
551	 9.20036943254038E-02 
552	 9.25801781111942E-02 
553	 9.31632440832288E-02 
554	 9.37482206413231E-02 
555	 9.43248055430289E-02 
556	 9.49254915207534E-02 
557	 9.54925503500962E-02 
558	 9.59920114059923E-02 
559	 9.65639754766052E-02 
560	 0.097076397152443 
561	 9.75247027472702E-02 
562	 9.79784850192639E-02 
563	 9.83376864305711E-02 
564	 9.87383853690534E-02 
565	 9.92093846107908E-02 
566	 9.95151759421997E-02 
567	 0.099811332706382 
568	 0.100122661904425 
569	 0.100433709618418 
570	 0.100779380470491 
571	 0.10106734986053 
572	 0.101280031931109 
573	 0.10148706596992 
574	 0.101737997931956 
575	 0.101977782061194 
576	 0.102153616011814 
577	 0.102309984555931 
578	 0.102476032607061 
579	 0.102653896774517 
580	 0.102815081512569 
581	 0.102837825366428 
582	 0.102808386920685 
583	 0.10278022288914 
584	 0.102700323029398 
585	 0.102544846240642 
586	 0.102335366327111 
587	 0.102103847866183 
588	 0.101826595160603 
589	 0.10158771110899 
590	 0.101437622387107 
591	 0.101354497873773 
592	 0.101117353189454 
593	 0.100837482993804 
594	 0.100605728251094 
595	 0.100209430176244 
596	 9.97498064235243E-02 
597	 9.92541000403559E-02 
598	 0.098716427771143 
599	 9.81747480740224E-02 
600	 9.77205826469496E-02 
601	 0.097401357384402 
602	 9.71859339339674E-02 
603	 9.69833698703405E-02 
604	 9.68217243048345E-02 
605	 9.67548026310526E-02 
606	 9.67319959371988E-02 
607	 9.67265875432206E-02 
608	 9.67346882804691E-02 
609	 9.67743272547083E-02 
610	 9.68481385123782E-02 
611	 9.68324128419273E-02 
612	 9.66907911561431E-02 
613	 9.67102409136373E-02 
614	 9.67469331264801E-02 
615	 9.67598293091554E-02 
616	 9.67625300933941E-02 
617	 9.67451943375989E-02 
618	 9.67008792533982E-02 
619	 9.66466323996788E-02 
620	 9.66394763186182E-02 
621	 9.66038091358754E-02 
622	 9.65651779478917E-02 
623	 9.65574354959011E-02 
624	 9.64923654427673E-02 
625	 9.63884276196956E-02 
626	 9.62746085641353E-02 
627	 9.61864651744065E-02 
628	 9.61568217074981E-02 
629	 0.096166221415793 
630	 9.61775443011745E-02 
631	 9.61365065279349E-02 
632	 9.61417538986972E-02 
633	 9.61411434693341E-02 
634	 0.096043345625026 
635	 9.60686352837858E-02 
636	 9.60456835758224E-02 
637	 9.59062138443639E-02 
638	 9.57768593514073E-02 
639	 9.56854127916709E-02 
640	 9.55672079992868E-02 
641	 0.095364985058903 
642	 9.51754242686716E-02 
643	 9.49939306978606E-02 
644	 9.47773355857609E-02 
645	 9.44647107728371E-02 
646	 9.42150350924726E-02 
647	 0.094028527955156 
648	 9.38747926744482E-02 
649	 9.37199904275347E-02 
650	 9.36101565246076E-02 
651	 9.34838147743426E-02 
652	 9.32527855888303E-02 
653	 9.29015459695894E-02 
654	 9.25345929254953E-02 
655	 9.21863181695637E-02 
656	 9.18268623075784E-02 
657	 0.091493535618371 
658	 9.12117745857473E-02 
659	 9.09691855795214E-02 
660	 9.06810972493474E-02 
661	 0.090390180508989 
662	 9.01362743363313E-02 
663	 8.99644236321346E-02 
664	 0.089934376090774 
665	 8.98622992115798E-02 
666	 8.96702705304048E-02 
667	 8.95206525985995E-02 
668	 8.93551945428585E-02 
669	 8.92758085184406E-02 
670	 0.089355808495543 
671	 8.92862925937493E-02 
672	 8.91983314995537E-02 
673	 8.91751875893318E-02 
674	 8.92277607351964E-02 
675	 8.92269883964764E-02 
676	 8.92418890749445E-02 
677	 8.93171509346555E-02 
678	 8.93334238830914E-02 
679	 8.93586918899691E-02 
680	 8.94529779847094E-02 
681	 8.96440782589335E-02 
682	 8.97680895266094E-02 
683	 8.98877526684752E-02 
684	 9.00011131365158E-02 
685	 8.99966969760723E-02 
686	 0.090019922489316 
687	 9.01074620406291E-02 
688	 0.090231397309408 
689	 9.03550506553209E-02 
690	 9.03269060278628E-02 
691	 9.01673156528807E-02 
692	 9.00029724412369E-02 
693	 8.98816574997356E-02 
694	 8.98175159984248E-02 
695	 8.97443607949918E-02 
696	 8.94931515936669E-02 
697	 8.91347540838904E-02 
698	 8.86696120143738E-02 
699	 8.81273286607978E-02 
700	 8.75757607098059E-02 
701	 8.70979943641892E-02 
702	 8.66855446937349E-02 
703	 8.62276719558367E-02 
704	 8.54739763003848E-02 
705	 8.46721042698669E-02 
706	 0.083975312264797 
707	 8.31019333384272E-02 
708	 8.21367225785076E-02 
709	 8.11188090661366E-02 
710	 8.00491847291448E-02 
711	 7.87805707321906E-02 
712	 7.73488487518899E-02 
713	 7.58383309876112E-02 
714	 0.074320513660631 
715	 7.25949365426088E-02 
716	 7.06362771628175E-02 
717	 6.86926997802857E-02 
718	 6.68882675149554E-02 
719	 6.53450303989844E-02 
720	 6.40417996555215E-02 
721	 6.26200874052713E-02 
722	 6.10136194061134E-02 
723	 5.91565145209199E-02 
724	 5.73167538492506E-02 
725	 0.055562570634237 
726	 5.37897028400173E-02 
727	 5.18513679030053E-02 
728	 4.97104455010392E-02 
729	 4.75554892710913E-02 
730	 4.54410908074398E-02 
731	 4.35621399417649E-02 
732	 4.19619044043618E-02 
733	 0.040479300754973 
734	 3.91683538155935E-02 
735	 3.81084139191904E-02 
736	 0.037356673501093 
737	 3.67366480906281E-02 
738	 3.62883131300139E-02 
739	 3.60319835128508E-02 
740	 3.57275314185086E-02 
741	 3.55247249731549E-02 
742	 3.54380021054761E-02 
743	 3.53967227412621E-02 
744	 3.53058866583386E-02 
745	 3.52037886788126E-02 
746	 3.51376031264543E-02 
747	 3.51432677874709E-02 
748	 3.51031528791272E-02 
749	 3.50631159030205E-02 
750	 3.50689064264494E-02 
751	 3.50135261776576E-02 
752	 3.49936203101828E-02 
753	 3.50202450116816E-02 
754	 3.50491554203045E-02 
755	 3.50333264495718E-02 
756	 3.49400458701583E-02 
757	 3.47717156982143E-02 
758	 3.45295093086495E-02 
759	 3.42258936644019E-02 
760	 3.40143990493729E-02 
761	 3.40882627978284E-02 
762	 3.41594241225261E-02 
763	 3.42435128763116E-02 
764	 3.44821338334394E-02 
765	 3.49255117179116E-02 
766	 3.51555760421187E-02 
767	 3.52576872057771E-02 
768	 3.53535800221749E-02 
769	 3.55789296422378E-02 
770	 3.56498982329428E-02 
771	 3.57388082279273E-02 
772	 3.59632048750473E-02 
773	 3.60239665284638E-02 
774	 3.61939271422201E-02 
775	 3.64601201737024E-02 
776	 3.66872995633677E-02 
777	 3.68123007011681E-02 
778	 0.037035657031113 
779	 3.73468238885796E-02 
780	 0.037521390896927 
781	 3.77748313757939E-02 
782	 3.80557942595555E-02 
783	 3.83058409703934E-02 
784	 3.85661137842667E-02 
785	 3.87790848907778E-02 
786	 3.90008488648628E-02 
787	 3.93001995385334E-02 
788	 3.95757790163587E-02 
789	 3.99140487122459E-02 
790	 4.03285639580425E-02 
791	 0.040766476036948 
792	 4.11842137628143E-02 
793	 4.15138169614227E-02 
794	 4.17774575330919E-02 
795	 4.21274593573884E-02 
796	 4.24606277432831E-02 
797	 4.27391162064115E-02 
798	 4.29789990245312E-02 
799	 4.32709267044857E-02 
800	 0.043505252836104 
801	 4.36889598080764E-02 
802	 4.39057853731178E-02 
803	 4.42315255377463E-02 
804	 4.44192898525948E-02 
805	 0.044457592330845 
806	 4.46035934592168E-02 
807	 4.46761463006649E-02 
808	 4.45092576194377E-02 
809	 4.41055089023981E-02 
810	 4.38789215249979E-02 
811	 4.38014957764024E-02 
812	 4.35724523160486E-02 
813	 4.29004645218901E-02 
814	 4.25607931431333E-02 
815	 4.21953580529496E-02 
816	 4.16858177437707E-02 
817	 4.11945655654339E-02 
818	 4.09175782342623E-02 
819	 4.06152329134897E-02 
820	 4.00439169668558E-02 
821	 3.89953248345419E-02 
822	 3.80058335210895E-02 
823	 3.70700818014956E-02 
824	 3.60756790952713E-02 
825	 3.49850518283545E-02 
826	 3.35900278740735E-02 
827	 3.20291416774273E-02 
828	 3.06650073830094E-02 
829	 2.94509368084934E-02 
830	 2.84340159264256E-02 
831	 2.75902951020823E-02 
832	 2.68653294793208E-02 
833	 2.61313775000121E-02 
834	 2.56058840758674E-02 
835	 0.025320655815523 
836	 2.50359485308174E-02 
837	 2.46295823668112E-02 
838	 2.42682638657928E-02 
839	 2.41226351612367E-02 
840	 2.42438946696517E-02 
841	 2.41033256887786E-02 
842	 2.37360382346327E-02 
843	 2.34112051242248E-02 
844	 2.33172674984162E-02 
845	 0.023130754403041 
846	 0.022853937906748 
847	 2.27045635552695E-02 
848	 2.25425891328118E-02 
849	 2.24372682781325E-02 
850	 2.23497994757974E-02 
851	 2.20986145115486E-02 
852	 2.20605874849496E-02 
853	 2.20219116862107E-02 
854	 2.17953421750759E-02 
855	 2.15134367367905E-02 
856	 2.13810363221568E-02 
857	 2.13964553654892E-02 
858	 2.14331471987005E-02 
859	 2.11911284538692E-02 
860	 2.08828135605526E-02 
861	 2.07277457942531E-02 
862	 2.08244418213932E-02 
863	 2.06233765397925E-02 
864	 2.03500949973224E-02 
865	 0.020181491768212 
866	 2.01536775437066E-02 
867	 1.98978999593125E-02 
868	 1.97564575530689E-02 
869	 1.97930038247364E-02 
870	 1.96034564521214E-02 
871	 1.93792754180499E-02 
872	 0.019137918490105 
873	 1.89242932655238E-02 
874	 1.89263882492664E-02 
875	 0.018747488087497 
876	 1.84952874997112E-02 
877	 1.83683039788447E-02 
878	 0.018269688197806 
879	 0.018098271308383 
880	 1.78629513457621E-02 
881	 0.017646047826008 
882	 1.75548537661713E-02 
883	 1.75185992736919E-02 
884	 1.74394876357655E-02 
885	 1.72338944789133E-02 
886	 1.69981955220105E-02 
887	 1.68764667243478E-02 
888	 1.68308887870572E-02 
889	 1.66285337694466E-02 
890	 1.63332177504628E-02 
891	 1.60810950401224E-02 
892	 1.59444154537359E-02 
893	 1.58409271741521E-02 
894	 1.54991547663943E-02 
895	 0.015112009817372 
896	 1.49995202592276E-02 
897	 1.53357329201123E-02 
898	 1.51882561935158E-02 
899	 1.47874585256526E-02 
900	 1.46541659570939E-02 
901	 1.45621885238996E-02 
902	 0.014550114059178 
903	 1.43583459860954E-02 
904	 1.38818872807665E-02 
905	 1.43132231546295E-02 
906	 1.44546783025906E-02 
907	 1.41387826991416E-02 
908	 1.39557784045561E-02 
909	 1.34166930695906E-02 
910	 1.33010647780635E-02 
911	 1.35412852471764E-02 
912	 1.33351864671571E-02 
913	 1.35871041832716E-02 
914	 1.34581666745131E-02 
915	 1.28589140985179E-02 
916	 1.26972746032653E-02 
917	 1.24379676896918E-02 
918	 1.21744097757941E-02 
919	 1.21812659345015E-02 
920	 1.27971694428837E-02 
921	 1.25012293229413E-02 
922	 1.19665703655759E-02 
923	 1.19435248624613E-02 
924	 1.24323969870064E-02 
925	 1.18346535268825E-02 
926	 1.09725200978253E-02 
927	 1.10204310799225E-02 
928	 1.10765811414733E-02 
929	 1.04115146307793E-02 
930	 0.010805033779209 
931	 1.46028941826253E-02 
932	 1.42676372994274E-02 
933	 1.36720865061804E-02 
934	 0.013301299245317 
935	 1.16378768442923E-02 
936	 9.18864484902441E-03 
937	 8.81903759397803E-03 
938	 9.57311848631095E-03 
939	 9.80239147470287E-03 
940	 9.91136442793443E-03 
941	 9.44549898479813E-03 
942	 9.5438468971961E-03 
943	 1.14694431821219E-02 
944	 1.23078825158858E-02 
945	 1.05446142978936E-02 
946	 8.98040928224412E-03 
947	 1.09562582683771E-02 
948	 8.68983513364667E-03 
949	 8.20909031734401E-03 
950	 9.09846618275237E-03 
951	 7.62351872565135E-03 
952	 8.4891225249533E-03 
953	 1.05931877813173E-02 
954	 1.18465907406212E-02 
955	 1.04656530455454E-02 
956	 7.66772652991369E-03 
957	 9.18689538195394E-03 
958	 0.012158348757023 
959	 9.63293352824054E-03 
960	 8.47223622666183E-03 
961	 8.21795396813496E-03 
962	 0.008865900905874 
963	 1.06668792539985E-02 
964	 1.10408198440343E-02 
965	 1.07585182851069E-02 
966	 9.86090844495997E-03 
967	 8.1318022800725E-03 
968	 9.00083952411052E-03 
969	 1.02638566045844E-02 
970	 1.04832146545837E-02 
971	 9.64093719515718E-03 
972	 9.61559419719515E-03 
973	 1.05165744457213E-02 
974	 1.13503310385478E-02 
975	 1.06268334341535E-02 
976	 9.70824440328331E-03 
977	 9.02182410469949E-03 
978	 9.30845989294788E-03 
979	 1.09330275713262E-02 
980	 9.37712672449464E-03 
981	 8.44304848365783E-03 
982	 9.31280190026143E-03 
983	 1.03247332206813E-02 
984	 1.09472619790353E-02 
985	 1.12339332507229E-02 
986	 1.12435497301656E-02 
987	 1.10176203133359E-02 
988	 1.09328983261652E-02 
989	 1.00921812950142E-02 
990	 9.37885903976204E-03 
991	 1.04685913436161E-02 
992	 1.09074364715476E-02 
993	 1.03193443088921E-02 
994	 9.69528249138457E-03 
995	 1.03772516182857E-02 
996	 1.06392349072937E-02 
997	 1.09238435040828E-02 
998	 1.13287786050495E-02 
999	 1.16499579063712E-02 
1000	 0.011875366148518 
1001	 9.29780189629208E-03 
1002	 9.38216735620791E-03 
1003	 9.39974718583994E-03 
1004	 9.19499009914752E-03 
1005	 9.15061189346427E-03 
1006	 9.34480358538351E-03 
1007	 9.18395970710759E-03 
1008	 9.04490351388137E-03 
1009	 8.9054453471698E-03 
1010	 8.92979654396163E-03 
1011	 9.11533397466111E-03 
1012	 9.34246805623602E-03 
1013	 9.52286407502709E-03 
1014	 9.64523781134564E-03 
1015	 9.69137584220113E-03 
1016	 9.76830255222618E-03 
1017	 9.88646830377734E-03 
1018	 9.85906148228283E-03 
1019	 9.64708762107285E-03 
1020	 9.57460798741945E-03 
1021	 9.4683926103021E-03 
1022	 9.44970185672195E-03 
1023	 9.33404943047335E-03 
1024	 9.44310661355177E-03 
1025	 9.26862187750794E-03 
1026	 9.18528035336453E-03 
1027	 9.3465167448019E-03 
1028	 9.80103549510401E-03 
1029	 9.83766250930782E-03 
1030	 9.90974045964479E-03 
1031	 9.86353416955957E-03 
1032	 9.33912041856614E-03 
1033	 9.41418918668873E-03 
1034	 9.87229528100504E-03 
1035	 1.00913931963493E-02 
1036	 1.07638984046684E-02 
1037	 1.07860765485989E-02 
1038	 1.00468018324208E-02 
1039	 9.82653585070968E-03 
1040	 9.61193241555745E-03 
1041	 9.40427618510988E-03 
1042	 9.37354587794427E-03 
1043	 9.79124277871499E-03 
1044	 9.80733174492345E-03 
1045	 9.5905731676272E-03 
1046	 9.56900426873851E-03 
1047	 9.63694014083456E-03 
1048	 9.65403105829767E-03 
1049	 9.6697357097196E-03 
1050	 9.69956586102352E-03 
1051	 9.65953899334609E-03 
1052	 9.70007190575529E-03 
1053	 9.91657239064221E-03 
1054	 9.96878697000117E-03 
1055	 9.97805081366039E-03 
1056	 9.96189534208726E-03 
1057	 9.8891106117192E-03 
1058	 9.59372833148253E-03 
1059	 9.65945173135094E-03 
1060	 9.90524833670978E-03 
1061	 1.00191069418076E-02 
1062	 1.04224645047434E-02 
1063	 1.03643027968985E-02 
1064	 9.83602367699614E-03 
1065	 9.69964964290921E-03 
1066	 9.51126865132746E-03 
1067	 9.42503895260731E-03 
1068	 9.61151808619103E-03 
1069	 9.71192381243719E-03 
1070	 9.85056070472178E-03 
1071	 9.84459699735508E-03 
1072	 9.47526171703342E-03 
1073	 9.69951234345887E-03 
1074	 9.76604667083295E-03 
1075	 9.77131069214135E-03 
1076	 9.77625176047328E-03 
1077	 9.98200883941634E-03 
1078	 9.97310136642973E-03 
1079	 9.75343869411734E-03 
1080	 9.66588574847827E-03 
1081	 9.55589874883717E-03 
1082	 9.51979670363077E-03 
1083	 9.55916279551824E-03 
1084	 9.54700207604858E-03 
1085	 9.65071822220936E-03 
1086	 9.62760777871172E-03 
1087	 9.51701916275737E-03 
1088	 9.33576359003453E-03 
1089	 8.97813305340291E-03 
1090	 8.62345045309095E-03 
1091	 8.59772416110699E-03 
1092	 8.73061159977739E-03 
1093	 8.75770770606385E-03 
1094	 9.20133581101763E-03 
1095	 9.14225496019461E-03 
1096	 8.47298775965832E-03 
1097	 8.31820420894109E-03 
1098	 8.35221472373441E-03 
1099	 8.25268523814741E-03 
1100	 0.008276136915474 
1101	 8.39846879104796E-03 
1102	 8.36453323555044E-03 
1103	 8.3223549874769E-03 
1104	 8.38239572710249E-03 
1105	 8.90902553734793E-03 
1106	 8.3884360296216E-03 
1107	 8.09647791694641E-03 
1108	 7.99610167412116E-03 
1109	 7.35416011866558E-03 
1110	 7.33199024829941E-03 
1111	 8.34078811101139E-03 
1112	 8.1490059112123E-03 
1113	 6.95933533705357E-03 
1114	 6.84279981559383E-03 
1115	 6.48218421654021E-03 
1116	 6.45579034639753E-03 
1117	 8.91154629064529E-03 
1118	 9.71198480627175E-03 
1119	 7.83464318392152E-03 
1120	 7.24958352091341E-03 
1121	 5.00007796380077E-03 
1122	 7.97023610190311E-03 
1123	 1.12729033011694E-02 
1124	 8.12828201675964E-03 
1125	 7.01146652049638E-03 
1126	 8.74409675746982E-03 
1127	 9.11758700244578E-03 
1128	 1.15290839218462E-02 
1129	 1.07778409160574E-02 
1130	 6.79668070906081E-03 
1131	 5.89924717057312E-03 
1132	 6.10756797029701E-03 
1133	 5.97911324494509E-03 
1134	 5.14538933370253E-03 
1135	 6.27515642963135E-03 
1136	 9.93364235956662E-03 
1137	 9.73843894868517E-03 
1138	 8.83772561914136E-03 
1139	 8.57417266287768E-03 
1140	 6.48007991629739E-03 
1141	 3.45434613887192E-03 
1142	 5.16217105555342E-03 
1143	 7.3118975541737E-03 
1144	 5.85738619635245E-03 
1145	 4.9413668015576E-03 
1146	 4.72860938497852E-03 
1147	 5.92775453173256E-03 
1148	 8.27954183511633E-03 
1149	 8.57799168708765E-03 
1150	 9.03196276241687E-03 
1151	 8.15052360319272E-03 
1152	 7.53326155778543E-03 
1153	 7.37487344278766E-03 
1154	 7.92292791321648E-03 
1155	 8.71196012113728E-03 
1156	 7.80713154167726E-03 
1157	 0.008302587930373 
1158	 8.24557716153493E-03 
1159	 6.67484203121324E-03 
1160	 6.84893269163048E-03 
1161	 8.03639166215159E-03 
1162	 7.94109443931478E-03 
1163	 7.8307128144171E-03 
1164	 7.91916922017525E-03 
1165	 7.35487838546807E-03 
1166	 7.27011906194815E-03 
1167	 7.80337573617193E-03 
1168	 8.08465454340862E-03 
1169	 8.03154542843975E-03 
1170	 7.62150129595016E-03 
1171	 7.67176306327231E-03 
1172	 8.15625400317164E-03 
1173	 8.15438737417702E-03 
1174	 8.07178133257851E-03 
1175	 8.15259190731837E-03 
1176	 7.90159791707833E-03 
1177	 7.3126678820892E-03 
1178	 7.49969791529367E-03 
1179	 7.94749462716396E-03 
1180	 8.05039927956464E-03 
1181	 7.98647962133926E-03 
1182	 7.74329685853424E-03 
1183	 7.74639965680304E-03 
1184	 7.88738234713115E-03 
1185	 7.80397961726358E-03 
1186	 7.96053058395374E-03 
1187	 8.00574695185089E-03 
1188	 7.73118522222136E-03 
1189	 7.75638240632246E-03 
1190	 7.70370721661232E-03 
1191	 7.4533122485667E-03 
1192	 0.007495552549151 
1193	 7.73647210635884E-03 
1194	 8.02654198883751E-03 
1195	 8.17186293361723E-03 
1196	 8.33904701681784E-03 
1197	 8.15466829671426E-03 
1198	 7.79353132777143E-03 
1199	 7.86607800744694E-03 
1200	 8.05124590703979E-03 
1201	 8.00772339006518E-03 
1202	 7.98463062670987E-03 
1203	 7.98514521721726E-03 
1204	 7.9055748394251E-03 
1205	 7.98483580825355E-03 
1206	 8.12927865842357E-03 
1207	 8.14226369425406E-03 
1208	 8.16010136014221E-03 
1209	 8.06154427314919E-03 
1210	 7.86230918453563E-03 
1211	 7.89145482201102E-03 
1212	 8.04145864273903E-03 
1213	 0.007927714926925 
1214	 7.84550668942074E-03 
1215	 7.85425513786262E-03 
1216	 7.97670839646541E-03 
1217	 7.82553132531117E-03 
1218	 7.84610512355162E-03 
1219	 8.10099606684494E-03 
1220	 8.05096442850538E-03 
1221	 8.03870116869468E-03 
1222	 8.07997259312605E-03 
1223	 8.03950151335914E-03 
1224	 8.1559229643012E-03 
1225	 8.10007993989367E-03 
1226	 8.00567119985468E-03 
1227	 8.11933958007656E-03 
1228	 8.0983388197697E-03 
1229	 8.04911688717096E-03 
1230	 8.10590463926953E-03 
1231	 8.21690475698646E-03 
1232	 8.38002827927469E-03 
1233	 8.30093371691676E-03 
1234	 8.0295892813628E-03 
1235	 8.02004925704576E-03 
1236	 8.0906133487808E-03 
1237	 8.01010018620846E-03 
1238	 7.95144823218023E-03 
1239	 8.12632270701183E-03 
1240	 8.19810028604407E-03 
1241	 8.0730053324319E-03 
1242	 8.19400032823267E-03 
1243	 8.3815459975308E-03 
1244	 8.38061167906915E-03 
1245	 8.33409778182009E-03 
1246	 8.25765282439986E-03 
1247	 8.18889911674336E-03 
1248	 8.26214478678029E-03 
1249	 8.30400798576805E-03 
1250	 8.19361409060988E-03 
1251	 8.18980283835292E-03 
1252	 8.1148609629029E-03 
1253	 7.86065606799519E-03 
1254	 7.87434933460775E-03 
1255	 8.05118849401998E-03 
1256	 8.08264575476978E-03 
1257	 7.9654979707659E-03 
1258	 8.02986635345799E-03 
1259	 8.21604978477794E-03 
1260	 8.25407676329873E-03 
1261	 8.33918248640077E-03 
1262	 8.34835296131697E-03 
1263	 8.25846596342541E-03 
1264	 8.00145289781935E-03 
1265	 7.97518216359446E-03 
1266	 8.14728098269256E-03 
1267	 8.11503714418573E-03 
1268	 7.9780172940953E-03 
1269	 7.8774344670888E-03 
1270	 7.93952854488491E-03 
1271	 8.07060650987202E-03 
1272	 8.03348220279612E-03 
1273	 7.93464630907306E-03 
1274	 7.94413525799765E-03 
1275	 8.03048601141564E-03 
1276	 8.00456382549753E-03 
1277	 7.92608072440055E-03 
1278	 7.92766621671993E-03 
1279	 7.93132342961409E-03 
1280	 7.98179515122928E-03 
1281	 7.9213152137427E-03 
1282	 7.84327306161546E-03 
1283	 7.88792303478234E-03 
1284	 7.87495595372598E-03 
1285	 7.83844378472738E-03 
1286	 8.05111326224081E-03 
1287	 8.14029953339614E-03 
1288	 7.93257603583609E-03 
1289	 7.85652462918539E-03 
1290	 7.96348019451852E-03 
1291	 7.99654587404951E-03 
1292	 7.83111767524205E-03 
1293	 7.78464791676267E-03 
1294	 7.78064184262377E-03 
1295	 7.58024548867092E-03 
1296	 7.50845948193975E-03 
1297	 0.007656545122475 
1298	 7.5147276762689E-03 
1299	 7.53294588896601E-03 
1300	 7.86596076080001E-03 
1301	 0.007666511738699 
1302	 7.44212830805562E-03 
1303	 7.74561448310411E-03 
1304	 8.00460606859573E-03 
1305	 7.84488369900407E-03 
1306	 7.58142401130762E-03 
1307	 7.3682642652701E-03 
1308	 7.32170089259461E-03 
1309	 6.87123973681576E-03 
1310	 6.61417584033598E-03 
1311	 6.93275079854506E-03 
1312	 7.00400257275814E-03 
1313	 6.55562324788967E-03 
1314	 6.50592044902069E-03 
1315	 7.03311223084613E-03 
1316	 7.18832597794416E-03 
1317	 7.18818147177643E-03 
1318	 7.1571776120603E-03 
1319	 7.06072905987042E-03 
1320	 6.9838548652521E-03 
1321	 6.69352928742586E-03 
1322	 6.50216660404166E-03 
1323	 6.60435411459122E-03 
1324	 6.24899123263949E-03 
1325	 6.06192076464642E-03 
1326	 6.26644185950112E-03 
1327	 5.83350589329352E-03 
1328	 5.53487722469866E-03 
1329	 6.24525022836129E-03 
1330	 6.58278764091846E-03 
1331	 6.55559849562139E-03 
1332	 7.27430471295273E-03 
1333	 7.75478218569147E-03 
1334	 7.46237145021517E-03 
1335	 6.92028073408119E-03 
1336	 6.62906087066031E-03 
1337	 6.82416313832265E-03 
1338	 6.4319644224973E-03 
1339	 5.84498707121124E-03 
1340	 6.30245321726936E-03 
1341	 6.30281075074428E-03 
1342	 4.41717377704681E-03 
1343	 3.63405323351929E-03 
1344	 4.67255849225387E-03 
1345	 5.15901922346292E-03 
1346	 5.31334092797381E-03 
1347	 5.28535128953207E-03 
1348	 4.4333858665244E-03 
1349	 5.54950515339669E-03 
1350	 1.25015797974462E-02 
1351	 1.33473676633719E-02 
1352	 1.43758913847933E-03 
1353	 3.02204077579266E-03 
1354	 1.28666616926245E-02 
1355	 4.23830793650412E-03 
1356	 4.49581022573503E-02 
1357	 0.127638354152736 
1358	 0.140922110622281 
1359	 0.07944821496931 
1360	 1.17465393907321E-02 
1361	 0.119249764548708 
1362	 0.222614531202008 
1363	 0.172072172587204 
1364	 0.28699365085348 
1365	 0.355293501589068 
1366	 0.186757330425706 
1367	 0.154433783575931 
1368	 0.208555199534926 
1369	 0.31908157662815 
1370	 0.244718252237894 
1371	 0.301615670214958 
1372	 0.279202697493208 
1373	-0.190417068227211 
1374	-0.501819006894432 
1375	-0.117835073564742 
1376	-6.88109329709064E-02 
1377	-5.85607909347485E-02 
1378	-0.217670207259628 
1379	-0.294078608575541 
1380	-0.234104560693098 
1381	-4.36938379957606E-02 
1382	-1.67752803947393E-02 
1383	 9.81671909936408E-02 
1384	 0.409262619365321 
1385	 0.480896603463492 
1386	 0.267471800537584 
1387	-0.159060063689753 
1388	 2.32071322032516E-02 
1389	 0.983592876199108 
1390	 0.78752765805032 
1391	 0.382644220050551 
1392	 0.739417599953122 
1393	 0.580990991491064 
1394	-0.389513051087764 
1395	-0.240441604858381 
1396	 0.238998470398416 
1397	 0.340587486885761 
1398	 0.106166098450508 
1399	-3.13557813256928E-02 
1400	 0.206378532380341 
1401	 0.280541448676501 
1402	 0.017980164586708 
1403	 0.125222397024396 
1404	 0.28772883046995 
1405	 0.469501610928819 
1406	 0.505124340372288 
1407	 0.293326898341399 
1408	 0.082323330764065 
1409	 0.139088439129653 
1410	 0.148601530522989 
1411	 0.072115848966489 
1412	 0.143944732018608 
1413	 0.193775330578896 
1414	 8.04506007432792E-02 
1415	 0.046815809651515 
1416	 0.183105517306519 
1417	 0.19881174696115 
1418	 0.109595649934121 
1419	 5.97519679659454E-02 
1420	 7.81212872489355E-03 
1421	 1.28295892366436E-02 
1422	 4.99539524770936E-02 
1423	 3.20876756023884E-02 
1424	 3.22656316102376E-03 
1425	 1.25283253639346E-02 
1426	 2.84955857200466E-02 
1427	 9.84621817984256E-03 
1428	-1.99064057213071E-02 
1429	-1.16889255811695E-02 
1430	-2.20438924523312E-03 
1431	-1.05651314931707E-02 
1432	 2.28778086689883E-03 
1433	 1.58195297740636E-02 
1434	 8.6283520830002E-04 
1435	-5.10045028975303E-03 
1436	 1.12215811870795E-02 
1437	 2.73179355272095E-02 
1438	 2.47773039410305E-02 
1439	 1.62018897105972E-02 
1440	 1.29717241232168E-02 
1441	 1.22129167603288E-02 
1442	 4.17936575717032E-03 
1443	 2.70496789048905E-04 
1444	 4.17783418079853E-03 
1445	 5.53667144141759E-03 
1446	 1.05956440351414E-02 
1447	 1.37560604359598E-02 
1448	 5.81677107522703E-03 
1449	 5.11990072071521E-03 
1450	 1.20961567782388E-02 
1451	 1.11010095391946E-02 
1452	 8.4359963502998E-03 
1453	 9.14913369149857E-03 
1454	 8.45779153467245E-03 
1455	 3.14600640621793E-03 
1456	 2.98586283470542E-03 
1457	 6.84420120485331E-03 
1458	 7.14310420525712E-03 
1459	 6.19773090393528E-03 
1460	 5.91240406784924E-03 
1461	 5.30589789603705E-03 
1462	 5.13741983481068E-03 
1463	 4.89687065252098E-03 
1464	 5.47915974589877E-03 
1465	 7.26826776511358E-03 
1466	 7.6705323299495E-03 
1467	 8.41265838802861E-03 
1468	 8.12089040075805E-03 
1469	 5.70407609445635E-03 
1470	 4.77123366664909E-03 
1471	 3.71606310844793E-03 
1472	 3.72014687302076E-03 
1473	 5.14768676838743E-03 
1474	 5.19235831430473E-03 
1475	 5.14819032955703E-03 
1476	 5.67706301237696E-03 
1477	 6.16462955310136E-03 
1478	 5.83410552069324E-03 
1479	 5.11970217096632E-03 
1480	 5.40260235334126E-03 
1481	 5.67277300225929E-03 
1482	 5.7093199123344E-03 
1483	 6.54376652287279E-03 
1484	 6.69899911222477E-03 
1485	 5.96514351414277E-03 
1486	 5.65424415762182E-03 
1487	 5.59062066097091E-03 
1488	 5.69738063819656E-03 
1489	 5.62814165893309E-03 
1490	 5.78616223709789E-03 
1491	 6.65422667857651E-03 
1492	 6.58412177786102E-03 
1493	 5.86214438496158E-03 
1494	 5.81389454810298E-03 
1495	 5.53773365750343E-03 
1496	 5.57236122313184E-03 
1497	 6.31819606797311E-03 
1498	 6.55300175853589E-03 
1499	 6.51976652754923E-03 
1500	 6.6512097568729E-03 
1501	 6.71096092546601E-03 
1502	 6.70747654862289E-03 
1503	 6.80912937218138E-03 
1504	 6.84447530681886E-03 
1505	 6.7360297324806E-03 
1506	 6.75062552661405E-03 
1507	 6.8224759402829E-03 
1508	 6.58881983349864E-03 
1509	 6.42385139290588E-03 
1510	 6.57658394954505E-03 
1511	 6.74589319713941E-03 
1512	 6.70871797872605E-03 
1513	 6.65872582324486E-03 
1514	 6.80201645556717E-03 
1515	 6.92839779975191E-03 
1516	 6.82463712428952E-03 
1517	 6.76536637792481E-03 
1518	 6.7447116564011E-03 
1519	 6.50455989677481E-03 
1520	 6.48798561985965E-03 
1521	 6.90158035175792E-03 
1522	 6.96530191736872E-03 
1523	 6.59475974402962E-03 
1524	 6.78770402797924E-03 
1525	 7.17173559917384E-03 
1526	 6.93781279394134E-03 
1527	 6.75076808503357E-03 
1528	 6.88395189500109E-03 
1529	 6.8963952229556E-03 
1530	 6.80142964504422E-03 
1531	 6.9392887029972E-03 
1532	 7.15352112074382E-03 
1533	 7.0360110885542E-03 
1534	 6.90704359323977E-03 
1535	 7.00503109535685E-03 
1536	 7.10315898763842E-03 
1537	 7.10994528369938E-03 
1538	 7.06785587910296E-03 
1539	 7.07174957773426E-03 
1540	 7.08597351086037E-03 
1541	 7.03593296121433E-03 
1542	 6.91387038283292E-03 
1543	 6.73400272004552E-03 
1544	 6.65924774368119E-03 
1545	 6.90908372387933E-03 
1546	 7.21706924749367E-03 
1547	 7.23598085755235E-03 
1548	 7.22470030028192E-03 
1549	 7.10627802813786E-03 
1550	 6.80525776483195E-03 
1551	 6.85497367746592E-03 
1552	 7.19825466626835E-03 
1553	 7.27854307841179E-03 
1554	 7.24407154947929E-03 
1555	 7.40990446407976E-03 
1556	 7.31211060785481E-03 
1557	 7.1160173574628E-03 
1558	 7.13247135096276E-03 
1559	 6.99356657560143E-03 
1560	 7.03187633651057E-03 
1561	 7.18363983081317E-03 
1562	 7.14882063399752E-03 
1563	 7.31876427853827E-03 
1564	 7.43702895205778E-03 
1565	 7.34713622164788E-03 
1566	 7.30677043604461E-03 
1567	 7.16259065641289E-03 
1568	 7.07978183402705E-03 
1569	 7.1572263961551E-03 
1570	 7.10282114790291E-03 
1571	 7.05400481194024E-03 
1572	 7.09549659449859E-03 
1573	 7.07818190091829E-03 
1574	 7.24667055336876E-03 
1575	 7.52104504261672E-03 
1576	 7.33828399515971E-03 
1577	 6.84132235304854E-03 
1578	 6.7540784390382E-03 
1579	 6.87456587531733E-03 
1580	 6.8134665189288E-03 
1581	 6.93256460128519E-03 
1582	 7.09272655634799E-03 
1583	 7.11006627331979E-03 
1584	 7.15878249616475E-03 
1585	 7.12341178989109E-03 
1586	 7.08713509192145E-03 
1587	 7.0763736334355E-03 
1588	 6.87569696270524E-03 
1589	 6.82075131290217E-03 
1590	 6.93747031804542E-03 
1591	 6.84533907443394E-03 
1592	 6.84685284189515E-03 
1593	 7.06473867765236E-03 
1594	 7.05972150088291E-03 
1595	 6.89608976284711E-03 
1596	 7.06342940321511E-03 
1597	 7.31720190943069E-03 
1598	 7.22557438931448E-03 
1599	 7.00791845015393E-03 
1600	 6.85285404847955E-03 
1601	 6.84653359439838E-03 
1602	 6.98323691308486E-03 
1603	 7.14173130432585E-03 
1604	 7.11199353150919E-03 
1605	 6.81915824793106E-03 
1606	 6.70313883872284E-03 
1607	 6.76624639831136E-03 
1608	 6.94264729955376E-03 
1609	 7.17214832848456E-03 
1610	 7.07241049555331E-03 
1611	 6.88433668037971E-03 
1612	 6.82650387530115E-03 
1613	 6.91500844453686E-03 
1614	 7.12292149361253E-03 
1615	 7.31877818844377E-03 
1616	 7.32411614378701E-03 
1617	 7.06971905096865E-03 
1618	 6.84560201708216E-03 
1619	 6.83817334996148E-03 
1620	 6.89202604158948E-03 
1621	 6.81344193379208E-03 
1622	 6.81626714011548E-03 
1623	 7.08754541811073E-03 
1624	 7.29639426842412E-03 
1625	 7.21498608480382E-03 
1626	 7.18055422672291E-03 
1627	 7.01594133601121E-03 
1628	 6.56497480248599E-03 
1629	 6.74346777105366E-03 
1630	 7.24093673475753E-03 
1631	 6.97795957979967E-03 
1632	 6.85847447653421E-03 
1633	 7.09958815273397E-03 
1634	 6.61654764467885E-03 
1635	 6.24724203036441E-03 
1636	 6.65647444760811E-03 
1637	 6.99398273097673E-03 
1638	 6.99294176268512E-03 
1639	 7.0905851565366E-03 
1640	 7.25410546878949E-03 
1641	 7.06635408452459E-03 
1642	 6.89346135052028E-03 
1643	 7.06590328391292E-03 
1644	 7.01996870069377E-03 
1645	 6.76487689219978E-03 
1646	 6.89937756663041E-03 
1647	 7.02105704848115E-03 
1648	 6.85290280050478E-03 
1649	 6.81633977133247E-03 
1650	 6.77925079191833E-03 
1651	 6.70650519345857E-03 
1652	 6.72519910743894E-03 
1653	 6.78820070359472E-03 
1654	 6.74693768221379E-03 
1655	 6.66691165328131E-03 
1656	 6.69818272153676E-03 
1657	 6.72199747626169E-03 
1658	 6.73356528706646E-03 
1659	 6.8713300998094E-03 
1660	 6.94999720107922E-03 
1661	 6.84815946555012E-03 
1662	 0.006860243836544 
1663	 7.07530918227361E-03 
1664	 7.16182558224221E-03 
1665	 7.19789957883625E-03 
1666	 7.05065327275516E-03 
1667	 6.70361344369185E-03 
1668	 6.69507040762196E-03 
1669	 6.7507457231624E-03 
1670	 7.18356163958011E-03 
1671	 0.007286279504684 
1672	 6.94394829283685E-03 
1673	 6.96130310593106E-03 
1674	 7.05837301070648E-03 
1675	 6.82346730971319E-03 
1676	 6.99055396434481E-03 
1677	 7.20552518808904E-03 
1678	 6.96037596016194E-03 
1679	 6.8357492994516E-03 
1680	 6.77761617875179E-03 
1681	 6.84220952362545E-03 
1682	 6.97104721547186E-03 
1683	 6.97086166895097E-03 
1684	 7.25529944985599E-03 
1685	 7.51741938064088E-03 
1686	 7.33141552467056E-03 
1687	 6.91412560433781E-03 
1688	 6.69459140554201E-03 
1689	 6.58960451235194E-03 
1690	 6.39086848682913E-03 
1691	 6.66419465557786E-03 
1692	 7.03435508093985E-03 
1693	 6.97444622316789E-03 
1694	 6.99983222745749E-03 
1695	 7.09306507365465E-03 
1696	 6.9734732224412E-03 
1697	 6.5974443467982E-03 
1698	 6.35553893941824E-03 
1699	 6.60183100176485E-03 
1700	 6.73196424481116E-03 
1701	 6.70981660826343E-03 
1702	 6.83078644724627E-03 
1703	 6.84950257108831E-03 
1704	 6.86076574053403E-03 
1705	 6.81521144754457E-03 
1706	 6.73113704411215E-03 
1707	 6.77933448516819E-03 
1708	 6.80711153656903E-03 
1709	 0.00679941805991 
1710	 6.93307956808742E-03 
1711	 6.91334773022116E-03 
1712	 6.57157619911371E-03 
1713	 7.15657116437823E-03 
1714	 7.24094705761338E-03 
1715	 7.03355268948013E-03 
1716	 7.15520939252874E-03 
1717	 6.8583774451893E-03 
1718	 6.71506563218268E-03 
1719	 6.99457992519265E-03 
1720	 6.95322280684049E-03 
1721	 6.58302923607471E-03 
1722	 6.37470220605071E-03 
1723	 6.41126436897982E-03 
1724	 6.45494377406604E-03 
1725	 6.69091648356912E-03 
1726	 6.91375076717821E-03 
1727	 6.91198567094091E-03 
1728	 6.92094316994186E-03 
1729	 6.79343359600469E-03 
1730	 6.56710518085821E-03 
1731	 6.51949211888885E-03 
1732	 6.34801828055082E-03 
1733	 6.29110897318732E-03 
1734	 6.86061228767814E-03 
1735	 7.21542819100832E-03 
1736	 6.93723009420179E-03 
1737	 6.96578453680558E-03 
1738	 6.92323093224187E-03 
1739	 6.13967529806025E-03 
1740	 6.30223315797976E-03 
1741	 6.88957425731185E-03 
1742	 6.31913971301216E-03 
1743	 6.18895837773031E-03 
1744	 6.46795413084627E-03 
1745	 6.05185520494881E-03 
1746	 5.71577190893499E-03 
1747	 5.71627741265638E-03 
1748	 5.63898586623741E-03 
1749	 5.68875716983869E-03 
1750	 6.37671740019082E-03 
1751	 6.6541704184767E-03 
1752	 6.55659120002394E-03 
1753	 6.54426316518711E-03 
1754	 6.40667369363987E-03 
1755	 6.2963409951423E-03 
1756	 6.20878021077608E-03 
1757	 6.02990554705828E-03 
1758	 6.15222867970844E-03 
1759	 6.73543644750342E-03 
1760	 7.19396419286392E-03 
1761	 7.45630480175113E-03 
1762	 7.27710632964449E-03 
1763	 7.04109153849169E-03 
1764	 7.15356273842916E-03 
1765	 6.7349222224474E-03 
1766	 6.42706273102449E-03 
1767	 6.63347796929213E-03 
1768	 6.34939438890481E-03 
1769	 6.18405633557012E-03 
1770	 6.95402398423593E-03 
1771	 7.43456430924322E-03 
1772	 7.0519061122632E-03 
1773	 7.0557177852957E-03 
1774	 6.83322370940936E-03 
1775	 4.7041558793196E-03 
1776	 4.09719471186081E-03 
1777	 5.47645676113291E-03 
1778	 5.52745735806666E-03 
1779	 4.87011771532211E-03 
1780	 5.41931359665384E-03 
1781	 6.00316167878184E-03 
1782	 5.58278306910652E-03 
1783	 6.6164754530279E-03 
1784	 6.72211192399766E-03 
1785	 3.53229368321753E-03 
1786	 3.26876376124933E-03 
1787	 5.71560907545922E-03 
1788	 5.83914814908968E-03 
1789	 5.77501693072354E-03 
1790	 7.76545635742201E-03 
1791	 6.76721923967471E-03 
1792	 5.66450674352231E-03 
1793	 6.42406578545709E-03 
1794	 5.82339174619559E-03 
1795	 4.82857556487545E-03 
1796	 8.58319447415438E-03 
1797	 1.24967820254061E-02 
1798	 6.74864984581513E-03 
1799	-1.42872849613533E-03 
1800	-3.78393955935047E-03 
1801	-5.52778635547352E-03 
1802	 1.39961551282183E-02 
1803	 2.03001674741308E-02 
1804	-1.36195356545158E-03 
1805	-6.97175182527643E-03 
1806	-6.11779236010949E-03 
1807	-7.2208544296902E-03 
1808	 2.97493526663794E-02 
1809	 3.42582781299066E-02 
1810	-3.03002513887871E-02 
1811	-4.89463900846831E-02 
1812	-0.053787128135455 
1813	-7.57212033978076E-02 
1814	-1.45060063302164E-02 
1815	-0.155458319275521 
1816	-0.649032794466131 
1817	-0.640248466631936 
1818	-0.343569161642941 
1819	 0.20178315344734 
1820	 0.52751653635908 
1821	 0.363989797589701 
1822	 0.332025642721032 
1823	 0.323453171944195 
1824	 0.1673939314327 
1825	-0.35516863571728 
1826	-0.578227996446516 
1827	-0.132695658102889 
1828	-0.24924875669353 
1829	-0.30813276746609 
1830	-0.511452513278535 
1831	 1.89240808433049 
1832	-18.6258874444627 
1833	-1.09847500064072 
1834	-0.813219652594957 
1835	-0.154283185607175 
1836	-0.323560333210156 
1837	 0.918657015478488 
1838	 0.700946462339117 
1839	 0.314691499054112 
1840	 0.150253185630628 
1841	-0.2329423531099 
1842	-1.18145509204401 
1843	-1.56382709681254 
1844	-0.6510931326515 
1845	-0.609786025377583 
1846	-0.489535126323866 
1847	-0.516355088409596 
1848	-0.944131168713318 
1849	-0.694490654245818 
1850	-0.85397582584789 
1851	-0.629970563231904 
1852	-0.494425560171853 
1853	-0.953782255705599 
1854	-0.987037841729685 
1855	-0.983683610244165 
1856	-1.25033104919739 
1857	 2.99564091916592 
1858	 1.06487137725064 
1859	-2.12355357265138 
1860	-1.71120843989106 
1861	-1.14260498850745 
1862	-0.890791526325609 
1863	-0.47186692944985 
1864	 9.8877620334061 
1865	-3.50138779725896 
1866	 1.92018807379711 
1867	 1.71040212149083 
1868	 9.33092741025413 
1869	 21.3690011532208 
1870	 2.76797270949318 
1871	 3.42998226511701 
1872	-5.75593273117449E-02 
1873	 19.6982389053396 
1874	-1.59362003228919 
1875	-1.30293264547271 
1876	-0.995319053165841 
1877	-0.451674750652281 
1878	-0.277390154399391 
1879	-1.93651756619733 
1880	-0.615586844878462 
1881	-8.87835031740818E-04 
1882	-0.407266782946687 
1883	-0.830093254496222 
1884	-1.43393985920828 
1885	-0.876208441379882 
1886	-1.09424839600996 
1887	 1.71649984848314 
1888	 0.218039153124882 
1889	 6.36249351676215E-02 
1890	 0.609877307593368 
1891	 0.33894279530644 
1892	-0.78289011207299 
1893	-0.907897156133112 
1894	-0.678180349553055 
1895	-0.475277513415786 
1896	-0.360447713300489 
1897	-2.64026517657668 
1898	 0.14249329481719 
1899	 18.2133940576293 
1900	 2.99302751688562 
1901	 0.573332558158814 
1902	 0.344028306828916 
1903	 0.179201118878549 
1904	-0.212354767728025 
1905	-9.17270383862994E-02 
1906	 0.218262025605414 
1907	 7.13339298188785E-02 
1908	-8.89857065736615E-02 
1909	-1.63003367800938 
1910	-27.2205226032813 
1911	 4.26306375148577 
1912	 1.69697796733878 
1913	 1.04673699134012 
1914	 0.396836914590496 
1915	 0.490502929513125 
1916	 0.543695366991964 
1917	 0.694818338440025 
1918	 0.307643494700904 
1919	 5.91677436829937E-02 
1920	-0.116953332033438 
1921	-9.87732642709319E-02 
1922	-7.87532356322009E-02 
1923	 0.108355473614517 
1924	 0.230895668489197 
1925	-5.68287640753056E-02 
1926	-0.34051520392743 
1927	-1.91122689906692 
1928	 0.531126602246769 
1929	 0.330933835806918 
1930	-0.146956766366311 
1931	-0.28112325361649 
1932	 0.24642417576253 
1933	 0.506430162619301 
1934	 0.383549113934425 
1935	 0.53075927158616 
1936	 0.478132732988912 
1937	 0.322101777472362 
1938	 0.354560941241494 
1939	 0.314085627146584 
1940	 0.300766709449257 
1941	 0.189603371742663 
1942	 5.81313919092502E-02 
1943	 6.50121701204795E-02 
1944	 5.95720668387679E-02 
1945	-1.43608528697537E-02 
1946	 0.028343787543838 
1947	 3.56917229607524E-02 
1948	 3.24822053230399E-02 
1949	 5.15166330184308E-02 
1950	 1.32326696565138E-02 
1951	 1.01755725486104E-02 
1952	 6.0518934383342E-03 
1953	-1.25175120239114E-02 
1954	-1.46354640599282E-02 
1955	 1.35868887179426E-02 
1956	 8.55114341363329E-03 
1957	 3.73604689471296E-03 
1958	 8.78128024630996E-07 
1959	 4.96324758531853E-03 
1960	 1.23782318696325E-02 
1961	 1.09046239071103E-02 
1962	 1.34756484372976E-02 
1963	 1.32862740126839E-02 
1964	 8.73449655958991E-03 
1965	 7.25015420618598E-03 
1966	 5.72808230503708E-03 
1967	 3.65063453190671E-03 
1968	 3.22388322558745E-03 
1969	 6.57830327484721E-03 
1970	 6.71858583220166E-03 
1971	 7.02901057262682E-03 
1972	 8.92429759438996E-03 
1973	 7.52810968346533E-03 
1974	 6.32692081375509E-03 
1975	 6.05232233881598E-03 
1976	 5.33267380543358E-03 
1977	 4.00400673634007E-03 
1978	 2.45633196347537E-03 
1979	 2.33479031876853E-03 
1980	 3.10172431711928E-03 
1981	 3.60141845983801E-03 
1982	 4.23320227687346E-03 
1983	 5.72894103637844E-03 
1984	 7.08219817187524E-03 
1985	 7.2065313385815E-03 
1986	 6.06795555284124E-03 
1987	 5.05652321197367E-03 
1988	 4.14912104532946E-03 
1989	 4.12620684987942E-03 
1990	 5.17158649986256E-03 
1991	 6.03833663011479E-03 
1992	 5.50104009543783E-03 
1993	 3.91479051313445E-03 
1994	 3.73996192385563E-03 
1995	 3.95389737776612E-03 
1996	 5.08651488291467E-03 
1997	 6.1037878035991E-03 
1998	 6.35361752591552E-03 
1999	 4.3694946728313E-03 
2000	 2.56357016750746E-03 
2001	 1.8791304145783E-03 
2002	 2.04429531988603E-03 
2003	 1.77616055957611E-03 
2004	-2.44532940161189E-03 
2005	-3.93857569345767E-03 
2006	-6.13126728317042E-04 
2007	 2.09980823219489E-03 
2008	 5.91725779486319E-03 
2009	 7.8253132318569E-03 
2010	 6.57469398079518E-03 
2011	 6.06585189412816E-03 
2012	 5.13327043279611E-03 
2013	 4.71511173785122E-03 
2014	 6.56221673344042E-03 
2015	 5.64603362609915E-03 
2016	 2.36549385666033E-03 
2017	 4.26796865579129E-03 
2018	 5.3412376526928E-03 
2019	 5.15531991046614E-03 
2020	 5.35577414114632E-03 
2021	 3.44773651018699E-03 
2022	 2.29212846941292E-03 
2023	 1.84748521232675E-03 
2024	 1.82994570504419E-03 
2025	 3.41264331682623E-03 
2026	 4.17035953193275E-03 
2027	 4.57401184671468E-03 
2028	 4.6012599090369E-03 
2029	 4.98217783022983E-03 
2030	 5.85189634619613E-03 
2031	 5.8123624369363E-03 
2032	 5.59325637425654E-03 
2033	 6.41034625660207E-03 
2034	 6.46984420511439E-03 
2035	 6.20917504351429E-03 
2036	 6.34050253127725E-03 
2037	 5.84725605963245E-03 
2038	 5.1702717896413E-03 
2039	 5.11886187543715E-03 
2040	 5.62472339554436E-03 
2041	 5.78812919254506E-03 
2042	 6.38985839080672E-03 
2043	 6.77577396736064E-03 
2044	 6.94871612052512E-03 
2045	 6.90218966459713E-03 
2046	 7.01202052580928E-03 
2047	 6.86159940977941E-03 
2048	 6.81766828900919E-03 
2049	 6.87694215259773E-03 
2050	 6.79690740078125E-03 
2051	 6.32115259079693E-03 
2052	 5.70844336748851E-03 
2053	 6.00743578235497E-03 
2054	 6.3010516093713E-03 
2055	 5.59068540995219E-03 
2056	 5.67450332143134E-03 
2057	 5.85854980797156E-03 
2058	 5.7525233642829E-03 
2059	 6.28424693237767E-03 
2060	 6.56060056789082E-03 
2061	 0.006515589579468 
2062	 5.76704756654189E-03 
2063	 5.9617581094879E-03 
2064	 6.00323902655472E-03 
2065	 5.74090579319049E-03 
2066	 5.40625894650042E-03 
2067	 4.56381818047812E-03 
2068	 4.89013298112612E-03 
2069	 5.28610845811065E-03 
2070	 4.86181352671221E-03 
2071	 5.56347223925181E-03 
2072	 5.78945456755718E-03 
2073	 5.70734305406656E-03 
2074	 5.36333455939557E-03 
2075	 5.77727934244611E-03 
2076	 6.3125898744881E-03 
2077	 6.60388000791754E-03 
2078	 7.32484868392775E-03 
2079	 7.67336731582971E-03 
2080	 8.02297408020759E-03 
2081	 7.19557456343583E-03 
2082	 6.42303374400094E-03 
2083	 6.46682438237468E-03 
2084	 6.09146578324519E-03 
2085	 5.16946421370601E-03 
2086	 4.58171610844606E-03 
2087	 4.25804674403623E-03 
2088	 4.45943081699849E-03 
2089	 5.00291006950576E-03 
2090	 5.66256959839407E-03 
2091	 6.71839440920098E-03 
2092	 6.9167876082436E-03 
2093	 5.94795825397999E-03 
2094	 6.04439041427369E-03 
2095	 6.43357396202012E-03 
2096	 6.21228925874144E-03 
2097	 5.98779053272005E-03 
2098	 6.19700231821506E-03 
2099	 6.39528126966103E-03 
2100	 6.45898327455517E-03 
2101	 6.3932414440865E-03 
2102	 5.48713180976231E-03 
2103	 4.50930959346015E-03 
2104	 3.71879025191514E-03 
2105	 3.90808214034233E-03 
2106	 4.92037559639133E-03 
2107	 5.36509428087455E-03 
2108	 5.70105834483139E-03 
2109	 5.4571047931796E-03 
2110	 5.07950962216993E-03 
2111	 5.46783648635836E-03 
2112	 5.64956367485855E-03 
2113	 5.67576966388026E-03 
2114	 6.14931773586061E-03 
2115	 6.23359194602714E-03 
2116	 5.21462620830983E-03 
2117	 5.47828742013938E-03 
2118	 6.85191750723288E-03 
2119	 7.13668962654491E-03 
2120	 7.48409208029371E-03 
2121	 7.72088629579406E-03 
2122	 6.79844244620217E-03 
2123	 6.29670212801322E-03 
2124	 6.12859637298912E-03 
2125	 6.20305223942658E-03 
2126	 6.2960629317535E-03 
2127	 5.69315008468241E-03 
2128	 5.75296384121511E-03 
2129	 5.8432871087985E-03 
2130	 5.31129299673651E-03 
2131	 5.7474235757509E-03 
2132	 6.23787442880753E-03 
2133	 6.03194745007459E-03 
2134	 5.75819759400471E-03 
2135	 5.3667191617216E-03 
2136	 5.26609474685099E-03 
2137	 4.56058565449476E-03 
2138	 4.84875627521379E-03 
2139	 0.006807893689777 
2140	 6.90846069433669E-03 
2141	 6.00786383031102E-03 
2142	 5.78488495580932E-03 
2143	 5.0688422396144E-03 
2144	 4.26512087322301E-03 
2145	 4.24715148628144E-03 
2146	 5.19451549757023E-03 
2147	 4.9963722891932E-03 
2148	 4.31673292282386E-03 
2149	 4.39007208679207E-03 
2150	 3.8745009452187E-03 
2151	 3.69030245891909E-03 
2152	 4.45226869705044E-03 
2153	 5.20971646997172E-03 
2154	 6.14299660692642E-03 
2155	 6.30870520755435E-03 
2156	 5.16925677150952E-03 
2157	 4.57685907955978E-03 
2158	 3.17968320716639E-03 
2159	 2.88059236479187E-03 
2160	 3.09491665295754E-03 
2161	 3.83503957450429E-03 
2162	 5.54789925796126E-03 
2163	 6.14177911581966E-03 
2164	 7.62695856199329E-03 
2165	 7.45787857563552E-03 
2166	 4.91957793325604E-03 
2167	 4.11372638682208E-03 
2168	 2.81862802942085E-03 
2169	 2.31811931544095E-03 
2170	 2.88405347446941E-03 
2171	 4.12357770129097E-03 
2172	 5.16848842882225E-03 
2173	 5.44889102322859E-03 
2174	 4.82618278109432E-03 
2175	 4.66266160787512E-03 
2176	 4.84687940621544E-03 
2177	 5.4731074626176E-03 
2178	 6.76444684158594E-03 
2179	 7.19992257361862E-03 
2180	 6.57982369606478E-03 
2181	 6.35138703359981E-03 
2182	 5.99606013721038E-03 
2183	 6.15152198605426E-03 
2184	 6.22261068676268E-03 
2185	 5.6391128165562E-03 
2186	 5.45329193003151E-03 
2187	 5.29342110586318E-03 
2188	 5.28764195098712E-03 
2189	 5.8004915113708E-03 
2190	 5.53232860144445E-03 
2191	 5.15977526084377E-03 
2192	 4.58850986336793E-03 
2193	 2.44221927054659E-03 
2194	 2.26231444973486E-03 
2195	 3.52958494036249E-03 
2196	 3.86501514364633E-03 
2197	 5.3370307400214E-03 
2198	 5.8693963811652E-03 
2199	 5.58946392277787E-03 
2200	 4.43647955472004E-03 
2201	 3.13171730036959E-03 
2202	 3.20192964202831E-03 
2203	 3.82489442502251E-03 
2204	 4.37897521650101E-03 
2205	 5.52245084708683E-03 
2206	 5.49860602521469E-03 
2207	 5.10967705137523E-03 
2208	 6.11530664332683E-03 
2209	 6.49663899610015E-03 
2210	 6.58167542622459E-03 
2211	 7.14589718339723E-03 
2212	 6.72563065201475E-03 
2213	 6.53012404590903E-03 
2214	 7.09946857623127E-03 
2215	 7.43137602302918E-03 
2216	 7.49565626211197E-03 
2217	 7.31885788824847E-03 
2218	 7.4090762583547E-03 
2219	 7.07968266121357E-03 
2220	 5.25125426065123E-03 
2221	 5.33454120829261E-03 
2222	 7.06033472393785E-03 
2223	 7.05586416456075E-03 
2224	 6.72218738197043E-03 
2225	 7.31115055830426E-03 
2226	 7.82384546433387E-03 
2227	 7.49233543602624E-03 
2228	 7.58641211950665E-03 
2229	 7.45575951445393E-03 
2230	 5.42548793834528E-03 
2231	 4.87597568732881E-03 
2232	 6.35005357218305E-03 
2233	 6.94754828027352E-03 
2234	 7.49234103209205E-03 
2235	 7.13101632243264E-03 
2236	 8.23343178708598E-03 
2237	 8.0085934970446E-03 
2238	 6.24539976043276E-03 
2239	 5.63555718794215E-03 
2240	 5.57370866623275E-03 
2241	 5.08148586553454E-03 
2242	 0.006124053333975 
2243	 8.17787864826597E-03 
2244	 7.24645330922171E-03 
2245	 5.99423848992071E-03 
2246	 6.11928451230654E-03 
2247	 5.05314693634234E-03 
2248	 5.9442145071014E-03 
2249	 7.62923533410904E-03 
2250	 6.76127858134505E-03 
2251	 7.55912478602612E-03 
2252	 9.20317370275504E-03 
2253	 7.33461585009642E-03 
2254	 5.76026415746878E-03 
2255	 6.29069783397455E-03 
2256	 5.62009011071803E-03 
2257	 5.53504918714382E-03 
2258	 8.2307766199767E-03 
2259	 9.23318801111893E-03 
2260	 9.32299804522025E-03 
2261	 8.36020440819404E-03 
2262	 8.08728668176721E-03 
2263	 7.36856780111066E-03 
2264	 6.36147365009506E-03 
2265	 4.38890661799845E-03 
2266	 4.07826572386378E-03 
2267	 4.4938940986173E-03 
2268	 4.41561931047524E-03 
2269	 5.32784378465906E-03 
2270	 5.78181891829329E-03 
2271	 5.19688040724324E-03 
2272	 5.09090234035578E-03 
2273	 6.49049839251322E-03 
2274	 6.60341128531668E-03 
2275	 4.5725725508454E-03 
2276	 4.76217254541245E-03 
2277	 6.99183471024172E-03 
2278	 6.18711151797284E-03 
2279	 4.8131098665804E-03 
2280	 4.65709136808099E-03 
2281	 3.0012094380254E-03 
2282	 0.000712589909768 
2283	 1.90349285193802E-03 
2284	 2.56695219917362E-03 
2285	 4.77399948842067E-03 
2286	 7.71861611611926E-03 
2287	 1.07442660679889E-02 
2288	 1.28389796351417E-02 
2289	 0.010808609441133 
2290	 1.09369089933136E-02 
2291	 1.05778737647331E-02 
2292	 9.55082570111367E-03 
2293	 1.06452512530838E-02 
2294	 8.71519597516916E-03 
2295	 8.35645205315971E-03 
2296	 9.1475506731069E-03 
2297	 8.3895972406879E-03 
2298	 8.5781839122204E-03 
2299	 8.10458235908025E-03 
2300	 6.8930062842871E-03 
2301	 5.95876787188239E-03 
2302	 5.3416594341071E-03 
2303	 5.8826824073133E-03 
2304	 8.21277656191861E-03 
2305	 1.14449715521897E-02 
2306	 0.012081178161498 
2307	 9.23444841695735E-03 
2308	 8.5110728427935E-03 
2309	 8.18669851859599E-03 
2310	 5.46987552176027E-03 
2311	 6.3783837137138E-03 
2312	 8.2221204739536E-03 
2313	 6.73676151523451E-03 
2314	 4.2192027552542E-03 
2315	 0.003077770961495 
2316	 1.85680760308885E-03 
2317	-3.61565838647635E-04 
2318	 9.87480045453821E-04 
2319	 2.52551249936848E-03 
2320	 3.4253195751033E-03 
2321	 6.39153311462406E-03 
2322	 9.8006122410657E-03 
2323	 1.27016042970255E-02 
2324	 9.63864128395138E-03 
2325	 7.60941113576814E-03 
2326	 1.14960852999979E-02 
2327	 1.25335630382281E-02 
2328	 1.57981374979843E-02 
2329	 1.80048875935825E-02 
2330	 1.14289466227759E-02 
2331	 1.08624896004925E-02 
2332	 1.37174596472298E-02 
2333	 1.15365776592642E-02 
2334	 9.40281247700926E-03 
2335	 6.89517340661279E-03 
2336	 4.8033944998064E-03 
2337	 1.63952065598827E-03 
2338	 4.13560744518216E-03 
2339	 5.65995966218142E-03 
2340	-4.19627801517853E-04 
2341	 4.49016088124143E-03 
2342	 1.38065163508776E-02 
2343	 1.23580849506002E-02 
2344	 8.97514365533615E-03 
2345	 1.07815860281302E-02 
2346	 3.10558383403251E-03 
2347	-4.82639008340693E-03 
2348	 1.00319929739908E-03 
2349	 8.15301756069469E-04 
2350	-6.16238156231542E-03 
2351	-6.52513870371472E-03 
2352	-2.70284353405711E-03 
2353	-7.74706648238286E-03 
2354	-1.02934205039328E-02 
2355	-3.19338723658019E-03 
2356	-5.03113628392271E-04 
2357	-9.64839296840525E-04 
2358	 2.41677762037741E-03 
2359	 6.71919159932631E-03 
2360	 1.09573129425788E-02 
2361	 2.00339745343722E-02 
2362	 2.35281857213313E-02 
2363	 1.85873016315596E-02 
2364	 1.04414466334057E-02 
2365	 3.2126815923554E-03 
2366	 3.96656651661123E-03 
2367	 4.39012028609616E-03 
2368	 4.42996924588814E-03 
2369	 1.00361884264203E-02 
2370	 1.67479612167768E-02 
2371	 2.56517270063287E-02 
2372	 3.62985416039351E-02 
2373	 2.91174572786059E-02 
2374	 1.12350812269598E-02 
2375	 1.43220932354611E-02 
2376	 2.08945804210318E-02 
2377	 2.18713897793338E-02 
2378	 1.94172629833665E-02 
2379	-6.75757021493466E-03 
2380	-3.90043962860291E-02 
2381	-5.55642553061888E-02 
2382	-5.43439983857265E-02 
2383	-4.27234556202857E-02 
2384	-4.84607317136392E-02 
2385	-6.74873299791459E-02 
2386	-6.63399347985295E-02 
2387	-4.66821456146461E-02 
2388	-2.52914698696601E-02 
2389	 1.86136876057899E-03 
2390	 1.75527046434139E-02 
2391	-6.3970294896885E-03 
2392	-3.76003853519226E-02 
2393	-5.46762357644792E-02 
2394	-4.98059461483977E-02 
2395	-4.22817667518068E-02 
2396	-3.53327059232615E-02 
2397	-1.71517320116857E-02 
2398	-0.013992058542767 
2399	-1.20672326063096E-02 
2400	 1.10105024911966E-02 
2401	 3.03398910138766E-02 
2402	 3.37540383813684E-02 
2403	 4.32061551936015E-02 
2404	 6.36500045774379E-02 
2405	 6.24332390877626E-02 
2406	 2.92327373764777E-02 
2407	 9.50099887367128E-03 
2408	-1.51454843768191E-02 
2409	-0.070781204465581 
2410	-8.43564065392104E-02 
2411	-3.81455168600921E-02 
2412	-2.78543517083127E-02 
2413	-0.129161514585126 
2414	-0.145181897050609 
2415	-8.49783790164403E-02 
2416	-0.135921437163397 
2417	-3.03785388107389E-02 
2418	 0.182813276781843 
2419	 0.183352983905026 
2420	 0.155851190098445 
2421	 0.154969042355091 
2422	 6.22873731597231E-02 
2423	-5.59099418679706E-02 
2424	-0.071200590228471 
2425	-3.86050636520678E-02 
2426	 3.42231760159945E-02 
2427	 9.11506970788622E-02 
2428	 5.10577939039035E-02 
2429	 3.84461884398053E-02 
2430	 3.86232620435817E-02 
2431	 8.21439182214664E-02 
2432	 0.161728477621163 
2433	 0.10336164385652 
2434	 8.4986176442121E-03 
2435	-0.155756487562543 
2436	-0.299709810740578 
2437	-0.192795230090327 
2438	-5.66406813585616E-02 
2439	-0.022370566677127 
2440	 5.59694514362261E-02 
2441	 5.07085871675532E-02 
2442	-0.133123872724643 
2443	-0.309097605465931 
2444	-0.364723812720557 
2445	-0.333259500895261 
2446	-0.328010226478146 
2447	 7.04780679766415E-02 
2448	 0.232152534605956 
2449	 0.403239967231926 
2450	 0.57032180192396 
2451	 0.222911204960865 
2452	 0.257999434398846 
2453	 0.331380214122066 
2454	 0.110793327163708 
2455	-9.14929771982561E-02 
2456	-8.73291833092719E-02 
2457	-0.180553283802875 
2458	-0.194584857790809 
2459	-9.19853797576549E-02 
2460	-0.237746662045612 
2461	-0.211298703078285 
2462	-0.320435902843844 
2463	-0.520007935603908 
2464	-0.763752110186766 
2465	-1.12303401342737 
2466	-1.6127779777151 
2467	 0.609041944482388 
2468	 1.16970176722183 
2469	 1.23056227016045 
2470	 1.8799511906137 
2471	-88.6470946906531 
2472	-4.14018713804414 
2473	-2.28156229067263 
2474	-0.36440887434017 
2475	 2.46405554294617 
2476	 1.77879276101327 
2477	 1.01476308209646 
2478	 1.27515676422876 
2479	 3.70370438153462 
2480	 2.44964052930302 
2481	-31.0743442454163 
2482	 3.09573544952711 
2483	 0.984781064296512 
2484	 3.84580212451081 
2485	 1.83337213740136 
2486	-6.94767680490527 
2487	 0.405350960339406 
2488	-0.887407704168551 
2489	 1.80030098901778 
2490	 0.804012107414383 
2491	 0.464070900286132 
2492	-4.23782566708786E-02 
2493	-0.360455343521279 
2494	 0.036584088271087 
2495	 0.618426958681285 
2496	 0.478525900287061 
2497	 0.773307090649886 
2498	 0.938188304760068 
2499	 0.691439994409146 
2500	 1.23138812346228 
