Wavelength	rt0713west_far_sunny_200006.asd
350	 5.41422679041972E-02 
351	 0.053697950486353 
352	 5.31859067422957E-02 
353	 5.31762687892463E-02 
354	 5.36496843052795E-02 
355	 5.33997247962104E-02 
356	 5.28008626799846E-02 
357	 5.24011806485089E-02 
358	 5.25406308032983E-02 
359	 5.24158512618488E-02 
360	 5.24992657566601E-02 
361	 0.052600227038225 
362	 5.21469922111987E-02 
363	 5.16193742094242E-02 
364	 5.16108930800055E-02 
365	 5.20318509205482E-02 
366	 5.17945077986939E-02 
367	 5.15319397987328E-02 
368	 5.14165650089581E-02 
369	 5.14171977583204E-02 
370	 5.11804704546338E-02 
371	 5.12650187286713E-02 
372	 5.14169623979198E-02 
373	 5.10567770794387E-02 
374	 5.12413452250415E-02 
375	 5.14134148475887E-02 
376	 5.12516680787704E-02 
377	 5.09910100884833E-02 
378	 5.09159314043986E-02 
379	 5.10163132512848E-02 
380	 5.11857801076016E-02 
381	 0.051332720723219 
382	 5.12998918336762E-02 
383	 5.12870970512002E-02 
384	 5.15573324583299E-02 
385	 5.15462575720597E-02 
386	 5.13159476241967E-02 
387	 5.11784568365146E-02 
388	 5.15983669129654E-02 
389	 5.14768792652603E-02 
390	 5.13455702295628E-02 
391	 5.16651180535038E-02 
392	 5.19970730925098E-02 
393	 5.18762013141155E-02 
394	 5.17060696778408E-02 
395	 5.19978115119238E-02 
396	 5.19423842309805E-02 
397	 5.20384558946751E-02 
398	 5.22364934693887E-02 
399	 5.20095727201078E-02 
400	 5.20016421567385E-02 
401	 5.21322289490738E-02 
402	 5.22424289661767E-02 
403	 5.22638781742997E-02 
404	 5.23238550101696E-02 
405	 5.23646296777029E-02 
406	 5.23003330449963E-02 
407	 0.052279401800457 
408	 5.23907685874186E-02 
409	 5.25719968777844E-02 
410	 5.26345302303645E-02 
411	 5.27516653352713E-02 
412	 5.28664791238968E-02 
413	 5.29253579120587E-02 
414	 5.29571487243749E-02 
415	 5.31657795763154E-02 
416	 5.34223932050954E-02 
417	 5.35176910893463E-02 
418	 5.36787102514027E-02 
419	 5.38303995959495E-02 
420	 0.053948221274107 
421	 5.40832855084293E-02 
422	 5.42535531720093E-02 
423	 5.44685053063185E-02 
424	 5.47187944303046E-02 
425	 5.49563334444278E-02 
426	 5.52089033274131E-02 
427	 5.54672062155352E-02 
428	 5.57156929757694E-02 
429	 5.60369051082401E-02 
430	 5.63083134432328E-02 
431	 5.65420976867162E-02 
432	 5.69242263500238E-02 
433	 5.72167636816959E-02 
434	 5.74517299046508E-02 
435	 5.77219725126501E-02 
436	 5.81232536742614E-02 
437	 5.84580353271973E-02 
438	 5.87189674836604E-02 
439	 5.90014786429202E-02 
440	 5.92889510522131E-02 
441	 5.96004354950647E-02 
442	 5.99234305875495E-02 
443	 6.01950696155018E-02 
444	 6.05070409709726E-02 
445	 6.08160172305657E-02 
446	 6.10782313286546E-02 
447	 0.061415040169211 
448	 6.16335111653534E-02 
449	 6.17791855074491E-02 
450	 6.20617676459137E-02 
451	 6.23521172650028E-02 
452	 6.25849024970785E-02 
453	 6.27568943220446E-02 
454	 6.29660834170404E-02 
455	 0.063191699341726 
456	 6.33789016630751E-02 
457	 6.34925170874374E-02 
458	 6.36807194603915E-02 
459	 6.38482463877111E-02 
460	 0.063995643027762 
461	 6.42214034507323E-02 
462	 0.064341190448287 
463	 6.44344168459241E-02 
464	 6.45866019686028E-02 
465	 6.47519104094893E-02 
466	 6.49063286117363E-02 
467	 6.50361000560357E-02 
468	 6.51448164816925E-02 
469	 6.52971120284913E-02 
470	 6.54298318841591E-02 
471	 6.55420884535159E-02 
472	 6.57294575582592E-02 
473	 6.59206886357225E-02 
474	 6.61488222283993E-02 
475	 6.64234986701826E-02 
476	 6.65716255725488E-02 
477	 6.67675331808087E-02 
478	 6.70225265704248E-02 
479	 6.72414642270204E-02 
480	 6.74937814980389E-02 
481	 6.77963832396314E-02 
482	 6.81217063913341E-02 
483	 6.83602635864099E-02 
484	 6.86478493264972E-02 
485	 6.89951140116216E-02 
486	 6.93568993761506E-02 
487	 6.96729277638335E-02 
488	 0.069973174506177 
489	 7.02858075467534E-02 
490	 7.06299854334478E-02 
491	 7.09752252664329E-02 
492	 7.13275122608818E-02 
493	 7.17003609482344E-02 
494	 7.21160712880152E-02 
495	 7.25403536908097E-02 
496	 7.29376964272337E-02 
497	 7.32879561073284E-02 
498	 7.36891086527907E-02 
499	 7.40776230320585E-02 
500	 7.44373311662179E-02 
501	 0.074851620786021 
502	 7.52148513348636E-02 
503	 0.075600804439433 
504	 7.60866888132241E-02 
505	 7.65440560588544E-02 
506	 7.70392859586249E-02 
507	 7.75564104076684E-02 
508	 7.80146636130527E-02 
509	 7.84252595383519E-02 
510	 7.88829930434012E-02 
511	 0.07942578169444 
512	 7.99306599409251E-02 
513	 0.080517285071391 
514	 8.11226708826792E-02 
515	 8.16335053205464E-02 
516	 8.22093517538628E-02 
517	 8.28473984367222E-02 
518	 8.34745264975655E-02 
519	 8.39591172916923E-02 
520	 8.45151376143151E-02 
521	 0.085089848262775 
522	 8.56222154268851E-02 
523	 8.62356120690849E-02 
524	 8.68643110836081E-02 
525	 8.74947002275853E-02 
526	 8.81499566198285E-02 
527	 8.87876365293453E-02 
528	 8.94199935550284E-02 
529	 9.00436830686877E-02 
530	 9.05962675159945E-02 
531	 9.12514424943243E-02 
532	 9.19680154478456E-02 
533	 9.26385623508395E-02 
534	 9.33311970467525E-02 
535	 0.093960755965263 
536	 9.45465092506255E-02 
537	 9.52268475820115E-02 
538	 9.58764571089934E-02 
539	 9.65053904375695E-02 
540	 9.71470970494021E-02 
541	 9.78017799127212E-02 
542	 9.84630485045423E-02 
543	 9.91263968189335E-02 
544	 9.97942965234306E-02 
545	 0.100497741631301 
546	 0.101199775993513 
547	 0.101867820446055 
548	 0.102492269215546 
549	 0.103123182359125 
550	 0.103761955467361 
551	 0.104401641730388 
552	 0.1050931955872 
553	 0.105754408521665 
554	 0.106380719765733 
555	 0.107057326249171 
556	 0.107685768953424 
557	 0.108302711656147 
558	 0.108939235630296 
559	 0.109524242392245 
560	 0.110081232816246 
561	 0.110606647077359 
562	 0.111086824427553 
563	 0.111544964605538 
564	 0.112015078071946 
565	 0.112475942101938 
566	 0.112795125703712 
567	 0.113121966456439 
568	 0.113470164061018 
569	 0.113814428081915 
570	 0.114223959249835 
571	 0.114580759841211 
572	 0.114822318185986 
573	 0.11496109409498 
574	 0.115176889044397 
575	 0.115423435144443 
576	 0.115620397161311 
577	 0.115777597023104 
578	 0.115897268800906 
579	 0.115999664908602 
580	 0.116100773843385 
581	 0.116071241101899 
582	 0.115958917306795 
583	 0.115801738134943 
584	 0.115581705935185 
585	 0.115226946912535 
586	 0.114776044689358 
587	 0.114299361147063 
588	 0.113795390834076 
589	 0.113336793026013 
590	 0.1129904712034 
591	 0.112761574872557 
592	 0.11235609605095 
593	 0.111835448627294 
594	 0.11130004792562 
595	 0.110692124111025 
596	 0.109952291820325 
597	 0.109113084275168 
598	 0.108267256625802 
599	 0.107439657861366 
600	 0.106716646827889 
601	 0.106149531473016 
602	 0.105724151989007 
603	 0.105369164096758 
604	 0.105105670380833 
605	 0.104979043628367 
606	 0.104982976660486 
607	 0.104960743382648 
608	 0.104875435780688 
609	 0.10482280192919 
610	 0.104838248828657 
611	 0.104845431533885 
612	 0.104803024884454 
613	 0.104864425560393 
614	 0.104805676841639 
615	 0.10467966854895 
616	 0.104676708807243 
617	 0.104664416316902 
618	 0.104608007134803 
619	 0.104520948795364 
620	 0.104476650443987 
621	 0.104433123610799 
622	 0.104388400134284 
623	 0.10434124175963 
624	 0.104248505696226 
625	 0.1040679945088 
626	 0.103849595862657 
627	 0.103727236178444 
628	 0.103712763661936 
629	 0.103721309634756 
630	 0.103676481788618 
631	 0.10356409698976 
632	 0.103582268841446 
633	 0.10363301053581 
634	 0.103515276977969 
635	 0.103467271402063 
636	 0.10341620221338 
637	 0.103312249258681 
638	 0.103177182886093 
639	 0.10309226331336 
640	 0.102989238228289 
641	 0.102789302200339 
642	 0.102569007418884 
643	 0.102276439383053 
644	 0.101914791751162 
645	 0.101537218132458 
646	 0.101154505930247 
647	 0.100890519802131 
648	 0.100773357125388 
649	 0.100566935852148 
650	 0.100373276957258 
651	 0.1001348378696 
652	 9.97616556230259E-02 
653	 9.92677952190646E-02 
654	 9.87316493261515E-02 
655	 0.09816169851181 
656	 9.75421056781031E-02 
657	 9.69909973361304E-02 
658	 9.65412579578469E-02 
659	 9.61765122064917E-02 
660	 9.58628738557164E-02 
661	 9.55044940156102E-02 
662	 9.51515636901614E-02 
663	 9.49416939912899E-02 
664	 9.48059719525549E-02 
665	 0.094646456921849 
666	 9.44298331174662E-02 
667	 9.42434692029574E-02 
668	 9.40867966943363E-02 
669	 9.39776946422528E-02 
670	 9.39102923621954E-02 
671	 9.37431033855791E-02 
672	 9.36446914531056E-02 
673	 0.093634851818899 
674	 9.35851769551955E-02 
675	 9.35176030365118E-02 
676	 9.34858574301612E-02 
677	 9.34975160281526E-02 
678	 9.34181184661301E-02 
679	 9.33820458230841E-02 
680	 9.34379159474838E-02 
681	 0.093560573224382 
682	 9.35264250573224E-02 
683	 0.093526730395755 
684	 9.35701220237102E-02 
685	 9.33647297274312E-02 
686	 9.31052799195374E-02 
687	 9.29291366250211E-02 
688	 0.092872906265807 
689	 9.27204590096445E-02 
690	 9.24362607317862E-02 
691	 9.20310669786825E-02 
692	 9.15408267348642E-02 
693	 9.09561306502088E-02 
694	 9.05324751558459E-02 
695	 9.02836184044514E-02 
696	 8.97903236809711E-02 
697	 0.08906686557718 
698	 8.81577887524435E-02 
699	 8.72001999711162E-02 
700	 8.62579276800131E-02 
701	 8.54992892930786E-02 
702	 8.48220876297567E-02 
703	 8.39062141655239E-02 
704	 8.28351405515729E-02 
705	 8.17188413443507E-02 
706	 8.06238023454017E-02 
707	 7.94242620054158E-02 
708	 7.81035659595009E-02 
709	 7.66950778646912E-02 
710	 7.52259189985444E-02 
711	 0.073536129142952 
712	 7.17615990727783E-02 
713	 6.99400139406217E-02 
714	 6.79321948892863E-02 
715	 6.57821071369197E-02 
716	 6.33463680675992E-02 
717	 6.08178304499752E-02 
718	 5.87145307402796E-02 
719	 0.056950173519327 
720	 5.55555715968209E-02 
721	 5.42116194726596E-02 
722	 5.24819935804967E-02 
723	 5.03788690771373E-02 
724	 4.83325533559954E-02 
725	 4.65748062705933E-02 
726	 4.47565174164751E-02 
727	 0.042812706024777 
728	 4.07983561396044E-02 
729	 3.87880981793731E-02 
730	 0.036912927207874 
731	 3.54131512080165E-02 
732	 3.43127026720659E-02 
733	 3.31485832659945E-02 
734	 3.20010010543869E-02 
735	 3.10385633940065E-02 
736	 3.04753168648453E-02 
737	 3.00518616878597E-02 
738	 2.97304409674377E-02 
739	 2.95241317644819E-02 
740	 2.94066654809523E-02 
741	 0.029340343961334 
742	 2.92941675114228E-02 
743	 2.92468779246901E-02 
744	 2.92229112300797E-02 
745	 2.91515670492183E-02 
746	 2.90472775439323E-02 
747	 0.029046403812341 
748	 2.90475480671269E-02 
749	 2.90086419852884E-02 
750	 2.89349166502684E-02 
751	 2.89306296617752E-02 
752	 2.89250008526556E-02 
753	 2.89426133835525E-02 
754	 2.90280691597223E-02 
755	 2.89572463454319E-02 
756	 2.87932856445074E-02 
757	 0.028580121561726 
758	 2.82260274083472E-02 
759	 2.76705712964259E-02 
760	 2.71821546515345E-02 
761	 2.72279418567421E-02 
762	 2.71055177189115E-02 
763	 2.72770623005323E-02 
764	 2.77326166843829E-02 
765	 2.82515867616674E-02 
766	 2.85257763911863E-02 
767	 2.87833940197904E-02 
768	 2.90430316896814E-02 
769	 2.91127904934016E-02 
770	 2.92360471877759E-02 
771	 2.93889435486172E-02 
772	 2.95023944883605E-02 
773	 2.95253991222121E-02 
774	 2.96459514732643E-02 
775	 2.98615950862543E-02 
776	 0.030075190780774 
777	 0.030203446138993 
778	 3.03518284740616E-02 
779	 3.05475097576823E-02 
780	 3.07255955707367E-02 
781	 3.08839413202175E-02 
782	 3.10357212413142E-02 
783	 3.11884894919256E-02 
784	 3.13229121092293E-02 
785	 3.15351555165771E-02 
786	 3.17017081060888E-02 
787	 3.17146792229891E-02 
788	 3.19932973104868E-02 
789	 3.22453168992904E-02 
790	 3.24763780126863E-02 
791	 3.29289099253645E-02 
792	 3.33451994780766E-02 
793	 3.36350158558686E-02 
794	 3.38377034435154E-02 
795	 3.41458604439957E-02 
796	 3.43934003945242E-02 
797	 0.034596624537405 
798	 3.48139327201505E-02 
799	 3.50350921545585E-02 
800	 3.52092412222297E-02 
801	 3.53428670346364E-02 
802	 3.54979254678721E-02 
803	 3.58429871051537E-02 
804	 3.60496538621819E-02 
805	 3.60616380064945E-02 
806	 0.036153307682042 
807	 3.62694403446693E-02 
808	 0.036145371222748 
809	 3.56924484052283E-02 
810	 3.53710630159516E-02 
811	 3.52392262567992E-02 
812	 0.034980675749162 
813	 3.42391878639764E-02 
814	 3.37345086088505E-02 
815	 3.34797662585166E-02 
816	 3.32021438863557E-02 
817	 3.25732215220508E-02 
818	 3.24433159014725E-02 
819	 3.22956464004473E-02 
820	 0.031779931171123 
821	 0.030885054972082 
822	 3.00867259237221E-02 
823	 2.93373342345385E-02 
824	 2.85479463353856E-02 
825	 2.78910728096387E-02 
826	 2.68642495472768E-02 
827	 0.02559857675461 
828	 2.45518284409421E-02 
829	 2.38023986340255E-02 
830	 2.30392053832336E-02 
831	 2.23588782655056E-02 
832	 2.21141119337516E-02 
833	 2.17208497617593E-02 
834	 2.13998178846023E-02 
835	 2.12682380269479E-02 
836	 2.11891660573084E-02 
837	 2.09604872744048E-02 
838	 2.07574169271928E-02 
839	 2.07313337938998E-02 
840	 2.07827387322748E-02 
841	 2.05779109799188E-02 
842	 0.020361448832508 
843	 2.04434514873771E-02 
844	 2.03266098210201E-02 
845	 2.01776366282413E-02 
846	 2.00780067353273E-02 
847	 2.00172880779319E-02 
848	 1.98601975965904E-02 
849	 1.97308621220844E-02 
850	 1.96691943328557E-02 
851	 1.95737424177986E-02 
852	 1.95755631933643E-02 
853	 1.95741600322147E-02 
854	 1.94706491667549E-02 
855	 1.92683310766379E-02 
856	 1.92007465779989E-02 
857	 1.92926581997967E-02 
858	 1.94328341766239E-02 
859	 1.93057743491722E-02 
860	 1.90144345010999E-02 
861	 0.018754394805062 
862	 1.87047063243485E-02 
863	 1.86719702983179E-02 
864	 1.86057661975027E-02 
865	 1.85407699066634E-02 
866	 0.018552346051118 
867	 1.83427134287404E-02 
868	 1.83599172404951E-02 
869	 0.018544760759924 
870	 1.81092048567825E-02 
871	 1.80181393355428E-02 
872	 1.80406304981128E-02 
873	 0.017889250233031 
874	 1.77377472642939E-02 
875	 1.77368364864717E-02 
876	 1.76955912945627E-02 
877	 1.74615577801868E-02 
878	 1.74454530205705E-02 
879	 1.73516464700775E-02 
880	 1.71119090840283E-02 
881	 0.01683354433674 
882	 1.68531045159879E-02 
883	 1.68734441184089E-02 
884	 1.68209280147952E-02 
885	 0.016803386479517 
886	 1.66993796330181E-02 
887	 1.65198930541497E-02 
888	 1.63270642637918E-02 
889	 0.016209227891409 
890	 1.60552705314706E-02 
891	 1.57399776963038E-02 
892	 1.53548064404112E-02 
893	 1.54029896847912E-02 
894	 1.50511057034559E-02 
895	 1.45459792670524E-02 
896	 1.43733756045892E-02 
897	 1.45763175436908E-02 
898	 0.014674743406317 
899	 0.014503699653929 
900	 1.41888041964178E-02 
901	 1.41740516161575E-02 
902	 1.42515226491191E-02 
903	 1.42093187905988E-02 
904	 1.39319693629575E-02 
905	 1.36817227089878E-02 
906	 1.38229466099532E-02 
907	 1.41896373576432E-02 
908	 1.41797322394448E-02 
909	 0.0134346104154 
910	 0.012894784666438 
911	 1.29279322094612E-02 
912	 1.31689399469314E-02 
913	 0.013163958074773 
914	 1.28286076341485E-02 
915	 0.012686892070773 
916	 1.35662707244158E-02 
917	 1.31461419447678E-02 
918	 1.23726616202485E-02 
919	 1.22540100103257E-02 
920	 1.31400018058134E-02 
921	 1.32875965232873E-02 
922	 1.27272663040478E-02 
923	 1.21303061356391E-02 
924	 1.27441367839527E-02 
925	 1.24149852758942E-02 
926	 1.17714301316745E-02 
927	 1.18472243969425E-02 
928	 1.14748603055172E-02 
929	 0.010946276172588 
930	 1.08988732760842E-02 
931	 1.20552148644391E-02 
932	 1.29264306995168E-02 
933	 0.014010545642496 
934	 1.31075363202383E-02 
935	 9.20419523898136E-03 
936	 8.30953590101429E-03 
937	 9.19188201668449E-03 
938	 9.73186162950047E-03 
939	 8.87560444919919E-03 
940	 9.48182592859311E-03 
941	 9.62069551985237E-03 
942	 1.00572906222323E-02 
943	 1.20941533099856E-02 
944	 0.011814374873792 
945	 9.64050954463574E-03 
946	 8.59552608223253E-03 
947	 1.12567345805905E-02 
948	 1.15326499273701E-02 
949	 1.12564936430443E-02 
950	 9.99325255444525E-03 
951	 6.76949671687717E-03 
952	 7.43167814427057E-03 
953	 8.82270364967746E-03 
954	 9.56362420886348E-03 
955	 1.00325741434861E-02 
956	 9.95031447492817E-03 
957	 0.010920577968496 
958	 1.18132362734456E-02 
959	 1.03846019802965E-02 
960	 0.01007237398329 
961	 9.04868678424808E-03 
962	 8.3636458661461E-03 
963	 1.03130869754443E-02 
964	 1.06423285350949E-02 
965	 1.09008427303865E-02 
966	 0.010976984809915 
967	 9.72859788449029E-03 
968	 9.85609487527415E-03 
969	 1.07256708118392E-02 
970	 1.10103577196496E-02 
971	 9.59053732115344E-03 
972	 9.34597796408265E-03 
973	 1.07896082604482E-02 
974	 0.012445241195431 
975	 1.17925414151561E-02 
976	 0.011527884855949 
977	 1.07319201651183E-02 
978	 9.93301698302379E-03 
979	 1.07091100738197E-02 
980	 1.07472657374398E-02 
981	 1.07282731306247E-02 
982	 1.09046042764541E-02 
983	 1.10054172993055E-02 
984	 1.13987760370451E-02 
985	 1.22849904471594E-02 
986	 1.30369877594278E-02 
987	 1.26688526695608E-02 
988	 1.20151200713835E-02 
989	 1.20084978736147E-02 
990	 1.23293803038534E-02 
991	 1.19556107229477E-02 
992	 1.18999564788678E-02 
993	 1.17809913114942E-02 
994	 0.012094172539898 
995	 1.34377421871529E-02 
996	 1.30966031830207E-02 
997	 1.25361696431916E-02 
998	 1.22782107366729E-02 
999	 1.21087313090436E-02 
1000	 1.25292518848267E-02 
1001	 9.82490165217331E-03 
1002	 9.95496296569224E-03 
1003	 9.95151404182112E-03 
1004	 9.79201753083357E-03 
1005	 9.72596266971855E-03 
1006	 9.57804138294148E-03 
1007	 9.63131195945108E-03 
1008	 9.70779166846707E-03 
1009	 9.63113466364211E-03 
1010	 9.79024655512815E-03 
1011	 1.00722769451554E-02 
1012	 1.05146990301484E-02 
1013	 1.08956046185881E-02 
1014	 1.09860525640996E-02 
1015	 1.07044345798304E-02 
1016	 1.07846088587732E-02 
1017	 1.08481176072029E-02 
1018	 1.09414987211148E-02 
1019	 1.13988066047043E-02 
1020	 1.14992127965669E-02 
1021	 1.13084197216323E-02 
1022	 1.11994018849531E-02 
1023	 1.10979706703741E-02 
1024	 1.07828781987689E-02 
1025	 1.05773453022425E-02 
1026	 1.05182188480619E-02 
1027	 1.05577834437015E-02 
1028	 1.07278813426432E-02 
1029	 1.08183400517012E-02 
1030	 1.11377998998889E-02 
1031	 1.10715011530125E-02 
1032	 1.06899575217507E-02 
1033	 1.05713631870165E-02 
1034	 1.01646838959321E-02 
1035	 1.02247122985324E-02 
1036	 1.08769591212317E-02 
1037	 1.10793188334858E-02 
1038	 1.13752162386238E-02 
1039	 1.15500190359424E-02 
1040	 1.09551186240731E-02 
1041	 1.07558728916842E-02 
1042	 0.010575085472896 
1043	 1.02334620834274E-02 
1044	 1.03532277633677E-02 
1045	 0.010886159478792 
1046	 1.11155684838208E-02 
1047	 1.16672678640363E-02 
1048	 1.17300094210936E-02 
1049	 1.13094666466345E-02 
1050	 1.11877894836244E-02 
1051	 1.08824598127999E-02 
1052	 1.07889086067137E-02 
1053	 1.09309924037127E-02 
1054	 1.10614198256928E-02 
1055	 1.15318660534993E-02 
1056	 1.15941114702378E-02 
1057	 1.14836939364264E-02 
1058	 1.11770535769236E-02 
1059	 1.10446821139989E-02 
1060	 1.06675923609162E-02 
1061	 1.04817747452067E-02 
1062	 1.04995566508001E-02 
1063	 1.05102304125762E-02 
1064	 1.04234942182293E-02 
1065	 1.04771615608518E-02 
1066	 1.08803472467915E-02 
1067	 1.09634307909859E-02 
1068	 1.09640443330124E-02 
1069	 1.08637563048696E-02 
1070	 1.02650934451939E-02 
1071	 1.01692947909276E-02 
1072	 1.03968092198633E-02 
1073	 1.04565347063395E-02 
1074	 1.06538183601361E-02 
1075	 1.13446976494091E-02 
1076	 1.13129959607998E-02 
1077	 1.08498563176817E-02 
1078	 1.06706948252178E-02 
1079	 1.02172853808218E-02 
1080	 1.01113210681752E-02 
1081	 1.02665528809599E-02 
1082	 1.03451022800493E-02 
1083	 0.01064796312886 
1084	 1.06717216358172E-02 
1085	 1.05673438921858E-02 
1086	 1.05085069902589E-02 
1087	 1.01545663500094E-02 
1088	 1.00278267112388E-02 
1089	 0.010021134875827 
1090	 1.02384094381441E-02 
1091	 1.02167821267741E-02 
1092	 1.01522764054604E-02 
1093	 1.01148736230357E-02 
1094	 1.00187361695914E-02 
1095	 9.91035504013641E-03 
1096	 9.77545411610608E-03 
1097	 9.76906538937249E-03 
1098	 9.87387164728973E-03 
1099	 9.74361797381443E-03 
1100	 9.56644298588068E-03 
1101	 9.46934986049815E-03 
1102	 9.17822418577975E-03 
1103	 8.91392273374295E-03 
1104	 8.55516414855969E-03 
1105	 8.65286338133641E-03 
1106	 8.94117536887833E-03 
1107	 8.69590464610184E-03 
1108	 8.70042733950202E-03 
1109	 9.30440956118131E-03 
1110	 8.89239124261869E-03 
1111	 7.03422281781799E-03 
1112	 6.9163695090582E-03 
1113	 7.40384687080073E-03 
1114	 7.47925209631033E-03 
1115	 9.74991180026302E-03 
1116	 1.00874896696127E-02 
1117	 6.70967178022022E-03 
1118	 5.57850742570087E-03 
1119	 5.47789545980562E-03 
1120	 5.18624589516617E-03 
1121	 8.07549451154502E-03 
1122	 8.78793060959797E-03 
1123	 6.05880274314885E-03 
1124	 3.4116445215594E-03 
1125	 3.38524232992017E-03 
1126	 5.59696424424424E-03 
1127	 9.16467903666712E-03 
1128	 1.01291407176341E-02 
1129	 8.97586484773688E-03 
1130	 4.01978326612483E-03 
1131	 3.5582436361026E-03 
1132	 4.12636243827355E-03 
1133	 3.99581696780173E-03 
1134	 5.03334134168163E-03 
1135	 5.77939364264074E-03 
1136	 5.64466380584698E-03 
1137	 5.6701997795163E-03 
1138	 6.65936017446232E-03 
1139	 6.34447697035312E-03 
1140	 5.83681333573502E-03 
1141	 6.28865341761029E-03 
1142	 5.04654792513037E-03 
1143	 0.004186419065508 
1144	 6.32869766917486E-03 
1145	 7.41726316691393E-03 
1146	 7.81933583940459E-03 
1147	 8.78229776858127E-03 
1148	 6.90546273935977E-03 
1149	 4.15812560632557E-03 
1150	 3.31451623441463E-03 
1151	 3.66373515000274E-03 
1152	 4.1348389064541E-03 
1153	 5.18090806996217E-03 
1154	 5.90485766380085E-03 
1155	 7.0119652402406E-03 
1156	 6.81601920070335E-03 
1157	 6.72528099615451E-03 
1158	 7.13345206922303E-03 
1159	 6.91357080184114E-03 
1160	 7.00472797241875E-03 
1161	 7.61825080924505E-03 
1162	 7.82268837845483E-03 
1163	 7.6983520919604E-03 
1164	 7.79936000018253E-03 
1165	 7.95581881482355E-03 
1166	 8.03254093083266E-03 
1167	 8.23777132994233E-03 
1168	 8.57785156235471E-03 
1169	 8.8721716962318E-03 
1170	 8.66524282172038E-03 
1171	 8.56621936772813E-03 
1172	 8.52592728620671E-03 
1173	 8.46051755740732E-03 
1174	 8.2669888359959E-03 
1175	 8.15792056055746E-03 
1176	 8.24345709106864E-03 
1177	 8.34402069140147E-03 
1178	 8.59283485419645E-03 
1179	 8.85395216826799E-03 
1180	 9.04092854479266E-03 
1181	 8.92798991903907E-03 
1182	 8.64997592011839E-03 
1183	 8.53963382418501E-03 
1184	 8.45183841899541E-03 
1185	 8.39950558720453E-03 
1186	 8.47870995852127E-03 
1187	 8.73473118874335E-03 
1188	 8.94914586762533E-03 
1189	 8.87767911751771E-03 
1190	 8.74300028287024E-03 
1191	 8.68173844027737E-03 
1192	 8.64576239442735E-03 
1193	 8.55959201871648E-03 
1194	 8.68413977706773E-03 
1195	 9.06628700697369E-03 
1196	 9.21656967557184E-03 
1197	 8.99693652575739E-03 
1198	 8.78535108683177E-03 
1199	 8.63627838244282E-03 
1200	 8.59759536885047E-03 
1201	 8.71677667640615E-03 
1202	 8.99129507840634E-03 
1203	 9.25654766644942E-03 
1204	 9.20189156539924E-03 
1205	 9.12369041469368E-03 
1206	 9.08338764822631E-03 
1207	 8.7080330774508E-03 
1208	 8.53426593194695E-03 
1209	 8.77898353365452E-03 
1210	 8.82489726904587E-03 
1211	 8.84861753256318E-03 
1212	 8.98832041565761E-03 
1213	 9.04963151000994E-03 
1214	 9.08395223886737E-03 
1215	 9.23128552795276E-03 
1216	 9.35724166804871E-03 
1217	 9.24380495177194E-03 
1218	 9.09795936291768E-03 
1219	 8.99768910538743E-03 
1220	 9.01508415036235E-03 
1221	 9.25938862634391E-03 
1222	 9.40552962328416E-03 
1223	 9.35168735199724E-03 
1224	 9.49841231406843E-03 
1225	 9.66924352487342E-03 
1226	 9.47787597652489E-03 
1227	 9.23761769262632E-03 
1228	 9.31932046528264E-03 
1229	 9.45927434610965E-03 
1230	 9.41411526778691E-03 
1231	 9.42779330052595E-03 
1232	 9.5926463587611E-03 
1233	 9.5774824916677E-03 
1234	 9.40898602040313E-03 
1235	 9.43123549809467E-03 
1236	 9.75702326476891E-03 
1237	 9.77447602184292E-03 
1238	 9.59892236308086E-03 
1239	 9.64069729578116E-03 
1240	 9.71753836787887E-03 
1241	 9.62333734125513E-03 
1242	 9.52735874885547E-03 
1243	 9.63768764638165E-03 
1244	 9.80884099704114E-03 
1245	 9.76343903503818E-03 
1246	 9.7291200406368E-03 
1247	 9.78836106230059E-03 
1248	 9.7368073131236E-03 
1249	 9.66372641609222E-03 
1250	 9.63345949699878E-03 
1251	 9.63767744117611E-03 
1252	 9.6439732486591E-03 
1253	 9.56357970897095E-03 
1254	 9.55125724056931E-03 
1255	 9.65839117483476E-03 
1256	 9.63818183723626E-03 
1257	 9.47032275890808E-03 
1258	 9.38841818318839E-03 
1259	 9.31965302214656E-03 
1260	 9.28074575540661E-03 
1261	 9.29060975722971E-03 
1262	 9.28126276311446E-03 
1263	 9.32629506580523E-03 
1264	 9.22571733228946E-03 
1265	 9.23097068895642E-03 
1266	 9.31158235765918E-03 
1267	 9.26679722397392E-03 
1268	 9.22742443932401E-03 
1269	 9.18736625221431E-03 
1270	 9.21974593726473E-03 
1271	 9.28348293473785E-03 
1272	 9.18244837382019E-03 
1273	 9.09215139156569E-03 
1274	 9.17518179331285E-03 
1275	 9.28620410854034E-03 
1276	 9.37461880578729E-03 
1277	 9.28793854312817E-03 
1278	 9.08166329721222E-03 
1279	 9.28297090245733E-03 
1280	 9.47765488234724E-03 
1281	 9.36523175600152E-03 
1282	 9.06914901341068E-03 
1283	 9.10388966834253E-03 
1284	 9.06050319554706E-03 
1285	 8.93132107623122E-03 
1286	 9.0290510651762E-03 
1287	 9.12840985534172E-03 
1288	 8.97483892282295E-03 
1289	 8.88625979119075E-03 
1290	 8.99049460940986E-03 
1291	 9.22748292740632E-03 
1292	 9.26032910300997E-03 
1293	 9.07185299236045E-03 
1294	 8.91848852246386E-03 
1295	 8.88453133876519E-03 
1296	 8.87037886731525E-03 
1297	 8.77733992381602E-03 
1298	 8.77117590973506E-03 
1299	 9.03058967887018E-03 
1300	 8.98870862119974E-03 
1301	 8.57943208400041E-03 
1302	 8.6773140323619E-03 
1303	 9.06222779245604E-03 
1304	 8.87643429813459E-03 
1305	 8.52799018219448E-03 
1306	 8.3933987221231E-03 
1307	 8.06237893554226E-03 
1308	 7.93366846370723E-03 
1309	 8.25375035116553E-03 
1310	 8.30708341275024E-03 
1311	 8.16491171666084E-03 
1312	 8.07729342377096E-03 
1313	 8.03225129337896E-03 
1314	 7.91297726160574E-03 
1315	 7.65158092987563E-03 
1316	 7.6316074275564E-03 
1317	 7.7341947783057E-03 
1318	 7.59707554147545E-03 
1319	 7.85242661297674E-03 
1320	 7.65241119013964E-03 
1321	 6.68983718876674E-03 
1322	 5.89578544419771E-03 
1323	 6.48240517295579E-03 
1324	 6.88049435579184E-03 
1325	 7.00977007761964E-03 
1326	 7.58037530351843E-03 
1327	 7.76980349007736E-03 
1328	 6.93155246434883E-03 
1329	 6.49962215113731E-03 
1330	 6.98691647704226E-03 
1331	 6.43196976468597E-03 
1332	 5.60657925944748E-03 
1333	 6.20576166104761E-03 
1334	 6.73414287105492E-03 
1335	 6.63596947325125E-03 
1336	 6.03141716248283E-03 
1337	 5.90021566011174E-03 
1338	 5.52662689397636E-03 
1339	 5.33227724679355E-03 
1340	 5.44646005807713E-03 
1341	 5.81263817958673E-03 
1342	 6.74064053981407E-03 
1343	 6.42432721946825E-03 
1344	 5.18117441097093E-03 
1345	 5.02344294760924E-03 
1346	 3.74622084777226E-03 
1347	 3.10603939386638E-03 
1348	 6.91642430426781E-03 
1349	 8.88603556419145E-03 
1350	 6.13682994109151E-03 
1351	 5.91578636121227E-03 
1352	 9.90376246280723E-03 
1353	 9.48506454691514E-03 
1354	 4.29579626600975E-04 
1355	-4.4221043177618E-04 
1356	 1.05031236780573E-02 
1357	 3.34640731108903E-02 
1358	 6.20134330579867E-02 
1359	 4.59026798890184E-02 
1360	 3.83899751465194E-02 
1361	 2.55572585953209E-02 
1362	-8.60810167604164E-02 
1363	-0.170686448141245 
1364	-0.213306427682858 
1365	-0.322512330452304 
1366	-0.402651319151933 
1367	-0.268931163185596 
1368	-0.135335776007381 
1369	-5.29226617328593E-02 
1370	-8.24160092981202E-02 
1371	-0.074064431730529 
1372	-4.75658645988698E-02 
1373	-0.339513795034867 
1374	-0.400744122872426 
1375	 0.150094097732695 
1376	 0.304151277282389 
1377	 1.08079024080863 
1378	 0.680224619114671 
1379	-9.19865020521212E-04 
1380	-0.141983433711139 
1381	-0.584831769795558 
1382	-0.627580294029244 
1383	-0.41305743239988 
1384	-0.460582603653176 
1385	-0.377338037264875 
1386	-0.225298755392198 
1387	-0.148858696574917 
1388	-0.122229845857899 
1389	 0.129971785010374 
1390	 0.278092334206256 
1391	 0.22861276190447 
1392	 0.144581530408543 
1393	 0.576715650534769 
1394	 0.644795679019705 
1395	 0.247184803906167 
1396	 7.89519074575411E-02 
1397	 9.20055556730942E-03 
1398	-5.25856177932737E-02 
1399	-0.277248554263238 
1400	-0.366871081364684 
1401	-0.214096348663223 
1402	-0.501062525825606 
1403	-0.644184194354222 
1404	-0.399763595754605 
1405	-0.291238662655 
1406	-0.331207095549281 
1407	-0.223105787035355 
1408	 5.63871278863891E-02 
1409	 7.36885648397864E-02 
1410	-0.116535730463303 
1411	-0.121722906133192 
1412	-0.105560201899464 
1413	-0.125818750308456 
1414	-0.103133336241203 
1415	-8.64189227742639E-02 
1416	-0.110191902530802 
1417	-0.105761304154453 
1418	-7.23300962637534E-02 
1419	-7.33980547001827E-02 
1420	-9.39912325046231E-02 
1421	-7.87573288650101E-02 
1422	-5.90192132891664E-02 
1423	-4.93357481937683E-02 
1424	-3.53850291504817E-02 
1425	-2.55742339142357E-02 
1426	-1.76025234227282E-02 
1427	-1.38869893910717E-02 
1428	-1.21661647935823E-02 
1429	-1.00973918392352E-02 
1430	-9.8108999927212E-03 
1431	-8.30676856336251E-03 
1432	-3.45879605407446E-03 
1433	-4.67335916429466E-04 
1434	 1.00685640405418E-03 
1435	 1.65596248869939E-03 
1436	 4.63700524230337E-03 
1437	 3.0232832631248E-04 
1438	-4.82646191702201E-03 
1439	-9.1411449283453E-03 
1440	-6.34911570113386E-03 
1441	 3.61650856854035E-03 
1442	 1.04604106840254E-02 
1443	 9.14940729931826E-03 
1444	-1.2067602441326E-03 
1445	-0.010251338758518 
1446	-8.49551060623479E-03 
1447	-2.7729858400071E-03 
1448	-2.97622288743197E-03 
1449	-6.25918786562829E-04 
1450	 5.75111688170158E-03 
1451	 4.65767559666324E-03 
1452	 2.70678610277417E-03 
1453	 6.06976300751466E-03 
1454	 6.23485440658454E-03 
1455	 2.37601608843481E-03 
1456	 2.76172156366779E-03 
1457	 6.69571415801634E-03 
1458	 6.50356211622378E-03 
1459	 4.33549941888669E-03 
1460	 4.25145779847807E-03 
1461	 4.3278280185127E-03 
1462	 3.28003256213653E-03 
1463	 1.91889157070396E-03 
1464	 2.96896554641444E-03 
1465	 5.1403455778559E-03 
1466	 4.20990811284106E-03 
1467	 3.18368091337523E-03 
1468	 4.14668945801838E-03 
1469	 3.57425262950296E-03 
1470	 1.64430624720994E-03 
1471	 1.07319347628336E-03 
1472	 2.87315281443655E-03 
1473	 3.82827850890712E-03 
1474	 2.64873721350114E-03 
1475	 3.13220758212643E-03 
1476	 4.67607439082465E-03 
1477	 4.57899329107079E-03 
1478	 3.18455987029257E-03 
1479	 2.23423277643278E-03 
1480	 3.78404661804659E-03 
1481	 4.92099258801531E-03 
1482	 4.63701413442665E-03 
1483	 6.18594481706782E-03 
1484	 7.3638132890298E-03 
1485	 6.73076676775606E-03 
1486	 6.01116804757376E-03 
1487	 5.98978006367603E-03 
1488	 6.4191824553357E-03 
1489	 6.29882147137531E-03 
1490	 5.84934813492119E-03 
1491	 5.90346656878568E-03 
1492	 6.24363281498951E-03 
1493	 6.04000113462398E-03 
1494	 5.98370204834345E-03 
1495	 6.4106200693441E-03 
1496	 6.88903118679063E-03 
1497	 7.46206402767712E-03 
1498	 7.42629610995682E-03 
1499	 7.17293859697069E-03 
1500	 7.38803708081853E-03 
1501	 7.44405768122457E-03 
1502	 7.28950266323455E-03 
1503	 7.32516926554291E-03 
1504	 7.57470943475286E-03 
1505	 7.68148560367781E-03 
1506	 7.76979248483167E-03 
1507	 7.86201306621325E-03 
1508	 7.8592815779854E-03 
1509	 7.67499207136933E-03 
1510	 7.45628713120908E-03 
1511	 7.47831441154685E-03 
1512	 7.69013874257623E-03 
1513	 7.88769800830402E-03 
1514	 7.8551105565259E-03 
1515	 7.93763176683763E-03 
1516	 8.04470036235919E-03 
1517	 7.84795069638689E-03 
1518	 7.9030630894034E-03 
1519	 7.9650798901739E-03 
1520	 7.82778269444706E-03 
1521	 7.87465088943928E-03 
1522	 7.79665846507531E-03 
1523	 7.78999470064628E-03 
1524	 8.05990244866553E-03 
1525	 8.23223798418144E-03 
1526	 8.35362620852631E-03 
1527	 8.37232016222143E-03 
1528	 8.23269818354093E-03 
1529	 8.13825004657308E-03 
1530	 8.13800541986351E-03 
1531	 8.16398887935089E-03 
1532	 8.26760465129701E-03 
1533	 8.35564473586651E-03 
1534	 8.19580447249365E-03 
1535	 8.22373277312204E-03 
1536	 8.47019366423849E-03 
1537	 8.31884715275814E-03 
1538	 8.16346190210417E-03 
1539	 8.44914303642195E-03 
1540	 8.56908201742329E-03 
1541	 8.47363034009423E-03 
1542	 8.61644323201238E-03 
1543	 8.70831972296168E-03 
1544	 8.59010552659894E-03 
1545	 8.5357580483117E-03 
1546	 8.70145344251811E-03 
1547	 8.65403485486184E-03 
1548	 8.31505443484674E-03 
1549	 8.36647642275498E-03 
1550	 8.56138931952131E-03 
1551	 8.4651822526826E-03 
1552	 8.41943413569363E-03 
1553	 8.5530705095295E-03 
1554	 8.51277872024955E-03 
1555	 8.34454385902213E-03 
1556	 8.33594769723618E-03 
1557	 8.35546200307229E-03 
1558	 8.43117718763065E-03 
1559	 8.53780426878914E-03 
1560	 8.55509393483708E-03 
1561	 8.55589397923061E-03 
1562	 8.44143630561796E-03 
1563	 8.43184275302967E-03 
1564	 8.56042187046399E-03 
1565	 8.37035716185341E-03 
1566	 8.1843078037132E-03 
1567	 8.26784857096307E-03 
1568	 8.28355624685712E-03 
1569	 8.33728173037454E-03 
1570	 8.43848716713634E-03 
1571	 8.36745770052095E-03 
1572	 8.30653198263671E-03 
1573	 8.45982597862762E-03 
1574	 8.58210454144916E-03 
1575	 8.37655283825314E-03 
1576	 8.24565580707818E-03 
1577	 8.36212102984781E-03 
1578	 8.31911503850493E-03 
1579	 8.34164446457728E-03 
1580	 8.53104085201441E-03 
1581	 8.49024636669142E-03 
1582	 8.50968573597518E-03 
1583	 8.62900212950581E-03 
1584	 8.4676469214825E-03 
1585	 8.48960482862014E-03 
1586	 8.73870268907828E-03 
1587	 8.64903630971149E-03 
1588	 8.49998507477002E-03 
1589	 8.63190331922546E-03 
1590	 8.66027392918058E-03 
1591	 8.61518208214017E-03 
1592	 8.79683148717323E-03 
1593	 8.81349952802331E-03 
1594	 8.47065016846305E-03 
1595	 8.36153118818937E-03 
1596	 8.62158543803841E-03 
1597	 8.59614050487533E-03 
1598	 8.41187134612655E-03 
1599	 8.4409512329027E-03 
1600	 8.45239197921116E-03 
1601	 8.5900234253016E-03 
1602	 8.71045317385401E-03 
1603	 8.61596858083003E-03 
1604	 8.63445659626341E-03 
1605	 8.61336844347299E-03 
1606	 8.48527649620121E-03 
1607	 8.61936489042221E-03 
1608	 8.90807764933861E-03 
1609	 8.79721151503337E-03 
1610	 8.48158634078896E-03 
1611	 8.45380626761394E-03 
1612	 8.45758224150141E-03 
1613	 8.39203310842598E-03 
1614	 8.53059925415687E-03 
1615	 8.79870957957681E-03 
1616	 8.76188586831038E-03 
1617	 8.72674841566547E-03 
1618	 8.92380390515145E-03 
1619	 8.87173800882612E-03 
1620	 8.68929101064794E-03 
1621	 8.50972363048101E-03 
1622	 8.47386824447398E-03 
1623	 8.6606672780338E-03 
1624	 8.78004599816426E-03 
1625	 8.81742548613593E-03 
1626	 8.92144568378831E-03 
1627	 9.07304410516171E-03 
1628	 8.94590613014321E-03 
1629	 8.70753092863388E-03 
1630	 8.68750269659244E-03 
1631	 8.65282556464026E-03 
1632	 8.59608129097335E-03 
1633	 8.56146612733927E-03 
1634	 8.52022720159987E-03 
1635	 8.48224798005034E-03 
1636	 8.43157184546063E-03 
1637	 8.48632566170056E-03 
1638	 8.54071191815888E-03 
1639	 8.52300599662967E-03 
1640	 8.41929595877181E-03 
1641	 8.28700714699642E-03 
1642	 8.40570800707393E-03 
1643	 8.54441586326261E-03 
1644	 8.36253189834059E-03 
1645	 8.28341597976926E-03 
1646	 8.51343549061065E-03 
1647	 8.63601042788005E-03 
1648	 8.57870707239044E-03 
1649	 8.4622348956697E-03 
1650	 8.4290257692241E-03 
1651	 8.54906819331696E-03 
1652	 8.50004263690633E-03 
1653	 8.5869922162793E-03 
1654	 8.58673992208759E-03 
1655	 8.00567544765557E-03 
1656	 8.00737835967683E-03 
1657	 8.65061629996227E-03 
1658	 8.71002001416222E-03 
1659	 8.53827097818329E-03 
1660	 8.5728593782793E-03 
1661	 8.52420896072377E-03 
1662	 8.48904207170537E-03 
1663	 8.70165672473212E-03 
1664	 8.65674950632091E-03 
1665	 8.1948842395271E-03 
1666	 8.14988640377201E-03 
1667	 8.33149463902269E-03 
1668	 8.47185094168595E-03 
1669	 8.58995441587723E-03 
1670	 8.47530869389475E-03 
1671	 8.38150932812047E-03 
1672	 8.47734623259566E-03 
1673	 8.54922232285913E-03 
1674	 8.61289033723133E-03 
1675	 8.56802942958975E-03 
1676	 8.40726335598404E-03 
1677	 8.49597051774764E-03 
1678	 8.5071074946992E-03 
1679	 8.44423925090015E-03 
1680	 8.69045641274453E-03 
1681	 8.62826908521891E-03 
1682	 8.3579192541924E-03 
1683	 8.32816443857591E-03 
1684	 8.4038210518706E-03 
1685	 8.48804727531107E-03 
1686	 8.29005088658157E-03 
1687	 8.20670732351514E-03 
1688	 0.008357126541963 
1689	 8.27041009069811E-03 
1690	 8.19490346148514E-03 
1691	 8.2484169750462E-03 
1692	 8.27215220926653E-03 
1693	 8.30803631900036E-03 
1694	 8.52210186774032E-03 
1695	 8.42663383697945E-03 
1696	 7.89319799727138E-03 
1697	 8.03271929644687E-03 
1698	 8.28146935994231E-03 
1699	 7.95717764477613E-03 
1700	 8.08943223186002E-03 
1701	 8.08570358698779E-03 
1702	 7.68831669211186E-03 
1703	 8.07029588367747E-03 
1704	 8.48659760033271E-03 
1705	 8.09512501440142E-03 
1706	 7.91771224457294E-03 
1707	 8.24759329625194E-03 
1708	 8.08499264809535E-03 
1709	 7.91288481281034E-03 
1710	 8.16635616455827E-03 
1711	 7.99122715425717E-03 
1712	 7.92902946456241E-03 
1713	 8.10415595496982E-03 
1714	 8.16385852631641E-03 
1715	 8.25348267073148E-03 
1716	 8.22864198513913E-03 
1717	 8.32612990632907E-03 
1718	 8.07112214424967E-03 
1719	 8.08301879703998E-03 
1720	 8.32518574381293E-03 
1721	 8.10838836349622E-03 
1722	 8.11508589778888E-03 
1723	 8.46867211235204E-03 
1724	 8.60032498622988E-03 
1725	 8.84608620118606E-03 
1726	 9.01151760301059E-03 
1727	 8.76746320600321E-03 
1728	 8.30864994376385E-03 
1729	 8.00084120990139E-03 
1730	 8.31325808890527E-03 
1731	 8.37661436476889E-03 
1732	 7.97335021283538E-03 
1733	 7.93307620879864E-03 
1734	 7.62599286311765E-03 
1735	 7.47262831754679E-03 
1736	 8.27403546848958E-03 
1737	 8.64005501680725E-03 
1738	 8.11090910119712E-03 
1739	 7.8717914623926E-03 
1740	 8.26670244974032E-03 
1741	 8.32377433239574E-03 
1742	 7.91340543649692E-03 
1743	 7.92534650093886E-03 
1744	 7.69905696038243E-03 
1745	 7.16960769687526E-03 
1746	 7.28709137793835E-03 
1747	 7.36962481098585E-03 
1748	 7.14207978704346E-03 
1749	 7.03227901754675E-03 
1750	 7.3853111435084E-03 
1751	 7.49663470971216E-03 
1752	 7.20536053551608E-03 
1753	 6.94483035274956E-03 
1754	 6.83761512095857E-03 
1755	 6.93242272697976E-03 
1756	 6.74404177673116E-03 
1757	 6.67818114241226E-03 
1758	 7.12661049916123E-03 
1759	 7.33170119197003E-03 
1760	 7.82400057317578E-03 
1761	 7.68836787400874E-03 
1762	 7.00241799898364E-03 
1763	 6.52146398825235E-03 
1764	 0.006198470277022 
1765	 6.92619982787687E-03 
1766	 7.11977989196101E-03 
1767	 6.34723109455378E-03 
1768	 6.12932221412335E-03 
1769	 5.94868489761126E-03 
1770	 6.2590216225446E-03 
1771	 7.26484098648151E-03 
1772	 7.26515930017394E-03 
1773	 6.13573289032904E-03 
1774	 5.03719700361095E-03 
1775	 4.20364400338886E-03 
1776	 4.35190439509155E-03 
1777	 7.30543909152435E-03 
1778	 8.13330191296427E-03 
1779	 7.83459600965864E-03 
1780	 7.10690105436743E-03 
1781	 3.77333355455825E-03 
1782	 3.28239280212464E-03 
1783	 5.08466979649414E-03 
1784	 5.21990446900992E-03 
1785	 6.05283001572003E-03 
1786	 5.60031020401227E-03 
1787	 2.65768886357511E-03 
1788	 2.37431817716491E-03 
1789	 4.3770807481347E-03 
1790	 4.35580931357823E-03 
1791	 2.00296265413345E-03 
1792	 2.33328610088512E-03 
1793	 1.30267098860377E-03 
1794	 2.16740963302636E-03 
1795	 8.28742103074535E-03 
1796	 4.99639289230304E-03 
1797	 2.3226607063815E-04 
1798	 3.1240212343039E-03 
1799	-4.25362945398266E-03 
1800	-2.82164457050934E-03 
1801	-2.84361145102239E-03 
1802	-1.30522656442634E-02 
1803	-1.65412758041741E-02 
1804	-5.11169827667747E-03 
1805	-8.64142505470766E-03 
1806	-3.35950127980705E-02 
1807	-3.26570836582134E-02 
1808	-1.36013974432156E-02 
1809	-1.34156511211295E-02 
1810	 3.03885987327117E-02 
1811	 7.98558184714184E-02 
1812	 6.21473926296121E-02 
1813	 5.75136921647618E-02 
1814	 0.137595842559477 
1815	 0.156282876570418 
1816	-2.70196740364445E-02 
1817	 0.149196393823924 
1818	 0.123372861077766 
1819	 5.00998773668179E-03 
1820	-0.169359253353355 
1821	-0.28912816785619 
1822	-0.34563940207301 
1823	-0.338872598477753 
1824	-0.268219087773635 
1825	 0.366687153732381 
1826	 0.28356177658464 
1827	-0.293391269513983 
1828	-0.426999988910808 
1829	-0.805180088285926 
1830	-0.894300155879721 
1831	 1.72342543239021 
1832	-29.8988512002663 
1833	 0.275361248385752 
1834	 0.269047056534509 
1835	 0.53757968395497 
1836	 1.03981059747377 
1837	 0.356990381017525 
1838	 0.481425895591932 
1839	 0.725048579098016 
1840	 0.549718666994226 
1841	 0.120243063449716 
1842	 0.167916382561941 
1843	 0.148494423869966 
1844	 0.163079377340369 
1845	 6.92383802714899E-02 
1846	 0.114350392384375 
1847	 2.26431127104203E-02 
1848	-0.600617384526212 
1849	-1.37327901006153 
1850	-1.4403216674852 
1851	-0.324252032580991 
1852	 2.21753524286389E-02 
1853	-4.54280995824754E-03 
1854	 4.38079145203956E-02 
1855	-0.324948750697147 
1856	-0.475923988418427 
1857	-0.520536527783363 
1858	-1.31821569402679 
1859	 1.25025449295001 
1860	 0.708885041981109 
1861	 0.606908522028941 
1862	 0.078475083119535 
1863	-0.250468777281943 
1864	-12.7994220899571 
1865	 3.30135283122916 
1866	-2.49903075402832 
1867	-1.18689043114455 
1868	-0.700942146071745 
1869	 1.22557046733441 
1870	 0.947608093379373 
1871	 2.04621803660493 
1872	 0.297293536315109 
1873	 12.1983396919776 
1874	-0.324226726775537 
1875	-0.787675429249555 
1876	-0.690004876775106 
1877	-0.187527868179194 
1878	-3.42881732339661E-02 
1879	-1.17478123696705 
1880	-0.999826925831987 
1881	-1.19224755159404 
1882	-1.63628273579928 
1883	-3.22054622918379 
1884	-1.71559972695227 
1885	-0.209498458982697 
1886	 0.571224266286356 
1887	-4.50396105208437 
1888	-0.756819182686309 
1889	-0.294087136710064 
1890	 0.10413624050946 
1891	 0.264117845715145 
1892	 3.46388023149506 
1893	 0.968540343930134 
1894	-0.131212380691095 
1895	-0.239154774479334 
1896	-0.522752798709421 
1897	-6.72052663036066 
1898	-1.80986645486442 
1899	 48.1967925826142 
1900	 4.38244733595486 
1901	-0.126044388186097 
1902	-3.79924982841775E-02 
1903	-5.31858350751207E-03 
1904	-0.197832909086273 
1905	 0.283639178885232 
1906	 0.436731502319352 
1907	 9.69808800945899E-02 
1908	-7.38247292603616E-02 
1909	 0.873246137867051 
1910	 16.7526014014934 
1911	-3.0787011620803 
1912	-1.96058991542416 
1913	-1.52070830267834 
1914	-1.00001885803448 
1915	-1.06014412487939 
1916	-1.21747370812156 
1917	-1.4952811175335 
1918	-0.766213225456264 
1919	-0.717123448823898 
1920	-0.976512091309049 
1921	-0.276674447418182 
1922	-7.38716225116245E-03 
1923	 0.212937366338373 
1924	 0.810719749501153 
1925	 0.754038470724443 
1926	 1.35511919855496 
1927	 2.39978127897004 
1928	-2.30071701474564 
1929	-1.38875962976913 
1930	-1.19701049647016 
1931	-0.886604079530533 
1932	-1.54844136517933E-02 
1933	 0.904552782593996 
1934	 0.637736701877446 
1935	 0.481033198940198 
1936	-0.134760823926752 
1937	-0.591256020252023 
1938	-0.654934460124227 
1939	-0.632947415949569 
1940	-0.515066016540836 
1941	-0.372924404133753 
1942	-0.23613351985104 
1943	-0.175261336860438 
1944	-0.141550886111234 
1945	-0.133005265874637 
1946	-0.10761406644037 
1947	-7.24106704271609E-02 
1948	-7.09265053923246E-02 
1949	-6.45997381252826E-02 
1950	-5.82332934368194E-02 
1951	-0.102553348243395 
1952	-0.100208997999427 
1953	-7.85090159510559E-02 
1954	-2.63575759091001E-02 
1955	-2.41298091705623E-02 
1956	-8.95834686597317E-03 
1957	 2.78926439331791E-03 
1958	-6.32406264596303E-03 
1959	-7.30149552006537E-03 
1960	-5.65406589223944E-03 
1961	-4.92267522687796E-03 
1962	-7.98667360710098E-04 
1963	 3.8525654084361E-03 
1964	 6.86206857108283E-03 
1965	 7.27117161348534E-03 
1966	 7.51271134739733E-03 
1967	 6.68984307906789E-03 
1968	 7.36328402539571E-03 
1969	 6.93605123761062E-03 
1970	 6.00252891127183E-03 
1971	 6.67330840905752E-03 
1972	 7.07965977711291E-03 
1973	 6.25141747999212E-03 
1974	 6.26822011746017E-03 
1975	 6.77244812863516E-03 
1976	 5.65341618693445E-03 
1977	 4.63683329299228E-03 
1978	 4.65258050024241E-03 
1979	 4.63019269625422E-03 
1980	 3.75223813517748E-03 
1981	 4.09018866034419E-03 
1982	 6.08368120811031E-03 
1983	 6.50212085058566E-03 
1984	 5.45327688048431E-03 
1985	 4.66565264722719E-03 
1986	 3.99830364699351E-03 
1987	 3.52026974189417E-03 
1988	 4.2885688063303E-03 
1989	 4.93770063166941E-03 
1990	 4.32712069031826E-03 
1991	 5.40819775266658E-03 
1992	 6.48802771179551E-03 
1993	 5.35619029975665E-03 
1994	 5.55008393591782E-03 
1995	 6.66977662651644E-03 
1996	 6.74728701819631E-03 
1997	 5.55497296229614E-03 
1998	 5.99728318666547E-03 
1999	 5.35269957267667E-03 
2000	 4.18680379545989E-03 
2001	 4.28510140444446E-03 
2002	 8.30772756236903E-03 
2003	 9.51494799426676E-03 
2004	 5.65948929827085E-03 
2005	 7.33814629704175E-03 
2006	 6.58975548364223E-03 
2007	 4.69843264626994E-03 
2008	 5.99586508121366E-03 
2009	 5.75961852901105E-03 
2010	 1.45034239354896E-03 
2011	 7.94986011126657E-04 
2012	 2.37185033191037E-03 
2013	 3.93484767897399E-03 
2014	 3.81353659313231E-03 
2015	 3.35312179873477E-03 
2016	 4.81046881830448E-03 
2017	 4.72937730802917E-03 
2018	 4.9977840750683E-03 
2019	 7.51758988126497E-03 
2020	 7.56399831162048E-03 
2021	 6.17957608758091E-03 
2022	 5.75144246059295E-03 
2023	 5.11664545056845E-03 
2024	 5.06326813925123E-03 
2025	 5.54423353703258E-03 
2026	 5.68641617855833E-03 
2027	 6.33372688686318E-03 
2028	 6.01171819090448E-03 
2029	 4.5048513212607E-03 
2030	 5.1015240652801E-03 
2031	 6.32661650337795E-03 
2032	 6.24936956716726E-03 
2033	 6.90168030431602E-03 
2034	 7.27283175953506E-03 
2035	 6.69390751682953E-03 
2036	 6.51826611758225E-03 
2037	 6.80067107779829E-03 
2038	 7.2624801778553E-03 
2039	 7.32721824239499E-03 
2040	 7.22504374317502E-03 
2041	 7.20689659006275E-03 
2042	 6.80555351504582E-03 
2043	 6.68860948830375E-03 
2044	 6.7873616882483E-03 
2045	 6.92740088925402E-03 
2046	 6.84861215506954E-03 
2047	 6.65583845964763E-03 
2048	 5.97544150249252E-03 
2049	 5.25038044851621E-03 
2050	 5.26948746004169E-03 
2051	 5.32085275705849E-03 
2052	 4.78587027647046E-03 
2053	 4.95362448865004E-03 
2054	 5.60516859888322E-03 
2055	 5.5077117077593E-03 
2056	 5.64438318553348E-03 
2057	 6.26225044162501E-03 
2058	 6.69841360701118E-03 
2059	 7.01974941179737E-03 
2060	 7.21504823736811E-03 
2061	 7.39962114455521E-03 
2062	 7.71375698153368E-03 
2063	 7.72124147994591E-03 
2064	 7.2781691297274E-03 
2065	 6.94596424684057E-03 
2066	 6.50044230079218E-03 
2067	 7.1808030827014E-03 
2068	 6.79381102027585E-03 
2069	 5.57772143007393E-03 
2070	 6.66218858512687E-03 
2071	 7.12240870284646E-03 
2072	 6.3665347130918E-03 
2073	 6.44169547107512E-03 
2074	 7.64856050148468E-03 
2075	 7.52319901961959E-03 
2076	 6.59459572269291E-03 
2077	 6.66918265125791E-03 
2078	 6.77800375961477E-03 
2079	 6.53318879760838E-03 
2080	 6.23021812157398E-03 
2081	 6.63924492307264E-03 
2082	 6.68717435031364E-03 
2083	 6.60099985243436E-03 
2084	 6.33210873663595E-03 
2085	 6.27934877877902E-03 
2086	 5.69556546311147E-03 
2087	 5.0919734303315E-03 
2088	 6.05178067775133E-03 
2089	 6.57931716574663E-03 
2090	 6.27206646596474E-03 
2091	 6.33999440896439E-03 
2092	 6.5315014146044E-03 
2093	 6.32538471250707E-03 
2094	 6.27267889024977E-03 
2095	 7.04831057669116E-03 
2096	 7.14425431689397E-03 
2097	 6.39505848673634E-03 
2098	 6.18466999336199E-03 
2099	 6.20819492770558E-03 
2100	 5.79817086263022E-03 
2101	 5.84523964724554E-03 
2102	 6.35017379304157E-03 
2103	 6.6026451395474E-03 
2104	 7.11574764281668E-03 
2105	 7.11574319234129E-03 
2106	 6.52255450499341E-03 
2107	 6.40108084457488E-03 
2108	 6.27535204209327E-03 
2109	 6.4207011191102E-03 
2110	 6.78890942172546E-03 
2111	 6.81970253398583E-03 
2112	 6.82455908460145E-03 
2113	 6.6246037363648E-03 
2114	 5.9599556554325E-03 
2115	 6.09128147899515E-03 
2116	 6.43385541124785E-03 
2117	 6.69371329790681E-03 
2118	 7.69909328924755E-03 
2119	 8.10319393267394E-03 
2120	 7.99147364403821E-03 
2121	 8.20457149935507E-03 
2122	 8.11873174508571E-03 
2123	 8.01900697622043E-03 
2124	 8.12157642485025E-03 
2125	 7.53060038763755E-03 
2126	 7.23014813224035E-03 
2127	 7.65450696166983E-03 
2128	 7.42038631503531E-03 
2129	 7.44882302034754E-03 
2130	 8.00776540263117E-03 
2131	 7.64490695066768E-03 
2132	 7.28374927081859E-03 
2133	 7.3343711955649E-03 
2134	 7.38156280961194E-03 
2135	 7.32533204215234E-03 
2136	 7.15777766755753E-03 
2137	 7.18970036496556E-03 
2138	 7.12721691378683E-03 
2139	 6.64900867408865E-03 
2140	 6.67116798198828E-03 
2141	 7.27464952349545E-03 
2142	 7.39248793959952E-03 
2143	 7.48397137071003E-03 
2144	 7.10445183394685E-03 
2145	 7.10676739400865E-03 
2146	 7.29373067506646E-03 
2147	 7.17106613881127E-03 
2148	 7.4840388313472E-03 
2149	 7.59422533085122E-03 
2150	 7.09471936370572E-03 
2151	 7.05609932924611E-03 
2152	 7.47342668349578E-03 
2153	 7.44344220891491E-03 
2154	 7.19028666736458E-03 
2155	 7.23436070770446E-03 
2156	 6.41628702490794E-03 
2157	 6.25342671908707E-03 
2158	 6.7983790871878E-03 
2159	 6.4431942415155E-03 
2160	 5.57991617875069E-03 
2161	 5.5385501683141E-03 
2162	 5.10181883923516E-03 
2163	 5.18976920864339E-03 
2164	 6.44017806511349E-03 
2165	 6.9689875809748E-03 
2166	 6.95666460831608E-03 
2167	 7.36911559999389E-03 
2168	 8.59647387920693E-03 
2169	 8.71634607996145E-03 
2170	 8.35809352825307E-03 
2171	 7.86314190101051E-03 
2172	 6.61012056229207E-03 
2173	 5.86540479402255E-03 
2174	 7.72961190940934E-03 
2175	 8.75114113557463E-03 
2176	 8.82582035905694E-03 
2177	 9.14307096857873E-03 
2178	 7.99224063524046E-03 
2179	 7.59142122083919E-03 
2180	 7.95661946817065E-03 
2181	 7.55274599008984E-03 
2182	 7.41328294124094E-03 
2183	 7.26217784189501E-03 
2184	 6.64713668644106E-03 
2185	 6.47076868742596E-03 
2186	 6.97759390378846E-03 
2187	 8.37791590598477E-03 
2188	 7.82422100558469E-03 
2189	 7.06309261619529E-03 
2190	 6.53098551681214E-03 
2191	 3.4413180678725E-03 
2192	 2.77985011725407E-03 
2193	 0.005133904057842 
2194	 5.50112403882164E-03 
2195	 4.31211206721921E-03 
2196	 5.14612641295607E-03 
2197	 7.51505746268428E-03 
2198	 8.17435058032424E-03 
2199	 9.1554313884781E-03 
2200	 1.06138384356628E-02 
2201	 8.82438781874136E-03 
2202	 6.93593551098321E-03 
2203	 6.96977044026361E-03 
2204	 6.21819217970622E-03 
2205	 5.43383104849278E-03 
2206	 4.85504100453961E-03 
2207	 4.79938510464773E-03 
2208	 5.3167256613752E-03 
2209	 5.86343785541165E-03 
2210	 5.47955746784983E-03 
2211	 4.15026671399785E-03 
2212	 4.77297768815078E-03 
2213	 5.22875585990125E-03 
2214	 5.39473349184297E-03 
2215	 7.71937263616683E-03 
2216	 8.83190419376034E-03 
2217	 8.79667350679568E-03 
2218	 9.00376682102344E-03 
2219	 8.14861704038061E-03 
2220	 3.77810143879655E-03 
2221	 3.40948671060217E-03 
2222	 5.44116719116864E-03 
2223	 6.25519751864904E-03 
2224	 9.43655495366435E-03 
2225	 9.5815353933377E-03 
2226	 6.21095108697274E-03 
2227	 5.40743822655109E-03 
2228	 4.21623747877881E-03 
2229	 3.71600748854872E-03 
2230	 5.78960099820554E-03 
2231	 6.25405468977663E-03 
2232	 5.7169091494234E-03 
2233	 6.01577248804484E-03 
2234	 6.17732131269754E-03 
2235	 6.17466303182535E-03 
2236	 7.61107452223058E-03 
2237	 7.9311472379442E-03 
2238	 7.93428241531304E-03 
2239	 8.75749101487711E-03 
2240	 8.49548142945989E-03 
2241	 7.06300759010053E-03 
2242	 6.52887865090941E-03 
2243	 4.65544002844964E-03 
2244	 2.04592430528909E-03 
2245	 3.49264127163392E-03 
2246	 5.15199157011402E-03 
2247	 5.38266928862285E-03 
2248	 6.13773462167396E-03 
2249	 4.23041550121885E-03 
2250	 2.08463688415958E-04 
2251	-8.63518531900559E-04 
2252	 7.12083914288933E-04 
2253	 2.25481789393911E-03 
2254	 5.47642349891176E-03 
2255	 7.74521301746678E-03 
2256	 8.42085297027891E-03 
2257	 9.10477580469063E-03 
2258	 7.61059652327419E-03 
2259	 7.58715884432637E-03 
2260	 7.56416716748604E-03 
2261	 6.76489034073884E-03 
2262	 6.33567732859693E-03 
2263	 6.94809406116256E-03 
2264	 6.65351009321221E-03 
2265	 6.40418552420312E-03 
2266	 6.06474661084956E-03 
2267	 4.6358056408489E-03 
2268	 5.09913596838774E-03 
2269	 6.65320363574746E-03 
2270	 6.44453695269239E-03 
2271	 6.68985719743486E-03 
2272	 6.49668071936528E-03 
2273	 3.8359876854703E-03 
2274	 3.5028256641203E-03 
2275	 6.7454294025884E-03 
2276	 6.63774811890288E-03 
2277	 4.38765056053549E-03 
2278	 3.79351795461116E-03 
2279	 1.66544874364828E-03 
2280	 8.30408415908018E-04 
2281	 2.11253976288333E-03 
2282	 2.80235918557591E-03 
2283	 2.85626450453328E-03 
2284	 3.36138738310829E-03 
2285	 3.57975025814245E-03 
2286	 3.55919715718332E-03 
2287	 3.95483446794808E-03 
2288	 3.5596784971857E-03 
2289	 3.5530958683739E-03 
2290	 5.13622576838084E-03 
2291	 5.24001350501171E-03 
2292	 4.07450862468947E-03 
2293	 2.28789428683815E-03 
2294	 1.61070826950607E-03 
2295	 1.5660033630441E-03 
2296	 2.25030717360115E-03 
2297	 6.50930710417787E-03 
2298	 7.71210289809057E-03 
2299	 4.69622989002072E-03 
2300	 4.88981120383112E-03 
2301	 6.5931765960406E-03 
2302	 8.27642729897619E-03 
2303	 1.24664792703686E-02 
2304	 1.41811631385209E-02 
2305	 1.07370062097143E-02 
2306	 7.65344854330034E-03 
2307	 7.62305076395767E-03 
2308	 7.49979485750566E-03 
2309	 4.73954165172453E-03 
2310	 2.83063991924021E-03 
2311	 2.93422923782925E-03 
2312	 1.6438719290457E-03 
2313	 1.90441257448847E-03 
2314	 4.28180610280204E-03 
2315	 4.45450737569353E-03 
2316	 4.88621453623704E-03 
2317	 5.62624991346299E-03 
2318	 5.4307282380489E-03 
2319	 5.29595115286442E-03 
2320	 4.37034681339044E-03 
2321	 6.19246678631871E-03 
2322	 9.59165804394198E-03 
2323	 6.04564406308877E-03 
2324	 1.77737131810022E-03 
2325	 4.69631847138965E-03 
2326	 6.59879500907253E-03 
2327	 9.48842252385445E-03 
2328	 1.23912764872214E-02 
2329	 5.86760922595737E-03 
2330	 2.61355010823147E-04 
2331	 2.87374015319633E-03 
2332	 5.91470495504046E-03 
2333	 8.54363933903412E-03 
2334	 9.39694845342266E-03 
2335	 4.4260597116743E-03 
2336	-1.17777981740248E-04 
2337	 2.66839149681286E-03 
2338	 7.05561253303372E-03 
2339	 8.5754786915142E-03 
2340	 1.21335893179134E-02 
2341	 8.91745762204033E-03 
2342	 3.48080339708842E-03 
2343	 7.23242481588033E-03 
2344	 5.52364735058235E-03 
2345	 4.74191876570717E-03 
2346	 7.62086027840036E-03 
2347	 3.40080721684885E-03 
2348	 4.95521691692307E-03 
2349	 1.10287354928321E-02 
2350	 1.30910323673827E-02 
2351	 9.41808068901795E-03 
2352	-1.57905951847316E-03 
2353	-0.011234471464901 
2354	-1.47437791788137E-02 
2355	-1.02562036657352E-02 
2356	-2.20924913171056E-03 
2357	-1.3335025867827E-05 
2358	-1.21152359230599E-03 
2359	-3.70379782293192E-03 
2360	-8.16706882330135E-03 
2361	-7.50328287136952E-03 
2362	 6.52395397086576E-04 
2363	 1.86083345633003E-03 
2364	 1.77764737580417E-03 
2365	 8.25782495367553E-03 
2366	 0.00728321581298 
2367	 1.13073412081508E-02 
2368	 2.11907279686838E-02 
2369	 1.17570385955301E-02 
2370	 8.50070124501145E-04 
2371	-9.42743575533266E-04 
2372	-4.71279422644776E-03 
2373	-3.86154892132128E-03 
2374	-1.05752134975194E-02 
2375	-2.28356360179302E-02 
2376	-2.90532507116138E-02 
2377	-4.15560531180469E-02 
2378	-3.86646831833972E-02 
2379	-1.20186605227733E-02 
2380	-8.48246725619114E-03 
2381	-2.39739344348158E-02 
2382	-2.16981047629579E-02 
2383	-0.027199024448498 
2384	-5.21254345496481E-02 
2385	-4.27066438144952E-02 
2386	-1.60097765560755E-02 
2387	-2.48703212219768E-02 
2388	-2.85758076336757E-02 
2389	-0.013733174895097 
2390	-1.85107719196105E-02 
2391	-1.52572948650909E-02 
2392	-2.61781144690652E-03 
2393	-6.15580534826841E-03 
2394	-7.08334910657942E-03 
2395	-1.14733739125911E-02 
2396	-2.17174122582963E-02 
2397	-2.95608214679976E-02 
2398	-4.91540456233924E-02 
2399	-8.12257450363979E-02 
2400	-9.89930308052781E-02 
2401	-0.107867514200226 
2402	-9.06356743503816E-02 
2403	-5.72522005197701E-02 
2404	-5.59978171702088E-02 
2405	-5.22776471859846E-03 
2406	 3.42750875037655E-02 
2407	 1.27863902141598E-03 
2408	 0.036771428487048 
2409	 4.62788657059525E-02 
2410	-3.27158877583473E-02 
2411	-5.80307511054157E-02 
2412	-5.88677524910569E-02 
2413	-6.86654363357677E-02 
2414	-2.83082973644272E-02 
2415	 5.40483896307834E-02 
2416	 9.87708167417227E-02 
2417	 3.27502565132159E-02 
2418	 8.70148168296139E-03 
2419	-0.046022143997524 
2420	-0.137501349369675 
2421	-7.99174194536742E-02 
2422	-7.21396068611503E-02 
2423	-1.86653227573009E-02 
2424	 6.96308558117229E-02 
2425	 2.35375094410621E-02 
2426	-7.11029634455176E-03 
2427	-3.48274448506312E-02 
2428	-9.61741601014101E-02 
2429	-8.41985783373932E-02 
2430	-0.05421408555102 
2431	-0.128677757441884 
2432	-0.129598138147274 
2433	 0.036652358436865 
2434	 5.91137600795023E-02 
2435	 0.203290606478202 
2436	 0.360078204151835 
2437	 0.125923905280966 
2438	 4.59962803459651E-02 
2439	 7.24905991215162E-02 
2440	-6.96419131495443E-02 
2441	-0.140206856293175 
2442	-8.15206932592595E-02 
2443	-0.133815725174494 
2444	-0.203776828063026 
2445	-5.30197072786428E-02 
2446	-0.179132520225508 
2447	-0.154124394307098 
2448	-0.125215773523159 
2449	-0.448029446162747 
2450	-0.60547551661012 
2451	-1.11662619239297 
2452	-2.07562676989736 
2453	-1.31661488493821 
2454	-0.636903917863408 
2455	-0.156758209630467 
2456	 0.158171729848502 
2457	 0.282576030561379 
2458	-0.137718329688049 
2459	-0.465258138808193 
2460	-5.72943645499738E-02 
2461	 0.224391066035203 
2462	 0.429017767630644 
2463	 0.478171350544802 
2464	 0.10470942721807 
2465	-0.550522928391445 
2466	-1.79633395173677 
2467	-14.7046224179593 
2468	-2.04246706836448 
2469	-1.14065568781177 
2470	-1.60748534959514 
2471	 60.4858500606043 
2472	 1.77478821108898 
2473	 0.753749233826554 
2474	 1.94322990305494 
2475	 8.53565801807788 
2476	 3.65322495177964 
2477	 1.92468433754395 
2478	 4.05287438205288 
2479	 14.7828670127226 
2480	 3.59842853700594 
2481	-20.5506062644813 
2482	 0.368601817630598 
2483	-0.612561401509258 
2484	-1.19534585572899 
2485	 1.0442827619659 
2486	-0.825171080759032 
2487	-1.40126895419855 
2488	-1.34455801267067 
2489	 0.356051831005282 
2490	 1.06683207178548 
2491	 0.392254348676348 
2492	 0.279030432907635 
2493	-7.79993629603786E-02 
2494	-0.561736692683944 
2495	 0.478092380496985 
2496	 0.271766750638895 
2497	 0.350156716603221 
2498	 0.579833354476734 
2499	 0.408692847241661 
2500	 0.703186761391081 
