Wavelength	rt0713west_far_sunny_200002.asd
350	 0.057421784132235 
351	 5.68698946172086E-02 
352	 5.63669395755484E-02 
353	 5.64290341241413E-02 
354	 5.68541329847321E-02 
355	 0.056149994096539 
356	 5.57545970845547E-02 
357	 5.57689410971005E-02 
358	 5.58341839374298E-02 
359	 5.55881425715466E-02 
360	 5.54620905752213E-02 
361	 5.54048411989762E-02 
362	 5.50751796103116E-02 
363	 5.48706505622437E-02 
364	 5.47613563601866E-02 
365	 5.46501780602972E-02 
366	 5.44153459727361E-02 
367	 5.45420719405579E-02 
368	 0.054535533339469 
369	 5.40703972134962E-02 
370	 5.43426179087281E-02 
371	 5.45830414207902E-02 
372	 5.43978727776688E-02 
373	 5.37977346257168E-02 
374	 5.39897946087208E-02 
375	 5.42175818251279E-02 
376	 5.40275619537556E-02 
377	 5.36812870996283E-02 
378	 5.36046520573519E-02 
379	 5.37026996698099E-02 
380	 5.38478800587899E-02 
381	 5.43483740832163E-02 
382	 5.42680606663957E-02 
383	 5.39794180073261E-02 
384	 5.43004008969493E-02 
385	 5.42738950722333E-02 
386	 5.41828021182823E-02 
387	 5.42088245278283E-02 
388	 5.42944880598427E-02 
389	 5.39628474826133E-02 
390	 5.37180602892357E-02 
391	 5.39742796851677E-02 
392	 5.45397667415811E-02 
393	 0.054778231473136 
394	 5.46739964220268E-02 
395	 5.45124846428691E-02 
396	 5.46028495594857E-02 
397	 0.054694709709609 
398	 5.47081598181082E-02 
399	 5.47364859738344E-02 
400	 5.46822486835104E-02 
401	 5.46343439137939E-02 
402	 5.46626425716591E-02 
403	 5.47432105377567E-02 
404	 5.48483774819912E-02 
405	 5.48766224799193E-02 
406	 5.47717656204641E-02 
407	 5.48501719137801E-02 
408	 5.50542838709564E-02 
409	 5.51895697228581E-02 
410	 5.49925335326999E-02 
411	 5.50030464332152E-02 
412	 5.52283601564985E-02 
413	 5.54884995822018E-02 
414	 5.53812877219375E-02 
415	 5.55624551907815E-02 
416	 5.58499791198022E-02 
417	 5.58360077061786E-02 
418	 5.60043122054267E-02 
419	 5.61911099924483E-02 
420	 5.62867574281283E-02 
421	 5.62976840458241E-02 
422	 5.66061476486382E-02 
423	 0.056966806837433 
424	 5.71423229835749E-02 
425	 5.72850301703555E-02 
426	 5.75321703931694E-02 
427	 5.78616942643039E-02 
428	 5.81659353454405E-02 
429	 5.84147873697987E-02 
430	 5.86018285538188E-02 
431	 5.88071602671744E-02 
432	 5.91987873235301E-02 
433	 5.94699864292712E-02 
434	 5.97059256167406E-02 
435	 6.00211631905608E-02 
436	 0.060343587806333 
437	 6.06845938572051E-02 
438	 6.10239816518962E-02 
439	 6.13217202665455E-02 
440	 6.15159421704154E-02 
441	 6.18096388402974E-02 
442	 6.22308102755861E-02 
443	 6.25168581930679E-02 
444	 6.27496198542799E-02 
445	 6.30340759989738E-02 
446	 6.34196677245588E-02 
447	 6.37276528336834E-02 
448	 6.39080534568783E-02 
449	 6.40479173628695E-02 
450	 6.43186444341457E-02 
451	 0.064616000820853 
452	 6.48511387547478E-02 
453	 0.065011375292137 
454	 6.52260968036376E-02 
455	 6.54743358360146E-02 
456	 6.56678948514547E-02 
457	 6.57410661458453E-02 
458	 6.58926520818922E-02 
459	 6.60498839457226E-02 
460	 0.066198123046089 
461	 6.63890207072323E-02 
462	 6.65165431818421E-02 
463	 6.66622051997531E-02 
464	 6.68768413873971E-02 
465	 6.70284584403611E-02 
466	 6.71314470880839E-02 
467	 6.72232892045581E-02 
468	 6.73539424320073E-02 
469	 6.75325680643237E-02 
470	 6.77125996505307E-02 
471	 6.78528780795291E-02 
472	 6.79260339854113E-02 
473	 6.81080498645383E-02 
474	 6.83555198594997E-02 
475	 6.85806838518214E-02 
476	 6.87652839808155E-02 
477	 0.068990686385304 
478	 6.92563154146474E-02 
479	 0.069504231877847 
480	 6.97133880281595E-02 
481	 6.99478931589615E-02 
482	 0.070241084740056 
483	 7.05431888384074E-02 
484	 7.08247800523212E-02 
485	 0.071116703021153 
486	 7.14612383696849E-02 
487	 7.18189943180048E-02 
488	 7.21514549235823E-02 
489	 7.24656925864379E-02 
490	 7.28115201186728E-02 
491	 7.31699580609366E-02 
492	 0.073564175163618 
493	 7.39865277843278E-02 
494	 7.43261516664176E-02 
495	 0.074723292195842 
496	 7.51438939620914E-02 
497	 7.54815930015624E-02 
498	 7.58166614314428E-02 
499	 7.62279067487921E-02 
500	 7.67041891502553E-02 
501	 7.71024617039603E-02 
502	 0.077444619172725 
503	 7.78098093494938E-02 
504	 7.82608730899776E-02 
505	 7.87038131327777E-02 
506	 0.079238369945315 
507	 7.97961938530685E-02 
508	 8.01916862671882E-02 
509	 8.06096998227906E-02 
510	 8.10764588657044E-02 
511	 8.15822433071851E-02 
512	 8.21061922752659E-02 
513	 8.26422698258354E-02 
514	 8.31978132605483E-02 
515	 8.37866144670875E-02 
516	 8.44430774392687E-02 
517	 8.50788223839498E-02 
518	 8.56363170770862E-02 
519	 8.61145038164091E-02 
520	 8.66555250426723E-02 
521	 8.72174009328206E-02 
522	 8.77510184030226E-02 
523	 8.83252690945382E-02 
524	 8.89825218219758E-02 
525	 8.96664644359672E-02 
526	 9.02679208464566E-02 
527	 9.09150675392136E-02 
528	 9.15423524574623E-02 
529	 9.21189944528117E-02 
530	 9.27341882823774E-02 
531	 9.33809752761509E-02 
532	 9.40434569096747E-02 
533	 9.47004939157064E-02 
534	 9.53649990908378E-02 
535	 9.59970536692477E-02 
536	 9.66071827924142E-02 
537	 9.72596936197334E-02 
538	 9.78754269084413E-02 
539	 9.84862728158429E-02 
540	 9.91347495921649E-02 
541	 9.98103337877513E-02 
542	 0.100484706983513 
543	 0.101142495917596 
544	 0.101786700067313 
545	 0.102484344096834 
546	 0.103154616987575 
547	 0.103766686544018 
548	 0.104422881096418 
549	 0.105077502226115 
550	 0.105704677973998 
551	 0.1063029557011 
552	 0.106963746449968 
553	 0.107610939925758 
554	 0.108241132913167 
555	 0.108937406652386 
556	 0.10957364497626 
557	 0.110146140244287 
558	 0.110694707973953 
559	 0.111318893686088 
560	 0.111888561319972 
561	 0.11238559590483 
562	 0.112866731085935 
563	 0.113329874044668 
564	 0.113787375581758 
565	 0.114213563427684 
566	 0.114499340396268 
567	 0.114857858634739 
568	 0.115230870728746 
569	 0.115495848805743 
570	 0.115797815247194 
571	 0.116116606582559 
572	 0.116394772263854 
573	 0.116550540089977 
574	 0.116743328803662 
575	 0.116970614152938 
576	 0.117177344243951 
577	 0.117273500263177 
578	 0.117385216301248 
579	 0.117516396161163 
580	 0.11758673928053 
581	 0.117515802870087 
582	 0.117380449171216 
583	 0.117228666457207 
584	 0.117029024133868 
585	 0.116623622739409 
586	 0.116082502733127 
587	 0.115549726969855 
588	 0.115049011516864 
589	 0.114582972175183 
590	 0.1141919778309 
591	 0.113911541257419 
592	 0.113498812539767 
593	 0.112988625727257 
594	 0.112439313982498 
595	 0.111750967237192 
596	 0.110980796259962 
597	 0.110136203325398 
598	 0.109218859133991 
599	 0.108376380112995 
600	 0.107637284682316 
601	 0.107028213468952 
602	 0.106602592880913 
603	 0.106288327188988 
604	 0.106057794344486 
605	 0.10590420579152 
606	 0.105843152232042 
607	 0.105772575545538 
608	 0.105684070246752 
609	 0.105669237315658 
610	 0.105699712021354 
611	 0.105679639762092 
612	 0.105575610758113 
613	 0.105579862675464 
614	 0.105554038859049 
615	 0.105493250624756 
616	 0.105462452034144 
617	 0.105433839332099 
618	 0.10535511793266 
619	 0.105243536827972 
620	 0.10523522985441 
621	 0.105186773989008 
622	 0.105118106378989 
623	 0.105074634247976 
624	 0.104963883179676 
625	 0.104791381876 
626	 0.104591900176374 
627	 0.104426899130837 
628	 0.104385875621913 
629	 0.104376701726947 
630	 0.104322498771638 
631	 0.104287269292659 
632	 0.104283267079692 
633	 0.104260787050974 
634	 0.10416306340127 
635	 0.104142099173063 
636	 0.104107110947154 
637	 0.103997552094434 
638	 0.103825195655769 
639	 0.103708879317478 
640	 0.103574746002939 
641	 0.103330808269025 
642	 0.103053154848157 
643	 0.102805722105222 
644	 0.10251336821467 
645	 0.102013482843348 
646	 0.101668409335415 
647	 0.101427869891425 
648	 0.101210678714554 
649	 0.101062869131899 
650	 0.100830585817352 
651	 0.100537736505271 
652	 0.100248742547018 
653	 9.97093457296452E-02 
654	 9.91112979194344E-02 
655	 9.85238398972182E-02 
656	 9.78860133258444E-02 
657	 9.73611372646939E-02 
658	 0.096911289413523 
659	 9.64842805074745E-02 
660	 0.096175228759145 
661	 9.58494260411169E-02 
662	 9.55102539224048E-02 
663	 9.52535131587765E-02 
664	 9.50885745117358E-02 
665	 9.49378724894922E-02 
666	 0.094749441456838 
667	 9.45392876812596E-02 
668	 9.43318054601446E-02 
669	 9.41935819494625E-02 
670	 9.41604656256433E-02 
671	 9.40555783315766E-02 
672	 9.39775230539338E-02 
673	 9.39268936209652E-02 
674	 9.38099322803844E-02 
675	 9.37504887656015E-02 
676	 9.37295074491382E-02 
677	 9.37057375108904E-02 
678	 9.36537507810689E-02 
679	 9.35979747921469E-02 
680	 9.35947308897258E-02 
681	 9.36827031393211E-02 
682	 9.36806347894638E-02 
683	 9.36977346668812E-02 
684	 9.37135287389496E-02 
685	 9.34898661061612E-02 
686	 9.31719825889918E-02 
687	 9.29491620123604E-02 
688	 9.29080209375658E-02 
689	 0.092769159659015 
690	 9.24464313332603E-02 
691	 9.19448991198125E-02 
692	 9.13380894547634E-02 
693	 9.08111652497966E-02 
694	 9.03962761272595E-02 
695	 9.00573063228332E-02 
696	 8.96976462947175E-02 
697	 8.89377803408391E-02 
698	 8.79003736521818E-02 
699	 8.69188688295444E-02 
700	 8.60410037154473E-02 
701	 8.52332637063917E-02 
702	 8.44278709292208E-02 
703	 8.35162260445232E-02 
704	 8.24793107399644E-02 
705	 8.13571193199532E-02 
706	 8.02110747379086E-02 
707	 7.90426863403195E-02 
708	 7.77348390444315E-02 
709	 7.62953769862127E-02 
710	 7.47760639596961E-02 
711	 7.31578042992172E-02 
712	 7.14291425915359E-02 
713	 6.95665046468517E-02 
714	 6.74776259075378E-02 
715	 6.52590590445793E-02 
716	 0.062805834335683 
717	 6.03074109831112E-02 
718	 5.80574027994644E-02 
719	 0.056367995462117 
720	 5.50969092606685E-02 
721	 5.36748837873215E-02 
722	 5.20040114882631E-02 
723	 4.99379976931845E-02 
724	 4.78443202239965E-02 
725	 4.61011561552288E-02 
726	 4.43022264711937E-02 
727	 4.24111062139256E-02 
728	 4.05034775070831E-02 
729	 0.038616499565716 
730	 3.67685946180288E-02 
731	 3.52690949291251E-02 
732	 3.42578149401485E-02 
733	 3.31329039205788E-02 
734	 3.20665616925217E-02 
735	 3.11958350487077E-02 
736	 3.05280541549498E-02 
737	 3.01270850315728E-02 
738	 2.98842709904939E-02 
739	 2.97006321067312E-02 
740	 2.96218773155142E-02 
741	 2.95511655296522E-02 
742	 2.94948959994584E-02 
743	 2.94959800918064E-02 
744	 2.94231077866747E-02 
745	 2.93205859976447E-02 
746	 2.92463467488335E-02 
747	 2.92486127093186E-02 
748	 2.92865816727606E-02 
749	 2.92757431368861E-02 
750	 2.91785272592566E-02 
751	 2.91350818966013E-02 
752	 2.91169992791057E-02 
753	 2.91217187116485E-02 
754	 2.91468570508783E-02 
755	 2.91041649317474E-02 
756	 2.89843317287745E-02 
757	 2.87722778039034E-02 
758	 2.83428440169023E-02 
759	 2.77289672215441E-02 
760	 2.71660165967077E-02 
761	 0.027129433174807 
762	 2.71763912055551E-02 
763	 2.73625335552828E-02 
764	 2.78031416089196E-02 
765	 2.84638080576531E-02 
766	 2.86540591522364E-02 
767	 0.028821358213328 
768	 2.90942320888344E-02 
769	 0.029284339325032 
770	 2.93939545356746E-02 
771	 2.95154493591568E-02 
772	 2.96895849448928E-02 
773	 2.97563802220746E-02 
774	 2.98395649311806E-02 
775	 2.99988429156252E-02 
776	 3.02255406341499E-02 
777	 0.030283996929302 
778	 3.04137333485094E-02 
779	 3.06463102910101E-02 
780	 3.07817478126527E-02 
781	 3.09772133007147E-02 
782	 3.11108022375366E-02 
783	 3.11457513569402E-02 
784	 3.13528170316389E-02 
785	 3.15059401655341E-02 
786	 3.16094257603372E-02 
787	 3.17476548955627E-02 
788	 3.19451744963025E-02 
789	 3.22433022928503E-02 
790	 3.25978634012739E-02 
791	 3.29111057507596E-02 
792	 3.32556846247468E-02 
793	 3.35388157628393E-02 
794	 3.37359058699543E-02 
795	 3.39506705078259E-02 
796	 3.42429803516656E-02 
797	 3.44791225176853E-02 
798	 3.45717475293349E-02 
799	 3.47415119507488E-02 
800	 3.49395263079163E-02 
801	 3.51486930347921E-02 
802	 3.53674737456654E-02 
803	 3.55831161492705E-02 
804	 3.57349739078575E-02 
805	 3.58137095531486E-02 
806	 3.58664331702307E-02 
807	 3.59032411044591E-02 
808	 0.035774119395674 
809	 3.54247291423412E-02 
810	 3.51132040707536E-02 
811	 3.49369468411465E-02 
812	 3.46212054092951E-02 
813	 3.38543843561924E-02 
814	 3.33359523617278E-02 
815	 0.03298247374073 
816	 0.03267990168793 
817	 3.23459858877975E-02 
818	 3.21571954255011E-02 
819	 3.19098098889238E-02 
820	 3.14524419912056E-02 
821	 3.07310518101382E-02 
822	 2.99546198858065E-02 
823	 2.92169291237303E-02 
824	 2.85211747007328E-02 
825	 2.77277643333897E-02 
826	 2.66804866260446E-02 
827	 2.55285989607669E-02 
828	 2.46022680597457E-02 
829	 2.38617168247289E-02 
830	 2.32140921094841E-02 
831	 2.26484196472657E-02 
832	 2.22260471756849E-02 
833	 2.18282895893992E-02 
834	 2.15634816226629E-02 
835	 2.14720907476822E-02 
836	 2.14801784309958E-02 
837	 2.12967719165003E-02 
838	 2.11150199552167E-02 
839	 2.11062772542151E-02 
840	 2.11152999212116E-02 
841	 2.10383681421614E-02 
842	 2.08661195565096E-02 
843	 2.06633344518504E-02 
844	 0.020586775840801 
845	 2.05506112752514E-02 
846	 2.04863861669316E-02 
847	 2.03599386127165E-02 
848	 2.02581803563295E-02 
849	 0.020181264739452 
850	 2.01217733792046E-02 
851	 2.00734241128515E-02 
852	 2.00023409048894E-02 
853	 1.98418405283622E-02 
854	 1.96404621124059E-02 
855	 1.96786279733658E-02 
856	 1.96943397018688E-02 
857	 1.96748298308539E-02 
858	 1.96715869149323E-02 
859	 1.97173459489918E-02 
860	 1.95340146363302E-02 
861	 1.93245532636346E-02 
862	 1.94136234402966E-02 
863	 1.92394580232704E-02 
864	 0.019127135827724 
865	 1.91097790091118E-02 
866	 1.89311192517224E-02 
867	 1.87741275906217E-02 
868	 1.87887368414966E-02 
869	 1.88835593752661E-02 
870	 1.86910626544583E-02 
871	 1.84823533969881E-02 
872	 1.83636441999873E-02 
873	 1.83393105994137E-02 
874	 1.82679904350108E-02 
875	 1.82613348792289E-02 
876	 1.81865659575802E-02 
877	 1.79689428184757E-02 
878	 1.80233064901893E-02 
879	 1.78525077979103E-02 
880	 1.75663231442157E-02 
881	 0.01751207311122 
882	 1.75435144613794E-02 
883	 1.74824930128244E-02 
884	 0.017303012332773 
885	 1.71090267482646E-02 
886	 1.69693232293536E-02 
887	 1.69747457765863E-02 
888	 1.69955697586703E-02 
889	 1.67042545475772E-02 
890	 1.66225767782091E-02 
891	 1.65020151452239E-02 
892	 1.61910628838307E-02 
893	 1.59933203486079E-02 
894	 0.015449193423857 
895	 1.49171155364833E-02 
896	 1.47545380594942E-02 
897	 0.014398923137974 
898	 1.46152321670428E-02 
899	 1.49878263767265E-02 
900	 0.014886568739922 
901	 1.44870358790883E-02 
902	 1.46737086389811E-02 
903	 1.48470239373751E-02 
904	 1.42480378036714E-02 
905	 0.014314668862144 
906	 1.43323674371961E-02 
907	 1.42404901184321E-02 
908	 1.43822181922231E-02 
909	 0.014014345264388 
910	 1.34249985428211E-02 
911	 0.01313279757066 
912	 1.35434313311093E-02 
913	 1.33038981973143E-02 
914	 1.29806707252348E-02 
915	 1.30484802948531E-02 
916	 0.013472884488823 
917	 1.35721464813057E-02 
918	 1.33057440221071E-02 
919	 1.30620540650081E-02 
920	 0.013549836806865 
921	 1.36118656165656E-02 
922	 1.32721841207678E-02 
923	 0.012839746286443 
924	 1.27230748070468E-02 
925	 1.24216524774592E-02 
926	 1.20913440212823E-02 
927	 1.19742861307872E-02 
928	 1.17886039659898E-02 
929	 1.15104258698106E-02 
930	 1.14652852372609E-02 
931	 1.21250042451612E-02 
932	 1.26571388565738E-02 
933	 1.47497682614251E-02 
934	 1.42970896687941E-02 
935	 8.64565397836368E-03 
936	 9.63601699535013E-03 
937	 9.38028305455806E-03 
938	 7.8261584840553E-03 
939	 7.30542074188295E-03 
940	 8.75909067353135E-03 
941	 8.26390473112031E-03 
942	 8.61687147509515E-03 
943	 1.36196496904627E-02 
944	 1.14747741858491E-02 
945	 8.28293294200256E-03 
946	 8.03601638242576E-03 
947	 1.08374312195838E-02 
948	 1.06152612429245E-02 
949	 1.08319434687994E-02 
950	 1.02117178455883E-02 
951	 0.006188787337663 
952	 8.46620499087712E-03 
953	 1.06570088128248E-02 
954	 1.04279636734025E-02 
955	 9.36605789676126E-03 
956	 8.52219532668692E-03 
957	 1.04403119915836E-02 
958	 1.32411843438239E-02 
959	 1.27368345126403E-02 
960	 9.4179145365938E-03 
961	 8.70181782772761E-03 
962	 0.010837814658905 
963	 1.22709133366301E-02 
964	 1.19344098508548E-02 
965	 1.16097716376908E-02 
966	 1.13459776797167E-02 
967	 1.01912316321171E-02 
968	 1.05387498203721E-02 
969	 1.16779189185915E-02 
970	 1.23507331126636E-02 
971	 1.14678389973148E-02 
972	 1.07969137043843E-02 
973	 1.03772410270144E-02 
974	 1.04692068102807E-02 
975	 1.14156132785352E-02 
976	 0.011284696855688 
977	 1.07146857269163E-02 
978	 1.08043681477602E-02 
979	 1.21797562172567E-02 
980	 1.19784390378391E-02 
981	 1.11889632040822E-02 
982	 1.10154889822908E-02 
983	 1.21233085051667E-02 
984	 1.30152777618009E-02 
985	 1.34659645947732E-02 
986	 1.35122536845458E-02 
987	 1.32349520594574E-02 
988	 1.19742452818863E-02 
989	 1.17866134271824E-02 
990	 0.012718253167431 
991	 1.32022484456853E-02 
992	 1.32748702756161E-02 
993	 1.29876031136104E-02 
994	 1.25783289443277E-02 
995	 1.24004728512146E-02 
996	 1.27834737331425E-02 
997	 1.31731207036636E-02 
998	 1.37012088801235E-02 
999	 1.46761428191703E-02 
1000	 1.48423997030055E-02 
1001	 1.11496342523781E-02 
1002	 1.07029017447044E-02 
1003	 1.05866052364278E-02 
1004	 1.07707847846226E-02 
1005	 1.08634239448624E-02 
1006	 1.11348790548451E-02 
1007	 1.12361708661956E-02 
1008	 1.12524750952829E-02 
1009	 0.011056317213981 
1010	 1.11068477137329E-02 
1011	 1.11149892697102E-02 
1012	 1.09822251415411E-02 
1013	 1.13358023116421E-02 
1014	 1.13776273654968E-02 
1015	 1.12142969950236E-02 
1016	 1.12998043463699E-02 
1017	 1.14913605905809E-02 
1018	 1.14949573644829E-02 
1019	 1.15842582318105E-02 
1020	 0.011543536910349 
1021	 1.11988409051954E-02 
1022	 1.11046858634102E-02 
1023	 1.11420603524034E-02 
1024	 1.12770075318691E-02 
1025	 1.15503252532465E-02 
1026	 1.17455149115118E-02 
1027	 1.17771563302841E-02 
1028	 1.16889337507568E-02 
1029	 0.01160033225476 
1030	 1.13821812419569E-02 
1031	 1.12589999886402E-02 
1032	 1.10648908187009E-02 
1033	 1.10775137519117E-02 
1034	 1.11871070844893E-02 
1035	 1.12681459790414E-02 
1036	 1.16261067748415E-02 
1037	 1.17073025476103E-02 
1038	 1.15799073676277E-02 
1039	 1.15829822826244E-02 
1040	 1.13318903486519E-02 
1041	 1.11078227046133E-02 
1042	 1.09945583082549E-02 
1043	 0.010889477325903 
1044	 1.09226577367982E-02 
1045	 1.11060511802451E-02 
1046	 1.11764452763338E-02 
1047	 1.13075885982311E-02 
1048	 1.13616861485939E-02 
1049	 1.12690017553406E-02 
1050	 1.13806761596815E-02 
1051	 1.16681463273384E-02 
1052	 0.011788667188057 
1053	 1.20279239764255E-02 
1054	 1.20492377184602E-02 
1055	 1.17448388511817E-02 
1056	 1.15898158779629E-02 
1057	 1.14438259246713E-02 
1058	 1.11620407589388E-02 
1059	 1.12274727073718E-02 
1060	 1.15805970300698E-02 
1061	 1.16716067487972E-02 
1062	 1.18666779386032E-02 
1063	 1.19294494419483E-02 
1064	 1.17917858846742E-02 
1065	 1.17137768574633E-02 
1066	 1.16704510577364E-02 
1067	 1.15975226219161E-02 
1068	 1.14048629266024E-02 
1069	 1.13181455832276E-02 
1070	 1.12775177021349E-02 
1071	 1.12579663972225E-02 
1072	 1.13526113169059E-02 
1073	 1.13728131746567E-02 
1074	 0.011326695310101 
1075	 1.12046988128664E-02 
1076	 1.12406519105911E-02 
1077	 0.011301046676172 
1078	 1.13172310012491E-02 
1079	 1.14849776206517E-02 
1080	 1.14748417774927E-02 
1081	 1.12010384618899E-02 
1082	 1.11547609595047E-02 
1083	 0.011257733984578 
1084	 1.12299568217624E-02 
1085	 1.12037601521835E-02 
1086	 1.11938151811798E-02 
1087	 1.10714380392733E-02 
1088	 1.10078647177657E-02 
1089	 1.11350782063189E-02 
1090	 1.11306765792238E-02 
1091	 1.09234221687012E-02 
1092	 0.010502387132517 
1093	 1.03305046575616E-02 
1094	 1.00168999469517E-02 
1095	 9.98207218933884E-03 
1096	 1.02790981693379E-02 
1097	 1.02899008132654E-02 
1098	 1.05175405560442E-02 
1099	 1.02338805358976E-02 
1100	 9.13620394109587E-03 
1101	 9.01024464049151E-03 
1102	 9.30062272537389E-03 
1103	 9.0805477109162E-03 
1104	 9.16431052102567E-03 
1105	 9.46609858263166E-03 
1106	 8.39762094048711E-03 
1107	 7.34150249248589E-03 
1108	 7.54064753371566E-03 
1109	 7.87762121767826E-03 
1110	 7.99736807976546E-03 
1111	 8.79733689871248E-03 
1112	 9.07228801941466E-03 
1113	 8.49567729170917E-03 
1114	 8.17223641200386E-03 
1115	 7.94297009998797E-03 
1116	 7.78581063768811E-03 
1117	 7.27011746116814E-03 
1118	 7.23724326969447E-03 
1119	 8.21136568345496E-03 
1120	 8.49761084311039E-03 
1121	 8.56359031426298E-03 
1122	 9.79712975245847E-03 
1123	 6.65135364698398E-03 
1124	 1.91022614206832E-03 
1125	 3.08598759306064E-03 
1126	 5.89134859682616E-03 
1127	 4.09898543651987E-03 
1128	 7.37560866885223E-03 
1129	 1.02117615273426E-02 
1130	 9.57851977510239E-03 
1131	 7.69146843823427E-03 
1132	 8.86084103472694E-03 
1133	 8.95421017768145E-03 
1134	 6.23047163128455E-03 
1135	 5.47713715756496E-03 
1136	 6.21216411478316E-03 
1137	 5.5774463218364E-03 
1138	 2.99037617987815E-03 
1139	 2.83297707747565E-03 
1140	 4.43522784963631E-03 
1141	 6.20199380864208E-03 
1142	 7.19659188547324E-03 
1143	 6.63594279507456E-03 
1144	 5.1189856814382E-03 
1145	 5.76798090325387E-03 
1146	 7.23891125757857E-03 
1147	 6.84578222838763E-03 
1148	 6.6607783711085E-03 
1149	 6.28659538246693E-03 
1150	 6.07548740147647E-03 
1151	 6.11594806164653E-03 
1152	 6.74676173188828E-03 
1153	 7.30200338047022E-03 
1154	 7.43558177324882E-03 
1155	 8.05133969090279E-03 
1156	 7.60638495577943E-03 
1157	 0.006514168991325 
1158	 6.53103241964256E-03 
1159	 6.19778340647896E-03 
1160	 6.20369594731028E-03 
1161	 6.97189321269891E-03 
1162	 7.69275492055688E-03 
1163	 8.27014971189122E-03 
1164	 8.31216438039858E-03 
1165	 8.2738372488023E-03 
1166	 8.67950429959248E-03 
1167	 8.94297162773739E-03 
1168	 8.96866716287598E-03 
1169	 9.05286463558442E-03 
1170	 8.9219236677659E-03 
1171	 8.86177876457273E-03 
1172	 8.84435271195503E-03 
1173	 8.94444397760885E-03 
1174	 9.18861917579042E-03 
1175	 9.13099732759864E-03 
1176	 9.06218156820522E-03 
1177	 9.06724195124897E-03 
1178	 9.04346305167403E-03 
1179	 9.01016124452914E-03 
1180	 8.97957168906924E-03 
1181	 0.009058630042986 
1182	 9.26620492177033E-03 
1183	 9.23295370405472E-03 
1184	 9.15543925632296E-03 
1185	 9.28070665740068E-03 
1186	 9.10482320681441E-03 
1187	 8.87793516092178E-03 
1188	 9.12735233249492E-03 
1189	 9.39828408769885E-03 
1190	 9.38925737287524E-03 
1191	 9.4571038765853E-03 
1192	 9.52878308928833E-03 
1193	 9.52748259191243E-03 
1194	 9.28365920122693E-03 
1195	 9.28610507580071E-03 
1196	 9.45521031270042E-03 
1197	 9.38940294550705E-03 
1198	 9.32404769116057E-03 
1199	 9.47513248663642E-03 
1200	 9.58645274437691E-03 
1201	 9.62741340917435E-03 
1202	 9.79429115321812E-03 
1203	 9.89145968273306E-03 
1204	 9.79367461307371E-03 
1205	 9.89390814753493E-03 
1206	 9.81298198010678E-03 
1207	 9.25574430903934E-03 
1208	 9.13986454062337E-03 
1209	 9.46058428948426E-03 
1210	 9.56933497972565E-03 
1211	 9.72946602419269E-03 
1212	 9.87606099647435E-03 
1213	 9.61981448003233E-03 
1214	 9.58497672353025E-03 
1215	 9.61681760546066E-03 
1216	 9.96445228015486E-03 
1217	 1.00114926211923E-02 
1218	 9.99068518682423E-03 
1219	 1.00191140863208E-02 
1220	 9.90521360450933E-03 
1221	 9.84880270038122E-03 
1222	 1.00040742769055E-02 
1223	 1.00389282567845E-02 
1224	 9.9220616107541E-03 
1225	 9.94427988222882E-03 
1226	 1.00138323692926E-02 
1227	 1.01091415622088E-02 
1228	 1.03204973208671E-02 
1229	 1.04681822869443E-02 
1230	 1.04803085988761E-02 
1231	 1.04006051922804E-02 
1232	 1.03073413024581E-02 
1233	 1.03482038206633E-02 
1234	 1.04212916934655E-02 
1235	 1.03991506584978E-02 
1236	 1.02520710573728E-02 
1237	 1.02425354958704E-02 
1238	 1.01918308535652E-02 
1239	 1.03445179516351E-02 
1240	 1.05735610833165E-02 
1241	 1.06978437058674E-02 
1242	 1.07132012404036E-02 
1243	 1.06245748392079E-02 
1244	 1.05843562751555E-02 
1245	 1.06253182458103E-02 
1246	 1.05938796322729E-02 
1247	 1.05136240398574E-02 
1248	 1.05708619022107E-02 
1249	 1.06348005955852E-02 
1250	 1.05487538191526E-02 
1251	 1.05069291186191E-02 
1252	 1.04347297072628E-02 
1253	 1.02552395455869E-02 
1254	 1.03231899188808E-02 
1255	 1.04238317316408E-02 
1256	 1.03797401744184E-02 
1257	 1.00914528805028E-02 
1258	 1.00448724004212E-02 
1259	 1.01627909576528E-02 
1260	 1.01179491103907E-02 
1261	 9.93688499218295E-03 
1262	 9.91309083722374E-03 
1263	 9.88956114204728E-03 
1264	 9.92214353377583E-03 
1265	 9.94077644969776E-03 
1266	 0.010078045227318 
1267	 1.00251360660836E-02 
1268	 9.79668177074264E-03 
1269	 9.81080416352769E-03 
1270	 9.9234295289897E-03 
1271	 1.00423695822181E-02 
1272	 1.01002131460906E-02 
1273	 9.95272225352986E-03 
1274	 9.80268806639754E-03 
1275	 9.90761285976554E-03 
1276	 0.010106875651623 
1277	 1.01002064387813E-02 
1278	 1.01674286652324E-02 
1279	 1.03564846446034E-02 
1280	 1.02417097398359E-02 
1281	 1.01266551429501E-02 
1282	 1.01059850345634E-02 
1283	 1.01106334081068E-02 
1284	 9.87795836558558E-03 
1285	 9.82148798162264E-03 
1286	 0.010077320041603 
1287	 1.01521122772101E-02 
1288	 1.01327295036873E-02 
1289	 1.00775052775999E-02 
1290	 1.00001610431667E-02 
1291	 9.82574233061489E-03 
1292	 9.82988937509316E-03 
1293	 9.82264351221612E-03 
1294	 9.67622043116433E-03 
1295	 9.64454558879207E-03 
1296	 9.57798892579061E-03 
1297	 9.30828412355532E-03 
1298	 9.14082517836444E-03 
1299	 9.20396792908534E-03 
1300	 9.30682200069266E-03 
1301	 9.32012215680793E-03 
1302	 9.24075588847655E-03 
1303	 9.08854154973001E-03 
1304	 9.1015730225702E-03 
1305	 9.34982801472174E-03 
1306	 9.15719835224404E-03 
1307	 8.89599864291071E-03 
1308	 8.88877976726635E-03 
1309	 8.61786723553124E-03 
1310	 8.36690683265352E-03 
1311	 8.56030166599851E-03 
1312	 8.75600360036318E-03 
1313	 8.60823549308901E-03 
1314	 8.46589345764796E-03 
1315	 8.89702707215708E-03 
1316	 8.95341269118513E-03 
1317	 8.14915499811493E-03 
1318	 7.88538017097363E-03 
1319	 8.18543358448851E-03 
1320	 8.11335152543868E-03 
1321	 7.86155380469637E-03 
1322	 7.94743320867716E-03 
1323	 8.04280149623406E-03 
1324	 7.62321698559169E-03 
1325	 7.21800239639257E-03 
1326	 7.41740444968041E-03 
1327	 7.91681046574337E-03 
1328	 7.78958452531492E-03 
1329	 6.79960341568695E-03 
1330	 6.34855034457489E-03 
1331	 6.47409003756134E-03 
1332	 5.48833181907965E-03 
1333	 5.10324712528566E-03 
1334	 6.58632778163165E-03 
1335	 7.08807235123069E-03 
1336	 6.55112287304315E-03 
1337	 6.19425346389201E-03 
1338	 6.17434348169992E-03 
1339	 6.29046775815643E-03 
1340	 5.61729954521785E-03 
1341	 5.40634371385395E-03 
1342	 7.06220606605042E-03 
1343	 7.36299211776105E-03 
1344	 4.97151655829687E-03 
1345	 4.71525081925974E-03 
1346	 7.71981810815478E-03 
1347	 7.25320260092146E-03 
1348	 1.5575455076833E-03 
1349	 2.14697684045165E-03 
1350	 9.47104815303906E-03 
1351	 1.09596939313834E-02 
1352	 1.72127429030754E-02 
1353	 3.19342757153588E-02 
1354	 5.23907840945178E-02 
1355	 3.61471638706341E-02 
1356	-8.38521636711812E-03 
1357	-3.70556823317764E-03 
1358	 2.33636145015303E-02 
1359	-2.40451078450857E-02 
1360	-3.50643548158435E-02 
1361	 2.54381507663724E-02 
1362	 3.37799891391553E-03 
1363	-0.118385677795587 
1364	-0.140543424931131 
1365	-0.048708211196458 
1366	-0.050361680516764 
1367	-0.126054225074556 
1368	-0.10396747380949 
1369	 6.90959889357938E-03 
1370	 0.184821161047173 
1371	 0.418466254725578 
1372	 0.351879087069206 
1373	 0.229837173230605 
1374	 0.277095033576046 
1375	-7.54579131043537E-02 
1376	-0.243460197583288 
1377	-8.17238027071287E-02 
1378	-7.07968390146384E-04 
1379	-0.130176594544661 
1380	-0.17857860908568 
1381	-0.213608464570004 
1382	-0.164812587714799 
1383	-8.99326067385062E-02 
1384	-0.20903561370154 
1385	-0.42932858088484 
1386	-0.291489223288952 
1387	-8.04845730924978E-02 
1388	-9.65886508489991E-02 
1389	 8.55715490769025E-02 
1390	 0.178627182520192 
1391	-0.109899086126399 
1392	-0.322363942506853 
1393	-2.48216414206852E-02 
1394	 0.340530674624433 
1395	 0.292723669528131 
1396	 0.293930558279299 
1397	 0.207790709766246 
1398	-0.03435157575372 
1399	-7.23269749391762E-02 
1400	-0.047742934683968 
1401	-0.247509371784198 
1402	-0.518275000808311 
1403	-0.487151645968101 
1404	-0.344879284730087 
1405	-0.268310110643599 
1406	 0.105412391451439 
1407	 0.126283987896971 
1408	-5.08423889441989E-02 
1409	-0.064556810192307 
1410	-6.62136570830384E-02 
1411	-0.104975086648345 
1412	-0.147969361258829 
1413	-0.115383282498304 
1414	-0.03370532484682 
1415	-1.41864163800117E-02 
1416	 2.12182064730678E-02 
1417	 2.19070443265479E-02 
1418	-0.032990778557139 
1419	-3.54519996193477E-02 
1420	-2.07906561855428E-03 
1421	-1.13524422176578E-02 
1422	-5.89003287465066E-02 
1423	-3.76180076803851E-02 
1424	 1.79485745422726E-02 
1425	 0.017178002600098 
1426	 1.24995305061774E-02 
1427	 1.59825648291053E-02 
1428	-4.04489192081475E-03 
1429	-1.18180987122113E-02 
1430	-0.001448547419872 
1431	 6.66311331967505E-03 
1432	 9.69148343804883E-03 
1433	 9.24589326562699E-03 
1434	 1.55945101255146E-02 
1435	 2.09977932159695E-02 
1436	 1.41662103981972E-02 
1437	 1.73756536157254E-02 
1438	 2.96221588888583E-02 
1439	 2.33433220807279E-02 
1440	 7.18712436238902E-03 
1441	 2.67918350326718E-03 
1442	 6.74757509274945E-03 
1443	 5.10739252292878E-03 
1444	 6.45211388416871E-03 
1445	 1.26290786350613E-02 
1446	 1.27943151852953E-02 
1447	 7.78909097396589E-03 
1448	 4.08242072388064E-03 
1449	 4.06578078392689E-03 
1450	 4.32527076352898E-03 
1451	 4.54530698633931E-03 
1452	 6.10478284582497E-03 
1453	 6.53009131819244E-03 
1454	 6.6979983195794E-03 
1455	 6.53392118572227E-03 
1456	 6.05601808941812E-03 
1457	 5.07169021768723E-03 
1458	 5.27310484984908E-03 
1459	 5.95048435296249E-03 
1460	 5.07456179862795E-03 
1461	 3.77608851330273E-03 
1462	 3.92524306736766E-03 
1463	 3.49761371954907E-03 
1464	 3.33258758271905E-03 
1465	 5.56941066368456E-03 
1466	 5.63629030775979E-03 
1467	 2.33361642229294E-03 
1468	 2.0711339985967E-03 
1469	 4.24071032315297E-03 
1470	 4.68732392997538E-03 
1471	 4.39159351096222E-03 
1472	 5.68589137153888E-03 
1473	 7.97994644131213E-03 
1474	 7.97009043649302E-03 
1475	 7.64619882429991E-03 
1476	 8.02864229062455E-03 
1477	 7.17304255169661E-03 
1478	 6.57537765453391E-03 
1479	 7.54727044655601E-03 
1480	 7.20426309360296E-03 
1481	 4.80278549809034E-03 
1482	 4.55713326168159E-03 
1483	 5.77450900165798E-03 
1484	 5.55917093481136E-03 
1485	 5.01052281106414E-03 
1486	 5.39509894468549E-03 
1487	 5.64980956838658E-03 
1488	 5.59695223356858E-03 
1489	 6.03203722622408E-03 
1490	 6.28295381330788E-03 
1491	 6.0174004613812E-03 
1492	 5.89714040229728E-03 
1493	 6.04774631145461E-03 
1494	 6.21733004754621E-03 
1495	 6.16088707728988E-03 
1496	 6.32709533417172E-03 
1497	 6.79102690824689E-03 
1498	 0.00702506409093 
1499	 7.28187369470874E-03 
1500	 7.34050212858793E-03 
1501	 7.16617592713389E-03 
1502	 7.21172148244873E-03 
1503	 7.18377888628852E-03 
1504	 7.26803579079494E-03 
1505	 7.65397165909325E-03 
1506	 7.82507831067776E-03 
1507	 7.78875148729933E-03 
1508	 7.73508647658094E-03 
1509	 7.83890973953085E-03 
1510	 8.00107631682082E-03 
1511	 7.99120220285404E-03 
1512	 8.05006457153219E-03 
1513	 7.9745744006701E-03 
1514	 7.9660437284611E-03 
1515	 8.43225527856179E-03 
1516	 8.7482912354514E-03 
1517	 8.65619273729226E-03 
1518	 0.008512840724033 
1519	 8.33907529929815E-03 
1520	 8.32308499520688E-03 
1521	 8.55613588184489E-03 
1522	 8.73761155720504E-03 
1523	 8.89620062087245E-03 
1524	 8.81689609620044E-03 
1525	 8.5613933925688E-03 
1526	 8.56756776312135E-03 
1527	 8.56388163392971E-03 
1528	 8.44079989132722E-03 
1529	 8.42981039590313E-03 
1530	 8.53744620394094E-03 
1531	 8.47383143011838E-03 
1532	 8.41157568237157E-03 
1533	 8.82109297858355E-03 
1534	 9.0640326874162E-03 
1535	 8.89282309422295E-03 
1536	 8.89877803126423E-03 
1537	 8.8772024664143E-03 
1538	 8.67295934026132E-03 
1539	 8.62979003894342E-03 
1540	 8.83878643516375E-03 
1541	 9.04672882171546E-03 
1542	 8.9626691489204E-03 
1543	 8.78098481620741E-03 
1544	 8.74070104867827E-03 
1545	 8.78492970459341E-03 
1546	 8.82572854740537E-03 
1547	 8.78926520828445E-03 
1548	 8.84392089303745E-03 
1549	 9.01665773777014E-03 
1550	 9.05308689816408E-03 
1551	 9.14006198301995E-03 
1552	 9.30793006282619E-03 
1553	 9.18315157834873E-03 
1554	 9.16844622600295E-03 
1555	 9.34487940344328E-03 
1556	 9.23698845957901E-03 
1557	 9.12097628770257E-03 
1558	 9.1282785735833E-03 
1559	 8.92713051127437E-03 
1560	 8.7468029727104E-03 
1561	 9.06022613472561E-03 
1562	 9.3689515003904E-03 
1563	 9.25838013890077E-03 
1564	 9.21930310478825E-03 
1565	 9.24825794984283E-03 
1566	 9.08099295443753E-03 
1567	 8.99875858645921E-03 
1568	 9.10789007599903E-03 
1569	 9.1930142579301E-03 
1570	 9.16489891743402E-03 
1571	 9.15828751674481E-03 
1572	 9.22777146446078E-03 
1573	 9.15516633402857E-03 
1574	 8.96492998788227E-03 
1575	 8.85456088435798E-03 
1576	 8.95132055713199E-03 
1577	 9.04265463569287E-03 
1578	 8.89774587331135E-03 
1579	 8.83216781327133E-03 
1580	 8.82039786340555E-03 
1581	 8.75507185675613E-03 
1582	 8.82445433949224E-03 
1583	 9.02195293036791E-03 
1584	 9.30839124554591E-03 
1585	 9.46981838859876E-03 
1586	 9.29839763497672E-03 
1587	 8.96216128659735E-03 
1588	 8.91120947559416E-03 
1589	 9.05424236843335E-03 
1590	 8.95727449234827E-03 
1591	 9.06017753314414E-03 
1592	 9.44976233348202E-03 
1593	 9.47253352704775E-03 
1594	 9.35400910491052E-03 
1595	 9.34293660154733E-03 
1596	 9.03553295179148E-03 
1597	 8.80411662434274E-03 
1598	 9.07521453726814E-03 
1599	 9.19314965850039E-03 
1600	 9.03078707224705E-03 
1601	 9.05794300999124E-03 
1602	 8.97071869798089E-03 
1603	 8.74783882412195E-03 
1604	 8.79313058871644E-03 
1605	 9.02046081120795E-03 
1606	 9.28043482046498E-03 
1607	 9.31885050456645E-03 
1608	 9.14536541521341E-03 
1609	 9.02381060543079E-03 
1610	 8.9213024012302E-03 
1611	 9.08596303643597E-03 
1612	 9.41206690943905E-03 
1613	 9.33224298510157E-03 
1614	 9.14754540260526E-03 
1615	 9.17818972163232E-03 
1616	 9.21891324604902E-03 
1617	 9.2519126079707E-03 
1618	 9.23935938630335E-03 
1619	 9.31001490137334E-03 
1620	 9.40509309547684E-03 
1621	 9.34016278007909E-03 
1622	 9.45164267498826E-03 
1623	 9.44910321633807E-03 
1624	 9.17655659883203E-03 
1625	 8.99713617589671E-03 
1626	 8.83696924781954E-03 
1627	 8.88906984872513E-03 
1628	 9.02852941542688E-03 
1629	 9.17090238352275E-03 
1630	 9.31911282563194E-03 
1631	 9.12848290326064E-03 
1632	 8.97706157663328E-03 
1633	 9.06739012829763E-03 
1634	 9.12109947501313E-03 
1635	 9.12704246556985E-03 
1636	 9.19594426626683E-03 
1637	 9.26823964592249E-03 
1638	 9.24169675063742E-03 
1639	 9.29480320198682E-03 
1640	 9.28894982628349E-03 
1641	 9.17464029116887E-03 
1642	 9.23788317223639E-03 
1643	 9.38006381890154E-03 
1644	 9.33418840066755E-03 
1645	 9.12180969952891E-03 
1646	 9.11320087514797E-03 
1647	 9.14639798812055E-03 
1648	 8.95026026637559E-03 
1649	 8.85549275289869E-03 
1650	 8.98258525828515E-03 
1651	 9.11203911287775E-03 
1652	 9.19117725287451E-03 
1653	 9.47416912105044E-03 
1654	 9.47829432823443E-03 
1655	 9.0914389029043E-03 
1656	 9.08787146865402E-03 
1657	 9.16938928028783E-03 
1658	 9.14421604257643E-03 
1659	 9.34117188360281E-03 
1660	 9.36624196395046E-03 
1661	 9.29365957183809E-03 
1662	 9.31813047189894E-03 
1663	 9.16727537739488E-03 
1664	 9.00336461701546E-03 
1665	 8.91695341539883E-03 
1666	 8.93084567248697E-03 
1667	 8.9253114039249E-03 
1668	 9.19634938691149E-03 
1669	 9.46263860371411E-03 
1670	 9.16565833170893E-03 
1671	 9.03441878162259E-03 
1672	 9.3387225525115E-03 
1673	 9.05595550444556E-03 
1674	 8.72130070859325E-03 
1675	 9.03722256431858E-03 
1676	 9.38141390590113E-03 
1677	 9.46765393023979E-03 
1678	 9.48717677604554E-03 
1679	 9.24027243046267E-03 
1680	 8.69459052306239E-03 
1681	 8.63802207497326E-03 
1682	 9.14754933261852E-03 
1683	 9.43681980078514E-03 
1684	 9.50387434739017E-03 
1685	 9.49312954592521E-03 
1686	 9.09185059107992E-03 
1687	 9.01726869767548E-03 
1688	 9.46325857350194E-03 
1689	 9.33435375924821E-03 
1690	 8.97588027278045E-03 
1691	 8.84186643107979E-03 
1692	 8.39166871597379E-03 
1693	 8.39365726108956E-03 
1694	 8.90486059422092E-03 
1695	 8.87830358504263E-03 
1696	 8.77028904519829E-03 
1697	 8.81072809936525E-03 
1698	 8.67535241775938E-03 
1699	 8.74898520329849E-03 
1700	 9.0711240538908E-03 
1701	 9.04395784635725E-03 
1702	 8.59680724177072E-03 
1703	 8.2898675387055E-03 
1704	 8.35085773040679E-03 
1705	 8.44704282376711E-03 
1706	 8.58186585462911E-03 
1707	 8.72787032263707E-03 
1708	 8.62674715741275E-03 
1709	 8.57596763863707E-03 
1710	 8.43342542099758E-03 
1711	 8.30269741829219E-03 
1712	 8.65170659168583E-03 
1713	 8.87661576642917E-03 
1714	 8.8542637581933E-03 
1715	 9.00760946396177E-03 
1716	 8.60593470924105E-03 
1717	 8.46509802015959E-03 
1718	 8.5065663331438E-03 
1719	 8.56868636870081E-03 
1720	 8.82372447842971E-03 
1721	 8.72638865027673E-03 
1722	 8.30031689771229E-03 
1723	 8.3669277427031E-03 
1724	 8.31484084339741E-03 
1725	 7.98361922074425E-03 
1726	 8.29539426283323E-03 
1727	 8.61052396194386E-03 
1728	 8.17158720787451E-03 
1729	 8.06278735583887E-03 
1730	 8.31118124805154E-03 
1731	 8.08241313731435E-03 
1732	 8.11647450046719E-03 
1733	 8.02970228582088E-03 
1734	 7.9191782407796E-03 
1735	 8.30801639766695E-03 
1736	 8.14547159886826E-03 
1737	 8.18392550750141E-03 
1738	 8.51394011578554E-03 
1739	 8.08768564223422E-03 
1740	 8.0177835154654E-03 
1741	 8.39608950123219E-03 
1742	 8.27540563620246E-03 
1743	 8.20208105382294E-03 
1744	 8.28907749834695E-03 
1745	 8.25322884333666E-03 
1746	 8.04969917486706E-03 
1747	 7.89590441854474E-03 
1748	 7.78501690741408E-03 
1749	 7.81706382655217E-03 
1750	 7.99306899795363E-03 
1751	 7.76633311019954E-03 
1752	 7.51286671458353E-03 
1753	 7.54969406420665E-03 
1754	 7.14499127667547E-03 
1755	 7.06628385211446E-03 
1756	 7.72787279565889E-03 
1757	 7.04740931426623E-03 
1758	 7.14514003132736E-03 
1759	 7.36784997438419E-03 
1760	 6.67833143700272E-03 
1761	 7.17677281417081E-03 
1762	 7.7997546623423E-03 
1763	 7.47982522480617E-03 
1764	 0.007651754956608 
1765	 7.37044500421543E-03 
1766	 6.42896592158181E-03 
1767	 6.29987968212367E-03 
1768	 6.35290902343139E-03 
1769	 5.84351466281108E-03 
1770	 6.25314876643571E-03 
1771	 6.90051230440975E-03 
1772	 6.6215893779067E-03 
1773	 7.16969528632955E-03 
1774	 6.68911818277992E-03 
1775	 5.18688539708062E-03 
1776	 4.98064489972009E-03 
1777	 4.9141668267065E-03 
1778	 4.91295235881085E-03 
1779	 6.50005172360794E-03 
1780	 6.38039721974927E-03 
1781	 4.02534579067691E-03 
1782	 4.41714052416644E-03 
1783	 6.24204858648392E-03 
1784	 6.42342366727462E-03 
1785	 8.09235308743651E-03 
1786	 8.10386110571529E-03 
1787	 4.45771215322397E-03 
1788	 4.31008482554676E-03 
1789	 6.28493171645204E-03 
1790	 5.80167335406156E-03 
1791	 8.63509889071092E-03 
1792	 7.82506422605487E-03 
1793	 5.7479427802179E-03 
1794	 2.97714243170374E-03 
1795	-6.14061065241345E-03 
1796	-8.49857543045514E-03 
1797	-8.10798212348304E-03 
1798	-5.12704820901998E-03 
1799	 8.54134180373585E-03 
1800	 5.75026277602473E-03 
1801	 4.0342814993932E-03 
1802	-1.05513133391554E-02 
1803	-1.97173754571252E-02 
1804	-1.64858116554262E-02 
1805	-2.12212552215261E-02 
1806	-3.26579352868561E-02 
1807	-2.73317654752646E-02 
1808	-0.004535051467247 
1809	 5.33101871689357E-03 
1810	 7.02816105817548E-02 
1811	 8.40422584155856E-02 
1812	-5.04038015603459E-02 
1813	-0.090888949350338 
1814	-0.108443659774015 
1815	-0.193550792712004 
1816	-0.166893493968324 
1817	-0.213051394017936 
1818	-0.283135542685851 
1819	-4.18811636741959E-02 
1820	-3.13689916238536E-02 
1821	-7.08306274728853E-03 
1822	 4.49516491081743E-02 
1823	 0.145190766562922 
1824	 0.236517851844431 
1825	 0.624958165684834 
1826	 0.493880006302803 
1827	-0.110679839383294 
1828	-0.14846413448308 
1829	-0.133759283023864 
1830	-0.108175765350254 
1831	-1.41976762112876 
1832	 14.4229716741274 
1833	 0.518955545330749 
1834	 0.179576422397336 
1835	-0.27241799224989 
1836	-0.976536314846473 
1837	 0.205397839999354 
1838	 0.14933624199213 
1839	 7.75669846682413E-02 
1840	 8.51420272434343E-02 
1841	-4.43610484771049E-02 
1842	 0.208774162201115 
1843	 7.30039825522071E-02 
1844	-0.17561450593161 
1845	-0.256981533916266 
1846	-0.38880120792743 
1847	-0.383269232123795 
1848	-0.392757581909231 
1849	-2.18735066372306E-02 
1850	-1.41945183571915E-02 
1851	 0.23953267079514 
1852	 0.210820096874612 
1853	-1.20711686312844E-02 
1854	-2.78349621031534E-02 
1855	 0.273588700480031 
1856	 0.531007604705073 
1857	-3.04638161406399 
1858	-1.78064437317023 
1859	 1.21041045357239 
1860	 0.796426351329888 
1861	-0.355270616044773 
1862	-0.482308663338875 
1863	-8.39166002723025E-02 
1864	-13.624307296033 
1865	 2.46916803404789 
1866	 2.27569394345657 
1867	 2.07009279840346 
1868	 2.36907970720812 
1869	 7.84861522837797 
1870	 2.56715411753609 
1871	 4.84888136544509 
1872	-1.05566795060988 
1873	-19.933684275793 
1874	 1.33562892445473 
1875	 0.580432387920671 
1876	 0.141239997011937 
1877	 0.394160992302066 
1878	 0.537754678170323 
1879	-1.56337273773973 
1880	-0.330325520960603 
1881	-0.867845292529153 
1882	 0.165591807691652 
1883	 0.338853041071227 
1884	-0.104603921612487 
1885	 0.799996914412596 
1886	 1.03855494595387 
1887	-2.19031498460872 
1888	-1.06938401629358 
1889	-0.75588154616343 
1890	 0.924498881295254 
1891	 0.889174879445666 
1892	 1.05881299868014 
1893	-0.651355711041505 
1894	-0.700648506399129 
1895	-0.592231798956036 
1896	-0.442873995376554 
1897	 2.27047413531079 
1898	-1.84806625505514 
1899	 23.340002986364 
1900	 1.83983455624185 
1901	-9.32854715704967E-02 
1902	-0.158464640219042 
1903	-0.144976165440146 
1904	-0.555891212455888 
1905	-0.832772601826342 
1906	-0.605522598109149 
1907	-0.72395963661262 
1908	-0.553663030130246 
1909	 0.337045687093719 
1910	 11.1071227062674 
1911	-0.778146593307578 
1912	 6.26001691607801E-02 
1913	 0.370683099138354 
1914	-1.22347416892661 
1915	-0.873303424495099 
1916	-0.458741031152792 
1917	-0.399749721057786 
1918	-0.410880974062549 
1919	-0.41247043909714 
1920	-0.318888116940917 
1921	 2.33717220940837E-02 
1922	 2.77292197767677E-02 
1923	-0.148591204472294 
1924	-0.377165575221201 
1925	-0.674533465428555 
1926	-1.17149558887825 
1927	-1.34911466712213 
1928	-0.557905586401118 
1929	-0.167705368282956 
1930	 0.335381770767914 
1931	 0.591134481268428 
1932	 0.602704056108075 
1933	-0.156032994911891 
1934	-0.218173460831885 
1935	 1.44377639104977E-02 
1936	-3.65773922178677E-02 
1937	-0.241779502890977 
1938	-5.66445096982984E-02 
1939	-6.62323776125394E-02 
1940	-0.181193977562915 
1941	-0.183547562741206 
1942	-4.07736901835719E-02 
1943	-7.83707179514992E-02 
1944	-0.144718269951708 
1945	-7.83386181058399E-02 
1946	-5.68582364978598E-02 
1947	-7.69615922401928E-02 
1948	-4.76529592506345E-02 
1949	-0.034790597166439 
1950	-6.06434283508366E-02 
1951	-5.77037891521002E-02 
1952	-4.38629282511262E-02 
1953	-2.27303459799313E-02 
1954	-1.29625281757687E-02 
1955	-6.47709680250134E-03 
1956	 1.18419758560311E-02 
1957	 1.48422058224555E-02 
1958	 4.36350156368327E-03 
1959	 9.96588160552888E-03 
1960	 4.12642326074926E-03 
1961	-5.57765858176521E-03 
1962	 3.48142692135498E-03 
1963	 1.00847760629951E-02 
1964	 9.3240813869503E-03 
1965	 8.6472864632656E-03 
1966	 7.1655596346766E-03 
1967	 2.11027411217428E-03 
1968	-2.79971000617653E-04 
1969	 2.32919775774027E-03 
1970	 3.42787995697093E-03 
1971	 3.81908061777202E-03 
1972	 3.65210373787297E-03 
1973	 1.59140770355095E-03 
1974	 1.29800713233274E-03 
1975	 3.32266515349391E-03 
1976	 4.55015269471456E-03 
1977	 0.005161915043897 
1978	 5.95817144042823E-03 
1979	 6.25531868994242E-03 
1980	 5.93887342141568E-03 
1981	 5.39616281034042E-03 
1982	 5.61331381822264E-03 
1983	 5.7224470424621E-03 
1984	 5.40368926878372E-03 
1985	 5.32966379897546E-03 
1986	 4.8467683694086E-03 
1987	 4.79465305330287E-03 
1988	 4.67640922433636E-03 
1989	 3.7783370647154E-03 
1990	 4.02615489061958E-03 
1991	 3.79611302853291E-03 
1992	 3.32134067500986E-03 
1993	 4.00557670897483E-03 
1994	 4.30333397459092E-03 
1995	 4.37436107720228E-03 
1996	 4.46880223053639E-03 
1997	 0.004326146244631 
1998	 4.8845424994466E-03 
1999	 5.70273163792237E-03 
2000	 5.13757853030472E-03 
2001	 6.38571536385861E-03 
2002	 7.1204052826033E-03 
2003	 6.08480372481236E-03 
2004	 6.21094054711284E-03 
2005	 7.47592243852699E-03 
2006	 9.17535734288515E-03 
2007	 8.98030259000591E-03 
2008	 8.28756393526606E-03 
2009	 7.94706406076109E-03 
2010	 5.90644175720155E-03 
2011	 3.81030890204381E-03 
2012	 1.51505238713358E-03 
2013	 2.04489416887561E-03 
2014	 1.75362448426298E-03 
2015	 2.01343277753245E-03 
2016	 3.7587323248898E-03 
2017	 4.41818517032944E-03 
2018	 4.42183653743637E-03 
2019	 4.71565166103767E-03 
2020	 4.96591734470582E-03 
2021	 5.47878141305415E-03 
2022	 6.08766250371448E-03 
2023	 6.29869636772038E-03 
2024	 6.42106290648462E-03 
2025	 6.77959829164755E-03 
2026	 6.76532364968844E-03 
2027	 6.50753518591437E-03 
2028	 5.90756684158096E-03 
2029	 5.81370895415445E-03 
2030	 6.15761392242446E-03 
2031	 6.94408063491258E-03 
2032	 7.20500243256358E-03 
2033	 6.82198211308983E-03 
2034	 6.68376737246043E-03 
2035	 5.91090621972876E-03 
2036	 5.97032068908983E-03 
2037	 6.98539999088543E-03 
2038	 7.32259831141144E-03 
2039	 7.32687785356908E-03 
2040	 6.96227090263722E-03 
2041	 6.5889166662043E-03 
2042	 5.43976515946503E-03 
2043	 5.26203256535799E-03 
2044	 5.45730755555308E-03 
2045	 6.19830264462301E-03 
2046	 6.73832143551995E-03 
2047	 7.13099612384027E-03 
2048	 7.2085272222292E-03 
2049	 7.11993546091617E-03 
2050	 7.44558073913097E-03 
2051	 7.38105519736596E-03 
2052	 6.9473325450384E-03 
2053	 7.28323205185657E-03 
2054	 7.3343274175149E-03 
2055	 7.34174368374739E-03 
2056	 0.00729944933082 
2057	 6.95071120507797E-03 
2058	 6.72809262624684E-03 
2059	 6.10641473278035E-03 
2060	 6.12297268112773E-03 
2061	 6.62076170701359E-03 
2062	 7.88755106678925E-03 
2063	 6.92846309067326E-03 
2064	 6.94461880555994E-03 
2065	 6.74968735962665E-03 
2066	 5.24509520711347E-03 
2067	 0.00517863964991 
2068	 5.4912082631018E-03 
2069	 4.89232765352758E-03 
2070	 4.35653033956566E-03 
2071	 4.02246937314642E-03 
2072	 3.98259955992537E-03 
2073	 4.38302702202156E-03 
2074	 5.18394532037923E-03 
2075	 5.99480730914727E-03 
2076	 7.57405754851104E-03 
2077	 8.1852407436873E-03 
2078	 8.42675130650955E-03 
2079	 8.65916431585207E-03 
2080	 8.49509827037581E-03 
2081	 8.33530341902257E-03 
2082	 8.23875648679682E-03 
2083	 8.60629765381452E-03 
2084	 8.93066513779012E-03 
2085	 8.96013015537306E-03 
2086	 8.90053140150808E-03 
2087	 8.3074100575081E-03 
2088	 8.46372456188414E-03 
2089	 8.58049788875586E-03 
2090	 7.88485257919483E-03 
2091	 8.48978794965843E-03 
2092	 8.39909620909394E-03 
2093	 7.33770384302154E-03 
2094	 6.88368804728503E-03 
2095	 6.61537455581665E-03 
2096	 6.38547795458447E-03 
2097	 6.43644227227413E-03 
2098	 6.74122402965621E-03 
2099	 7.42766263673048E-03 
2100	 7.72620009253037E-03 
2101	 8.34880377149614E-03 
2102	 8.55601315004462E-03 
2103	 7.82049471392994E-03 
2104	 7.22402741768132E-03 
2105	 7.07821388504454E-03 
2106	 6.70620921091016E-03 
2107	 6.78029599113724E-03 
2108	 7.15551987722808E-03 
2109	 7.09537394432355E-03 
2110	 7.08881261839002E-03 
2111	 6.85720981039539E-03 
2112	 6.65563153448454E-03 
2113	 6.81368938873729E-03 
2114	 7.14493322853813E-03 
2115	 7.1895983115089E-03 
2116	 7.43524897345565E-03 
2117	 7.90090826681973E-03 
2118	 8.58231732938606E-03 
2119	 8.60129636034007E-03 
2120	 8.42770677923708E-03 
2121	 8.35098984379877E-03 
2122	 8.24181697382514E-03 
2123	 7.43657511760129E-03 
2124	 6.84834648127869E-03 
2125	 6.8129792637204E-03 
2126	 7.02779054755373E-03 
2127	 7.46410599783784E-03 
2128	 8.47540312434194E-03 
2129	 9.10951457587589E-03 
2130	 8.0338379490039E-03 
2131	 7.70428340565201E-03 
2132	 8.41103583203647E-03 
2133	 8.27805588562494E-03 
2134	 8.10534303387335E-03 
2135	 8.02112852525289E-03 
2136	 0.008064020745191 
2137	 7.88065388938518E-03 
2138	 7.85364864345109E-03 
2139	 8.01918268032286E-03 
2140	 8.28101473228091E-03 
2141	 8.42647096457126E-03 
2142	 8.46506831516168E-03 
2143	 8.59102510686503E-03 
2144	 0.009604762225338 
2145	 8.86187332518384E-03 
2146	 8.24805822853872E-03 
2147	 8.66874709175458E-03 
2148	 7.24118473740737E-03 
2149	 6.59510495993574E-03 
2150	 6.95260082314537E-03 
2151	 6.06886154996404E-03 
2152	 6.23545749985561E-03 
2153	 6.88241782856032E-03 
2154	 6.31464816368675E-03 
2155	 6.33083466894291E-03 
2156	 6.71374128135919E-03 
2157	 6.93675570372196E-03 
2158	 7.41698801459354E-03 
2159	 7.64124671543722E-03 
2160	 7.55209540465218E-03 
2161	 7.8527771969813E-03 
2162	 8.38119507262194E-03 
2163	 8.45798799406329E-03 
2164	 8.43216372084701E-03 
2165	 8.53359427678295E-03 
2166	 8.65410376316134E-03 
2167	 8.45410614201441E-03 
2168	 8.06869637721669E-03 
2169	 7.79226502345884E-03 
2170	 7.36862415316462E-03 
2171	 6.47111634239038E-03 
2172	 6.29232389012245E-03 
2173	 6.71461767363218E-03 
2174	 6.17825502949177E-03 
2175	 5.75715692975147E-03 
2176	 4.89289380891194E-03 
2177	 4.92645117020947E-03 
2178	 5.95622527848345E-03 
2179	 6.88749886391508E-03 
2180	 8.64592754714005E-03 
2181	 9.56161129649179E-03 
2182	 9.54413758966579E-03 
2183	 8.92430701192165E-03 
2184	 8.04488390644768E-03 
2185	 7.42239164686548E-03 
2186	 6.63914479537871E-03 
2187	 5.57215667256877E-03 
2188	 5.39726985707914E-03 
2189	 5.4516897602335E-03 
2190	 5.59776281396031E-03 
2191	 6.6998697624546E-03 
2192	 7.17831691297351E-03 
2193	 7.28370733219577E-03 
2194	 7.47997274540078E-03 
2195	 7.84490404964121E-03 
2196	 8.09909530796673E-03 
2197	 7.71437386827117E-03 
2198	 8.02482833948708E-03 
2199	 8.86187986734148E-03 
2200	 9.20767309052609E-03 
2201	 0.010043068917979 
2202	 1.14204844752831E-02 
2203	 1.16009330022134E-02 
2204	 1.14547829021921E-02 
2205	 1.01643065291924E-02 
2206	 9.06648185723846E-03 
2207	 9.06688424382824E-03 
2208	 7.86224448994786E-03 
2209	 7.18742417775394E-03 
2210	 7.52020100258796E-03 
2211	 7.43450071987053E-03 
2212	 7.90326567334358E-03 
2213	 8.51626501286584E-03 
2214	 8.00340980124505E-03 
2215	 7.99592119927346E-03 
2216	 8.18371687375745E-03 
2217	 8.05569505123438E-03 
2218	 8.20065714576794E-03 
2219	 8.29588557351178E-03 
2220	 7.83762120563642E-03 
2221	 7.66725785658161E-03 
2222	 7.89471356747676E-03 
2223	 7.71388641112606E-03 
2224	 7.09616742960623E-03 
2225	 6.95351200350971E-03 
2226	 6.64060735576089E-03 
2227	 7.20809077838757E-03 
2228	 9.02512536765542E-03 
2229	 9.51490477733535E-03 
2230	 1.03263541366444E-02 
2231	 1.00153219094834E-02 
2232	 7.64843992592696E-03 
2233	 7.10160896736392E-03 
2234	 7.43338648144469E-03 
2235	 6.40285637832671E-03 
2236	 6.97486814109852E-03 
2237	 7.34807534530158E-03 
2238	 0.005604972159712 
2239	 4.88130882473716E-03 
2240	 6.12550802766733E-03 
2241	 6.58164558566784E-03 
2242	 5.70475126268755E-03 
2243	 5.38188493462595E-03 
2244	 4.61910753489576E-03 
2245	 3.33665297544727E-03 
2246	 4.63161420235251E-03 
2247	 6.53642925598781E-03 
2248	 6.93357082587941E-03 
2249	 6.92454871583727E-03 
2250	 6.60186346093704E-03 
2251	 6.5591833221453E-03 
2252	 5.63195247987943E-03 
2253	 5.50756648351695E-03 
2254	 6.88034237815523E-03 
2255	 6.79290690292135E-03 
2256	 6.20136726896714E-03 
2257	 5.50311635028692E-03 
2258	 5.18499304354269E-03 
2259	 6.19098848514799E-03 
2260	 7.11712655721645E-03 
2261	 1.03658063660924E-02 
2262	 1.12403102631555E-02 
2263	 0.010781141792628 
2264	 1.02744737358043E-02 
2265	 9.45640645548057E-03 
2266	 8.84617941404584E-03 
2267	 6.47617308910317E-03 
2268	 5.31047987249131E-03 
2269	 4.92119781156886E-03 
2270	 5.34636500422658E-03 
2271	 7.65620449319189E-03 
2272	 8.03457214527121E-03 
2273	 8.09328049029756E-03 
2274	 7.9847309352115E-03 
2275	 5.5002214012774E-03 
2276	 5.2577580712833E-03 
2277	 7.10669728324354E-03 
2278	 8.29568485917785E-03 
2279	 9.80811586402302E-03 
2280	 1.12931226432001E-02 
2281	 1.41249990926053E-02 
2282	 1.35156540003531E-02 
2283	 1.30598080865859E-02 
2284	 1.40549933123017E-02 
2285	 1.18469851250731E-02 
2286	 8.83867539255947E-03 
2287	 7.07508083482217E-03 
2288	 3.89347059035104E-03 
2289	 3.26693094787704E-03 
2290	 4.79138213856577E-03 
2291	 3.22129334654422E-03 
2292	 1.75930786999969E-03 
2293	 1.23430551898614E-03 
2294	 9.6851325754014E-04 
2295	 1.6568939400882E-03 
2296	 1.67393476216364E-03 
2297	 9.70948302039982E-04 
2298	 2.649916444408E-04 
2299	 2.84823043565002E-04 
2300	 2.04176319937064E-03 
2301	 3.06052786996421E-03 
2302	 3.43195207998644E-03 
2303	 4.98876650598921E-03 
2304	 5.15913334538402E-03 
2305	 5.66255962308341E-03 
2306	 5.90977626524015E-03 
2307	 4.24307623010114E-03 
2308	 3.90479053000243E-03 
2309	 2.64405233626579E-03 
2310	 2.29679927099078E-03 
2311	 3.49476528832064E-03 
2312	 1.11789037461022E-03 
2313	 6.64571590773761E-04 
2314	 7.31567308401038E-04 
2315	-1.89040803153756E-03 
2316	-7.99586596623385E-06 
2317	 9.50626732402284E-04 
2318	-2.16685783491889E-03 
2319	-1.04254367693282E-03 
2320	 7.11261580827495E-04 
2321	 1.99011454783646E-03 
2322	 5.58629811078092E-03 
2323	 9.03031110836252E-03 
2324	 1.31197416391646E-02 
2325	 1.39269403557343E-02 
2326	 1.32421469360509E-02 
2327	 1.07351833254775E-02 
2328	 5.88055449522818E-03 
2329	 5.87606769336634E-03 
2330	 7.28669645319328E-03 
2331	 9.68603020490144E-03 
2332	 9.2857125799762E-03 
2333	 4.69979296416963E-03 
2334	 3.08198035261806E-03 
2335	 3.45729112532153E-03 
2336	 3.6762851360182E-03 
2337	 8.25440752950602E-04 
2338	-1.40897047753768E-03 
2339	-7.39397167410106E-03 
2340	-0.014836603111018 
2341	-1.20207940567299E-02 
2342	-9.20943275356778E-03 
2343	-5.82010192331737E-03 
2344	 8.4583085870441E-04 
2345	 1.5607060921896E-03 
2346	-3.02284747581589E-03 
2347	-5.16713685665069E-03 
2348	-4.60246230352102E-03 
2349	-6.76318760921363E-03 
2350	-6.49232817934238E-03 
2351	-6.54103520987697E-03 
2352	-6.54915832753476E-03 
2353	 1.99070260914253E-03 
2354	 1.16999826253907E-02 
2355	 9.97695139641129E-03 
2356	 2.83413766707981E-04 
2357	-1.00434912802684E-02 
2358	-1.65597227103998E-02 
2359	-1.35528047257347E-02 
2360	-1.08619143810106E-02 
2361	-9.86507269043697E-03 
2362	-1.29114950660037E-02 
2363	-1.49257350263151E-02 
2364	-1.23643821257897E-02 
2365	-3.75768127381107E-03 
2366	 6.2195368902931E-03 
2367	-3.93965152838929E-05 
2368	 5.13699469429899E-04 
2369	-6.4726510828854E-03 
2370	-2.15547614343109E-02 
2371	-2.66473815877296E-02 
2372	-3.40743147763042E-02 
2373	-3.08277054222328E-02 
2374	-3.60727015602928E-02 
2375	-3.63569293186887E-02 
2376	-7.8985694636674E-03 
2377	 6.6307787639478E-03 
2378	 4.53840570342007E-03 
2379	 1.39077532091155E-02 
2380	 1.57659455680624E-03 
2381	-1.99834485457945E-02 
2382	-4.63480256580508E-03 
2383	 1.09572665286783E-02 
2384	 9.15974362211793E-03 
2385	 7.97770879685306E-03 
2386	-9.75552627348659E-04 
2387	-0.017039741129224 
2388	-2.73591091731615E-02 
2389	-3.47883432867172E-02 
2390	-2.66917613488123E-02 
2391	-7.50394857840369E-03 
2392	 0.001418208215289 
2393	 2.60736194164301E-02 
2394	 3.08523429926306E-02 
2395	-1.60607565327967E-03 
2396	-3.69226450052584E-02 
2397	-6.88028515760182E-02 
2398	-7.84091298317068E-02 
2399	-6.21910751443327E-02 
2400	-1.00666230725859E-02 
2401	 4.35162737609002E-02 
2402	 4.90432421550464E-02 
2403	 2.11539538897151E-02 
2404	-2.00008294906518E-04 
2405	-1.87019540101401E-03 
2406	-2.47981653282223E-02 
2407	-7.12139551742344E-02 
2408	-8.55443661596454E-02 
2409	-0.103889016296509 
2410	-0.110689897756832 
2411	-1.25898525406307E-03 
2412	 2.18261565697915E-02 
2413	-5.12358421079166E-02 
2414	-1.73564269147023E-02 
2415	-3.93102865602076E-02 
2416	-1.24103194005025E-02 
2417	 2.23651363194833E-02 
2418	-5.80563037419519E-02 
2419	-9.56742223068013E-02 
2420	-7.91499852173585E-02 
2421	-2.60512339258429E-02 
2422	 4.48129181847121E-02 
2423	 0.128021520202509 
2424	 0.146733237780947 
2425	 0.083140768880889 
2426	 5.66375672867789E-02 
2427	 2.69102340911233E-02 
2428	-2.15326049470427E-02 
2429	 4.87833236395732E-02 
2430	 2.90773596509821E-02 
2431	-0.175571910007364 
2432	-0.24540718383192 
2433	-0.223917700690948 
2434	-0.185673105573645 
2435	 7.13281386974714E-02 
2436	 0.249671864576662 
2437	 0.185044035221089 
2438	 0.128226187844692 
2439	 8.32544828944826E-02 
2440	 4.58472303221976E-02 
2441	-3.89212767040266E-02 
2442	-0.112060086282715 
2443	-2.68053857805798E-02 
2444	-0.196332417101506 
2445	-0.429958320195874 
2446	-0.413469503289701 
2447	-0.622061731368882 
2448	-0.828285486821669 
2449	-0.91629158780769 
2450	-1.49959387344508 
2451	-3.11789045902224 
2452	-2.0297713670091 
2453	-1.38458122294932 
2454	-0.626695578760129 
2455	-0.259713824191798 
2456	-0.449078352927841 
2457	-0.363525804942137 
2458	 2.54281355411415E-02 
2459	-1.28439547301234E-02 
2460	-4.07559557284031E-02 
2461	-1.47909582511821E-02 
2462	-0.148490731494356 
2463	-0.348262404508993 
2464	-0.607180533921341 
2465	-1.03693387899215 
2466	-2.89083666942653 
2467	-10.9898675659548 
2468	-0.615574452676378 
2469	-0.369416387989698 
2470	-1.36358064002307 
2471	 76.6020123823998 
2472	 2.72002477723112 
2473	 0.306748893722761 
2474	-0.29327110313291 
2475	 2.06085364026584 
2476	 2.15053308044378 
2477	 1.52943270897142 
2478	 2.94290113926907 
2479	 6.12245824914406 
2480	 0.396666701580523 
2481	 3.57335430609505E-02 
2482	 0.137790336860178 
2483	 0.200172278878356 
2484	-2.23618980971715 
2485	-17.3538485580711 
2486	-8.32116836576827 
2487	 1.08232837830573 
2488	-0.178237489042873 
2489	 2.33752371517866 
2490	 0.596676893515619 
2491	 4.51526194734433E-02 
2492	-4.79353273525801E-02 
2493	-0.693038322190195 
2494	-1.67426308938707 
2495	-1.24618896014777 
2496	-0.270621025746766 
2497	-0.301828498511805 
2498	-2.14064705602078E-02 
2499	 0.227271949770973 
2500	 0.994981858990319 
