Wavelength	rt0713east_far00003.asd
350	 6.95320075348002E-02 
351	 7.06825751010993E-02 
352	 7.00126118894211E-02 
353	 6.95521832749106E-02 
354	 7.01326323794527E-02 
355	 6.85862096525814E-02 
356	 6.85547427539916E-02 
357	 6.93284292780346E-02 
358	 0.069258619128673 
359	 6.89868130939671E-02 
360	 6.85777874765884E-02 
361	 6.84069405246442E-02 
362	 6.89248595519306E-02 
363	 6.93182639336797E-02 
364	 6.89447215131915E-02 
365	 6.80981992516266E-02 
366	 0.06838252906298 
367	 6.83477806349029E-02 
368	 6.85990257575538E-02 
369	 6.95588238643891E-02 
370	 6.90920543694494E-02 
371	 6.89291390904666E-02 
372	 6.92462458191714E-02 
373	 0.069306577948286 
374	 0.06930995068956 
375	 0.069195641108452 
376	 6.91122870214382E-02 
377	 6.94936244523021E-02 
378	 6.98414139158791E-02 
379	 6.97159174953499E-02 
380	 6.91447036665725E-02 
381	 6.94413945742171E-02 
382	 6.98190803383827E-02 
383	 7.01198749373454E-02 
384	 7.04399763173822E-02 
385	 7.03713705619504E-02 
386	 7.04434303232458E-02 
387	 7.06842434674674E-02 
388	 7.05204916355246E-02 
389	 7.06339272384886E-02 
390	 7.08570154321035E-02 
391	 7.10231943265533E-02 
392	 7.14468016198495E-02 
393	 7.14482386980937E-02 
394	 7.13686719080792E-02 
395	 0.071739214480437 
396	 7.19470911245747E-02 
397	 0.071976185262067 
398	 7.19498271174931E-02 
399	 7.20604081061241E-02 
400	 7.22787484737236E-02 
401	 7.23687529703334E-02 
402	 7.22557491936183E-02 
403	 7.22375070277981E-02 
404	 7.24868362205279E-02 
405	 7.27477558347167E-02 
406	 7.27251492765394E-02 
407	 7.29604731921573E-02 
408	 7.30384822418926E-02 
409	 7.30097209345532E-02 
410	 7.33921826850081E-02 
411	 7.36086320168421E-02 
412	 7.36119623816183E-02 
413	 7.35698264820812E-02 
414	 7.39226650916514E-02 
415	 7.42203155235417E-02 
416	 7.44097333869347E-02 
417	 7.46026527176542E-02 
418	 7.48315688666172E-02 
419	 7.50301648137604E-02 
420	 7.51938017755715E-02 
421	 7.53939562852476E-02 
422	 7.58132705105037E-02 
423	 7.61009476698011E-02 
424	 7.61072335668992E-02 
425	 7.65583961785169E-02 
426	 7.69623690982321E-02 
427	 7.71991074793398E-02 
428	 7.73633063877239E-02 
429	 7.76584231774971E-02 
430	 7.81419697676955E-02 
431	 7.86607591434852E-02 
432	 7.88569870540792E-02 
433	 7.90915230408634E-02 
434	 7.95129641100549E-02 
435	 8.00731229126292E-02 
436	 8.02998769372134E-02 
437	 8.06342141737323E-02 
438	 8.10651487998435E-02 
439	 8.13572301593344E-02 
440	 8.16841781456156E-02 
441	 8.20638452159335E-02 
442	 8.24790951406977E-02 
443	 8.28946060519002E-02 
444	 8.31418712876945E-02 
445	 8.33786179028552E-02 
446	 8.37720402713777E-02 
447	 8.41464794638209E-02 
448	 8.45807741184212E-02 
449	 8.49715510192146E-02 
450	 8.51170666136417E-02 
451	 8.53479155857459E-02 
452	 8.55990875810407E-02 
453	 0.085821362282103 
454	 8.61135605362676E-02 
455	 8.65374571557573E-02 
456	 8.68646296130427E-02 
457	 8.68978353683649E-02 
458	 8.72159302331776E-02 
459	 8.74208441904949E-02 
460	 8.74780477939897E-02 
461	 8.77549174762564E-02 
462	 8.81849382361418E-02 
463	 8.84405578683318E-02 
464	 8.84004549388091E-02 
465	 8.86392462363921E-02 
466	 8.89388614700231E-02 
467	 8.91476841843489E-02 
468	 8.92045306181548E-02 
469	 0.089530387338682 
470	 8.98016558828042E-02 
471	 0.089934079449957 
472	 0.09025242908044 
473	 9.04124325993298E-02 
474	 9.06075015204661E-02 
475	 9.10111774983611E-02 
476	 9.12222047569318E-02 
477	 9.13894437063927E-02 
478	 9.16685235597757E-02 
479	 9.21607723770885E-02 
480	 9.23417340696506E-02 
481	 9.25795970017612E-02 
482	 9.30317301620614E-02 
483	 9.31649006068031E-02 
484	 9.34381346327954E-02 
485	 0.093799808020191 
486	 9.40932730408373E-02 
487	 9.46783431614057E-02 
488	 9.51308568928615E-02 
489	 9.53641323886783E-02 
490	 9.56549145391551E-02 
491	 9.60681696648516E-02 
492	 9.65172616680711E-02 
493	 9.69167216614226E-02 
494	 9.72905484928844E-02 
495	 9.76719460466993E-02 
496	 9.80913212243672E-02 
497	 9.85623784584591E-02 
498	 0.098972018067975 
499	 9.94383431289116E-02 
500	 9.99774735112619E-02 
501	 0.10041757008264 
502	 0.100758964825282 
503	 0.101166675039688 
504	 0.10174579475178 
505	 0.102133850319407 
506	 0.102699254652678 
507	 0.103369590760453 
508	 0.103742914364897 
509	 0.104146005785092 
510	 0.104656622166522 
511	 0.105263030025047 
512	 0.105873523596613 
513	 0.106358169704964 
514	 0.106760639085438 
515	 0.107235972459975 
516	 0.108070269417695 
517	 0.108801686336614 
518	 0.109213560602717 
519	 0.10948190897429 
520	 0.110180340654138 
521	 0.110977375890653 
522	 0.111503290820143 
523	 0.112033206233972 
524	 0.112569731768486 
525	 0.113154575223222 
526	 0.113845142267397 
527	 0.114551999107015 
528	 0.115168469402841 
529	 0.115694638300412 
530	 0.116332134664441 
531	 0.117063212010949 
532	 0.117755643186503 
533	 0.118285163136588 
534	 0.118896810831715 
535	 0.119531110720821 
536	 0.120164120539177 
537	 0.120830718297048 
538	 0.121399108989988 
539	 0.122046806086454 
540	 0.122867651939126 
541	 0.123438509593322 
542	 0.124027400399857 
543	 0.124661255250115 
544	 0.125232222052524 
545	 0.125899472612759 
546	 0.126609562437733 
547	 0.127301243014786 
548	 0.127953406162462 
549	 0.128605989949292 
550	 0.129228389062505 
551	 0.129802805823288 
552	 0.130529658771664 
553	 0.131178528367657 
554	 0.131697341409079 
555	 0.132258113694547 
556	 0.132902667701798 
557	 0.133573604257288 
558	 0.134203440250683 
559	 0.134839516301887 
560	 0.135290960817435 
561	 0.135695270143946 
562	 0.136349139951692 
563	 0.136858436442619 
564	 0.137340759350046 
565	 0.137839994699509 
566	 0.138113698959281 
567	 0.138449906638941 
568	 0.13888161060317 
569	 0.139335676552482 
570	 0.139742030349377 
571	 0.140133285241679 
572	 0.140518437502586 
573	 0.140871612680047 
574	 0.141174846008601 
575	 0.14147491291693 
576	 0.141794184545211 
577	 0.142025911259967 
578	 0.142294764332656 
579	 0.142588624160558 
580	 0.142822272607707 
581	 0.143105511302957 
582	 0.143408352322247 
583	 0.143603628027784 
584	 0.143385851569144 
585	 0.143314560752965 
586	 0.143302466476074 
587	 0.143102204978249 
588	 0.143083384789341 
589	 0.143006956270996 
590	 0.142838641107149 
591	 0.142792275483812 
592	 0.142842660261769 
593	 0.142807037708091 
594	 0.142596704277657 
595	 0.142523909546621 
596	 0.142273879142061 
597	 0.141948885438672 
598	 0.141835566827523 
599	 0.141536249146185 
600	 0.14124181553072 
601	 0.141080991541722 
602	 0.140956289916574 
603	 0.140850878289668 
604	 0.140813994615709 
605	 0.140869987113954 
606	 0.140771725103776 
607	 0.140808264606283 
608	 0.140988372771904 
609	 0.141012974742434 
610	 0.140997292463521 
611	 0.141049616598716 
612	 0.141180826968912 
613	 0.141098263246237 
614	 0.141126522797468 
615	 0.141256247637839 
616	 0.141302739228374 
617	 0.141373785523606 
618	 0.141474026590599 
619	 0.141580230054548 
620	 0.141642723139477 
621	 0.141619636736704 
622	 0.14153776357153 
623	 0.141482116128779 
624	 0.141684702709651 
625	 0.141742044433479 
626	 0.14165146737534 
627	 0.141793163284525 
628	 0.141798214609434 
629	 0.141775385266747 
630	 0.141873493300924 
631	 0.142148263518714 
632	 0.142088873455601 
633	 0.141896782402047 
634	 0.142043023148085 
635	 0.142092997004319 
636	 0.14211297359733 
637	 0.14218674946651 
638	 0.142361020288862 
639	 0.142430408455037 
640	 0.1423630028583 
641	 0.14222526965448 
642	 0.142216535900739 
643	 0.142197763016163 
644	 0.142074555379761 
645	 0.141809235903226 
646	 0.141620195199369 
647	 0.141447979380927 
648	 0.141263998271759 
649	 0.141246842853276 
650	 0.141132783597632 
651	 0.14097489397074 
652	 0.140892110689072 
653	 0.140534224357799 
654	 0.140108955420396 
655	 0.139702552723324 
656	 0.139240177242228 
657	 0.138820657219683 
658	 0.138583924147028 
659	 0.138520499401224 
660	 0.138178801818512 
661	 0.137917542916987 
662	 0.137713169608558 
663	 0.13734265011561 
664	 0.137091413809189 
665	 0.136901551323206 
666	 0.136717633954847 
667	 0.136580164538436 
668	 0.136362615832606 
669	 0.136222545406111 
670	 0.136318220230746 
671	 0.136309626493293 
672	 0.13634284259234 
673	 0.136386059719568 
674	 0.136251955766553 
675	 0.136486887601115 
676	 0.136632971804772 
677	 0.136442742091124 
678	 0.136677136486192 
679	 0.137046939487518 
680	 0.137364673595449 
681	 0.137517181686727 
682	 0.137688008636613 
683	 0.137774339146003 
684	 0.137794066254389 
685	 0.137967439462884 
686	 0.137900668864815 
687	 0.137776546594531 
688	 0.137878900071186 
689	 0.138104782624992 
690	 0.138159781965608 
691	 0.13800456771071 
692	 0.137766641433279 
693	 0.137570245589414 
694	 0.13756073778097 
695	 0.137682260945896 
696	 0.137629140404232 
697	 0.137352771604863 
698	 0.136848564567415 
699	 0.136229343922272 
700	 0.135838881108672 
701	 0.135522328899498 
702	 0.135197087577966 
703	 0.134844128999166 
704	 0.13428941826492 
705	 0.133783140924239 
706	 0.133368681427041 
707	 0.132430801017672 
708	 0.13161492194818 
709	 0.130850911629334 
710	 0.129873486664619 
711	 0.128905003577789 
712	 0.127878935082714 
713	 0.126669046914147 
714	 0.125065379586086 
715	 0.123299232107195 
716	 0.121326324506216 
717	 0.119359400251022 
718	 0.117777324881749 
719	 0.116528712040739 
720	 0.115474172173426 
721	 0.114262884348297 
722	 0.112911944778831 
723	 0.110911398983528 
724	 0.10870592556494 
725	 0.107497821353701 
726	 0.105628396150299 
727	 0.103613558754538 
728	 0.101970498789591 
729	 0.099656315512601 
730	 9.75114649802779E-02 
731	 9.58350064999034E-02 
732	 9.43882247147914E-02 
733	 9.26549043928856E-02 
734	 9.11453752966886E-02 
735	 9.00405633270976E-02 
736	 8.89945639452015E-02 
737	 8.84659864098027E-02 
738	 8.81801253514519E-02 
739	 8.78417095606338E-02 
740	 8.75858839544012E-02 
741	 8.74807464982105E-02 
742	 0.087383932554294 
743	 8.71039158372375E-02 
744	 8.70020620460179E-02 
745	 8.69819084398822E-02 
746	 8.70083407321623E-02 
747	 8.71915748082005E-02 
748	 8.70437130721162E-02 
749	 8.67703071156929E-02 
750	 8.66956820331291E-02 
751	 8.69166841069199E-02 
752	 8.68807165139572E-02 
753	 8.66765740424014E-02 
754	 8.67068208181484E-02 
755	 8.66796079751765E-02 
756	 8.66923505436788E-02 
757	 8.67426000648299E-02 
758	 8.65971847791979E-02 
759	 8.61389071740058E-02 
760	 8.53408894952084E-02 
761	 8.50258961914466E-02 
762	 8.58981940940445E-02 
763	 8.62646076118288E-02 
764	 8.62862060462899E-02 
765	 0.086645618312688 
766	 8.70625639926456E-02 
767	 8.73684581178894E-02 
768	 8.75638877572331E-02 
769	 8.77710160855697E-02 
770	 8.78431867102935E-02 
771	 8.80092915498645E-02 
772	 8.83460821167863E-02 
773	 8.82918596683882E-02 
774	 8.85025901253873E-02 
775	 8.88371725827706E-02 
776	 0.088918380670571 
777	 8.92120907970379E-02 
778	 8.96362496495173E-02 
779	 9.00469168123149E-02 
780	 0.090293266202224 
781	 9.04650876182038E-02 
782	 9.07493723668575E-02 
783	 9.11964760159608E-02 
784	 9.15286072606056E-02 
785	 9.17329700860224E-02 
786	 9.19184562328279E-02 
787	 9.22248640350586E-02 
788	 9.26179810684136E-02 
789	 9.30833008027556E-02 
790	 9.35772772697858E-02 
791	 9.40563749365799E-02 
792	 9.46706386646093E-02 
793	 9.50217471261367E-02 
794	 9.50726837386193E-02 
795	 0.09546148708012 
796	 9.59052705201431E-02 
797	 9.63885122529768E-02 
798	 9.69086317089624E-02 
799	 9.72263679480987E-02 
800	 9.73515510320504E-02 
801	 9.74285380433139E-02 
802	 9.76635250078214E-02 
803	 9.80280978030432E-02 
804	 9.84369075887106E-02 
805	 9.87409677105464E-02 
806	 0.098748502784662 
807	 0.098520342264111 
808	 9.83032861894367E-02 
809	 9.81970367111425E-02 
810	 9.77966695539648E-02 
811	 9.73986701270467E-02 
812	 9.69655875726041E-02 
813	 9.63858334040661E-02 
814	 9.60024213443845E-02 
815	 9.53395749593068E-02 
816	 9.45187430290658E-02 
817	 0.094114873108175 
818	 0.093900202152445 
819	 9.36707868639168E-02 
820	 9.31609834019122E-02 
821	 0.091988861082366 
822	 9.09614694591101E-02 
823	 8.96981567684653E-02 
824	 0.088053791758655 
825	 8.69906965782722E-02 
826	 8.52249506004736E-02 
827	 8.33430348533677E-02 
828	 8.23542135940393E-02 
829	 8.02264786833688E-02 
830	 7.83846721811757E-02 
831	 7.73002363326912E-02 
832	 7.65949245444881E-02 
833	 0.07583751491214 
834	 7.50641852168037E-02 
835	 7.43425743266161E-02 
836	 7.37011134829858E-02 
837	 0.0733799217486 
838	 7.32069430784008E-02 
839	 7.29335911176155E-02 
840	 7.23125594702955E-02 
841	 7.20750451565774E-02 
842	 7.21007207955648E-02 
843	 7.19374680809467E-02 
844	 7.12712486514384E-02 
845	 7.07028938008918E-02 
846	 7.04920740910075E-02 
847	 7.05607489036933E-02 
848	 7.04446547435558E-02 
849	 7.00254431002528E-02 
850	 6.95506298578349E-02 
851	 6.95988362107026E-02 
852	 6.92993164965651E-02 
853	 6.88780088697509E-02 
854	 6.85807114084366E-02 
855	 6.81474507908981E-02 
856	 6.80247116720243E-02 
857	 6.79074207602098E-02 
858	 6.75461387874067E-02 
859	 6.76967817565725E-02 
860	 6.74987159107389E-02 
861	 6.69715449833456E-02 
862	 6.66308537286931E-02 
863	 6.69275874942532E-02 
864	 6.69051029755922E-02 
865	 6.62372154393289E-02 
866	 6.54286597894711E-02 
867	 6.59850094173891E-02 
868	 6.60802491706262E-02 
869	 0.065206498395057 
870	 6.51006150130292E-02 
871	 6.48934040993767E-02 
872	 6.45922217755919E-02 
873	 6.42698281103169E-02 
874	 6.37567780434011E-02 
875	 6.32179272466171E-02 
876	 6.28345959431364E-02 
877	 0.062680329041854 
878	 6.24952121653139E-02 
879	 6.20685910986315E-02 
880	 6.16754223198713E-02 
881	 6.16331726378965E-02 
882	 6.11136615897253E-02 
883	 6.05238954591816E-02 
884	 0.060312712330783 
885	 6.06759762098259E-02 
886	 0.059978030096743 
887	 0.0596200917082 
888	 5.97824680338562E-02 
889	 5.89839297310967E-02 
890	 0.058253203965364 
891	 5.83699055592674E-02 
892	 5.90150588522922E-02 
893	 5.78340277226263E-02 
894	 5.74322181279287E-02 
895	 5.71914854898384E-02 
896	 5.61803375385218E-02 
897	 0.055895384076215 
898	 0.055419240367038 
899	 5.48864224486691E-02 
900	 5.46439774909568E-02 
901	 5.42616677066532E-02 
902	 5.54204285580644E-02 
903	 0.056228136665313 
904	 5.44878376645303E-02 
905	 5.30797728984576E-02 
906	 5.35727204041589E-02 
907	 5.47476957402314E-02 
908	 5.37308410675754E-02 
909	 5.33876550406245E-02 
910	 5.24879915470361E-02 
911	 5.16716468921098E-02 
912	 5.30055423272588E-02 
913	 0.052847325993078 
914	 5.16415894682202E-02 
915	 5.07391806230314E-02 
916	 5.13717522296694E-02 
917	 5.00634997374952E-02 
918	 0.048846529659476 
919	 0.048686666673307 
920	 4.82162875837782E-02 
921	 4.83232767922014E-02 
922	 4.79516561369542E-02 
923	 4.67240458350301E-02 
924	 4.64384394965224E-02 
925	 4.85343399546622E-02 
926	 4.89199403969688E-02 
927	 4.42685058079645E-02 
928	 4.27292885076382E-02 
929	 4.26764509073361E-02 
930	 4.38476417733189E-02 
931	 4.56362839802891E-02 
932	 4.46830109806112E-02 
933	 4.19568565693526E-02 
934	 3.94324882448487E-02 
935	 3.87289963599818E-02 
936	 3.88656345732606E-02 
937	 4.24438400756061E-02 
938	 4.47076960810136E-02 
939	 4.16428234407272E-02 
940	 3.80674623131576E-02 
941	 3.72861910820087E-02 
942	 3.56414076634992E-02 
943	 2.96774496578791E-02 
944	 4.03808899678816E-02 
945	 4.36203858364752E-02 
946	 3.62658092547492E-02 
947	 3.13497017208079E-02 
948	 3.82343484932225E-02 
949	 3.97431045728168E-02 
950	 0.035816816946708 
951	 3.63165226858589E-02 
952	 3.36971692220148E-02 
953	 3.27750495104641E-02 
954	 3.25804223234412E-02 
955	 2.97459837477071E-02 
956	 3.59370900687136E-02 
957	 3.59683538730852E-02 
958	 3.16709661769681E-02 
959	 3.47201753996141E-02 
960	 0.03131121157011 
961	 3.33156993469461E-02 
962	 3.75869217705078E-02 
963	 3.30121264129837E-02 
964	 3.21863191088766E-02 
965	 3.40430580293503E-02 
966	 3.53514048335633E-02 
967	 3.38007827608346E-02 
968	 3.84308963822207E-02 
969	 3.82713699861735E-02 
970	 3.45163504367199E-02 
971	 3.79992300624395E-02 
972	 0.039124066353614 
973	 0.034974115824168 
974	 3.17602164810821E-02 
975	 4.00356829726589E-02 
976	 3.73569018505746E-02 
977	 3.53561427621357E-02 
978	 3.73202020165117E-02 
979	 3.65217189654627E-02 
980	 3.54454601593904E-02 
981	 0.035510637068924 
982	 3.62480221104718E-02 
983	 3.62478830035467E-02 
984	 3.84973525022327E-02 
985	 3.78017034166102E-02 
986	 3.53494402048935E-02 
987	 3.67695630373488E-02 
988	 3.84263706808445E-02 
989	 3.89304167782057E-02 
990	 0.038236774287818 
991	 3.73752909877008E-02 
992	 3.77198294904475E-02 
993	 3.81342483455605E-02 
994	 3.75808259236856E-02 
995	 3.56903891282225E-02 
996	 0.033394990010732 
997	 3.75188874520079E-02 
998	 4.11931877356627E-02 
999	 3.43008118706143E-02 
1000	 3.74077447601131E-02 
1001	 2.99968999825687E-02 
1002	 3.07946175039302E-02 
1003	 3.14209093016983E-02 
1004	 3.23750356156492E-02 
1005	 3.30534824924227E-02 
1006	 3.39168399682453E-02 
1007	 3.41100304693373E-02 
1008	 3.43488605612955E-02 
1009	 3.42167788645659E-02 
1010	 3.27042878057219E-02 
1011	 3.20004484027825E-02 
1012	 3.19087234533728E-02 
1013	 0.031584138939534 
1014	 3.19130269752763E-02 
1015	 3.34999792354823E-02 
1016	 3.41451603043353E-02 
1017	 3.48262735416522E-02 
1018	 3.50592680935117E-02 
1019	 3.48936242176344E-02 
1020	 3.47335673697091E-02 
1021	 3.42100253380588E-02 
1022	 0.033498070818601 
1023	 3.35802011982797E-02 
1024	 3.39483468289561E-02 
1025	 3.45882939682176E-02 
1026	 3.50922263885383E-02 
1027	 0.035260316877206 
1028	 3.51496415873486E-02 
1029	 3.48850688433272E-02 
1030	 3.42207791870448E-02 
1031	 3.41031184381652E-02 
1032	 3.38402443910602E-02 
1033	 3.41150155531688E-02 
1034	 3.53819534768726E-02 
1035	 3.56247124160581E-02 
1036	 3.54511736945343E-02 
1037	 3.54635394960956E-02 
1038	 0.034893764920647 
1039	 3.46893561015448E-02 
1040	 3.51676544249016E-02 
1041	 0.035750823944871 
1042	 3.59688705707469E-02 
1043	 3.60959188274282E-02 
1044	 3.63337713187988E-02 
1045	 3.65295891431095E-02 
1046	 3.65940396037565E-02 
1047	 3.67850509531445E-02 
1048	 3.67680704353811E-02 
1049	 3.62000378046254E-02 
1050	 3.61133638037847E-02 
1051	 3.64491779114073E-02 
1052	 3.64566694258352E-02 
1053	 3.63193552175451E-02 
1054	 3.64106138250843E-02 
1055	 3.63656493599861E-02 
1056	 3.64621607205643E-02 
1057	 3.67109560388071E-02 
1058	 3.73950973788644E-02 
1059	 3.76206751124222E-02 
1060	 0.037671922023435 
1061	 3.78240193969159E-02 
1062	 0.037943580561925 
1063	 3.79677053346964E-02 
1064	 0.038059050475335 
1065	 3.79677494858695E-02 
1066	 3.75099371453889E-02 
1067	 3.73617409620173E-02 
1068	 0.03751462477558 
1069	 3.73111760437152E-02 
1070	 3.67878809064002E-02 
1071	 3.66607326934594E-02 
1072	 3.67579758522972E-02 
1073	 0.036210265876177 
1074	 3.65868969123519E-02 
1075	 3.80113657095655E-02 
1076	 3.80267692134348E-02 
1077	 3.76263619293611E-02 
1078	 0.037471370086699 
1079	 3.65152890489935E-02 
1080	 3.62649766352938E-02 
1081	 3.65543633658358E-02 
1082	 3.68471294704932E-02 
1083	 3.75521239314487E-02 
1084	 3.76571496490642E-02 
1085	 3.78370296969785E-02 
1086	 3.77305017505856E-02 
1087	 3.64953035598198E-02 
1088	 3.61357815222831E-02 
1089	 3.66061011209212E-02 
1090	 3.63999173120749E-02 
1091	 3.62616247414793E-02 
1092	 3.64670619245824E-02 
1093	 3.62224564656049E-02 
1094	 3.52851047446799E-02 
1095	 3.50165285388235E-02 
1096	 3.48365192063191E-02 
1097	 3.49259594883261E-02 
1098	 3.60201513865218E-02 
1099	 3.60052655074447E-02 
1100	 3.51715294823701E-02 
1101	 3.49381378400563E-02 
1102	 3.42723405257697E-02 
1103	 3.36937142309684E-02 
1104	 3.29771890339897E-02 
1105	 3.41696558298838E-02 
1106	 0.034381462633702 
1107	 3.27195246279663E-02 
1108	 3.20979992650456E-02 
1109	 3.24462118792198E-02 
1110	 3.26716990953746E-02 
1111	 3.42086304986113E-02 
1112	 3.39006636308131E-02 
1113	 3.17920267213692E-02 
1114	 3.09276797164488E-02 
1115	 2.80785276378601E-02 
1116	 2.75488439781114E-02 
1117	 0.033334496376856 
1118	 3.48432637928962E-02 
1119	 3.51479527787047E-02 
1120	 3.36088707546287E-02 
1121	 2.24436081655054E-02 
1122	 1.38195033163619E-02 
1123	 1.91180305964956E-02 
1124	 2.46651199315724E-02 
1125	 1.87930661694094E-02 
1126	 0.012855002069423 
1127	 1.31639463528178E-02 
1128	 9.83020460875272E-03 
1129	 1.34778910307496E-02 
1130	 3.85542318093492E-02 
1131	 3.92757390845235E-02 
1132	 2.34509470427829E-02 
1133	 2.30557836059332E-02 
1134	 2.75714963027591E-02 
1135	 2.53915880075082E-02 
1136	 2.20312068866117E-02 
1137	 2.24663367268989E-02 
1138	 2.07511768855357E-02 
1139	 2.07492365107257E-02 
1140	 0.025260461813576 
1141	 2.81749834842732E-02 
1142	 0.026032631188387 
1143	 2.22817610795117E-02 
1144	 0.020938720154126 
1145	 2.44532944512258E-02 
1146	 2.88445829232314E-02 
1147	 2.78917990614792E-02 
1148	 0.022283721602461 
1149	 2.10111897968648E-02 
1150	 2.17272745656393E-02 
1151	 2.24100099114299E-02 
1152	 2.44887345654465E-02 
1153	 3.15078603391043E-02 
1154	 3.17654469039247E-02 
1155	 2.88646002481514E-02 
1156	 2.83932750478945E-02 
1157	 2.88546487636932E-02 
1158	 2.83283173369691E-02 
1159	 2.92844564164506E-02 
1160	 0.030500304347418 
1161	 3.07979547597456E-02 
1162	 3.08577508575881E-02 
1163	 3.06457793979787E-02 
1164	 3.15059500921903E-02 
1165	 3.15434968477428E-02 
1166	 2.96925274623732E-02 
1167	 2.94048191433319E-02 
1168	 3.00078365528087E-02 
1169	 3.03046609849382E-02 
1170	 3.12190186138078E-02 
1171	 3.17756703635249E-02 
1172	 3.19329050609232E-02 
1173	 3.18641711964578E-02 
1174	 3.16137161501842E-02 
1175	 3.17958757389126E-02 
1176	 3.12803351688448E-02 
1177	 3.10327114565486E-02 
1178	 3.15449972722554E-02 
1179	 3.17052272033242E-02 
1180	 3.19598635195506E-02 
1181	 3.18664182907935E-02 
1182	 3.10879669226126E-02 
1183	 3.08729568768124E-02 
1184	 3.05376287724502E-02 
1185	 0.030668974195491 
1186	 3.17818724034312E-02 
1187	 3.19240768657982E-02 
1188	 3.19078569895238E-02 
1189	 0.031947793099412 
1190	 3.15595180722589E-02 
1191	 3.16872369912911E-02 
1192	 3.14935257798758E-02 
1193	 3.14946809997358E-02 
1194	 3.11652506212152E-02 
1195	 3.09205594500101E-02 
1196	 3.08593156952999E-02 
1197	 3.08141497650687E-02 
1198	 3.10825293834094E-02 
1199	 3.18683213024335E-02 
1200	 3.17732029013907E-02 
1201	 0.031170708495455 
1202	 3.17448991796876E-02 
1203	 3.20286350434394E-02 
1204	 3.16139720551208E-02 
1205	 3.21866064684581E-02 
1206	 3.26876875148895E-02 
1207	 3.19993572644825E-02 
1208	 3.14096782519673E-02 
1209	 3.17106354027444E-02 
1210	 3.22124532824695E-02 
1211	 3.22650496493749E-02 
1212	 3.20771138561363E-02 
1213	 3.21939408997563E-02 
1214	 3.22593521899978E-02 
1215	 3.19844723878123E-02 
1216	 3.17618292512525E-02 
1217	 3.19985913492167E-02 
1218	 3.19978084655539E-02 
1219	 0.031932448985182 
1220	 3.25305860839525E-02 
1221	 3.30282077394513E-02 
1222	 0.032695761183267 
1223	 0.032010378018101 
1224	 3.14642716801921E-02 
1225	 3.13539333949806E-02 
1226	 3.18724345338102E-02 
1227	 3.23272323738385E-02 
1228	 3.20023696395736E-02 
1229	 3.15288476151705E-02 
1230	 3.16897958854535E-02 
1231	 3.22314871561586E-02 
1232	 3.26110313742023E-02 
1233	 3.27622769120915E-02 
1234	 0.032723669934434 
1235	 3.27221415697466E-02 
1236	 3.24196451462912E-02 
1237	 3.24376021581321E-02 
1238	 3.29335471256712E-02 
1239	 3.25683248171715E-02 
1240	 3.21527608785811E-02 
1241	 3.22115206323714E-02 
1242	 0.032360792843485 
1243	 3.26712059187672E-02 
1244	 0.032671110070423 
1245	 3.20809661173721E-02 
1246	 3.17658557439344E-02 
1247	 3.20699192913251E-02 
1248	 3.22249973321944E-02 
1249	 3.22438660624161E-02 
1250	 3.21781633260876E-02 
1251	 3.17779720595677E-02 
1252	 0.031678909679054 
1253	 3.22271742600197E-02 
1254	 3.23471217967837E-02 
1255	 3.18937732637809E-02 
1256	 3.17345479762964E-02 
1257	 3.15355685388492E-02 
1258	 3.14345005090611E-02 
1259	 0.031465424474463 
1260	 3.14913873737442E-02 
1261	 3.16139977404246E-02 
1262	 3.17562958204133E-02 
1263	 3.18999176380618E-02 
1264	 3.20936095925813E-02 
1265	 3.20680789542519E-02 
1266	 3.20949901560162E-02 
1267	 3.22171860251361E-02 
1268	 3.20283419592364E-02 
1269	 0.032054632308228 
1270	 3.20350294234142E-02 
1271	 3.20158945742719E-02 
1272	 3.21056908324683E-02 
1273	 3.20111596251107E-02 
1274	 3.20670011560625E-02 
1275	 3.21404218334942E-02 
1276	 3.21230592708027E-02 
1277	 3.19849674371614E-02 
1278	 3.19262371223545E-02 
1279	 3.19847574789663E-02 
1280	 3.18679554352127E-02 
1281	 3.19159182229515E-02 
1282	 3.25914112707069E-02 
1283	 3.26613348133041E-02 
1284	 3.20996733329585E-02 
1285	 3.21136021661446E-02 
1286	 3.24341333670516E-02 
1287	 3.23419081733661E-02 
1288	 3.22969741143618E-02 
1289	 3.23214255356248E-02 
1290	 3.22004810503598E-02 
1291	 3.17499528974181E-02 
1292	 3.18343892475145E-02 
1293	 3.18415006761661E-02 
1294	 3.13514878559447E-02 
1295	 3.13834461803108E-02 
1296	 3.22196427875753E-02 
1297	 3.25821636676004E-02 
1298	 3.22879830804216E-02 
1299	 3.21424090342852E-02 
1300	 3.18787624485735E-02 
1301	 3.15677006781117E-02 
1302	 3.14788518652676E-02 
1303	 3.13841652461297E-02 
1304	 3.11548763831502E-02 
1305	 0.030568362390339 
1306	 3.04853045854626E-02 
1307	 3.15062812560861E-02 
1308	 3.17131269473629E-02 
1309	 0.031407786740956 
1310	 3.11840473557612E-02 
1311	 3.07693487818714E-02 
1312	 3.06686256675604E-02 
1313	 3.05373104386177E-02 
1314	 3.05343792138375E-02 
1315	 3.13467175453418E-02 
1316	 3.11126475643201E-02 
1317	 2.95342059902923E-02 
1318	 0.029338420131838 
1319	 2.96700009573607E-02 
1320	 2.93985865702126E-02 
1321	 2.89188661538879E-02 
1322	 3.04628368114128E-02 
1323	 3.10045042316973E-02 
1324	 3.00327768036837E-02 
1325	 3.03158942468388E-02 
1326	 3.04793926967298E-02 
1327	 2.98297998649824E-02 
1328	 2.90810595278113E-02 
1329	 2.74944017991813E-02 
1330	 2.70738612990474E-02 
1331	 2.82217876479001E-02 
1332	 2.85295923490784E-02 
1333	 2.77753681987191E-02 
1334	 2.68505308123442E-02 
1335	 2.78650940598418E-02 
1336	 2.93841803998345E-02 
1337	 2.95330917240371E-02 
1338	 3.11785390330773E-02 
1339	 3.22285043681049E-02 
1340	 3.12826970837156E-02 
1341	 3.02681506899851E-02 
1342	 2.88023596009885E-02 
1343	 2.93587577142883E-02 
1344	 3.14022051990409E-02 
1345	 3.05778699589957E-02 
1346	 3.18861499455393E-02 
1347	 3.20165552261347E-02 
1348	 1.36968444896103E-02 
1349	 6.77581479462742E-03 
1350	 3.82488012909696E-02 
1351	 5.09788822352665E-02 
1352	 4.29758533525184E-02 
1353	 4.74219529083185E-02 
1354	-6.67670867790228E-03 
1355	-4.05479376082269E-02 
1356	-9.43569118767205E-02 
1357	-0.171109702484454 
1358	-0.121048600920079 
1359	-0.190380464431891 
1360	-0.254144701682337 
1361	-0.121960989091971 
1362	-0.11313280576865 
1363	-0.263347981803452 
1364	-0.482600406286256 
1365	-0.653248858198151 
1366	-0.13923236065285 
1367	-0.197840699803876 
1368	-0.385440956193707 
1369	-0.53349806006533 
1370	-0.21885082445407 
1371	-0.191766542340343 
1372	-0.361416143907738 
1373	-0.193602922247948 
1374	-8.37407431301473E-02 
1375	-0.62888357170063 
1376	-0.769639025376648 
1377	-0.37880427274236 
1378	-0.196156200871373 
1379	-4.44261530413561E-02 
1380	-8.96231565623946E-02 
1381	-0.36457985222544 
1382	-0.329179530499744 
1383	-0.50587741754335 
1384	-1.27385796032058 
1385	-1.30372583307331 
1386	-0.707802109886684 
1387	-0.581191914369571 
1388	-0.680090522099674 
1389	 0.579961985408313 
1390	 0.843928860566041 
1391	 1.85398574762719 
1392	 0.264589470962765 
1393	 3.73556976552008E-02 
1394	-1.66122703055706 
1395	 0.143218214125418 
1396	 1.3206328141836 
1397	-1.76468482890019 
1398	-1.02344403597658 
1399	-0.72604500942744 
1400	-1.52604460647507 
1401	-0.511362942010811 
1402	 0.403234046883586 
1403	-1.10707746696874 
1404	-1.31211439172302 
1405	-1.87314656505948 
1406	-0.563561856656211 
1407	-0.526282134167495 
1408	-0.995334141044282 
1409	-0.804363628663622 
1410	-0.362483314869169 
1411	-0.294537257365285 
1412	 0.046722955597751 
1413	 0.137576644040281 
1414	-0.154045302224597 
1415	-0.243863748029811 
1416	-0.369508604370951 
1417	-0.279428766402091 
1418	-6.32579278988108E-02 
1419	-4.08776280389664E-02 
1420	-3.37785657115035E-02 
1421	-4.38463539538519E-03 
1422	-2.09934929093975E-02 
1423	-4.41999425190929E-02 
1424	-5.25961441816769E-02 
1425	-3.67655837289733E-02 
1426	-5.52068509473999E-02 
1427	-5.09383145437022E-02 
1428	 0.036064820816346 
1429	 4.06098816819507E-02 
1430	-3.46090654402412E-02 
1431	-3.57330349479129E-02 
1432	-9.79090423177498E-03 
1433	-2.28266480963066E-02 
1434	-2.90723383543501E-02 
1435	-2.37796707135113E-02 
1436	-5.60960106903328E-02 
1437	-6.54234342723307E-02 
1438	-1.36314157624987E-02 
1439	 1.41816365788686E-02 
1440	 1.88924575481079E-02 
1441	 1.60343617645273E-02 
1442	 1.08893769226141E-03 
1443	-8.21338555232707E-03 
1444	-0.012864144474636 
1445	-1.39097259409616E-02 
1446	-4.24518844153474E-03 
1447	 4.99103897567514E-03 
1448	 3.6787580972357E-03 
1449	 7.6004536509129E-03 
1450	 4.88188486371687E-03 
1451	 3.06369481598383E-03 
1452	 1.90925096840203E-02 
1453	 1.93056029593054E-02 
1454	 1.71911294600218E-02 
1455	 1.11328425558922E-02 
1456	 1.72751320332173E-02 
1457	 2.54618327588984E-02 
1458	 2.55135428211024E-02 
1459	 2.91633859399435E-02 
1460	 3.12416185259125E-02 
1461	 2.59313096499885E-02 
1462	 0.022748073767521 
1463	 2.39515180055672E-02 
1464	 2.42604806861893E-02 
1465	 1.84578198852851E-02 
1466	 0.015490078057827 
1467	 1.77913091103365E-02 
1468	 2.22433959371743E-02 
1469	 2.66135137345499E-02 
1470	 0.027538255663417 
1471	 3.24523566772672E-02 
1472	 3.57864524700125E-02 
1473	 3.28749804650556E-02 
1474	 3.10442224202685E-02 
1475	 3.58222384905527E-02 
1476	 3.25358854568158E-02 
1477	 1.79125269283052E-02 
1478	 1.70685908995413E-02 
1479	 2.18267573847356E-02 
1480	 2.22724903556977E-02 
1481	 2.64535168343241E-02 
1482	 2.82592598995467E-02 
1483	 2.67059090127067E-02 
1484	 2.57277034426597E-02 
1485	 2.56756412133249E-02 
1486	 2.56634158169629E-02 
1487	 2.40745678193502E-02 
1488	 2.43709929192632E-02 
1489	 2.60812194738648E-02 
1490	 2.68695627425429E-02 
1491	 2.80201444929813E-02 
1492	 0.028323735923422 
1493	 2.82670849737496E-02 
1494	 2.80731317304844E-02 
1495	 2.69035748023758E-02 
1496	 2.68421184913762E-02 
1497	 2.75828628749875E-02 
1498	 2.77056912729025E-02 
1499	 0.027738248089816 
1500	 2.81747186548563E-02 
1501	 2.86226820535171E-02 
1502	 2.88290689775136E-02 
1503	 2.88703804469091E-02 
1504	 2.95066373312018E-02 
1505	 3.05754876953477E-02 
1506	 3.10441887227761E-02 
1507	 3.08518068198868E-02 
1508	 3.08709021768762E-02 
1509	 3.04242915080491E-02 
1510	 3.04309702740371E-02 
1511	 3.05330934874943E-02 
1512	 3.06008646315481E-02 
1513	 3.11509439038369E-02 
1514	 3.06734876536438E-02 
1515	 2.99620230818421E-02 
1516	 3.03553286200394E-02 
1517	 3.07019168090932E-02 
1518	 3.06914938409816E-02 
1519	 3.11637864206415E-02 
1520	 3.16513610781702E-02 
1521	 3.09213921215924E-02 
1522	 3.02971242252208E-02 
1523	 3.10484131733419E-02 
1524	 3.13656238123827E-02 
1525	 3.10838805297139E-02 
1526	 3.12886372855961E-02 
1527	 3.10655848203848E-02 
1528	 3.06042256959637E-02 
1529	 3.09028101670485E-02 
1530	 3.14141526475916E-02 
1531	 3.14240742172611E-02 
1532	 3.13741572516097E-02 
1533	 3.17277689593362E-02 
1534	 3.17739658876651E-02 
1535	 0.031472276364333 
1536	 3.17920059174499E-02 
1537	 0.032030182175781 
1538	 3.14548994600488E-02 
1539	 3.12419443419092E-02 
1540	 3.12679210599142E-02 
1541	 3.11892417385462E-02 
1542	 0.031668982347106 
1543	 3.20213843056274E-02 
1544	 3.18528383665397E-02 
1545	 3.15695118862527E-02 
1546	 3.13149048512011E-02 
1547	 3.12058376126489E-02 
1548	 0.031349525904188 
1549	 3.18057026958064E-02 
1550	 3.19942207537911E-02 
1551	 3.18544754460125E-02 
1552	 3.18223498962765E-02 
1553	 3.13431193391831E-02 
1554	 0.030891580878554 
1555	 3.11069009070542E-02 
1556	 3.11474577038546E-02 
1557	 3.14199308460773E-02 
1558	 3.19808977644126E-02 
1559	 3.18717896295676E-02 
1560	 3.17101270726412E-02 
1561	 3.13793938618771E-02 
1562	 3.06907788331078E-02 
1563	 3.06018316239216E-02 
1564	 3.08988591031539E-02 
1565	 3.12774055686586E-02 
1566	 3.15812841081967E-02 
1567	 3.14268024069884E-02 
1568	 3.13114804504288E-02 
1569	 3.15041649852922E-02 
1570	 3.14650631545722E-02 
1571	 3.13767872550632E-02 
1572	 0.031317872343656 
1573	 3.12351473796128E-02 
1574	 0.031665033960427 
1575	 3.20730526068823E-02 
1576	 3.20547730726634E-02 
1577	 3.17257753548916E-02 
1578	 3.12975086172035E-02 
1579	 3.12931398996634E-02 
1580	 3.12421090805657E-02 
1581	 3.12649724330086E-02 
1582	 0.031633773008776 
1583	 3.18090498909068E-02 
1584	 3.21060454384219E-02 
1585	 3.23672808347845E-02 
1586	 3.18586232732182E-02 
1587	 3.11986694046285E-02 
1588	 3.14883115401321E-02 
1589	 3.19586005758658E-02 
1590	 3.19377107378455E-02 
1591	 3.21463693591441E-02 
1592	 3.21878305112545E-02 
1593	 3.19947122423507E-02 
1594	 3.21738619455768E-02 
1595	 3.18890724878052E-02 
1596	 3.11342211645353E-02 
1597	 3.12515682232527E-02 
1598	 3.15624485010274E-02 
1599	 0.031301871411378 
1600	 3.12855645142441E-02 
1601	 3.11103846063327E-02 
1602	 3.04045137855674E-02 
1603	 3.07634718939782E-02 
1604	 3.19437452396545E-02 
1605	 3.18619303304448E-02 
1606	 3.13185869606084E-02 
1607	 3.10086089624414E-02 
1608	 3.09313845530423E-02 
1609	 3.12242097805053E-02 
1610	 3.10777877407558E-02 
1611	 3.16675765240305E-02 
1612	 3.23334544271348E-02 
1613	 3.16728194815009E-02 
1614	 3.17168080343591E-02 
1615	 3.21000841959258E-02 
1616	 3.13118757701521E-02 
1617	 3.08269490611917E-02 
1618	 3.11094202795969E-02 
1619	 3.09246809764789E-02 
1620	 3.07123261169128E-02 
1621	 3.12773467114505E-02 
1622	 3.13861837918606E-02 
1623	 0.030837372102497 
1624	 3.10072374420401E-02 
1625	 3.15664468922448E-02 
1626	 0.03171179905978 
1627	 3.20069221010129E-02 
1628	 3.21995505320262E-02 
1629	 3.17476600319667E-02 
1630	 3.18153953952331E-02 
1631	 3.22534984037719E-02 
1632	 3.18913121941388E-02 
1633	 3.11832538160257E-02 
1634	 0.031091677640878 
1635	 3.12375659476933E-02 
1636	 0.031232694249608 
1637	 3.20180175468247E-02 
1638	 3.26810715974823E-02 
1639	 3.21473809328063E-02 
1640	 3.16358544055067E-02 
1641	 3.15052697340891E-02 
1642	 3.10743869691283E-02 
1643	 3.12738396543383E-02 
1644	 0.032120807088669 
1645	 3.17335972742562E-02 
1646	 3.13499713533263E-02 
1647	 3.17935217299936E-02 
1648	 0.031826577655113 
1649	 3.20189771324425E-02 
1650	 3.21077058566232E-02 
1651	 3.16297942800504E-02 
1652	 0.03179907982075 
1653	 3.19555265557498E-02 
1654	 0.031803890985531 
1655	 3.15481293420145E-02 
1656	 3.15567695757626E-02 
1657	 3.16741170758083E-02 
1658	 3.16867281187844E-02 
1659	 3.17182502701048E-02 
1660	 3.13274852698339E-02 
1661	 3.02775172317991E-02 
1662	 0.030773927291194 
1663	 3.24039933031416E-02 
1664	 0.032288783030782 
1665	 3.21254295769162E-02 
1666	 3.24346610662234E-02 
1667	 3.13123608170257E-02 
1668	 3.21778856134175E-02 
1669	 3.29964564932533E-02 
1670	 3.24641171724345E-02 
1671	 3.28652375605571E-02 
1672	 3.34346606270202E-02 
1673	 3.30838534943114E-02 
1674	 3.27824413846127E-02 
1675	 3.24941492243674E-02 
1676	 3.17735153858106E-02 
1677	 3.15984645361881E-02 
1678	 3.18894524037887E-02 
1679	 3.20313119245219E-02 
1680	 3.23710942637925E-02 
1681	 0.032678143062042 
1682	 3.23752800666778E-02 
1683	 3.22054614276846E-02 
1684	 3.28229238523798E-02 
1685	 3.27988868859851E-02 
1686	 3.20059474641941E-02 
1687	 3.13676505878292E-02 
1688	 3.07148914705283E-02 
1689	 3.03956256982627E-02 
1690	 3.08445029938687E-02 
1691	 3.14005275329154E-02 
1692	 3.08881932686481E-02 
1693	 3.05514536362954E-02 
1694	 3.10196213437186E-02 
1695	 3.10769688898002E-02 
1696	 3.10554846502369E-02 
1697	 3.10014462390444E-02 
1698	 3.12078397478684E-02 
1699	 3.14255246226461E-02 
1700	 0.031570172772528 
1701	 3.16971096294128E-02 
1702	 3.13932553493743E-02 
1703	 3.16537331805021E-02 
1704	 0.031482885747434 
1705	 3.10057143033151E-02 
1706	 3.12985917327073E-02 
1707	 3.14078445390113E-02 
1708	 3.16903862845198E-02 
1709	 3.17533238718138E-02 
1710	 3.11771569566194E-02 
1711	 3.05398633373374E-02 
1712	 3.07321410339543E-02 
1713	 3.26372559905362E-02 
1714	 3.25600100828157E-02 
1715	 3.01215675805935E-02 
1716	 3.07036154867693E-02 
1717	 3.18919508356537E-02 
1718	 3.21048137337485E-02 
1719	 3.21576814148872E-02 
1720	 3.10240337269373E-02 
1721	 2.92866641394677E-02 
1722	 2.99300777785417E-02 
1723	 3.10900302291077E-02 
1724	 3.10170197696203E-02 
1725	 3.13901391760763E-02 
1726	 3.21010607139185E-02 
1727	 3.12819592468108E-02 
1728	 2.98255496930955E-02 
1729	 3.04478514851144E-02 
1730	 0.031217487732938 
1731	 3.01899893564526E-02 
1732	 3.06811869091552E-02 
1733	 3.13963595009411E-02 
1734	 2.96448620092916E-02 
1735	 3.00785609984786E-02 
1736	 0.032015004259437 
1737	 3.14038755596733E-02 
1738	 3.10926776109311E-02 
1739	 3.15464463679517E-02 
1740	 3.14249082346377E-02 
1741	 3.13637472929798E-02 
1742	 3.12603464771301E-02 
1743	 3.11040155430618E-02 
1744	 3.10730982246779E-02 
1745	 3.15539395347651E-02 
1746	 3.33180356110157E-02 
1747	 3.36135728174605E-02 
1748	 3.29362767914961E-02 
1749	 3.26431478869267E-02 
1750	 0.031287069247975 
1751	 3.04669709882252E-02 
1752	 0.030207581192946 
1753	 3.05318639127027E-02 
1754	 3.18506711302219E-02 
1755	 3.20155702954446E-02 
1756	 3.23734624577951E-02 
1757	 3.02075306119734E-02 
1758	 0.027329075200607 
1759	 0.02796521470607 
1760	 2.95339089651896E-02 
1761	 3.01043852417366E-02 
1762	 3.30664910463815E-02 
1763	 3.23935537736621E-02 
1764	 2.88434089328966E-02 
1765	 2.88971184519903E-02 
1766	 2.73230851560408E-02 
1767	 2.69542227146252E-02 
1768	 2.94535088242143E-02 
1769	 2.97551086272393E-02 
1770	 3.11058340944147E-02 
1771	 3.21880761683504E-02 
1772	 3.02139126279823E-02 
1773	 2.93550007033998E-02 
1774	 2.79358600977141E-02 
1775	 2.70758155893047E-02 
1776	 2.71499079898478E-02 
1777	 2.79746727004672E-02 
1778	 2.79485096436654E-02 
1779	 2.69693526525668E-02 
1780	 2.75478479335423E-02 
1781	 2.97205952461871E-02 
1782	 3.04723772923862E-02 
1783	 3.30296480485484E-02 
1784	 3.22718064651911E-02 
1785	 2.53280882524938E-02 
1786	 2.58640284879357E-02 
1787	 2.88213710387414E-02 
1788	 3.26356797419342E-02 
1789	 4.53963180981635E-02 
1790	 4.48503612535589E-02 
1791	 4.19124520076497E-02 
1792	 0.040013898823332 
1793	 3.55134060901797E-02 
1794	 2.96155670682626E-02 
1795	 2.66784439669048E-02 
1796	 3.15836300031589E-02 
1797	 3.46906002303386E-02 
1798	 3.33207866484415E-02 
1799	 4.67549129090458E-02 
1800	 2.38395268180298E-02 
1801	 1.04276878404501E-02 
1802	 2.31290363414404E-02 
1803	 2.44959235088176E-02 
1804	 4.12611181417221E-02 
1805	 3.83433254806231E-02 
1806	-3.14021095838623E-02 
1807	-4.76018028114988E-02 
1808	-6.70837491327548E-02 
1809	-0.11940917877059 
1810	 0.014597905577776 
1811	 9.86222763026445E-02 
1812	 0.153321869392722 
1813	 0.255873900806732 
1814	-3.77689434312265 
1815	-1.34118735989514 
1816	-43.1889663369287 
1817	-2.53751126070059 
1818	-1.06516476619596 
1819	-0.932756399520934 
1820	 0.717681004803255 
1821	-0.510685240353362 
1822	-0.700386550577794 
1823	 0.529388936380163 
1824	-5.63719485547226E-02 
1825	-9.53489539690996E-02 
1826	-6.11688883205795E-02 
1827	 3.26923565773539 
1828	-5.16808223342365E-02 
1829	 2.16271179804386 
1830	 1.66618182224731 
1831	-2.8032375957245 
1832	-3.47381545010388 
1833	-2.96302612877804 
1834	-3.18372149702625 
1835	-10.4183898408872 
1836	 73.3210114299055 
1837	 2.63518537719164 
1838	 8.80992851056273 
1839	-0.568521660953698 
1840	-0.411695705651084 
1841	-0.26738565660517 
1842	 0.40288877768381 
1843	 0.686378837547061 
1844	 3.0154907396388 
1845	 12.6025823956618 
1846	 4.27874450118734 
1847	 2.66014344662267 
1848	 0.949382746338368 
1849	-4.73953692045374E-02 
1850	-0.274461767055844 
1851	 0.360192834557005 
1852	 1.30258247927063 
1853	 6.61012352476259 
1854	-9.0978839819905 
1855	-1.572553881751 
1856	-0.823213474732681 
1857	-1.45404153622009 
1858	-1.69545111687768 
1859	-1.78904980261597 
1860	 0.42029517058262 
1861	 7.38068774457512 
1862	-1.05534155422665 
1863	-2.20183204662348 
1864	 2.36514598800302 
1865	 0.183207647779098 
1866	-0.156447310031854 
1867	-0.212808017366649 
1868	-0.397295200213846 
1869	 0.752346891461473 
1870	 0.244736076643631 
1871	 0.120601138319862 
1872	-3.06700382757194E-02 
1873	-5.67398664163289E-02 
1874	-0.14001023588995 
1875	-0.234464831195047 
1876	-0.153539601313894 
1877	 0.111972164215661 
1878	 0.15336679359933 
1879	 0.547007718649821 
1880	 0.702179254887658 
1881	 0.16303113768477 
1882	-1.36759214020792E-02 
1883	-9.80922661626749E-02 
1884	 6.11030750080307E-02 
1885	 0.382302986095928 
1886	 0.527181451826763 
1887	-1.37202249289683 
1888	-1.40476387984196 
1889	-1.50078452143949 
1890	-1.63478142378704 
1891	-0.607300458552817 
1892	 2.76618772530277 
1893	 1.63524671597103 
1894	 0.879051432320146 
1895	 0.743505989908974 
1896	 4.02663786140079E-02 
1897	-0.833857917191912 
1898	-5.12674757609472 
1899	-10.4511413905144 
1900	-4.39684290149808 
1901	-0.492027615367824 
1902	-0.498155897325724 
1903	-0.997595743850517 
1904	-0.190121616366503 
1905	-0.315616253082961 
1906	-0.293454982414914 
1907	 1.19517492049814E-03 
1908	-1.68473354164289E-02 
1909	-0.735259199605777 
1910	 4.58718936698793 
1911	-2.13883484232572 
1912	-2.02108279650946 
1913	-1.67989838043008 
1914	-0.664595916348879 
1915	-0.409253764446326 
1916	-0.4130079943424 
1917	-0.255356218993332 
1918	-0.709815873470105 
1919	-1.49843381408306 
1920	-0.436558125501246 
1921	 0.329246084319565 
1922	 0.620044816242408 
1923	 0.207385602714355 
1924	-0.116554039147905 
1925	-0.779657272384276 
1926	-1.21318659411205 
1927	-1.26289552708148 
1928	-5.91922381503218 
1929	 7.673681135184 
1930	 1.19653156105287 
1931	 0.630080498223398 
1932	 0.690517445095469 
1933	 1.30161198207848 
1934	-0.347818977531997 
1935	-0.568501473313391 
1936	 2.67894875033056E-02 
1937	-0.212831242312669 
1938	 0.798510056533971 
1939	 1.5672123373369 
1940	-31.0791735641898 
1941	-0.385672651899 
1942	 0.842731294798694 
1943	-1.75787509714911 
1944	-0.225113582401424 
1945	 4.44453102612538E-02 
1946	 0.131827076178275 
1947	 0.251366937310217 
1948	 0.644814507185414 
1949	 0.81172035737783 
1950	 0.63259476995071 
1951	 0.513989309315554 
1952	 0.433563612100048 
1953	 0.225343223078271 
1954	 0.12324200374115 
1955	 0.103229988702703 
1956	 7.49751962149965E-02 
1957	 3.45293139522254E-02 
1958	-1.36207513715045E-02 
1959	-8.69348586705339E-03 
1960	 3.63490925977219E-02 
1961	 4.78380618723291E-02 
1962	 5.06420219522112E-02 
1963	 2.24824976355052E-02 
1964	-2.73854031804212E-03 
1965	 1.48447151398326E-02 
1966	 1.67975984050537E-02 
1967	 1.28804981457928E-02 
1968	 2.64139327164518E-02 
1969	 0.041768743488952 
1970	 3.19581201619041E-02 
1971	 2.67516686411244E-02 
1972	 2.23887553846317E-02 
1973	 2.11968841317918E-02 
1974	 2.10499940684455E-02 
1975	 0.025136515420779 
1976	 0.035660314653793 
1977	 3.70803411751379E-02 
1978	 3.36328890270493E-02 
1979	 0.030988818534568 
1980	 2.60599939529514E-02 
1981	 2.22891579279044E-02 
1982	 1.91595202195218E-02 
1983	 1.49771713559626E-02 
1984	 0.016751385287327 
1985	 1.28608113046483E-02 
1986	 1.03446807146785E-02 
1987	 1.56689373514069E-02 
1988	 0.017858289973778 
1989	 2.41260723010132E-02 
1990	 2.79531023537423E-02 
1991	 2.65969898214749E-02 
1992	 3.01585063175249E-02 
1993	 3.03375905474995E-02 
1994	 2.91869441525311E-02 
1995	 2.69231665815994E-02 
1996	 2.86500851025667E-02 
1997	 2.69825881218579E-02 
1998	 0.026394648432674 
1999	 2.26786310222965E-02 
2000	 2.56923673009833E-02 
2001	 3.26589194192178E-02 
2002	 2.34675194789048E-02 
2003	 3.07198363224338E-02 
2004	 3.50349883987041E-02 
2005	 1.22068809252929E-02 
2006	 1.37927974776547E-02 
2007	 3.19897358359243E-02 
2008	 3.74499299646605E-02 
2009	 3.80611204527275E-02 
2010	 4.42096993065205E-02 
2011	 4.16720353764036E-02 
2012	 2.38913294883534E-02 
2013	 1.15292276810686E-02 
2014	 1.49461185202739E-02 
2015	 2.14083107197843E-02 
2016	 1.94009842804861E-02 
2017	 1.91742361365388E-02 
2018	 1.82451209525757E-02 
2019	 1.85871256977455E-02 
2020	 2.26522289364278E-02 
2021	 3.24097834419227E-02 
2022	 3.91681506503843E-02 
2023	 3.33790121769343E-02 
2024	 3.03128057282858E-02 
2025	 2.24852104483854E-02 
2026	 2.11610561902554E-02 
2027	 2.10689708052499E-02 
2028	 2.28293172414994E-02 
2029	 2.71513234937588E-02 
2030	 3.10396118637776E-02 
2031	 2.98706216623412E-02 
2032	 3.05059658295444E-02 
2033	 3.03891870216937E-02 
2034	 2.92332061674511E-02 
2035	 2.82467705997392E-02 
2036	 2.71650895129102E-02 
2037	 2.67156205663682E-02 
2038	 2.41525462829622E-02 
2039	 2.43666712082952E-02 
2040	 2.82108661690413E-02 
2041	 2.85147051338577E-02 
2042	 2.76712906193345E-02 
2043	 2.79292946239517E-02 
2044	 2.71766178456665E-02 
2045	 2.51662241496546E-02 
2046	 2.56949207385825E-02 
2047	 0.025705486880228 
2048	 2.09746872764491E-02 
2049	 1.69763621505237E-02 
2050	 1.69697727097599E-02 
2051	 1.85666746291744E-02 
2052	 2.28707093664408E-02 
2053	 3.05507517462416E-02 
2054	 3.08161946377638E-02 
2055	 3.00328992306539E-02 
2056	 3.07138703065387E-02 
2057	 2.87818708587679E-02 
2058	 2.76713095458501E-02 
2059	 3.05874617844052E-02 
2060	 0.029148344675125 
2061	 2.41477411170861E-02 
2062	 2.24279760560253E-02 
2063	 2.05921982021998E-02 
2064	 2.03730295920393E-02 
2065	 0.020748886435197 
2066	 1.96310874714515E-02 
2067	 1.82986500502137E-02 
2068	 1.54248547721231E-02 
2069	 1.48847717074953E-02 
2070	 0.017908998827983 
2071	 1.95082431748383E-02 
2072	 2.22698674287654E-02 
2073	 0.024373071241517 
2074	 2.63742964781776E-02 
2075	 2.62869376551314E-02 
2076	 2.51481497472009E-02 
2077	 2.48878528812376E-02 
2078	 2.36564250526752E-02 
2079	 2.43018595355052E-02 
2080	 2.69393651783824E-02 
2081	 2.73213687453203E-02 
2082	 2.86646631959316E-02 
2083	 3.05993476315868E-02 
2084	 2.89818949041092E-02 
2085	 2.66126763264469E-02 
2086	 2.62351947417164E-02 
2087	 2.22238399073087E-02 
2088	 2.02484058613144E-02 
2089	 2.30247489150949E-02 
2090	 2.11846575527032E-02 
2091	 2.01714517644051E-02 
2092	 2.20413274136751E-02 
2093	 2.63535139198109E-02 
2094	 2.79028717392429E-02 
2095	 3.14703511293812E-02 
2096	 3.30688146840967E-02 
2097	 0.032048426372 
2098	 3.11713523748642E-02 
2099	 3.00402067392297E-02 
2100	 2.87327255065778E-02 
2101	 2.79902898825729E-02 
2102	 2.75726982874119E-02 
2103	 2.80918402787802E-02 
2104	 2.90977565926783E-02 
2105	 3.04983280737726E-02 
2106	 3.09812536063085E-02 
2107	 3.01981595706334E-02 
2108	 0.031781199867329 
2109	 3.30410979415363E-02 
2110	 3.16148513161664E-02 
2111	 3.14720409748289E-02 
2112	 3.09640857467078E-02 
2113	 0.030911446900522 
2114	 3.08579916711786E-02 
2115	 3.02014295036457E-02 
2116	 0.029914288923617 
2117	 2.95844380641523E-02 
2118	 2.71457684721351E-02 
2119	 2.66909471742369E-02 
2120	 2.76816588687335E-02 
2121	 2.89383320873968E-02 
2122	 3.03806368458714E-02 
2123	 3.26592241935626E-02 
2124	 3.32633235089912E-02 
2125	 3.22807434119422E-02 
2126	 3.19293411555889E-02 
2127	 3.05451689016076E-02 
2128	 2.92214378837729E-02 
2129	 2.91736092878827E-02 
2130	 2.75477372400071E-02 
2131	 2.65270713301223E-02 
2132	 2.63921839621012E-02 
2133	 2.60970610043773E-02 
2134	 2.66152761796332E-02 
2135	 2.82341260222574E-02 
2136	 2.91286989206907E-02 
2137	 3.15407793047587E-02 
2138	 3.02127834671678E-02 
2139	 2.49690363017445E-02 
2140	 2.37250381203797E-02 
2141	 2.20305696904692E-02 
2142	 2.15656096731242E-02 
2143	 2.41106648514086E-02 
2144	 2.62460074080229E-02 
2145	 2.87128735594374E-02 
2146	 3.17041162249547E-02 
2147	 3.19201556019815E-02 
2148	 3.18222165964036E-02 
2149	 2.92251788845684E-02 
2150	 2.61519906964411E-02 
2151	 0.028753123368728 
2152	 3.00128840848757E-02 
2153	 2.80297581990533E-02 
2154	 0.027532336157139 
2155	 2.55860268427596E-02 
2156	 2.46216593953924E-02 
2157	 2.54146334640302E-02 
2158	 2.95842947226813E-02 
2159	 3.06579522096669E-02 
2160	 3.08000022099094E-02 
2161	 3.15449051494097E-02 
2162	 3.35051125238382E-02 
2163	 3.19424965789862E-02 
2164	 2.67121001036874E-02 
2165	 2.60019234689096E-02 
2166	 2.53016323287504E-02 
2167	 2.50167065134561E-02 
2168	 2.85527458333685E-02 
2169	 3.04221199471691E-02 
2170	 3.06707668090761E-02 
2171	 3.13960754658051E-02 
2172	 3.18242374672985E-02 
2173	 3.00248880473612E-02 
2174	 3.03904413294742E-02 
2175	 3.00896936463897E-02 
2176	 3.24223944583191E-02 
2177	 3.66312157726427E-02 
2178	 3.68215322754055E-02 
2179	 3.54969247773682E-02 
2180	 3.10266370607962E-02 
2181	 2.98945910165494E-02 
2182	 3.47176846067558E-02 
2183	 3.49008687809893E-02 
2184	 3.08249289842216E-02 
2185	 2.50885109244125E-02 
2186	 0.023769373093154 
2187	 2.22247220789005E-02 
2188	 2.26217997666788E-02 
2189	 2.95512536596651E-02 
2190	 3.11292562793775E-02 
2191	 2.83159590758135E-02 
2192	 2.67403344034045E-02 
2193	 2.55352552676056E-02 
2194	 2.44864278167236E-02 
2195	 0.020267813209734 
2196	 2.03494331093987E-02 
2197	 2.46415166647616E-02 
2198	 0.026943561159845 
2199	 3.05350794896009E-02 
2200	 3.52874657097269E-02 
2201	 3.95980995700917E-02 
2202	 4.06581160383841E-02 
2203	 4.06706686131623E-02 
2204	 4.05181017014147E-02 
2205	 3.58623272892595E-02 
2206	 2.90700306337914E-02 
2207	 2.60539668932768E-02 
2208	 2.35065235510623E-02 
2209	 2.31339852478447E-02 
2210	 0.024612054810644 
2211	 2.15834101856667E-02 
2212	 2.30313237749775E-02 
2213	 2.51631279082945E-02 
2214	 2.26547950363163E-02 
2215	 2.67454365490894E-02 
2216	 2.87094242866333E-02 
2217	 2.88289402250474E-02 
2218	 2.80691564812138E-02 
2219	 2.80291882288316E-02 
2220	 2.62082347677988E-02 
2221	 2.57576365327197E-02 
2222	 0.024934159458688 
2223	 2.57996484917549E-02 
2224	 2.84818762060071E-02 
2225	 0.029245990553976 
2226	 3.24400837027361E-02 
2227	 3.21866367943759E-02 
2228	 2.57501911466443E-02 
2229	 2.48120089520231E-02 
2230	 2.71003008377618E-02 
2231	 2.62561199133272E-02 
2232	 2.62190628718688E-02 
2233	 2.54827969467282E-02 
2234	 2.13285504429731E-02 
2235	 1.98477116723598E-02 
2236	 1.76208427804737E-02 
2237	 2.03251388175262E-02 
2238	 2.72155923479234E-02 
2239	 2.80804745750675E-02 
2240	 3.02544478228567E-02 
2241	 3.39518877107073E-02 
2242	 2.86339904014898E-02 
2243	 2.14494743549306E-02 
2244	 1.98644943592434E-02 
2245	 1.92811336504406E-02 
2246	 2.19866810271996E-02 
2247	 2.77308145788018E-02 
2248	 0.034598488462387 
2249	 4.07584753451665E-02 
2250	 4.20678700468988E-02 
2251	 4.60956044046869E-02 
2252	 0.043905088308722 
2253	 3.56553256862829E-02 
2254	 3.37962720258554E-02 
2255	 3.17129573165042E-02 
2256	 3.16745959577884E-02 
2257	 3.22900211199965E-02 
2258	 0.031937150845613 
2259	 3.00118910202184E-02 
2260	 0.027350609958823 
2261	 2.05673100068136E-02 
2262	 2.31443348304081E-02 
2263	 3.28724803008393E-02 
2264	 3.34168644960024E-02 
2265	 3.40967584567841E-02 
2266	 0.033766521991272 
2267	 2.62073593612695E-02 
2268	 2.37684832498725E-02 
2269	 2.77153933578762E-02 
2270	 2.80929509296371E-02 
2271	 2.12289438105117E-02 
2272	 2.04873793838178E-02 
2273	 0.026154932040325 
2274	 2.74763466049462E-02 
2275	 3.18356866939032E-02 
2276	 3.49063640448157E-02 
2277	 2.88130096400663E-02 
2278	 3.30496906284453E-02 
2279	 0.052640173318552 
2280	 5.09657985008684E-02 
2281	 4.06148409760703E-02 
2282	 0.033768242611189 
2283	 2.30085376754825E-02 
2284	 1.41451206284992E-02 
2285	 2.82434328946421E-02 
2286	 4.57354301886743E-02 
2287	 4.69816348141249E-02 
2288	 4.26602150382044E-02 
2289	 3.58159592710083E-02 
2290	 2.82721548062399E-02 
2291	 2.21775704594572E-02 
2292	 2.69863813893521E-02 
2293	 3.99483930580688E-02 
2294	 4.41670037698678E-02 
2295	 0.049347769012923 
2296	 0.048914397565173 
2297	 4.06398880487675E-02 
2298	 4.40993672236192E-02 
2299	 3.98258289733736E-02 
2300	 0.031064168799885 
2301	 2.36126462331161E-02 
2302	 7.90229465463007E-03 
2303	 3.04536245000521E-03 
2304	 5.45086431942627E-03 
2305	 6.59247358836833E-03 
2306	 6.99116889546755E-03 
2307	 1.13171508449982E-02 
2308	 1.82346253278307E-02 
2309	 2.26479178886601E-02 
2310	 2.88254216593496E-02 
2311	 2.67638317800403E-02 
2312	 2.30630984108568E-02 
2313	 2.28992109715592E-02 
2314	 2.58701224393641E-02 
2315	 3.51946919109094E-02 
2316	 3.56372405644186E-02 
2317	 2.68952206603486E-02 
2318	 1.38248459342162E-02 
2319	 2.94802760598205E-04 
2320	-7.51012601718864E-03 
2321	-8.43750687278684E-03 
2322	 3.54830242274814E-03 
2323	 1.64604234132255E-02 
2324	 2.70348632603637E-02 
2325	 4.21021758537886E-02 
2326	 3.69051904655923E-02 
2327	 2.90849984889664E-02 
2328	 2.95711816493144E-02 
2329	 2.02755315146431E-02 
2330	 2.78491326143001E-02 
2331	 4.20770462728018E-02 
2332	 4.47009233748528E-02 
2333	 3.37455734463472E-02 
2334	 1.68376847189999E-02 
2335	 2.55403675142707E-02 
2336	 2.89712301940687E-02 
2337	 2.87066743101265E-02 
2338	 4.24393530212573E-02 
2339	 3.71531698914129E-02 
2340	 0.029323020844482 
2341	 3.76569491559965E-02 
2342	 4.83402306808015E-02 
2343	 3.48310310153011E-02 
2344	 3.16872270335695E-02 
2345	 5.03149577960735E-02 
2346	 6.50455612616564E-02 
2347	 0.082539651478176 
2348	 6.27746779924491E-02 
2349	 2.75293886583251E-02 
2350	 3.05217920868324E-02 
2351	 4.23574192591058E-02 
2352	 0.052657071544077 
2353	 5.53352646446661E-02 
2354	 4.70228701766347E-02 
2355	 2.22949181344487E-02 
2356	 9.62785254957569E-03 
2357	 1.50624747048984E-02 
2358	 1.40526730994764E-02 
2359	 2.76091520070781E-02 
2360	 2.13646181417035E-02 
2361	 7.50444882423299E-04 
2362	-1.91468725083045E-02 
2363	-3.58727559651704E-02 
2364	-1.80605837428599E-02 
2365	 2.05606535402705E-02 
2366	 0.046783415585445 
2367	 3.89578035614065E-02 
2368	 3.29260233213747E-02 
2369	 2.84484300729696E-02 
2370	-1.56732964392504E-02 
2371	-4.15692156138828E-02 
2372	 2.93599671894674E-03 
2373	 2.55018871017961E-02 
2374	 1.96792994672774E-04 
2375	 3.40425776313475E-03 
2376	-4.53402738929803E-02 
2377	-0.117577199338788 
2378	-0.100704438175175 
2379	-1.12913389114257E-02 
2380	 3.44074516942908E-02 
2381	-2.32875649531501E-02 
2382	-3.93091653676628E-02 
2383	-8.11717352146635E-02 
2384	-0.196856210903158 
2385	-0.209626550419521 
2386	-6.13440265460949E-02 
2387	 1.63349007967224E-02 
2388	-8.42227597105435E-03 
2389	 0.017088981696061 
2390	-3.45755202540242E-02 
2391	-0.189055863389194 
2392	-0.204054455135618 
2393	-0.216317950119982 
2394	-0.342167490038492 
2395	-0.266439198919217 
2396	-0.129195375400144 
2397	-0.140776915087254 
2398	-0.129014473726599 
2399	-0.118996843341399 
2400	-0.176459306714771 
2401	-6.95027922012628E-02 
2402	 0.109748386677133 
2403	 0.217893821052545 
2404	 0.322698946195022 
2405	 0.379124507233745 
2406	 0.355570688267811 
2407	 0.245317091200869 
2408	 0.181431020276781 
2409	 0.171338776344436 
2410	 8.73521637640985E-02 
2411	 3.62854047676884E-02 
2412	 6.13384812862292E-03 
2413	-0.114819316484699 
2414	-0.116060262897942 
2415	-4.17245976243493E-03 
2416	 0.214177885642922 
2417	 4.64255257359282E-02 
2418	-0.109236685208662 
2419	 0.19281492594788 
2420	 0.125391424909693 
2421	-2.64496298848705E-02 
2422	 0.427358187159041 
2423	 0.726824098104042 
2424	 1.59560402397556 
2425	 2.51755953353298 
2426	 4.84694334949402 
2427	 0.74101369522618 
2428	 0.345413115855274 
2429	 8.08775592068747E-02 
2430	-8.16278945763882E-02 
2431	-6.65824553995124E-02 
2432	 3.54382867992373E-02 
2433	 0.389006568255993 
2434	 0.712197977591541 
2435	 1.07964744431497 
2436	 1.62536876092687 
2437	 72.33364096312 
2438	 0.464382042205269 
2439	 0.817097854787103 
2440	-5.09341891128136 
2441	-14.1850541553557 
2442	-0.548503843136937 
2443	-0.223747317412119 
2444	 12.0207402511975 
2445	 5.00557746494306 
2446	 1.03454829945218 
2447	 1.42105344501601 
2448	 1.16103201447363 
2449	-0.296052040786442 
2450	-0.318193500654837 
2451	 0.206200887382796 
2452	 7.27745549437244E-02 
2453	 0.350816281767174 
2454	 4.80207403842992E-02 
2455	-0.3519612477324 
2456	 7.83082616374285E-02 
2457	 0.564273833247142 
2458	 0.693118681805693 
2459	 1.67876296865725 
2460	 2.1111398069644 
2461	-0.066949295712809 
2462	-0.721007226076161 
2463	-0.703568643430764 
2464	-0.747750919887657 
2465	-0.834231058111265 
2466	-0.808101829069402 
2467	-0.875098452562796 
2468	-1.45537005752041 
2469	-1.66422401302642 
2470	-2.87697968358232 
2471	-9.5176708309006 
2472	-5.65897762103627 
2473	-1.78897503656446 
2474	-0.639884286314053 
2475	 0.433382918621441 
2476	 0.526101279302532 
2477	 0.649690134810547 
2478	-0.801822138832831 
2479	 0.408995486984916 
2480	 0.531909969977988 
2481	 0.655359485780007 
2482	 0.364346307670664 
2483	 0.490332523120694 
2484	 0.523060231214862 
2485	 0.355945893758432 
2486	 0.857718888635683 
2487	 1.83744060379941 
2488	 0.281150122177806 
2489	-0.216040129811387 
2490	-0.513577914509067 
2491	-0.474232423140439 
2492	-0.122448734894014 
2493	-2.50019114917966E-03 
2494	-0.14830083381882 
2495	-0.397615002546896 
2496	 2.14642298395824 
2497	 0.62875397526249 
2498	 2.87737700425678 
2499	 2.85713142256782 
2500	 8.38496845795719E-02 
