Wavelength	rt0713west_far_sunny_200009.asd
350	 6.37121979226042E-02 
351	 6.31375035171357E-02 
352	 6.27489123851951E-02 
353	 6.28461674005171E-02 
354	 6.31133801985799E-02 
355	 6.21558175230893E-02 
356	 6.19676036633134E-02 
357	 6.21572517153851E-02 
358	 6.18695999576783E-02 
359	 6.16942605621602E-02 
360	 6.16953372530946E-02 
361	 6.16840334928796E-02 
362	 6.13629249380554E-02 
363	 6.10222226772469E-02 
364	 0.060747766360377 
365	 6.06480092712639E-02 
366	 0.060917661876486 
367	 6.10141838711226E-02 
368	 6.06923671723019E-02 
369	 6.00853694925468E-02 
370	 6.02463689156772E-02 
371	 6.04924659660076E-02 
372	 6.02953628465588E-02 
373	 5.94685795377576E-02 
374	 5.96286940848233E-02 
375	 5.99932729179823E-02 
376	 5.99683913049206E-02 
377	 0.059599617655107 
378	 5.93491662670415E-02 
379	 5.93732215745425E-02 
380	 5.96755046472024E-02 
381	 6.01699143623718E-02 
382	 6.02426664070032E-02 
383	 5.99595777072792E-02 
384	 5.97640853454105E-02 
385	 6.00129292061819E-02 
386	 6.00031862462991E-02 
387	 5.97028279608524E-02 
388	 5.98767004099015E-02 
389	 0.059853695925495 
390	 5.98906354063206E-02 
391	 6.01255184745766E-02 
392	 5.99562371714898E-02 
393	 6.00455579383157E-02 
394	 6.01862728541975E-02 
395	 6.00062096392036E-02 
396	 0.060079183766442 
397	 6.00888300804354E-02 
398	 6.00135017857698E-02 
399	 6.01066955752907E-02 
400	 6.01410283136139E-02 
401	 6.01327465292879E-02 
402	 6.01368157721003E-02 
403	 6.02058219749569E-02 
404	 0.060293733764833 
405	 6.03385758891366E-02 
406	 6.03025431303961E-02 
407	 6.02898659457022E-02 
408	 6.04129491202647E-02 
409	 6.05958959785321E-02 
410	 0.060597603541563 
411	 6.04850653471665E-02 
412	 6.05332148597479E-02 
413	 6.08020811762951E-02 
414	 6.07501662430488E-02 
415	 6.08630848942125E-02 
416	 6.10614957430716E-02 
417	 6.10993609188846E-02 
418	 6.12074968803622E-02 
419	 6.13388266988125E-02 
420	 6.14572370715001E-02 
421	 0.061561512166441 
422	 6.17295835943634E-02 
423	 6.19770067069064E-02 
424	 0.062275546908099 
425	 6.25354282905659E-02 
426	 6.27063833869592E-02 
427	 6.28534335796408E-02 
428	 6.30935158504936E-02 
429	 6.34653907758123E-02 
430	 0.063722700546017 
431	 6.38778204196088E-02 
432	 6.42662521357945E-02 
433	 6.45065022923213E-02 
434	 6.46926402871843E-02 
435	 6.49655354203587E-02 
436	 6.52870919731244E-02 
437	 6.55780407855715E-02 
438	 0.065857326063721 
439	 6.61831106253131E-02 
440	 0.066443666657663 
441	 6.67096768511005E-02 
442	 6.70067613150712E-02 
443	 6.72643445112225E-02 
444	 6.75772471082679E-02 
445	 6.78673966884266E-02 
446	 6.80796566484737E-02 
447	 6.84482689919898E-02 
448	 6.87332178344733E-02 
449	 6.88895457249041E-02 
450	 0.069035919576545 
451	 6.93159498928759E-02 
452	 6.95921853297012E-02 
453	 6.97694009862007E-02 
454	 6.99186603308998E-02 
455	 7.01007957748874E-02 
456	 7.02854085207443E-02 
457	 7.04201219742881E-02 
458	 7.05432116519581E-02 
459	 7.07168032977762E-02 
460	 7.09180863643641E-02 
461	 7.10409355846733E-02 
462	 0.071098069338247 
463	 7.12153585030971E-02 
464	 7.14568028453294E-02 
465	 7.16744948183919E-02 
466	 7.17800356473907E-02 
467	 7.18163570060521E-02 
468	 7.19044431983684E-02 
469	 7.21414086421832E-02 
470	 7.22881700173283E-02 
471	 7.23127069631362E-02 
472	 7.24951230807003E-02 
473	 7.26403205449918E-02 
474	 7.28125937701442E-02 
475	 7.30724132592002E-02 
476	 7.32297515319379E-02 
477	 7.34097812776351E-02 
478	 7.36502885376504E-02 
479	 7.39211295373526E-02 
480	 0.074167408241021 
481	 7.44245508678065E-02 
482	 7.47164911808463E-02 
483	 7.50200419944548E-02 
484	 7.52830659962353E-02 
485	 7.55584346172088E-02 
486	 7.59128758545778E-02 
487	 7.62566126321375E-02 
488	 7.65561192174063E-02 
489	 7.68340420254333E-02 
490	 7.71602090004977E-02 
491	 7.74760422284185E-02 
492	 7.78453627036679E-02 
493	 7.82799103531034E-02 
494	 7.85840116289164E-02 
495	 7.89825467089395E-02 
496	 7.94282267760754E-02 
497	 7.97581018679246E-02 
498	 8.00934993373203E-02 
499	 8.04627562856227E-02 
500	 0.080856273038127 
501	 8.12217782957031E-02 
502	 8.15940963176819E-02 
503	 8.19961875576449E-02 
504	 8.24354261978272E-02 
505	 8.28602269042644E-02 
506	 8.33690460685601E-02 
507	 8.39058228489535E-02 
508	 8.43053385515553E-02 
509	 8.47208210846208E-02 
510	 8.51890561261184E-02 
511	 8.56992369966762E-02 
512	 8.61754906583367E-02 
513	 8.67393993149198E-02 
514	 8.73471451626994E-02 
515	 8.78965326938657E-02 
516	 8.84699402062128E-02 
517	 8.90695361167853E-02 
518	 8.96490658497096E-02 
519	 9.01175755432725E-02 
520	 9.07009812801911E-02 
521	 9.12797254160003E-02 
522	 9.17437927480862E-02 
523	 9.22768524843576E-02 
524	 9.29059853239008E-02 
525	 9.35804515381414E-02 
526	 9.42010204682654E-02 
527	 9.47787994605291E-02 
528	 9.53700871862989E-02 
529	 9.59868189354098E-02 
530	 9.65380186180795E-02 
531	 9.71100391822157E-02 
532	 9.77517633096696E-02 
533	 9.84651042896345E-02 
534	 9.90925690311819E-02 
535	 9.96891725742856E-02 
536	 0.100286179995867 
537	 0.100866611383794 
538	 0.10145066698172 
539	 0.102057323562952 
540	 0.102688676500788 
541	 0.103298398543409 
542	 0.103914015679721 
543	 0.104527451163596 
544	 0.105121149597416 
545	 0.105805922342815 
546	 0.106456817738085 
547	 0.107017863154079 
548	 0.107618741653101 
549	 0.108257304671246 
550	 0.108900283162377 
551	 0.109509456815916 
552	 0.110105229173725 
553	 0.110703165149487 
554	 0.111304300732402 
555	 0.11189087574266 
556	 0.112496551801851 
557	 0.113089729702262 
558	 0.113638941862985 
559	 0.114191016522052 
560	 0.114698970547371 
561	 0.115168837871458 
562	 0.115635931984697 
563	 0.116031617506525 
564	 0.116437260089799 
565	 0.116856962736531 
566	 0.117104003582685 
567	 0.117366112474384 
568	 0.117655630525831 
569	 0.117931765559625 
570	 0.118252548996592 
571	 0.118521947765715 
572	 0.118706049304911 
573	 0.118847354410671 
574	 0.11900083276361 
575	 0.119196860931146 
576	 0.119421769319124 
577	 0.119566871850151 
578	 0.119638298012905 
579	 0.119670966102788 
580	 0.119707372451833 
581	 0.119659802128055 
582	 0.119533430466815 
583	 0.119336507124993 
584	 0.119062654280154 
585	 0.118674505829053 
586	 0.118178312938077 
587	 0.117602622882452 
588	 0.117017467161281 
589	 0.116490507434378 
590	 0.116084996854325 
591	 0.11580477959961 
592	 0.115394485409258 
593	 0.114877774115985 
594	 0.114321293246114 
595	 0.113687041802017 
596	 0.112977702239822 
597	 0.112169029439274 
598	 0.111254679545225 
599	 0.110464277537833 
600	 0.109778052265086 
601	 0.109177710811576 
602	 0.108701977933344 
603	 0.108362599300633 
604	 0.108134700671092 
605	 0.107986611478062 
606	 0.107919120972125 
607	 0.107894749371831 
608	 0.107869172897326 
609	 0.107798593409177 
610	 0.107801809005097 
611	 0.107785230412512 
612	 0.107684097793568 
613	 0.107653455494788 
614	 0.107612946091487 
615	 0.107548779808868 
616	 0.107481110050051 
617	 0.107377034313359 
618	 0.107294500085517 
619	 0.107253359227812 
620	 0.10720229742379 
621	 0.107135441305726 
622	 0.107049128916969 
623	 0.106948136156644 
624	 0.106871128419176 
625	 0.106693454641108 
626	 0.106441798168786 
627	 0.106288439861169 
628	 0.106211073428425 
629	 0.106192770766551 
630	 0.106191859569909 
631	 0.106101871075792 
632	 0.106126557814119 
633	 0.106168088446729 
634	 0.106030444004134 
635	 0.105991361195674 
636	 0.10591994432296 
637	 0.105760562158159 
638	 0.105615702553169 
639	 0.105511471354368 
640	 0.105380280569449 
641	 0.105154858748942 
642	 0.104896647198649 
643	 0.104601162520184 
644	 0.104229352824463 
645	 0.103726937241382 
646	 0.10321984048878 
647	 0.102912154959931 
648	 0.102846165429067 
649	 0.102683078797185 
650	 0.102418613698731 
651	 0.102094107007968 
652	 0.101767532425269 
653	 0.101306920757228 
654	 0.100735157306433 
655	 0.10010134629081 
656	 9.95567446220718E-02 
657	 0.099033413758082 
658	 9.85429637262223E-02 
659	 9.81111031080078E-02 
660	 9.78278785307316E-02 
661	 0.097491535030991 
662	 9.71280142394204E-02 
663	 9.68989798868065E-02 
664	 9.66948043804969E-02 
665	 9.64752627162056E-02 
666	 9.62463189440571E-02 
667	 0.096087510378066 
668	 9.59072747450539E-02 
669	 9.57488746477889E-02 
670	 9.56681120870528E-02 
671	 9.55488913858853E-02 
672	 9.54314447976467E-02 
673	 9.53328860482023E-02 
674	 9.52457327920739E-02 
675	 9.52491405069048E-02 
676	 9.52561429101704E-02 
677	 9.52056980122771E-02 
678	 9.51827446900493E-02 
679	 9.51468042304606E-02 
680	 9.51529882814434E-02 
681	 9.52547352686322E-02 
682	 9.51819413176476E-02 
683	 9.51948395055002E-02 
684	 9.52828755755104E-02 
685	 9.50042293660606E-02 
686	 0.094634334824347 
687	 9.44290898628476E-02 
688	 9.44730950645961E-02 
689	 9.43685655396684E-02 
690	 9.40687457380395E-02 
691	 9.35818402043565E-02 
692	 9.29693955815492E-02 
693	 9.24819267019419E-02 
694	 9.21491951587721E-02 
695	 9.18727466438106E-02 
696	 9.14282633144526E-02 
697	 9.06772491321417E-02 
698	 8.97062418777339E-02 
699	 8.87502283152719E-02 
700	 8.79194292002535E-02 
701	 0.087198611716922 
702	 8.64953232739794E-02 
703	 8.56498733975154E-02 
704	 8.46318849261705E-02 
705	 8.35059361786704E-02 
706	 8.23634161623667E-02 
707	 8.12337486083599E-02 
708	 7.99864792871096E-02 
709	 7.86358087759157E-02 
710	 7.72238454946802E-02 
711	 7.56022438047886E-02 
712	 7.38872194567583E-02 
713	 0.072086723256345 
714	 0.070022982917833 
715	 6.77277034265033E-02 
716	 6.52080951471009E-02 
717	 6.27903272370901E-02 
718	 6.06372794018653E-02 
719	 5.90096974006958E-02 
720	 5.78135851344434E-02 
721	 5.65291323122851E-02 
722	 5.48080367383021E-02 
723	 5.27289010709054E-02 
724	 5.07379178152676E-02 
725	 4.90156964355911E-02 
726	 0.04740302045846 
727	 4.56793474686045E-02 
728	 4.37636658786642E-02 
729	 4.18720872895126E-02 
730	 4.01839158828869E-02 
731	 3.88821578042031E-02 
732	 0.037912889613597 
733	 3.68195323229778E-02 
734	 3.58358863944235E-02 
735	 3.50821494824613E-02 
736	 3.44541712750935E-02 
737	 3.40735438426767E-02 
738	 0.033872665818398 
739	 3.37565345746665E-02 
740	 3.36719078884072E-02 
741	 3.36486171972316E-02 
742	 3.36582642386843E-02 
743	 3.36388868124748E-02 
744	 3.35202917368519E-02 
745	 3.34137124124884E-02 
746	 0.033390860650042 
747	 0.033443317760176 
748	 0.03341717374544 
749	 0.033329921909431 
750	 0.033242127759972 
751	 3.31734938419384E-02 
752	 3.31791837703278E-02 
753	 3.32104274159835E-02 
754	 3.31731718831437E-02 
755	 3.31371300142237E-02 
756	 3.30328598009054E-02 
757	 3.27935577951126E-02 
758	 3.22578029700471E-02 
759	 0.031542274863552 
760	 3.08405653083727E-02 
761	 3.06817729333343E-02 
762	 3.09200166250367E-02 
763	 3.12173816630932E-02 
764	 3.16249546807873E-02 
765	 3.22283555440534E-02 
766	 3.26159980892286E-02 
767	 3.28319752737767E-02 
768	 3.29934930248592E-02 
769	 3.32602231865529E-02 
770	 3.33653805837214E-02 
771	 3.34646367342697E-02 
772	 3.36606372987011E-02 
773	 3.36616574638547E-02 
774	 3.37585482666402E-02 
775	 3.39650254118676E-02 
776	 3.41527006846331E-02 
777	 3.41323630961043E-02 
778	 3.42670471447124E-02 
779	 3.45762044453091E-02 
780	 0.034707505663675 
781	 3.47767508763333E-02 
782	 3.48454209690327E-02 
783	 3.49544717222437E-02 
784	 3.51204655416887E-02 
785	 3.52238657519954E-02 
786	 3.52964667251031E-02 
787	 3.54167999960937E-02 
788	 3.55612549881843E-02 
789	 3.57976654065992E-02 
790	 3.60933028113026E-02 
791	 0.036355941666213 
792	 3.67981630270287E-02 
793	 3.71236325083123E-02 
794	 0.037234330412775 
795	 3.74451246737695E-02 
796	 3.77023608201063E-02 
797	 3.78836425055786E-02 
798	 3.79529278301202E-02 
799	 0.038228898851651 
800	 0.038387055291815 
801	 3.84487891635714E-02 
802	 3.86321390534915E-02 
803	 3.89588656993143E-02 
804	 0.039183299812629 
805	 3.92310279869399E-02 
806	 3.92379473628897E-02 
807	 3.92601450001877E-02 
808	 3.90814375689037E-02 
809	 3.86242044218174E-02 
810	 3.83004765609143E-02 
811	 3.81137947390819E-02 
812	 3.77519447761673E-02 
813	 3.69095442595474E-02 
814	 3.64187127846694E-02 
815	 3.61052415300194E-02 
816	 3.58017284987153E-02 
817	 3.54447480428959E-02 
818	 3.53634797451926E-02 
819	 3.52266151587308E-02 
820	 3.48037982253307E-02 
821	 3.40358694404026E-02 
822	 3.31779128239871E-02 
823	 3.24165181291092E-02 
824	 3.17972360426592E-02 
825	 3.11330659176187E-02 
826	 3.01127209298425E-02 
827	 0.028963335887781 
828	 2.81457729387476E-02 
829	 2.74460417040973E-02 
830	 2.68447610138494E-02 
831	 2.63206955577242E-02 
832	 2.58742390631999E-02 
833	 2.55498010499362E-02 
834	 2.53600330848204E-02 
835	 2.52349051826552E-02 
836	 2.50207138514642E-02 
837	 2.48857832345635E-02 
838	 2.48007313058623E-02 
839	 2.47535510645778E-02 
840	 2.49282920452243E-02 
841	 2.48213457035992E-02 
842	 2.45724122133973E-02 
843	 2.45009113579629E-02 
844	 2.45153782412169E-02 
845	 2.43797616427232E-02 
846	 2.41658465726115E-02 
847	 2.41240708090114E-02 
848	 2.40255653457042E-02 
849	 2.38933686770764E-02 
850	 2.37972482111146E-02 
851	 2.38194742617108E-02 
852	 2.38945310704413E-02 
853	 2.38230420337975E-02 
854	 2.35575899053001E-02 
855	 2.33979260734747E-02 
856	 2.34239949332986E-02 
857	 2.35034225453977E-02 
858	 2.34967382585599E-02 
859	 2.35026088380216E-02 
860	 2.33006333449934E-02 
861	 0.023117527134206 
862	 2.32492023086129E-02 
863	 2.29324013568727E-02 
864	 0.022707841375694 
865	 2.27423452382297E-02 
866	 2.27680186359761E-02 
867	 2.27118616369675E-02 
868	 0.022573138937357 
869	 2.24060076564459E-02 
870	 2.23073164757719E-02 
871	 2.23547205240205E-02 
872	 2.22265725192637E-02 
873	 2.18373349201048E-02 
874	 2.18032832713697E-02 
875	 2.18856191935681E-02 
876	 0.021877104927235 
877	 2.16811261484229E-02 
878	 2.15767057739929E-02 
879	 2.14269527612292E-02 
880	 2.12336363734438E-02 
881	 2.10786086721523E-02 
882	 2.10696730292034E-02 
883	 2.10805803885912E-02 
884	 2.09810862417807E-02 
885	 2.07134487944637E-02 
886	 2.07070421897263E-02 
887	 2.06458472941093E-02 
888	 2.03730279809158E-02 
889	 2.00278911974804E-02 
890	 1.99265369749616E-02 
891	 1.97002462025581E-02 
892	 1.92414330995475E-02 
893	 0.019189096245366 
894	 1.86497000017086E-02 
895	 0.018023257888838 
896	 1.78439735644625E-02 
897	 1.76563501553882E-02 
898	 1.77210689552143E-02 
899	 1.77943302398957E-02 
900	 1.76455082222548E-02 
901	 1.76676767994431E-02 
902	 1.77615466698387E-02 
903	 1.76590705477789E-02 
904	 1.72171939309117E-02 
905	 1.71754094674314E-02 
906	 1.72219417941427E-02 
907	 1.71950769751633E-02 
908	 1.70397391355895E-02 
909	 1.65377957584682E-02 
910	 1.59940168689936E-02 
911	 1.56579586799682E-02 
912	 1.56653319345115E-02 
913	 1.63582220963815E-02 
914	 1.67398141197495E-02 
915	 1.65185338791524E-02 
916	 1.63651555638578E-02 
917	 1.56835077094752E-02 
918	 1.52123079254762E-02 
919	 1.54400157883712E-02 
920	 1.62714449838366E-02 
921	 1.63176636575917E-02 
922	 1.58078673636876E-02 
923	 1.52948756684967E-02 
924	 1.52973324423363E-02 
925	 1.47707678432129E-02 
926	 1.40968872852224E-02 
927	 1.39466766825343E-02 
928	 1.42278288378894E-02 
929	 1.28753732839179E-02 
930	 0.012161164165903 
931	 1.59649823565108E-02 
932	 1.53753431422617E-02 
933	 1.52479602457389E-02 
934	 1.41390827654427E-02 
935	 9.66303351077113E-03 
936	 9.69153361887613E-03 
937	 1.10746198344317E-02 
938	 1.15533263893914E-02 
939	 1.03771624763452E-02 
940	 9.66195736900487E-03 
941	 9.73969635108089E-03 
942	 1.05798291604491E-02 
943	 1.18021871501368E-02 
944	 1.27039792988495E-02 
945	 1.14477799818811E-02 
946	 1.05004558854255E-02 
947	 1.28902018212232E-02 
948	 0.010327419630047 
949	 8.07971400812826E-03 
950	 8.18658753679664E-03 
951	 9.61129909312549E-03 
952	 9.81723147013084E-03 
953	 0.011184928590279 
954	 1.27074981858088E-02 
955	 1.16718444916099E-02 
956	 1.08200603309915E-02 
957	 1.13513041252494E-02 
958	 1.23519291626815E-02 
959	 1.20421022195092E-02 
960	 1.19242469020483E-02 
961	 1.18286053546672E-02 
962	 1.24457090163988E-02 
963	 1.43091603599309E-02 
964	 0.012795180091855 
965	 1.23157017202471E-02 
966	 1.30875222988969E-02 
967	 1.23833965235789E-02 
968	 1.24041357192114E-02 
969	 1.28297387629928E-02 
970	 1.33897244306953E-02 
971	 1.39166524344844E-02 
972	 1.28312015621299E-02 
973	 1.30233772612774E-02 
974	 1.43288735303266E-02 
975	 1.35841394627684E-02 
976	 1.27071696188478E-02 
977	 1.19240138596296E-02 
978	 1.17772299300827E-02 
979	 1.27844598600946E-02 
980	 1.26245620916095E-02 
981	 1.31288686537097E-02 
982	 1.43096065868672E-02 
983	 1.46365698081132E-02 
984	 1.50482507673307E-02 
985	 1.54200443964224E-02 
986	 1.54474155502559E-02 
987	 0.014898769879066 
988	 0.014375782789163 
989	 1.41803786456485E-02 
990	 1.44750891858727E-02 
991	 1.51206126505055E-02 
992	 0.014793466764886 
993	 1.50204859965655E-02 
994	 1.55887253549025E-02 
995	 1.52197453322577E-02 
996	 1.49998149735944E-02 
997	 0.015169294413557 
998	 1.55029308830818E-02 
999	 1.56754449761901E-02 
1000	 1.65421240798269E-02 
1001	 1.33588055369333E-02 
1002	 1.29266269019915E-02 
1003	 1.27838021813498E-02 
1004	 1.28355460280465E-02 
1005	 1.29013151474193E-02 
1006	 1.30352959680007E-02 
1007	 1.32995873002916E-02 
1008	 1.31271327335911E-02 
1009	 1.28834470134607E-02 
1010	 1.28941383711135E-02 
1011	 1.28843595077484E-02 
1012	 1.32224817504468E-02 
1013	 1.37097011876192E-02 
1014	 1.38297840285848E-02 
1015	 1.35455322681768E-02 
1016	 1.35210034138551E-02 
1017	 1.34520835682979E-02 
1018	 1.34329050361108E-02 
1019	 0.013532425533863 
1020	 1.36487935377473E-02 
1021	 1.38183480755386E-02 
1022	 1.38751145180457E-02 
1023	 1.40389972831557E-02 
1024	 1.39565914510668E-02 
1025	 1.36213883488606E-02 
1026	 0.0134102425449 
1027	 1.32314723158942E-02 
1028	 1.29818934546064E-02 
1029	 0.012878304773503 
1030	 1.27954050487951E-02 
1031	 1.29212915121772E-02 
1032	 1.33056198303657E-02 
1033	 1.34546942884332E-02 
1034	 1.37114953978012E-02 
1035	 1.38865982312475E-02 
1036	 0.013790223121742 
1037	 1.38915610123543E-02 
1038	 1.42398248193823E-02 
1039	 1.43723096459005E-02 
1040	 1.43596666816917E-02 
1041	 1.42977461068084E-02 
1042	 1.40474902185471E-02 
1043	 1.33698994320757E-02 
1044	 1.31767669096703E-02 
1045	 1.30210959530909E-02 
1046	 0.013064449711101 
1047	 1.34808584576546E-02 
1048	 1.37090002409675E-02 
1049	 1.40761133677536E-02 
1050	 1.41682360265641E-02 
1051	 1.41246406019244E-02 
1052	 1.40313214840092E-02 
1053	 1.36522022147403E-02 
1054	 1.34540097928363E-02 
1055	 1.32856987266993E-02 
1056	 1.31561867714675E-02 
1057	 1.30766237639454E-02 
1058	 1.29590537626843E-02 
1059	 1.31974177744981E-02 
1060	 1.38112452427608E-02 
1061	 0.013926455085131 
1062	 1.41669843856299E-02 
1063	 1.41266968328194E-02 
1064	 0.013338990440833 
1065	 1.32709809128571E-02 
1066	 1.37083038067168E-02 
1067	 1.37709359771864E-02 
1068	 1.40386591211323E-02 
1069	 1.40245221564507E-02 
1070	 1.33374117250998E-02 
1071	 0.013175297313827 
1072	 1.33096277646643E-02 
1073	 1.34117011298305E-02 
1074	 1.33695886578244E-02 
1075	 1.35103673947152E-02 
1076	 1.35009674206845E-02 
1077	 1.31418908466998E-02 
1078	 1.31122356091685E-02 
1079	 1.34098039831663E-02 
1080	 1.33828338502084E-02 
1081	 1.32007420191677E-02 
1082	 1.31300226283202E-02 
1083	 1.29600194336879E-02 
1084	 1.28738269968413E-02 
1085	 1.30083480673165E-02 
1086	 1.29553037362445E-02 
1087	 1.26585347486404E-02 
1088	 0.012578755323563 
1089	 1.26669043253231E-02 
1090	 1.25143846806146E-02 
1091	 1.24466330741871E-02 
1092	 1.26306207320262E-02 
1093	 1.24125123948204E-02 
1094	 1.17408159130134E-02 
1095	 1.15758435623533E-02 
1096	 1.14625635449877E-02 
1097	 0.011445332008711 
1098	 1.20414995512805E-02 
1099	 0.011955610779568 
1100	 1.11926437483393E-02 
1101	 1.10480302610883E-02 
1102	 1.10138557279748E-02 
1103	 1.08286417699294E-02 
1104	 1.10553604540348E-02 
1105	 1.10663217163494E-02 
1106	 1.05019803933549E-02 
1107	 1.03645525370984E-02 
1108	 1.05022794531272E-02 
1109	 1.06589364260336E-02 
1110	 1.06617139728901E-02 
1111	 1.06255792263515E-02 
1112	 1.02702299951558E-02 
1113	 9.38504661217558E-03 
1114	 9.01805066152335E-03 
1115	 8.37192535293916E-03 
1116	 8.21141803256421E-03 
1117	 1.01445616018136E-02 
1118	 1.01463342408601E-02 
1119	 8.12670596826298E-03 
1120	 6.67690392562737E-03 
1121	 1.79437669279909E-03 
1122	-5.02309146651554E-04 
1123	 5.05550547866279E-03 
1124	 1.17013575009923E-02 
1125	 1.87216239841043E-02 
1126	 1.48493013063866E-02 
1127	 2.74587049837185E-03 
1128	 1.38879372919076E-03 
1129	 2.01798032911477E-03 
1130	 7.40948241009934E-03 
1131	 8.58207769302203E-03 
1132	 1.12146893125332E-02 
1133	 9.96072865537853E-03 
1134	 5.2362870740979E-03 
1135	 4.75527676897201E-03 
1136	 4.4274522304118E-03 
1137	 4.97733306369897E-03 
1138	 7.6847305370742E-03 
1139	 9.09179439287136E-03 
1140	 7.94437746620582E-03 
1141	 7.16049227449797E-03 
1142	 0.00755100257153 
1143	 8.05620708571855E-03 
1144	 7.30622533175778E-03 
1145	 7.2224732849649E-03 
1146	 6.74998100055907E-03 
1147	 3.66204029825661E-03 
1148	 3.69608945652694E-03 
1149	 5.82594144082953E-03 
1150	 6.18885534866784E-03 
1151	 5.90330774792969E-03 
1152	 6.42481928723342E-03 
1153	 6.40092432200104E-03 
1154	 6.58695721025074E-03 
1155	 7.02595574386084E-03 
1156	 7.8310877294264E-03 
1157	 7.82651409311129E-03 
1158	 8.00560563906866E-03 
1159	 8.55985894944058E-03 
1160	 8.79244003801271E-03 
1161	 8.66379122446188E-03 
1162	 9.16559703856748E-03 
1163	 9.63893673916954E-03 
1164	 9.03283798141031E-03 
1165	 9.14352951858833E-03 
1166	 9.66560123966646E-03 
1167	 9.22660242996183E-03 
1168	 9.30046714239166E-03 
1169	 9.88688046103966E-03 
1170	 9.9897111729725E-03 
1171	 1.01316960025797E-02 
1172	 1.07388147862706E-02 
1173	 1.08320984349685E-02 
1174	 1.04401739596313E-02 
1175	 1.03304141601597E-02 
1176	 1.05544283281716E-02 
1177	 1.04555308468801E-02 
1178	 1.04616932854586E-02 
1179	 1.04378046839394E-02 
1180	 1.00507168537936E-02 
1181	 9.95302764066028E-03 
1182	 1.02185760483267E-02 
1183	 1.03483118905828E-02 
1184	 1.01164063349507E-02 
1185	 9.90494182277898E-03 
1186	 1.02497477502592E-02 
1187	 1.05363279933548E-02 
1188	 1.04296103477857E-02 
1189	 0.010401729550104 
1190	 1.03977209279226E-02 
1191	 1.03311475117647E-02 
1192	 1.02867961706864E-02 
1193	 1.04836434835728E-02 
1194	 1.08935265086402E-02 
1195	 1.09799315757042E-02 
1196	 1.07922154984481E-02 
1197	 1.08189944565983E-02 
1198	 1.08735129279767E-02 
1199	 1.08559428421702E-02 
1200	 0.010821075923581 
1201	 1.07469045381477E-02 
1202	 1.08883134712435E-02 
1203	 1.10993302427291E-02 
1204	 1.10900474751738E-02 
1205	 1.11136171258705E-02 
1206	 1.10573209242621E-02 
1207	 1.08882804830981E-02 
1208	 1.08182465337154E-02 
1209	 1.07797939206175E-02 
1210	 1.09025607923686E-02 
1211	 1.08880267305176E-02 
1212	 1.08095814690408E-02 
1213	 1.10188614852702E-02 
1214	 1.10681623394571E-02 
1215	 1.10115771776184E-02 
1216	 1.10067973590576E-02 
1217	 1.11991159777764E-02 
1218	 0.01098084752057 
1219	 1.09016952814641E-02 
1220	 1.12494398860644E-02 
1221	 1.12985597087124E-02 
1222	 1.12820460768632E-02 
1223	 1.14696132070892E-02 
1224	 1.14022101048886E-02 
1225	 1.12220431621953E-02 
1226	 1.14219009029319E-02 
1227	 0.011576100344332 
1228	 1.13393802901982E-02 
1229	 1.14038530345347E-02 
1230	 1.16974853518138E-02 
1231	 1.16521228379407E-02 
1232	 1.16525507647669E-02 
1233	 1.17411407398014E-02 
1234	 1.15258912065404E-02 
1235	 1.14638656231566E-02 
1236	 0.01163740152397 
1237	 1.18107348085178E-02 
1238	 1.20452716397086E-02 
1239	 1.20183200510115E-02 
1240	 0.01193555481199 
1241	 1.19262959483619E-02 
1242	 1.18257747986057E-02 
1243	 1.16872013612778E-02 
1244	 1.17618287252747E-02 
1245	 1.18480014380195E-02 
1246	 1.18273226942152E-02 
1247	 1.19735827987922E-02 
1248	 1.19210928402624E-02 
1249	 0.011684971567508 
1250	 1.17169613048095E-02 
1251	 1.16592145289611E-02 
1252	 1.14654666712288E-02 
1253	 1.14630627860102E-02 
1254	 1.14995248705368E-02 
1255	 0.011377671357624 
1256	 1.13137715573745E-02 
1257	 1.16053771620031E-02 
1258	 1.16765369238098E-02 
1259	 1.14125680071395E-02 
1260	 1.13559364214607E-02 
1261	 1.14980176248911E-02 
1262	 0.011483951754885 
1263	 0.011335181535171 
1264	 1.14021544049061E-02 
1265	 1.13719466509505E-02 
1266	 1.10873037479475E-02 
1267	 1.10863554325665E-02 
1268	 1.13858694445262E-02 
1269	 1.14507932603508E-02 
1270	 1.12996249096726E-02 
1271	 1.10901421320948E-02 
1272	 1.08693594244958E-02 
1273	 1.09157879009851E-02 
1274	 1.11674350213258E-02 
1275	 1.13306432869591E-02 
1276	 1.13385250271562E-02 
1277	 1.13114352663991E-02 
1278	 1.13562867719282E-02 
1279	 1.13273895945845E-02 
1280	 1.12129863912278E-02 
1281	 1.12120332532295E-02 
1282	 1.11383445738506E-02 
1283	 1.11271934673733E-02 
1284	 1.12337708875626E-02 
1285	 1.13209543535304E-02 
1286	 1.14548254895603E-02 
1287	 1.14617953844906E-02 
1288	 1.14437942913524E-02 
1289	 1.14455601548216E-02 
1290	 1.13727078345089E-02 
1291	 1.11522344326959E-02 
1292	 1.10370811439558E-02 
1293	 1.11769217632756E-02 
1294	 1.12346356933551E-02 
1295	 1.12021912975569E-02 
1296	 1.10675151911586E-02 
1297	 0.010815677827592 
1298	 1.06957001588092E-02 
1299	 1.05329613958097E-02 
1300	 1.03055233165902E-02 
1301	 0.010220979468439 
1302	 1.02512913441704E-02 
1303	 0.010221791060522 
1304	 1.01845075585043E-02 
1305	 1.03747823082884E-02 
1306	 0.0103254228005 
1307	 9.89032912426466E-03 
1308	 9.62381589009159E-03 
1309	 9.48867740892009E-03 
1310	 9.33363131918689E-03 
1311	 8.99312640755217E-03 
1312	 8.9147892482539E-03 
1313	 9.1683737016514E-03 
1314	 9.06514426682609E-03 
1315	 8.80816762325221E-03 
1316	 0.008793066421567 
1317	 8.81182469204076E-03 
1318	 8.75447398464885E-03 
1319	 8.76958428452698E-03 
1320	 8.8116047429316E-03 
1321	 8.93406606478715E-03 
1322	 8.70479057944636E-03 
1323	 8.08369414429683E-03 
1324	 8.0678606209757E-03 
1325	 8.28336032934332E-03 
1326	 7.96148745868211E-03 
1327	 7.55615519990799E-03 
1328	 7.55567584330389E-03 
1329	 7.65540451235239E-03 
1330	 6.97301779102522E-03 
1331	 6.44768867414312E-03 
1332	 7.01930969446873E-03 
1333	 6.9662370546846E-03 
1334	 6.7438546617166E-03 
1335	 6.46002428875905E-03 
1336	 5.94920637259905E-03 
1337	 5.94341205792623E-03 
1338	 6.01921866945188E-03 
1339	 6.27616596721495E-03 
1340	 7.92933049718511E-03 
1341	 8.18926394772332E-03 
1342	 6.71157229208986E-03 
1343	 6.56262531319654E-03 
1344	 6.72109206526861E-03 
1345	 6.63314025417255E-03 
1346	 7.49791054843149E-03 
1347	 8.65684042191766E-03 
1348	 1.09951641297307E-02 
1349	 1.14534627263919E-02 
1350	 9.04997244155355E-03 
1351	 0.009525634927678 
1352	 3.57366650765952E-03 
1353	-4.22820150334769E-03 
1354	-1.37594963569545E-02 
1355	 2.62443258749721E-02 
1356	-3.17981371555588E-03 
1357	-4.82380478317492E-02 
1358	-3.80918060596475E-02 
1359	-0.130289458515823 
1360	-0.06510442181536 
1361	 3.96281001232576E-02 
1362	-5.91463062853006E-02 
1363	-7.10320857074066E-02 
1364	-6.75662375408543E-02 
1365	-5.68840941764838E-02 
1366	 1.05815900300868E-02 
1367	-7.83955441228519E-02 
1368	-6.01446717089759E-02 
1369	-9.06276767011378E-02 
1370	-0.161587788711875 
1371	-0.118790213958119 
1372	-0.127631011840546 
1373	-0.472247913560541 
1374	-0.507358575321077 
1375	 8.39930568742555E-02 
1376	 0.234101563404406 
1377	 1.03576449134302 
1378	 0.751984451998893 
1379	-0.036351471083746 
1380	-4.00555452065429E-02 
1381	 0.242825622908202 
1382	 0.166112456465923 
1383	-0.245790799153552 
1384	-0.158923009875256 
1385	 0.304765229994794 
1386	 0.209493568623747 
1387	 0.225508034503446 
1388	 0.396367259830172 
1389	 0.161989729955327 
1390	-8.09836740436894E-02 
1391	-3.00620839023365E-02 
1392	 0.212534361035569 
1393	 0.170093862714758 
1394	-0.245426806084396 
1395	-0.356043321218658 
1396	-0.16985545350256 
1397	 2.21976399297599E-02 
1398	 0.07767412911847 
1399	-2.27476108003572E-02 
1400	-0.167181945303298 
1401	-0.23432583435003 
1402	-0.339464719325159 
1403	-0.237546902238903 
1404	 5.34007074782436E-02 
1405	 6.91793670189861E-02 
1406	-0.213169390447164 
1407	-0.158129180052288 
1408	-5.45512278350844E-02 
1409	-4.38185458062694E-02 
1410	 4.65913197496001E-02 
1411	 4.67911529640627E-02 
1412	-7.27045073394573E-02 
1413	-7.69445793010466E-03 
1414	 0.222831045647297 
1415	 0.141477476635776 
1416	-3.46755880160061E-02 
1417	-1.83179470757634E-02 
1418	-2.91212281802581E-02 
1419	-5.65958663437518E-02 
1420	 1.09231217541512E-03 
1421	 1.07139597569728E-02 
1422	-5.15625439456273E-02 
1423	-5.50618201412181E-02 
1424	-1.70109101661813E-02 
1425	-1.23951260428997E-02 
1426	-2.75585787487204E-02 
1427	-2.15628090984374E-02 
1428	-3.38631832921762E-03 
1429	 1.54397386214426E-03 
1430	 4.34076614815827E-03 
1431	 1.01162487260746E-02 
1432	 1.42917491912964E-02 
1433	 1.41258158850435E-02 
1434	 1.60712549509684E-02 
1435	 1.67496759573563E-02 
1436	 8.20679709943678E-03 
1437	 5.81961295106296E-03 
1438	 1.06344643463585E-02 
1439	 1.45798476669642E-02 
1440	 1.77068139268019E-02 
1441	 1.22868345804946E-02 
1442	 1.03907943529809E-02 
1443	 1.08702079486076E-02 
1444	 5.78630284535749E-03 
1445	 2.5529930379674E-03 
1446	 3.09322140799052E-03 
1447	 4.95812272645655E-03 
1448	 4.57556922030637E-03 
1449	 6.20939084394017E-03 
1450	 7.9626770000208E-03 
1451	 6.21244686634464E-03 
1452	 5.78340752179988E-03 
1453	 7.45810406762865E-03 
1454	 7.64591046865644E-03 
1455	 6.39693163179425E-03 
1456	 6.70753679710481E-03 
1457	 8.44339834831223E-03 
1458	 8.24461389997916E-03 
1459	 7.36812582415313E-03 
1460	 7.21995040900878E-03 
1461	 6.18755400905634E-03 
1462	 6.17459930469431E-03 
1463	 7.41456602129335E-03 
1464	 7.9002193892188E-03 
1465	 8.89730031072062E-03 
1466	 8.58965827194813E-03 
1467	 0.006540849245454 
1468	 6.33135010519828E-03 
1469	 5.69170456050871E-03 
1470	 5.97205386351523E-03 
1471	 9.77125689847746E-03 
1472	 9.89542080487722E-03 
1473	 6.84646776255833E-03 
1474	 6.79625825936614E-03 
1475	 7.72612044915792E-03 
1476	 6.83603589913807E-03 
1477	 5.91968102577431E-03 
1478	 6.15892184268813E-03 
1479	 5.84255482938503E-03 
1480	 4.9895414771011E-03 
1481	 4.54668609635906E-03 
1482	 5.38397694645627E-03 
1483	 6.3822494891621E-03 
1484	 6.16444530934217E-03 
1485	 6.03285859289198E-03 
1486	 6.6485727812406E-03 
1487	 7.18438986310752E-03 
1488	 6.84107647756309E-03 
1489	 6.37828556490291E-03 
1490	 6.87367288314326E-03 
1491	 7.03897928328481E-03 
1492	 7.08731256191928E-03 
1493	 8.14251700759076E-03 
1494	 8.48333791264356E-03 
1495	 7.87325078307726E-03 
1496	 0.007835645715124 
1497	 8.11609534426793E-03 
1498	 8.24656078584829E-03 
1499	 8.5045668590455E-03 
1500	 8.54791513624136E-03 
1501	 8.36037875743607E-03 
1502	 8.37998743073998E-03 
1503	 8.35054988087054E-03 
1504	 8.37430099630742E-03 
1505	 8.34346282847431E-03 
1506	 8.7853960049405E-03 
1507	 9.08916569172877E-03 
1508	 9.11608067538153E-03 
1509	 9.32132282047174E-03 
1510	 9.38843492010856E-03 
1511	 9.39360960117771E-03 
1512	 9.51382752711686E-03 
1513	 9.36642193281624E-03 
1514	 9.32582404094704E-03 
1515	 9.16423934769005E-03 
1516	 8.94642647331753E-03 
1517	 9.15028179757138E-03 
1518	 9.29211108651578E-03 
1519	 9.51477701470744E-03 
1520	 9.74829949496234E-03 
1521	 9.81968517088576E-03 
1522	 9.93186110288258E-03 
1523	 9.88741276952919E-03 
1524	 9.87185980338705E-03 
1525	 9.9712540419059E-03 
1526	 9.91293272127885E-03 
1527	 9.89005243970624E-03 
1528	 1.00095932833653E-02 
1529	 9.84977317061704E-03 
1530	 9.65692673441081E-03 
1531	 9.79018740344194E-03 
1532	 9.93307989447261E-03 
1533	 1.00963289043883E-02 
1534	 1.01822385014736E-02 
1535	 1.01217395159061E-02 
1536	 1.01566769624909E-02 
1537	 1.02640383519608E-02 
1538	 1.03651177306433E-02 
1539	 1.03443058776252E-02 
1540	 1.02235594096781E-02 
1541	 1.01609286604631E-02 
1542	 1.02244246460677E-02 
1543	 1.03467639289328E-02 
1544	 1.03358827387455E-02 
1545	 1.03406142620319E-02 
1546	 1.04382839751129E-02 
1547	 1.04344322644245E-02 
1548	 1.04292855806671E-02 
1549	 1.04764424150063E-02 
1550	 1.05096986698299E-02 
1551	 1.04033279515308E-02 
1552	 1.03227706000321E-02 
1553	 1.04350963597547E-02 
1554	 1.04381563825729E-02 
1555	 1.04668905280278E-02 
1556	 1.05863683462104E-02 
1557	 1.04988230066702E-02 
1558	 1.04685481323076E-02 
1559	 1.06023459128874E-02 
1560	 1.05498941873784E-02 
1561	 1.04306621755457E-02 
1562	 1.05631848030719E-02 
1563	 1.08085980531382E-02 
1564	 1.08567386172705E-02 
1565	 1.08199723797843E-02 
1566	 1.07134078915299E-02 
1567	 1.03636036887434E-02 
1568	 1.02671042561144E-02 
1569	 1.04498414879844E-02 
1570	 1.03725551463722E-02 
1571	 1.02344692741085E-02 
1572	 1.02724240587092E-02 
1573	 1.03473582446428E-02 
1574	 1.03684678295365E-02 
1575	 1.05395996351411E-02 
1576	 1.06453057874458E-02 
1577	 1.04346063310568E-02 
1578	 1.03612919664974E-02 
1579	 1.02812862509606E-02 
1580	 1.01352921949755E-02 
1581	 1.03066851870679E-02 
1582	 1.03642191746415E-02 
1583	 1.01641435995275E-02 
1584	 1.01949909317988E-02 
1585	 1.02356786166493E-02 
1586	 1.01077484955497E-02 
1587	 1.02216230447165E-02 
1588	 1.04013370340159E-02 
1589	 1.02925507152787E-02 
1590	 1.02535061603676E-02 
1591	 1.04659790927851E-02 
1592	 0.010589292941886 
1593	 1.06592982396148E-02 
1594	 1.06834730239918E-02 
1595	 1.04885765865203E-02 
1596	 1.02074645470642E-02 
1597	 1.01263579731155E-02 
1598	 1.04088293306159E-02 
1599	 1.04767457480919E-02 
1600	 1.03759145557014E-02 
1601	 1.05615880637866E-02 
1602	 1.03512489827461E-02 
1603	 1.00068615400949E-02 
1604	 1.00820173121244E-02 
1605	 1.00516333275366E-02 
1606	 9.99227681579004E-03 
1607	 1.00690668260896E-02 
1608	 1.02086844444663E-02 
1609	 1.03870908384245E-02 
1610	 1.04097804763124E-02 
1611	 1.05878321973554E-02 
1612	 0.010729139687911 
1613	 1.04001812112945E-02 
1614	 0.010345581745818 
1615	 1.05679030849625E-02 
1616	 1.04809127377582E-02 
1617	 1.05567076718605E-02 
1618	 1.07771482361535E-02 
1619	 1.05855415332134E-02 
1620	 1.04468160893145E-02 
1621	 1.06785984625546E-02 
1622	 1.07849213003486E-02 
1623	 1.07365396444395E-02 
1624	 1.06710963928646E-02 
1625	 1.05475620068931E-02 
1626	 1.03728117414284E-02 
1627	 1.03227649960894E-02 
1628	 1.04903913978575E-02 
1629	 1.06147436850862E-02 
1630	 1.05450139274615E-02 
1631	 1.02978023832233E-02 
1632	 1.03060399032472E-02 
1633	 1.03551849437632E-02 
1634	 1.01586424601327E-02 
1635	 1.03986618975171E-02 
1636	 1.05659295740829E-02 
1637	 1.04186514297936E-02 
1638	 1.05373896952585E-02 
1639	 0.010513250665432 
1640	 1.04338956679875E-02 
1641	 1.05091060110085E-02 
1642	 1.04166463061218E-02 
1643	 1.02365646616706E-02 
1644	 1.01590148779204E-02 
1645	 1.02389264489757E-02 
1646	 1.03447821029192E-02 
1647	 1.03933153207958E-02 
1648	 1.04257035122156E-02 
1649	 1.03772002768008E-02 
1650	 1.03918212741381E-02 
1651	 0.010596339136612 
1652	 0.010688594845851 
1653	 1.06291232871163E-02 
1654	 1.05585579142442E-02 
1655	 1.02106540989313E-02 
1656	 1.02024829765866E-02 
1657	 1.03622149559176E-02 
1658	 1.03467212542655E-02 
1659	 1.05671939958292E-02 
1660	 1.06162603479183E-02 
1661	 1.03849519832929E-02 
1662	 1.04058779568292E-02 
1663	 1.05217451770809E-02 
1664	 1.03905642042235E-02 
1665	 1.01718970170594E-02 
1666	 1.02577559479689E-02 
1667	 1.04468751333991E-02 
1668	 1.06365459594168E-02 
1669	 1.06846032850113E-02 
1670	 1.06498331393556E-02 
1671	 0.010251000878848 
1672	 9.98161060586261E-03 
1673	 0.010096909287775 
1674	 1.00973647285444E-02 
1675	 1.02355439031706E-02 
1676	 1.04299549672429E-02 
1677	 1.04356036407727E-02 
1678	 1.04764717515198E-02 
1679	 1.03932771059044E-02 
1680	 1.01727501962718E-02 
1681	 1.01903502050182E-02 
1682	 1.03876347353985E-02 
1683	 1.03569482979934E-02 
1684	 1.03339201790248E-02 
1685	 1.04415087359838E-02 
1686	 1.01208025681079E-02 
1687	 9.91498328295263E-03 
1688	 1.01504236352774E-02 
1689	 1.00798701587963E-02 
1690	 1.02095078991299E-02 
1691	 1.06012337324456E-02 
1692	 1.03223164073785E-02 
1693	 1.01881394951469E-02 
1694	 1.04272221814563E-02 
1695	 1.01092486772046E-02 
1696	 1.00327841595508E-02 
1697	 1.03481268331231E-02 
1698	 1.01940965553373E-02 
1699	 0.010014940509382 
1700	 1.00722208305367E-02 
1701	 9.93104611118034E-03 
1702	 9.8037653938769E-03 
1703	 0.010022934017528 
1704	 1.01759845066539E-02 
1705	 1.02498392233361E-02 
1706	 1.01823734554835E-02 
1707	 9.90895591879209E-03 
1708	 0.010010403757452 
1709	 9.93907830434867E-03 
1710	 9.55066200538848E-03 
1711	 9.71111481923882E-03 
1712	 1.00814244439997E-02 
1713	 9.82506894566033E-03 
1714	 9.82606356079504E-03 
1715	 9.74402183292548E-03 
1716	 9.49343566279143E-03 
1717	 9.66370237552383E-03 
1718	 9.66096393514794E-03 
1719	 9.4207301896591E-03 
1720	 9.36611810682556E-03 
1721	 9.43651416929122E-03 
1722	 9.53449178196493E-03 
1723	 9.63652507513305E-03 
1724	 9.5672406369394E-03 
1725	 9.10212554283154E-03 
1726	 8.63438265122512E-03 
1727	 8.77891811855338E-03 
1728	 9.23640098370934E-03 
1729	 9.45636170348279E-03 
1730	 9.37135779652379E-03 
1731	 9.05534643960592E-03 
1732	 9.13230368656699E-03 
1733	 9.54798242147261E-03 
1734	 9.53585329817917E-03 
1735	 9.6080577569575E-03 
1736	 9.15562151815976E-03 
1737	 8.38934800715382E-03 
1738	 8.85121055635895E-03 
1739	 9.11537246472014E-03 
1740	 9.09563412786573E-03 
1741	 9.41005253704879E-03 
1742	 9.23343814480344E-03 
1743	 9.0762652423367E-03 
1744	 8.7001600107512E-03 
1745	 8.21826563402338E-03 
1746	 8.34446540800762E-03 
1747	 8.4314149071568E-03 
1748	 8.86800965222629E-03 
1749	 8.9434713026918E-03 
1750	 8.84221948646707E-03 
1751	 8.70145761512646E-03 
1752	 8.21384170406272E-03 
1753	 8.06119238698054E-03 
1754	 7.97236051054995E-03 
1755	 8.19692667249425E-03 
1756	 8.81928496174558E-03 
1757	 9.4656335486579E-03 
1758	 9.97222406977254E-03 
1759	 9.12324592155385E-03 
1760	 7.84102095727087E-03 
1761	 7.39100940663251E-03 
1762	 7.23616438894191E-03 
1763	 8.19698610998514E-03 
1764	 9.79987625380472E-03 
1765	 9.13690861149895E-03 
1766	 7.8165888721996E-03 
1767	 6.83033025590582E-03 
1768	 5.02047673765036E-03 
1769	 5.65529809802844E-03 
1770	 7.51670874658229E-03 
1771	 7.14521175489935E-03 
1772	 7.76768454135542E-03 
1773	 8.69089179070359E-03 
1774	 6.81481620535074E-03 
1775	 7.27450958296266E-03 
1776	 7.45364799213425E-03 
1777	 6.38854137482786E-03 
1778	 6.4233431305166E-03 
1779	 7.45416493978845E-03 
1780	 7.39001445765136E-03 
1781	 7.71448576972566E-03 
1782	 7.0669715292503E-03 
1783	 4.32119617188016E-03 
1784	 4.09351671212693E-03 
1785	 4.39634572579711E-03 
1786	 5.03885111270105E-03 
1787	 8.62090697769356E-03 
1788	 9.0297600768247E-03 
1789	 8.21007590506289E-03 
1790	 7.34186584564042E-03 
1791	 4.00835243702915E-03 
1792	 3.70730040601964E-03 
1793	 1.42010920097305E-05 
1794	-1.79459224238354E-04 
1795	 2.13862161028399E-03 
1796	-1.77553423187247E-03 
1797	-1.33046743459256E-03 
1798	-1.96806883147495E-03 
1799	-7.62924969380863E-03 
1800	 2.43777136910827E-03 
1801	 4.89503193825897E-03 
1802	-6.02216327540275E-03 
1803	-7.62342227769376E-03 
1804	-7.36436770246743E-03 
1805	-5.8171371551717E-03 
1806	 1.71138031993597E-02 
1807	 4.22892605242402E-02 
1808	 0.089480839808328 
1809	 8.63959445379151E-02 
1810	 5.70240913683183E-03 
1811	-3.75090598655063E-02 
1812	-0.181739800276941 
1813	-0.255244579795788 
1814	-0.100629044883196 
1815	-8.05770805696612E-02 
1816	-0.142865180245972 
1817	-1.28247351354617E-02 
1818	-0.160745712299782 
1819	-0.027066063998731 
1820	 0.125910563597887 
1821	 0.152610018021106 
1822	 0.208330936027006 
1823	 0.188926195974223 
1824	 0.239316412081951 
1825	 0.775911908868708 
1826	 0.778187381442576 
1827	 0.313620512333643 
1828	 0.212177203390695 
1829	 1.48010895199376E-02 
1830	-0.102947774637085 
1831	 0.612730686088968 
1832	-15.3204106533686 
1833	-1.40252465805848 
1834	-1.11565305863296 
1835	-0.796834875761621 
1836	-2.07443658978535 
1837	 0.901027648927602 
1838	 0.762168429824557 
1839	 0.855968422183051 
1840	 0.713011326587217 
1841	 1.10949593170249 
1842	 1.89078474372456 
1843	 1.5940927435876 
1844	 0.635100400888954 
1845	 0.55793646674444 
1846	 0.410090115519588 
1847	 0.455340098487894 
1848	 1.1302205858227 
1849	 1.1961036678197 
1850	 1.03127552456525 
1851	 0.744101026447292 
1852	 0.253750489050053 
1853	 0.327830951286904 
1854	 0.375899922070698 
1855	 0.810396297285189 
1856	 0.977520994120887 
1857	-2.55533085559418 
1858	-1.07253456250634 
1859	 0.70212733988587 
1860	 0.451109483519299 
1861	-0.667387754072789 
1862	-0.692749698277088 
1863	-7.39207815193632E-03 
1864	-1.12366017566393 
1865	-1.03879615026993 
1866	 6.71649062403232 
1867	 5.23555561207313 
1868	 11.2067599941843 
1869	 26.1950040026497 
1870	 4.99601944330688 
1871	 8.91191121326257 
1872	-2.46860135079452 
1873	-43.8071098102588 
1874	 2.38824918498492 
1875	 1.88237646977457 
1876	 1.65534208966113 
1877	 1.20825818812119 
1878	 1.57754489557807 
1879	-14.28866887973 
1880	-4.19496232126707 
1881	-2.45162371321726 
1882	-1.38159629858313 
1883	-1.58502964300574 
1884	-1.16319085694941 
1885	-6.79336710339232E-02 
1886	 1.15770764469668 
1887	-3.2396882594479 
1888	-0.648383737431068 
1889	-7.90966070764284E-02 
1890	 1.72341966852201 
1891	 1.98981761087439 
1892	 6.65550778234737 
1893	 2.31776137780436 
1894	 0.573437872570502 
1895	-1.59664456482074E-02 
1896	 0.250412923581374 
1897	 16.3945671238232 
1898	-5.18822210962637 
1899	 88.7914389949649 
1900	 11.167688929355 
1901	 1.38393981013824 
1902	 0.883090849989764 
1903	 0.637179093382243 
1904	 1.18063532296951 
1905	 1.9816113335137 
1906	 1.08281222768131 
1907	 0.531707305106385 
1908	 0.589005975467407 
1909	 0.296759286062972 
1910	-2.99776129461945 
1911	-0.732852329398634 
1912	-0.712110288657004 
1913	-0.975569933860353 
1914	 0.578501013833643 
1915	 0.482611663661143 
1916	 0.720590530753194 
1917	 0.719761023182157 
1918	 0.307990695951917 
1919	 0.171743698560423 
1920	-6.98481660501974E-02 
1921	-0.101870240888758 
1922	 0.240752465243156 
1923	 0.706996841508981 
1924	 0.410093810487187 
1925	-2.13649780382462E-02 
1926	 6.08091105641161E-02 
1927	 2.1493312494575 
1928	-0.954281028461372 
1929	-1.2117082488781 
1930	-1.47313019446468 
1931	-0.966477002771138 
1932	-1.3477699186663 
1933	-0.8883315173917 
1934	-0.407555442107449 
1935	-0.612655656975294 
1936	-0.688607284204022 
1937	-0.408519614136142 
1938	-0.484126222643522 
1939	-0.37012780118606 
1940	-0.274074045913579 
1941	-0.106479185361688 
1942	-6.52770837490323E-02 
1943	-5.53255070541625E-02 
1944	-3.16411441945861E-02 
1945	-0.054330400281343 
1946	-4.79118931968996E-02 
1947	 7.55494756698101E-03 
1948	 2.34372233298769E-03 
1949	-1.72930940070816E-02 
1950	 1.23148585051573E-02 
1951	 2.18890775117765E-02 
1952	 0.016687243155635 
1953	 0.013415145537766 
1954	 5.85416195280847E-03 
1955	-0.013202512650301 
1956	-1.34260350697886E-02 
1957	-4.26292941413467E-03 
1958	-2.36277131728482E-03 
1959	-5.78603345781698E-03 
1960	 2.23296548255789E-03 
1961	 9.61315015414026E-03 
1962	 1.62476034580392E-02 
1963	 1.96442755654233E-02 
1964	 1.28891318601753E-02 
1965	 8.56186516752685E-03 
1966	 6.29053893872039E-03 
1967	 3.62650436699106E-03 
1968	 3.66953369004941E-03 
1969	 5.95884194233666E-03 
1970	 4.48684935265015E-03 
1971	 2.47213397916678E-03 
1972	 1.90999005705391E-03 
1973	 1.81267703372902E-03 
1974	 2.48768392031734E-03 
1975	 0.004177246605421 
1976	 5.70723510804483E-03 
1977	 6.13606320347652E-03 
1978	 5.78436913677921E-03 
1979	 5.89501125896859E-03 
1980	 5.91302323118013E-03 
1981	 6.42558009861202E-03 
1982	 6.82170587917652E-03 
1983	 7.33600372299803E-03 
1984	 8.10372848896947E-03 
1985	 7.36841305292352E-03 
1986	 6.1795280198033E-03 
1987	 5.63234384304663E-03 
1988	 4.96495249570674E-03 
1989	 5.68264373563563E-03 
1990	 6.44067820737797E-03 
1991	 5.87594689208588E-03 
1992	 6.31108873819639E-03 
1993	 7.07773024672802E-03 
1994	 6.43886098898522E-03 
1995	 4.67531568101723E-03 
1996	 3.79743899722006E-03 
1997	 2.46497926234779E-03 
1998	 2.02719816389755E-04 
1999	 1.41827817553781E-03 
2000	 3.9126971596862E-03 
2001	 4.0911241930514E-03 
2002	 4.11191951358383E-03 
2003	 3.30923200353429E-03 
2004	 1.97357937547414E-03 
2005	 2.45514840357022E-03 
2006	 4.46092519226179E-03 
2007	 5.99561990140907E-03 
2008	 4.34583125599493E-03 
2009	 4.77472159274023E-03 
2010	 7.36046761316683E-03 
2011	 7.14463969245492E-03 
2012	 4.2499229602885E-03 
2013	 6.97977028671694E-03 
2014	 7.37891612969097E-03 
2015	 5.65360445893575E-03 
2016	 8.36457652024125E-03 
2017	 7.99648958272102E-03 
2018	 6.13129936562002E-03 
2019	 6.9337175406857E-03 
2020	 6.61897651465248E-03 
2021	 6.24561104554879E-03 
2022	 6.94900111529094E-03 
2023	 6.3260692180292E-03 
2024	 6.00080700898919E-03 
2025	 5.23804430332376E-03 
2026	 5.0839729870075E-03 
2027	 5.14146753929486E-03 
2028	 5.25223755661151E-03 
2029	 5.25611016481889E-03 
2030	 6.51158891358758E-03 
2031	 7.8010527895132E-03 
2032	 7.73541638146632E-03 
2033	 7.50113835015361E-03 
2034	 7.07938044051223E-03 
2035	 6.29065056029391E-03 
2036	 6.05099038894873E-03 
2037	 6.37210529943752E-03 
2038	 6.18736273066863E-03 
2039	 6.12358872403313E-03 
2040	 6.06603782744998E-03 
2041	 6.19412712290946E-03 
2042	 6.31198568955709E-03 
2043	 6.37392316430928E-03 
2044	 6.54478225072812E-03 
2045	 6.47984809268127E-03 
2046	 5.96256474770077E-03 
2047	 6.2977498680714E-03 
2048	 6.66255239838083E-03 
2049	 5.9061272789137E-03 
2050	 5.88370226458845E-03 
2051	 5.95784024005696E-03 
2052	 5.09066287227963E-03 
2053	 5.18089718711318E-03 
2054	 5.48701361279725E-03 
2055	 5.9008784475555E-03 
2056	 6.26887194672656E-03 
2057	 7.13561178579606E-03 
2058	 7.21189562734655E-03 
2059	 6.37301819548504E-03 
2060	 6.29071509274178E-03 
2061	 6.17112109952657E-03 
2062	 6.81329009166951E-03 
2063	 6.96533417595944E-03 
2064	 6.8773192702576E-03 
2065	 6.98492464681412E-03 
2066	 6.61408438800676E-03 
2067	 5.81146584494396E-03 
2068	 6.05976325113586E-03 
2069	 6.57380977338735E-03 
2070	 6.41425996545585E-03 
2071	 6.89268729291124E-03 
2072	 7.14642284892352E-03 
2073	 7.54917298310894E-03 
2074	 8.05311229662962E-03 
2075	 7.89830490040931E-03 
2076	 7.66179493489383E-03 
2077	 7.84578557878202E-03 
2078	 7.00752910141725E-03 
2079	 6.99310270624923E-03 
2080	 8.27498524267948E-03 
2081	 8.43654528771993E-03 
2082	 7.54080431225876E-03 
2083	 8.28866853481567E-03 
2084	 8.5959122956339E-03 
2085	 8.07150507729197E-03 
2086	 8.52798524270939E-03 
2087	 8.74111898232476E-03 
2088	 8.64869742356632E-03 
2089	 9.20766543436581E-03 
2090	 8.92854860853675E-03 
2091	 8.31333547112556E-03 
2092	 7.76618933212743E-03 
2093	 6.34909986021999E-03 
2094	 6.10539897449917E-03 
2095	 6.29817201385855E-03 
2096	 6.60400376804438E-03 
2097	 8.34027534250394E-03 
2098	 8.50814834021564E-03 
2099	 7.72458821684872E-03 
2100	 7.74263303173355E-03 
2101	 7.48865232290853E-03 
2102	 6.29939578438079E-03 
2103	 6.15123861930831E-03 
2104	 6.39014863151814E-03 
2105	 6.48880336962157E-03 
2106	 6.76140991364329E-03 
2107	 6.98749462550033E-03 
2108	 7.5863676628756E-03 
2109	 7.82791981345964E-03 
2110	 7.50642615511831E-03 
2111	 7.47843560936734E-03 
2112	 7.3737531456937E-03 
2113	 7.16699463256441E-03 
2114	 6.8475122535984E-03 
2115	 6.47650816871862E-03 
2116	 5.90120894009215E-03 
2117	 5.48597587475795E-03 
2118	 4.89223096677857E-03 
2119	 4.91067273597617E-03 
2120	 5.67956379730693E-03 
2121	 5.59638477046564E-03 
2122	 5.24542116890234E-03 
2123	 4.89518515867767E-03 
2124	 4.59240578244043E-03 
2125	 5.10416138629453E-03 
2126	 6.15416272894777E-03 
2127	 6.92514686190564E-03 
2128	 7.55937022708118E-03 
2129	 8.11263091992413E-03 
2130	 7.78522624982971E-03 
2131	 7.47064093924447E-03 
2132	 7.30935219597876E-03 
2133	 7.0711998085499E-03 
2134	 7.2737889778812E-03 
2135	 8.79544656083416E-03 
2136	 8.87831147471627E-03 
2137	 8.10663145876757E-03 
2138	 7.74800891505306E-03 
2139	 6.86115457999938E-03 
2140	 6.54111463398351E-03 
2141	 6.91006724888784E-03 
2142	 6.91874681538456E-03 
2143	 6.73655494571091E-03 
2144	 6.75359637324483E-03 
2145	 7.5225138747311E-03 
2146	 7.10495126856481E-03 
2147	 6.27500754102098E-03 
2148	 6.12450309472061E-03 
2149	 5.24281094137378E-03 
2150	 5.02405372026033E-03 
2151	 5.66934315990618E-03 
2152	 5.83933167395573E-03 
2153	 6.12109148030825E-03 
2154	 6.91723287043804E-03 
2155	 7.3792523275699E-03 
2156	 7.29189538388793E-03 
2157	 7.73338874082055E-03 
2158	 8.42545374997904E-03 
2159	 8.33033253988589E-03 
2160	 8.09031931787767E-03 
2161	 7.96170398207261E-03 
2162	 6.91927176065304E-03 
2163	 6.77116043324036E-03 
2164	 7.70149547445289E-03 
2165	 8.00580966320373E-03 
2166	 8.19916492594241E-03 
2167	 8.16438775649593E-03 
2168	 7.4217797183508E-03 
2169	 7.45534598801065E-03 
2170	 8.14584171697316E-03 
2171	 8.41543065001778E-03 
2172	 7.91986107842974E-03 
2173	 7.46752922459004E-03 
2174	 5.88981235499735E-03 
2175	 4.01795027264139E-03 
2176	 4.98696618030411E-03 
2177	 6.6032855124945E-03 
2178	 7.39707345981968E-03 
2179	 8.75057743215711E-03 
2180	 8.77278234977867E-03 
2181	 7.31156466329841E-03 
2182	 6.86025227335733E-03 
2183	 7.64429618698574E-03 
2184	 7.58680885013998E-03 
2185	 7.54854162843867E-03 
2186	 7.38364074084149E-03 
2187	 6.67034611699719E-03 
2188	 6.13799558060364E-03 
2189	 5.4050196803265E-03 
2190	 5.66667548638056E-03 
2191	 6.6863651242212E-03 
2192	 7.26954725425871E-03 
2193	 8.94918610830538E-03 
2194	 9.46424350334174E-03 
2195	 8.76688715142256E-03 
2196	 8.32826688179257E-03 
2197	 7.41474706099451E-03 
2198	 6.7705024042639E-03 
2199	 5.79386374929386E-03 
2200	 5.56544782944338E-03 
2201	 6.39656740607797E-03 
2202	 6.28541045247857E-03 
2203	 5.93743298346472E-03 
2204	 6.48133515080624E-03 
2205	 7.14828965857614E-03 
2206	 7.62161805776397E-03 
2207	 7.56888594885642E-03 
2208	 7.87417922158649E-03 
2209	 7.61343242143198E-03 
2210	 6.94558917383453E-03 
2211	 7.62505851465358E-03 
2212	 7.31856375472193E-03 
2213	 0.007533252889971 
2214	 8.30683349152616E-03 
2215	 6.63686229738078E-03 
2216	 6.36163584390987E-03 
2217	 6.39255327982661E-03 
2218	 6.5773808954175E-03 
2219	 6.03362275739406E-03 
2220	 5.76032885016733E-03 
2221	 5.66021054826334E-03 
2222	 4.11819301553909E-03 
2223	 4.02080042982832E-03 
2224	 6.34904704703354E-03 
2225	 6.45248372999697E-03 
2226	 5.53067495404495E-03 
2227	 5.81103019587177E-03 
2228	 5.15397307771095E-03 
2229	 5.28192702798498E-03 
2230	 7.3643958650562E-03 
2231	 7.81252437741102E-03 
2232	 7.51934346304163E-03 
2233	 7.37560189344751E-03 
2234	 6.87676568784912E-03 
2235	 5.74037423431965E-03 
2236	 5.30620225141735E-03 
2237	 5.18553971488618E-03 
2238	 4.77211811331291E-03 
2239	 5.18131491435874E-03 
2240	 5.45183203478548E-03 
2241	 4.40257268889549E-03 
2242	 4.7009920400624E-03 
2243	 5.50272061995993E-03 
2244	 5.11649263876473E-03 
2245	 5.76589134562634E-03 
2246	 6.6908847890708E-03 
2247	 6.38421996169072E-03 
2248	 6.16802014572294E-03 
2249	 7.31223058124965E-03 
2250	 7.77958629754808E-03 
2251	 7.48077863224872E-03 
2252	 7.16007782851157E-03 
2253	 6.33689976571818E-03 
2254	 7.07149458083285E-03 
2255	 7.00324817050201E-03 
2256	 4.41061868395475E-03 
2257	 2.64932807797032E-03 
2258	 2.25258947259689E-03 
2259	 1.93705196072733E-03 
2260	 1.90582749763183E-03 
2261	 5.20844352094409E-03 
2262	 5.53471082273816E-03 
2263	 2.68728989062235E-03 
2264	 2.78937672263136E-03 
2265	 4.14529849661473E-03 
2266	 4.55784534761318E-03 
2267	 0.005619921516028 
2268	 6.42563327320793E-03 
2269	 6.1025788821533E-03 
2270	 6.44629173845003E-03 
2271	 8.58969219593895E-03 
2272	 8.99854822225865E-03 
2273	 7.79449340084523E-03 
2274	 7.26507196879467E-03 
2275	 6.67412073658722E-03 
2276	 6.00945125764451E-03 
2277	 5.65241401881788E-03 
2278	 4.9242123245662E-03 
2279	 2.84578312375357E-03 
2280	 2.15621913534344E-03 
2281	 7.59503233697978E-04 
2282	 0.003001883030014 
2283	 6.23619546437207E-03 
2284	 5.31183406961152E-03 
2285	 2.60569732706047E-03 
2286	-2.19585497184159E-04 
2287	-7.43555795184098E-04 
2288	 1.43790261369672E-03 
2289	 3.08947241909674E-03 
2290	 4.83897705925017E-03 
2291	 3.89343338609839E-03 
2292	-9.93767508843342E-05 
2293	-9.07458638610149E-04 
2294	 5.93188929314805E-04 
2295	 2.28449017082685E-04 
2296	 9.00474571482425E-06 
2297	-1.98048970786751E-03 
2298	-4.29892088358155E-03 
2299	-1.65397740048509E-03 
2300	 1.87479956571517E-03 
2301	 4.59550638591172E-03 
2302	 5.69260639048675E-03 
2303	 4.86042182489858E-03 
2304	 6.99277580454161E-03 
2305	 9.46086372032567E-03 
2306	 9.4858650318904E-03 
2307	 9.01269026375858E-03 
2308	 5.24263122767245E-03 
2309	 2.47544184961121E-03 
2310	 1.62692186824428E-03 
2311	-1.15599945555745E-03 
2312	-1.6943169194358E-03 
2313	-2.44528383324345E-03 
2314	-2.16758554664125E-03 
2315	 1.27785372318498E-03 
2316	 9.10013666561484E-04 
2317	-2.1374298281438E-03 
2318	-3.56787609358179E-03 
2319	-5.9221226017665E-03 
2320	-8.90008412023193E-03 
2321	-4.22243867629304E-03 
2322	 7.26423488823889E-04 
2323	-1.42022376391011E-03 
2324	 0.001638942597729 
2325	 3.78770178717929E-03 
2326	-3.39564527691688E-03 
2327	-7.02831743892949E-03 
2328	-4.11017984721456E-03 
2329	-3.92612211779908E-03 
2330	-3.38427739163971E-03 
2331	-2.25223161622607E-03 
2332	-4.54066074549814E-03 
2333	-0.004961994618886 
2334	-3.27259721465751E-03 
2335	 6.9850558031107E-03 
2336	 1.45963374101995E-02 
2337	 1.22407039789457E-02 
2338	 1.44973085571003E-02 
2339	 7.03419601973285E-03 
2340	 8.76031143142239E-04 
2341	 6.16398138060127E-03 
2342	 2.30163208548704E-03 
2343	 1.42968337487098E-03 
2344	 2.3086485147362E-03 
2345	-4.62842906865586E-03 
2346	-6.4689741244661E-03 
2347	-1.01082747836207E-02 
2348	-1.71743268573453E-02 
2349	-1.88668788899937E-02 
2350	-2.15519156213856E-02 
2351	-1.56066540329852E-02 
2352	-4.75988628113458E-03 
2353	-6.29153735967964E-04 
2354	-2.53496924476152E-03 
2355	-2.25490671644457E-03 
2356	 3.33272384979994E-03 
2357	-3.82795827607095E-03 
2358	-6.64135271662546E-03 
2359	-8.15809560421049E-03 
2360	-2.06369065541042E-02 
2361	-2.16451426919605E-02 
2362	-0.020036602736478 
2363	-1.89266201462525E-02 
2364	-6.0991176062786E-03 
2365	-1.47209783158126E-03 
2366	-8.84202525999685E-03 
2367	-1.10831782313267E-02 
2368	-1.74810484254676E-02 
2369	-1.71182905741652E-02 
2370	 2.79544696200854E-03 
2371	 1.60115579656194E-02 
2372	 0.0145034086948 
2373	-3.41380600186775E-03 
2374	-2.39068017069949E-02 
2375	-3.32763297625365E-02 
2376	-5.14568987686339E-02 
2377	-5.16649453812531E-02 
2378	-3.64579627203575E-02 
2379	-3.91461179361223E-02 
2380	-3.82615151882755E-02 
2381	-0.030909823273578 
2382	-3.71504700751485E-02 
2383	-4.30682771756897E-02 
2384	-3.43469333104792E-02 
2385	-4.16712696761947E-02 
2386	-5.74449605573318E-02 
2387	-5.47332563866215E-02 
2388	-4.79909790198899E-02 
2389	-4.95708395330304E-02 
2390	-5.29769976822613E-02 
2391	-5.24798792889328E-02 
2392	-4.05271367972321E-02 
2393	-3.55347661468315E-02 
2394	-3.51935666701754E-02 
2395	-3.19568670767859E-02 
2396	-5.69718572206704E-02 
2397	-6.68252506903057E-02 
2398	-0.041280741717075 
2399	-3.20451261142567E-02 
2400	-2.33933419121287E-02 
2401	-2.61926122451441E-02 
2402	-4.90256183027814E-02 
2403	-3.53920823577937E-02 
2404	-4.10494841387467E-02 
2405	-0.061315399678211 
2406	-7.09225361884537E-02 
2407	-0.107698952373787 
2408	-9.60963991776823E-02 
2409	-5.06618112223703E-02 
2410	-3.93079497995454E-02 
2411	-3.84360843012558E-02 
2412	-1.58820824200181E-02 
2413	-6.10956831643727E-03 
2414	-0.053564455709499 
2415	-9.68314106803136E-02 
2416	-0.190161200149444 
2417	-0.270304585530739 
2418	-0.213852838046566 
2419	-7.76970512791461E-02 
2420	 5.31282132987796E-03 
2421	-5.34216137110154E-02 
2422	-7.23181004497539E-02 
2423	-0.12915100416281 
2424	-0.207942655500487 
2425	-0.13143759013314 
2426	-9.52458318751047E-02 
2427	-0.113808950601432 
2428	-8.06066235250877E-02 
2429	-0.140663861350282 
2430	-0.162435702026427 
2431	-3.37920496966223E-02 
2432	-3.18522603791301E-02 
2433	-8.63759874109102E-02 
2434	-8.59090833626079E-02 
2435	-0.211187322985463 
2436	-0.195885615243154 
2437	-5.33912931878592E-02 
2438	-7.33520390947458E-02 
2439	 1.17579590988544E-02 
2440	 0.202882011667819 
2441	 0.186407057301448 
2442	 0.171133630370314 
2443	 0.104691165224656 
2444	-0.221591284004147 
2445	-0.304000230172103 
2446	-0.414538460433874 
2447	-0.837841310095683 
2448	-1.17563257065167 
2449	-1.02242572270092 
2450	-1.13706101711705 
2451	-2.30588006079019 
2452	-2.44396152456083 
2453	-1.62652439593038 
2454	-1.3638234443809 
2455	-1.14161666666224 
2456	-0.873383039059966 
2457	-0.702311712720572 
2458	-0.745844877113946 
2459	-0.447063256364727 
2460	-0.154787822951835 
2461	-2.51271492849664E-02 
2462	-4.82240451479126E-02 
2463	 3.19535791837877E-02 
2464	 0.239931307199808 
2465	 0.160939616712428 
2466	 1.74736919525511 
2467	 10.0933975527873 
2468	-0.297261728879468 
2469	-0.730243310030372 
2470	-1.97150274331282 
2471	 85.3715571207033 
2472	 2.25759549050962 
2473	 2.11768032389067 
2474	 1.21331216172815 
2475	 4.16323985405446 
2476	 2.21189199592872 
2477	 0.282363323143659 
2478	 0.223524751316916 
2479	 1.75505762656714 
2480	-1.46790893617662 
2481	 23.0035674878803 
2482	-1.54312343810747 
2483	-0.913483646881316 
2484	-11.01571954941 
2485	-21.8917597389207 
2486	 5.01926269398593 
2487	-1.21245635373536 
2488	-4.36624730416622 
2489	 2.60195733390454 
2490	-0.656988670378115 
2491	-1.02880011618267 
2492	-0.797870615801209 
2493	-8.52135654584379E-02 
2494	 0.95135939650356 
2495	 1.78762351913332 
2496	 0.804802028993812 
2497	 0.565046019140186 
2498	 0.401121087366956 
2499	 0.45717128697102 
2500	 0.930496976530892 
