Wavelength	rt0713west_far_cloud300003.asd
350	 0.119155792529393 
351	 0.118961059565441 
352	 0.118938358224947 
353	 0.119048779874027 
354	 0.119204055252618 
355	 0.119540404973998 
356	 0.119646349277918 
357	 0.119731726393593 
358	 0.119982438267348 
359	 0.119583194010211 
360	 0.119127948964878 
361	 0.119005196691041 
362	 0.119338238240736 
363	 0.11961358851194 
364	 0.119719242087789 
365	 0.119702812906599 
366	 0.119758583507479 
367	 0.11960193143879 
368	 0.119427943882056 
369	 0.119503924336312 
370	 0.119883750980236 
371	 0.120395713705081 
372	 0.120626132126619 
373	 0.120214090368385 
374	 0.120415455111915 
375	 0.120611328917815 
376	 0.120572428480281 
377	 0.120871609972405 
378	 0.120741189002601 
379	 0.120878068126012 
380	 0.121642905590505 
381	 0.121195864144002 
382	 0.121556561756506 
383	 0.122308339426509 
384	 0.122131267941275 
385	 0.122557866882552 
386	 0.12257247984246 
387	 0.122061711918979 
388	 0.122110787503039 
389	 0.122788072332349 
390	 0.123289104106962 
391	 0.123245954728823 
392	 0.123827513985181 
393	 0.123689503376117 
394	 0.123402972119269 
395	 0.123956055329775 
396	 0.124579321286577 
397	 0.124659128057189 
398	 0.124344697651703 
399	 0.124380949625517 
400	 0.124691325572718 
401	 0.124870354550651 
402	 0.124765723584011 
403	 0.124859001341804 
404	 0.125145355439948 
405	 0.125425780934744 
406	 0.125497687186275 
407	 0.125654886740488 
408	 0.125813753525984 
409	 0.125895140349679 
410	 0.125860644095954 
411	 0.125925437507114 
412	 0.126103322745819 
413	 0.126359299477383 
414	 0.1266672188841 
415	 0.126918607006595 
416	 0.127039850989541 
417	 0.127036467273035 
418	 0.127218049352265 
419	 0.127511223911733 
420	 0.127775366838393 
421	 0.127848699964384 
422	 0.128187464206546 
423	 0.128584884157658 
424	 0.128813819204586 
425	 0.128968062662844 
426	 0.129361818710948 
427	 0.129826630540044 
428	 0.130028427346054 
429	 0.130352723099486 
430	 0.130751611288492 
431	 0.131172103127933 
432	 0.13160690933354 
433	 0.131670034961731 
434	 0.131784756167341 
435	 0.13228369799418 
436	 0.132700570988343 
437	 0.133080619183939 
438	 0.133453061480054 
439	 0.133838840521191 
440	 0.134233902488985 
441	 0.134580021940938 
442	 0.13486189892461 
443	 0.135127959630692 
444	 0.135553103811683 
445	 0.135969821125482 
446	 0.136232865535821 
447	 0.136703221553259 
448	 0.13702598402144 
449	 0.137262319744897 
450	 0.137741872308845 
451	 0.137901227368978 
452	 0.13814799179758 
453	 0.138646222172858 
454	 0.138764896033955 
455	 0.138955554898491 
456	 0.139155321986174 
457	 0.139213600886437 
458	 0.139519510944386 
459	 0.139796293920929 
460	 0.13996761477822 
461	 0.14018615745004 
462	 0.140312623068935 
463	 0.140463626516851 
464	 0.140700117712196 
465	 0.140781657891349 
466	 0.140920371588365 
467	 0.141140382020163 
468	 0.141365458247478 
469	 0.141528317144005 
470	 0.141739498315028 
471	 0.141968337075714 
472	 0.141973041604029 
473	 0.142206526219015 
474	 0.142542550170266 
475	 0.142773165848197 
476	 0.142991358286517 
477	 0.143197564745123 
478	 0.143435018379962 
479	 0.143763356378002 
480	 0.144093466510674 
481	 0.144367765401958 
482	 0.144617416989846 
483	 0.145047757376107 
484	 0.145397677459126 
485	 0.14575640438802 
486	 0.146261615345514 
487	 0.146583612818499 
488	 0.146834748544439 
489	 0.147124114269935 
490	 0.147525548477642 
491	 0.147994953980906 
492	 0.148480993039455 
493	 0.148926438377464 
494	 0.149247070770714 
495	 0.149716374966764 
496	 0.150279614202788 
497	 0.15073489692611 
498	 0.151216550119242 
499	 0.15171204720265 
500	 0.152207120807018 
501	 0.152711119617026 
502	 0.153062407215094 
503	 0.153444000870856 
504	 0.154055000426539 
505	 0.154738151290608 
506	 0.155398129618773 
507	 0.156010262030486 
508	 0.156619866660825 
509	 0.1574423363636 
510	 0.158257232963955 
511	 0.158941926851554 
512	 0.159798117605444 
513	 0.160493858710014 
514	 0.161135137038738 
515	 0.161972435812748 
516	 0.16283289459385 
517	 0.163642269722864 
518	 0.164371536223003 
519	 0.165042421072913 
520	 0.165681419452852 
521	 0.166442187620169 
522	 0.167383368573224 
523	 0.168144897984053 
524	 0.168902130626999 
525	 0.169687023115834 
526	 0.17043187430367 
527	 0.171134685457257 
528	 0.171918181704459 
529	 0.172775800834289 
530	 0.173401316464363 
531	 0.174166091975973 
532	 0.174999882044225 
533	 0.175700874267518 
534	 0.176352618242439 
535	 0.177081188857373 
536	 0.17786505975529 
537	 0.178512787279507 
538	 0.179141307665027 
539	 0.179825106794635 
540	 0.180569709804107 
541	 0.181180407673837 
542	 0.181879548956168 
543	 0.182640180925951 
544	 0.183294212883614 
545	 0.183930636689036 
546	 0.184640554032067 
547	 0.18541830729519 
548	 0.186071708614471 
549	 0.186784818820823 
550	 0.187524535065251 
551	 0.188196236536546 
552	 0.188818415223802 
553	 0.189421977390674 
554	 0.190018195533565 
555	 0.190591583742202 
556	 0.19120013845792 
557	 0.191744981403795 
558	 0.192171567091148 
559	 0.192715187731592 
560	 0.193227681145194 
561	 0.193675673654964 
562	 0.194092842134795 
563	 0.194384655663729 
564	 0.194614825023211 
565	 0.194820186739693 
566	 0.194940199627339 
567	 0.195057460528475 
568	 0.195213368783757 
569	 0.195411314979064 
570	 0.195551384786668 
571	 0.1956855228631 
572	 0.195814674553766 
573	 0.19587969155019 
574	 0.196104214264181 
575	 0.196375653226514 
576	 0.196545727222931 
577	 0.196622496292377 
578	 0.196736840745694 
579	 0.19686435882003 
580	 0.196892381048334 
581	 0.196910730289686 
582	 0.196809813105359 
583	 0.19653774731613 
584	 0.196187966087473 
585	 0.195751619498059 
586	 0.195050812034373 
587	 0.19396120159396 
588	 0.193110398613862 
589	 0.192546439213356 
590	 0.192253228849142 
591	 0.19213705810271 
592	 0.191778834211055 
593	 0.191390791489677 
594	 0.191177447233239 
595	 0.190865569861604 
596	 0.190425175194573 
597	 0.189977079384534 
598	 0.189691970826314 
599	 0.189258686097419 
600	 0.188846659430096 
601	 0.188557770086431 
602	 0.188271815176804 
603	 0.188139876500272 
604	 0.188074608720878 
605	 0.187952886390975 
606	 0.187891141433907 
607	 0.187844215332317 
608	 0.187778809928024 
609	 0.187685762703248 
610	 0.187673962158045 
611	 0.187638536138103 
612	 0.187509314241768 
613	 0.187450670538533 
614	 0.187443123963713 
615	 0.187392762999105 
616	 0.187195942838103 
617	 0.187097596898762 
618	 0.18691277828675 
619	 0.186676388615356 
620	 0.186879277083256 
621	 0.186777288643914 
622	 0.186510844474167 
623	 0.186415860602365 
624	 0.186256276383838 
625	 0.185962204058598 
626	 0.185579479619886 
627	 0.185270169637866 
628	 0.185298893783946 
629	 0.185382954802908 
630	 0.185281852012015 
631	 0.185149908858401 
632	 0.185126381970921 
633	 0.185152819608751 
634	 0.185069650519599 
635	 0.184821755939383 
636	 0.184572421963517 
637	 0.184393967412401 
638	 0.184198921857336 
639	 0.183900499819011 
640	 0.183490879217387 
641	 0.183040145302143 
642	 0.182811483479726 
643	 0.182307598594612 
644	 0.181454579182644 
645	 0.18054388218524 
646	 0.17952972269756 
647	 0.178935200293591 
648	 0.179003379333505 
649	 0.179189067290055 
650	 0.178847518055368 
651	 0.17840772979205 
652	 0.178541602609194 
653	 0.178215747033385 
654	 0.177769497315785 
655	 0.177409064134786 
656	 0.177075471643017 
657	 0.17677765496345 
658	 0.176579523205176 
659	 0.176485046950027 
660	 0.176318299469229 
661	 0.176061572442799 
662	 0.175688619298337 
663	 0.1752202986405 
664	 0.175082582361399 
665	 0.175008861390498 
666	 0.174800200986989 
667	 0.174538718396477 
668	 0.174368841638146 
669	 0.174317922727828 
670	 0.174332872384784 
671	 0.174228476203803 
672	 0.174056227785012 
673	 0.173948193421644 
674	 0.174080274071984 
675	 0.174227878970657 
676	 0.174320034462653 
677	 0.17434007747275 
678	 0.17428721034147 
679	 0.174470281287768 
680	 0.174811975696476 
681	 0.175061089155353 
682	 0.175190863459709 
683	 0.175447954640965 
684	 0.175794223432413 
685	 0.175791951302641 
686	 0.175580286396607 
687	 0.175664214841587 
688	 0.176309379942947 
689	 0.17678055929318 
690	 0.176925964776744 
691	 0.176732822544399 
692	 0.176342814090395 
693	 0.176483067604383 
694	 0.177166833732761 
695	 0.178044605962075 
696	 0.178645622708254 
697	 0.178631609450216 
698	 0.178071891914863 
699	 0.177319699240312 
700	 0.177114929373523 
701	 0.177252871119128 
702	 0.177365963940485 
703	 0.177074354120105 
704	 0.176663396560727 
705	 0.176156777613893 
706	 0.175563580718942 
707	 0.174914190569534 
708	 0.174108717559199 
709	 0.173211735386062 
710	 0.172256277593485 
711	 0.170751692645811 
712	 0.169009801243966 
713	 0.167019336677978 
714	 0.164307920073852 
715	 0.160947459905391 
716	 0.157045234911089 
717	 0.153340546951016 
718	 0.150386347865249 
719	 0.149358038539835 
720	 0.14925051232095 
721	 0.148438555072721 
722	 0.145931618867988 
723	 0.142775286089447 
724	 0.140069188438268 
725	 0.137613969988931 
726	 0.135522663966738 
727	 0.133380605415212 
728	 0.130929742290553 
729	 0.128476503273297 
730	 0.126589655066537 
731	 0.125358572452759 
732	 0.124373888958757 
733	 0.122973388262256 
734	 0.121519852786771 
735	 0.120325293664236 
736	 0.119549547851896 
737	 0.118855426457215 
738	 0.118582663185052 
739	 0.118884235000452 
740	 0.118882681488069 
741	 0.118896076369801 
742	 0.118996371843095 
743	 0.11910862424951 
744	 0.119054723111683 
745	 0.118901476150813 
746	 0.118777932210837 
747	 0.118853656314274 
748	 0.118781345597115 
749	 0.118649647586483 
750	 0.11859972672879 
751	 0.118548043692361 
752	 0.118477120768113 
753	 0.118419030941491 
754	 0.118415641808048 
755	 0.118368112507221 
756	 0.118198024944894 
757	 0.11774883315646 
758	 0.116449509333504 
759	 0.114384226800061 
760	 0.112273548519781 
761	 0.112001077325911 
762	 0.112347089048766 
763	 0.113103714374023 
764	 0.114241874505282 
765	 0.115708572353081 
766	 0.117022667068315 
767	 0.117788076723013 
768	 0.11811208257035 
769	 0.118497577181103 
770	 0.118810498072241 
771	 0.119010369818239 
772	 0.119129188937119 
773	 0.119362111525807 
774	 0.119571655697824 
775	 0.119711504008993 
776	 0.119813586439804 
777	 0.120097923444213 
778	 0.120391171944261 
779	 0.12064268362818 
780	 0.120951641724179 
781	 0.121221169878458 
782	 0.121443288206784 
783	 0.121627727922902 
784	 0.121792724022268 
785	 0.121845973389829 
786	 0.121759623579602 
787	 0.121613443296932 
788	 0.121832609229754 
789	 0.122192933828966 
790	 0.122603497891129 
791	 0.123120332997599 
792	 0.123822304128656 
793	 0.124358243742219 
794	 0.124522904481856 
795	 0.124391227583816 
796	 0.124691781275168 
797	 0.125264948844252 
798	 0.125711559153406 
799	 0.125769007052347 
800	 0.125757292248512 
801	 0.125891181174264 
802	 0.126279351811641 
803	 0.126858527465257 
804	 0.127290223068513 
805	 0.127473293712252 
806	 0.127573338384238 
807	 0.12727998570145 
808	 0.126730983040596 
809	 0.126040086933797 
810	 0.124988652900601 
811	 0.123706335513659 
812	 0.122392142487278 
813	 0.121239703702529 
814	 0.119873170896037 
815	 0.11895425960678 
816	 0.118700214711131 
817	 0.118779232565313 
818	 0.119026309181893 
819	 0.118980331088067 
820	 0.118387512646273 
821	 0.117158679563263 
822	 0.116107977218447 
823	 0.115166952795074 
824	 0.114110085862069 
825	 0.112935563600599 
826	 0.111409061445635 
827	 0.109718166206256 
828	 0.108265528364071 
829	 0.106671199050198 
830	 0.105516050071996 
831	 0.104836082112619 
832	 0.104268970184903 
833	 0.10369576149304 
834	 0.103431841087569 
835	 0.103386321304724 
836	 0.102926313262709 
837	 0.102777803822587 
838	 0.102990507240063 
839	 0.103346256100845 
840	 0.103388235919294 
841	 0.103167765827378 
842	 0.10301206250206 
843	 0.103171221613381 
844	 0.103001655098453 
845	 0.102801957039868 
846	 0.102704605813614 
847	 0.1026842234808 
848	 0.102671884676892 
849	 0.102177504393315 
850	 0.101496752676833 
851	 0.101848511486182 
852	 0.101595547455317 
853	 0.101247436309154 
854	 0.101259106164824 
855	 0.100967481686619 
856	 0.100941181538017 
857	 0.100974371370029 
858	 0.100793223656224 
859	 0.100688162151063 
860	 0.100336226612844 
861	 0.099994210404316 
862	 0.100104883852994 
863	 0.100367492221528 
864	 0.100336412865152 
865	 0.100043058775496 
866	 9.99299634814551E-02 
867	 9.96710472503537E-02 
868	 9.94712881726731E-02 
869	 9.93425265482267E-02 
870	 9.89779810259118E-02 
871	 9.85715721248704E-02 
872	 9.84008793510883E-02 
873	 9.84797537062327E-02 
874	 9.82059688022769E-02 
875	 9.81128827098476E-02 
876	 9.77688854201396E-02 
877	 9.69075662295595E-02 
878	 9.69070494922991E-02 
879	 9.68950682714604E-02 
880	 9.66163848730617E-02 
881	 9.61991060442276E-02 
882	 9.59877186428019E-02 
883	 9.56216670529601E-02 
884	 9.50531047797007E-02 
885	 9.45749275903001E-02 
886	 9.49244142416634E-02 
887	 9.52186831618559E-02 
888	 9.48058870498099E-02 
889	 9.36236478452055E-02 
890	 9.29016587791955E-02 
891	 9.21445866503378E-02 
892	 9.11410040549132E-02 
893	 9.08663213783872E-02 
894	 9.00665782255376E-02 
895	 8.88274019910646E-02 
896	 8.75848799002218E-02 
897	 8.63688294746411E-02 
898	 8.57894585590528E-02 
899	 8.62029802692582E-02 
900	 8.72057707030956E-02 
901	 8.69795033672895E-02 
902	 8.55178481628756E-02 
903	 8.46366608192484E-02 
904	 8.58317193242218E-02 
905	 8.59471679961786E-02 
906	 8.48798354005519E-02 
907	 8.34172789143334E-02 
908	 8.28441641942692E-02 
909	 8.21661353981091E-02 
910	 8.14455758034954E-02 
911	 8.12304412016815E-02 
912	 8.21270200931788E-02 
913	 8.20988371479645E-02 
914	 8.20673662242251E-02 
915	 8.20768830810037E-02 
916	 8.10415572818106E-02 
917	 8.17230595897645E-02 
918	 8.22872791680669E-02 
919	 0.082069483554707 
920	 8.26264563564576E-02 
921	 8.13004672549453E-02 
922	 8.00780090934846E-02 
923	 8.02522287127704E-02 
924	 7.97563729296658E-02 
925	 7.88501898589287E-02 
926	 7.78044104221593E-02 
927	 7.65450472906691E-02 
928	 7.33439450661367E-02 
929	 0.071941298131508 
930	 7.10702633659352E-02 
931	 6.74392925884266E-02 
932	 0.070522834219445 
933	 6.49268541704282E-02 
934	 5.96185780682856E-02 
935	 6.78613279184287E-02 
936	 0.059257841277485 
937	 5.68305940026157E-02 
938	 6.10902992547436E-02 
939	 6.42751171252272E-02 
940	 5.83373601125109E-02 
941	 5.82140058328907E-02 
942	 6.46593994069724E-02 
943	 6.99609076023416E-02 
944	 6.52253941938282E-02 
945	 6.00951460788965E-02 
946	 6.20464443112896E-02 
947	 7.05727706395735E-02 
948	 6.23967893219723E-02 
949	 5.74270221405863E-02 
950	 5.90169996903461E-02 
951	 5.95133970153673E-02 
952	 6.27629518789001E-02 
953	 6.41662723721099E-02 
954	 6.38679675096845E-02 
955	 0.065345197278781 
956	 6.99616029707628E-02 
957	 0.070677605159739 
958	 6.86963696769961E-02 
959	 6.96672767311207E-02 
960	 6.61187937892188E-02 
961	 6.63547016519182E-02 
962	 6.95833743158414E-02 
963	 6.99111120462195E-02 
964	 7.64275173303647E-02 
965	 7.60299484892193E-02 
966	 7.13149649389187E-02 
967	 7.41002233463214E-02 
968	 7.37811032414895E-02 
969	 7.67352941157221E-02 
970	 7.99630170106768E-02 
971	 7.39950295524182E-02 
972	 7.30294741481388E-02 
973	 7.53001142061256E-02 
974	 7.71794020375066E-02 
975	 7.58890952856948E-02 
976	 7.55966135738124E-02 
977	 7.50503892888175E-02 
978	 7.43958565525508E-02 
979	 7.52882565320175E-02 
980	 7.82396758524769E-02 
981	 7.89086629943762E-02 
982	 0.077873862393915 
983	 7.90156655586311E-02 
984	 7.76828344886206E-02 
985	 7.92106804592456E-02 
986	 8.20285470795942E-02 
987	 8.00519278594218E-02 
988	 7.91955476974205E-02 
989	 7.99467586033166E-02 
990	 8.16408145283963E-02 
991	 8.27355493408063E-02 
992	 7.95164229008827E-02 
993	 7.97208153989656E-02 
994	 8.29719052074941E-02 
995	 8.30339247820946E-02 
996	 7.94433486628473E-02 
997	 8.01773059555343E-02 
998	 8.34759951245967E-02 
999	 8.26073649026949E-02 
1000	 8.21272946424705E-02 
1001	 6.97812863072594E-02 
1002	 7.01938294604308E-02 
1003	 7.01462499268651E-02 
1004	 6.94743287206956E-02 
1005	 0.069427999818825 
1006	 6.95851268016217E-02 
1007	 6.96912587626613E-02 
1008	 0.07025770253174 
1009	 7.10828721535054E-02 
1010	 0.071606460859375 
1011	 7.19556070002702E-02 
1012	 7.17348162569234E-02 
1013	 7.05179685456912E-02 
1014	 7.01055904207731E-02 
1015	 0.069228077314875 
1016	 6.93233773554496E-02 
1017	 7.06126911030458E-02 
1018	 0.07135028569943 
1019	 7.21150175949305E-02 
1020	 7.26454963294789E-02 
1021	 7.34439188137491E-02 
1022	 7.33175184721482E-02 
1023	 7.28821559366763E-02 
1024	 7.27993449378151E-02 
1025	 7.19072125136667E-02 
1026	 7.09073144872102E-02 
1027	 7.06891985700871E-02 
1028	 7.09564404676625E-02 
1029	 7.08884138815643E-02 
1030	 0.071088016924834 
1031	 7.12180722167653E-02 
1032	 7.11080044780607E-02 
1033	 7.10115277125258E-02 
1034	 7.11755145409169E-02 
1035	 7.13363052025763E-02 
1036	 7.11681917155408E-02 
1037	 0.071311406672852 
1038	 7.18715611643601E-02 
1039	 0.072065801599562 
1040	 7.29052035741801E-02 
1041	 7.33668987393729E-02 
1042	 7.32307850589415E-02 
1043	 7.26831099477783E-02 
1044	 7.24985236786538E-02 
1045	 7.15702666062747E-02 
1046	 7.16465078805122E-02 
1047	 7.29308060226546E-02 
1048	 7.30202571655169E-02 
1049	 7.25807147446116E-02 
1050	 7.26007236195978E-02 
1051	 7.24585269506815E-02 
1052	 7.22541157099839E-02 
1053	 7.24674988380367E-02 
1054	 7.24391979859661E-02 
1055	 7.15498089190167E-02 
1056	 7.13464877026643E-02 
1057	 7.14576498616111E-02 
1058	 7.20630340897241E-02 
1059	 7.23165965154476E-02 
1060	 7.29500820520895E-02 
1061	 7.30479766430432E-02 
1062	 7.27471107286756E-02 
1063	 0.072562765404677 
1064	 7.20081067667911E-02 
1065	 7.19882337788937E-02 
1066	 7.23367917513758E-02 
1067	 7.24051390550632E-02 
1068	 7.27898377361078E-02 
1069	 7.28481038641139E-02 
1070	 7.23460296760331E-02 
1071	 7.21640557411169E-02 
1072	 7.22248268366574E-02 
1073	 7.20306538868708E-02 
1074	 7.19227892369254E-02 
1075	 7.19777558658867E-02 
1076	 7.17907268359159E-02 
1077	 7.12359924967006E-02 
1078	 7.11762760624355E-02 
1079	 7.13909659713814E-02 
1080	 7.12908767236479E-02 
1081	 7.14098924610996E-02 
1082	 7.13195593013123E-02 
1083	 7.08243894747037E-02 
1084	 7.04452221972408E-02 
1085	 7.01337680095863E-02 
1086	 6.97508942527833E-02 
1087	 6.91863946923393E-02 
1088	 6.87746695494156E-02 
1089	 6.80756908199113E-02 
1090	 6.79918171088505E-02 
1091	 6.82024258849872E-02 
1092	 6.90052283821239E-02 
1093	 6.88119175180823E-02 
1094	 6.86935291727456E-02 
1095	 6.83737050494847E-02 
1096	 0.066871893761806 
1097	 6.65690621670029E-02 
1098	 0.067370624239828 
1099	 0.067161900280833 
1100	 6.65515757646851E-02 
1101	 6.61757383526519E-02 
1102	 6.58113025496119E-02 
1103	 6.52723641206178E-02 
1104	 6.45616946433358E-02 
1105	 6.39837096767293E-02 
1106	 6.51333665441041E-02 
1107	 6.39565771197658E-02 
1108	 6.28690322236781E-02 
1109	 6.48803000113064E-02 
1110	 6.43797976019792E-02 
1111	 6.06955664001639E-02 
1112	 6.04288173834695E-02 
1113	 6.27006972265685E-02 
1114	 6.17452808268446E-02 
1115	 6.10593112478918E-02 
1116	 6.03871178692108E-02 
1117	 0.054002849647016 
1118	 5.08109688308123E-02 
1119	 0.053680324641006 
1120	 5.37689764654482E-02 
1121	 5.13105477742037E-02 
1122	 5.54256458430208E-02 
1123	 5.20148637475838E-02 
1124	 4.99156552274759E-02 
1125	 0.065989213729198 
1126	 6.30517140781573E-02 
1127	 4.90495385143744E-02 
1128	 5.31388541013694E-02 
1129	 5.59327899588028E-02 
1130	 5.25041975449344E-02 
1131	 5.12237408641402E-02 
1132	 5.93619956231706E-02 
1133	 5.86112413797192E-02 
1134	 4.81576164978824E-02 
1135	 4.79149817884474E-02 
1136	 5.37126652339705E-02 
1137	 5.49400940993599E-02 
1138	 5.64947249310742E-02 
1139	 5.62721257393285E-02 
1140	 5.63665664365151E-02 
1141	 5.52901529771136E-02 
1142	 5.46970795301867E-02 
1143	 5.75976110352138E-02 
1144	 5.89411676976722E-02 
1145	 5.94209892712096E-02 
1146	 5.84093511362732E-02 
1147	 5.62508096596592E-02 
1148	 5.39063030232361E-02 
1149	 4.76053958067076E-02 
1150	 4.88486293693416E-02 
1151	 5.72277051054607E-02 
1152	 5.85599390593879E-02 
1153	 5.98806830692883E-02 
1154	 6.00732201355571E-02 
1155	 5.83386280674215E-02 
1156	 5.41961056018937E-02 
1157	 5.56896352178158E-02 
1158	 6.00308050653161E-02 
1159	 6.18738204944706E-02 
1160	 6.24063766560201E-02 
1161	 6.20344669599263E-02 
1162	 6.13885469958093E-02 
1163	 6.25352147267044E-02 
1164	 6.46082658344301E-02 
1165	 6.52506817480829E-02 
1166	 6.50714851598943E-02 
1167	 6.49174025875534E-02 
1168	 6.50058378366889E-02 
1169	 6.53821270213507E-02 
1170	 6.51032374222299E-02 
1171	 6.54899183903946E-02 
1172	 6.63464284602191E-02 
1173	 6.64237115290277E-02 
1174	 6.62434646591016E-02 
1175	 6.67612658845158E-02 
1176	 6.68627326282521E-02 
1177	 6.64416376070442E-02 
1178	 0.066565003797708 
1179	 6.72789352470762E-02 
1180	 6.76255082460412E-02 
1181	 6.66390470378041E-02 
1182	 6.58000354410793E-02 
1183	 6.62848225877008E-02 
1184	 6.63495660538172E-02 
1185	 6.62078856786452E-02 
1186	 6.70249339738521E-02 
1187	 6.73515761005829E-02 
1188	 6.74330296590338E-02 
1189	 0.067921920065048 
1190	 6.78868440227212E-02 
1191	 6.75462945286373E-02 
1192	 6.75670719696583E-02 
1193	 0.067641821715664 
1194	 6.78277902672233E-02 
1195	 6.79277207060028E-02 
1196	 6.77555661891882E-02 
1197	 6.71175440635034E-02 
1198	 0.067114903313737 
1199	 6.80152872795067E-02 
1200	 6.85669784917559E-02 
1201	 6.85959052746631E-02 
1202	 6.87154356401544E-02 
1203	 6.87414302218786E-02 
1204	 6.89915151591477E-02 
1205	 6.93490294980609E-02 
1206	 6.90219768680842E-02 
1207	 6.89133461900407E-02 
1208	 6.92174710438134E-02 
1209	 6.93070481013514E-02 
1210	 6.93693911344163E-02 
1211	 6.96293286150717E-02 
1212	 6.98327528199442E-02 
1213	 6.95456316484976E-02 
1214	 6.94473304107683E-02 
1215	 6.97282679778335E-02 
1216	 6.98923460243185E-02 
1217	 6.93337837954701E-02 
1218	 6.94818760928103E-02 
1219	 7.05178310662074E-02 
1220	 0.070614975817416 
1221	 7.01872887059946E-02 
1222	 7.05604688571334E-02 
1223	 7.08837832555573E-02 
1224	 7.06530541882488E-02 
1225	 7.06544798587701E-02 
1226	 7.09243570230635E-02 
1227	 7.05851753829932E-02 
1228	 7.01322409043953E-02 
1229	 7.06672170734621E-02 
1230	 7.11309592683621E-02 
1231	 7.06331132194064E-02 
1232	 7.03666070503804E-02 
1233	 0.070888925556504 
1234	 7.13909979592549E-02 
1235	 7.14330457391784E-02 
1236	 7.17329044174599E-02 
1237	 7.18892683495043E-02 
1238	 7.15768973723065E-02 
1239	 7.08679383014514E-02 
1240	 7.12652689047446E-02 
1241	 7.19625941001026E-02 
1242	 7.18133680362401E-02 
1243	 7.17090072188617E-02 
1244	 0.071983906150289 
1245	 7.19996795378967E-02 
1246	 7.19180341731665E-02 
1247	 7.21025569518249E-02 
1248	 7.18670768915796E-02 
1249	 0.071252796514141 
1250	 7.12444128263938E-02 
1251	 7.14135567361237E-02 
1252	 7.13359915723758E-02 
1253	 7.14589617007066E-02 
1254	 7.12124271274874E-02 
1255	 7.09591527023917E-02 
1256	 7.10768931645644E-02 
1257	 7.14489851426216E-02 
1258	 7.13227977085439E-02 
1259	 7.12860712475121E-02 
1260	 0.071401911221527 
1261	 7.10816771682382E-02 
1262	 7.10023510667433E-02 
1263	 7.14850831106271E-02 
1264	 7.16431152686053E-02 
1265	 7.09738052603292E-02 
1266	 7.03515008469917E-02 
1267	 0.070166760679684 
1268	 7.03328728609953E-02 
1269	 7.04388363309932E-02 
1270	 7.05211448080027E-02 
1271	 7.09155007767436E-02 
1272	 7.10647240974685E-02 
1273	 7.09456461144754E-02 
1274	 7.11275252823777E-02 
1275	 7.06365618831277E-02 
1276	 6.97894284853248E-02 
1277	 7.03023798308714E-02 
1278	 7.08221902403379E-02 
1279	 7.06955965850019E-02 
1280	 7.09406448556466E-02 
1281	 7.09840900793352E-02 
1282	 7.00467945814178E-02 
1283	 7.00762568647343E-02 
1284	 7.11017475704892E-02 
1285	 7.13361764754305E-02 
1286	 7.14939350370534E-02 
1287	 7.13950477353197E-02 
1288	 7.08775353165931E-02 
1289	 7.04605103751373E-02 
1290	 6.97798022502803E-02 
1291	 6.93476857587726E-02 
1292	 6.91812095267224E-02 
1293	 6.89693835575309E-02 
1294	 6.91677844945665E-02 
1295	 6.90193780427634E-02 
1296	 6.84386448856857E-02 
1297	 6.87638270248027E-02 
1298	 6.91273371888943E-02 
1299	 6.84176893498267E-02 
1300	 6.84721899726006E-02 
1301	 6.92333536928829E-02 
1302	 6.88598643307183E-02 
1303	 6.82332573722899E-02 
1304	 6.81675484382378E-02 
1305	 6.75161345545581E-02 
1306	 6.71551808385625E-02 
1307	 6.75840989661842E-02 
1308	 6.72858297483076E-02 
1309	 6.60522252844904E-02 
1310	 6.54314202259529E-02 
1311	 6.47125176506213E-02 
1312	 6.44374070159967E-02 
1313	 6.53442952340432E-02 
1314	 6.51460780604306E-02 
1315	 6.40293457234235E-02 
1316	 6.36865625328713E-02 
1317	 6.30000605103835E-02 
1318	 6.28368378529627E-02 
1319	 6.41475304653278E-02 
1320	 6.43839276082884E-02 
1321	 6.37420137390467E-02 
1322	 6.39736984975217E-02 
1323	 6.46878580532566E-02 
1324	 6.37370103435169E-02 
1325	 6.29580133214337E-02 
1326	 6.29139359536342E-02 
1327	 6.19466200944613E-02 
1328	 0.061238474117146 
1329	 0.061399034614608 
1330	 6.09296791786612E-02 
1331	 6.16494301567346E-02 
1332	 6.19554381164006E-02 
1333	 5.96231114274302E-02 
1334	 5.82834242426523E-02 
1335	 0.057860005791756 
1336	 5.76393890002781E-02 
1337	 5.62410118339322E-02 
1338	 5.45790422315564E-02 
1339	 5.53719569304647E-02 
1340	 5.72063938200702E-02 
1341	 5.58003637605395E-02 
1342	 5.55287618128907E-02 
1343	 5.61453194184639E-02 
1344	 5.05223788824264E-02 
1345	 0.047085203838613 
1346	 5.34782657309375E-02 
1347	 5.45693205562399E-02 
1348	 4.44235269194111E-02 
1349	 3.84009795577898E-02 
1350	 3.86400793947811E-02 
1351	 2.81133013902824E-02 
1352	-1.44601907819881E-03 
1353	-2.67450267590084E-02 
1354	-5.83963500569736E-02 
1355	-8.70364608398516E-02 
1356	-3.54082246274862E-02 
1357	-3.46340192560364E-02 
1358	-5.16445404645865E-03 
1359	 0.101785013529326 
1360	-1.55116664434024E-02 
1361	-4.42366341209672E-02 
1362	-0.15579757761581 
1363	-0.382638746782537 
1364	-0.249988508140069 
1365	 0.15900548185041 
1366	 0.119559220644259 
1367	 0.338307628824551 
1368	 0.509767735443837 
1369	 0.367499209832109 
1370	 0.273432441881727 
1371	 0.491166752700444 
1372	 0.389515502693922 
1373	-0.984953606761165 
1374	-0.879602873225795 
1375	 0.123516992875133 
1376	 0.314367331928277 
1377	 0.808285925707457 
1378	 0.891976099766602 
1379	 0.483301476020167 
1380	 0.156509623996204 
1381	 0.181882437440658 
1382	 7.84868583558044E-03 
1383	-1.41526371026441 
1384	-1.93334259482895 
1385	-1.29122542037915 
1386	-1.56295033188291 
1387	 3.15717682496232E-02 
1388	 0.500252962719665 
1389	-0.673314237977225 
1390	 1.08956265923172 
1391	 8.41762011699866E-02 
1392	 0.374385003949777 
1393	-0.421045541457452 
1394	-0.204385911703929 
1395	 5.29054133553541E-03 
1396	-0.155543568288036 
1397	 4.69467123573192E-02 
1398	 0.366284747504324 
1399	-0.528453737544138 
1400	-0.336159572184211 
1401	 0.313160968783842 
1402	 0.266033886061541 
1403	-0.230878177513127 
1404	-0.187290958795901 
1405	-4.00315249253332E-02 
1406	 0.382600768403497 
1407	-0.109756011185438 
1408	-0.450644007202731 
1409	-0.260876262914404 
1410	-0.164638657356602 
1411	-0.360136411370599 
1412	-0.438758091875279 
1413	-0.241542406476144 
1414	-0.421249935431412 
1415	-0.461639025080919 
1416	-2.24453494743498E-02 
1417	 0.190499484540255 
1418	 1.93122819018854E-02 
1419	-0.031566351418695 
1420	-0.032123378221388 
1421	 2.00861088754669E-02 
1422	 2.78798476066871E-02 
1423	 2.01739454338351E-02 
1424	 8.98386146924882E-02 
1425	 8.80337051105893E-02 
1426	 7.49981992701455E-03 
1427	-9.05115789894534E-03 
1428	 2.21215339785817E-02 
1429	 1.20531413090558E-02 
1430	-0.05365896713048 
1431	-3.10127544939653E-02 
1432	 5.89262120992592E-02 
1433	 7.08088343982853E-02 
1434	 8.32460354649311E-02 
1435	 0.109386772728814 
1436	 9.67612421954355E-02 
1437	 8.87914568947453E-02 
1438	 6.55179653559994E-02 
1439	 6.17151562408738E-02 
1440	 6.79667781923615E-02 
1441	 4.14891719058874E-02 
1442	 2.74118461059198E-02 
1443	 5.45689895301929E-02 
1444	 5.44923711623383E-02 
1445	 2.51142207570837E-02 
1446	 3.49955842313679E-02 
1447	 5.10531273641868E-02 
1448	 0.055696385841624 
1449	 5.76539330579254E-02 
1450	 5.46079273493823E-02 
1451	 5.07702607599918E-02 
1452	 4.65392597512748E-02 
1453	 4.73908986743904E-02 
1454	 0.045562050060658 
1455	 4.50778424085188E-02 
1456	 4.75135956235405E-02 
1457	 4.96205209184248E-02 
1458	 4.92762267744648E-02 
1459	 5.11410010840155E-02 
1460	 5.26506257711276E-02 
1461	 5.25079673861409E-02 
1462	 5.15980500918605E-02 
1463	 5.10382748000925E-02 
1464	 5.14149799068457E-02 
1465	 4.80470113196401E-02 
1466	 4.77337347371239E-02 
1467	 0.054578778346491 
1468	 5.69598405346749E-02 
1469	 5.56190050481536E-02 
1470	 5.58223685362107E-02 
1471	 5.74079267392395E-02 
1472	 5.60809168774258E-02 
1473	 5.27075029803234E-02 
1474	 5.11817404044699E-02 
1475	 4.66774399330712E-02 
1476	 4.73129414446183E-02 
1477	 5.41725176533176E-02 
1478	 5.47640366803486E-02 
1479	 5.25164212386944E-02 
1480	 5.27290312943694E-02 
1481	 5.12181498667035E-02 
1482	 5.14769511164115E-02 
1483	 5.43383964295186E-02 
1484	 5.65932537443331E-02 
1485	 6.00579272785656E-02 
1486	 5.98637462527961E-02 
1487	 5.55501660499651E-02 
1488	 5.70413951441233E-02 
1489	 0.060564329918774 
1490	 6.11956362195129E-02 
1491	 6.33056592079234E-02 
1492	 6.46716326850305E-02 
1493	 6.40757793580029E-02 
1494	 6.35157616178814E-02 
1495	 6.29820770180248E-02 
1496	 6.36421465479522E-02 
1497	 6.46109812125959E-02 
1498	 6.44864434888765E-02 
1499	 6.48782563969712E-02 
1500	 6.54481749266447E-02 
1501	 6.46321685592835E-02 
1502	 6.47654861796077E-02 
1503	 6.62630423326207E-02 
1504	 6.69810745720305E-02 
1505	 6.75722063984446E-02 
1506	 6.78173340453697E-02 
1507	 6.73739582182818E-02 
1508	 6.72978014913135E-02 
1509	 6.77439449638773E-02 
1510	 6.84102510461167E-02 
1511	 6.86141294254913E-02 
1512	 6.86984578905849E-02 
1513	 6.91296478897253E-02 
1514	 6.92348037719021E-02 
1515	 6.93332659037198E-02 
1516	 6.99803591467761E-02 
1517	 7.01989741157615E-02 
1518	 6.99105008509792E-02 
1519	 6.97008284078355E-02 
1520	 6.94473539701768E-02 
1521	 6.93484824476184E-02 
1522	 6.96699231563682E-02 
1523	 7.05562900410314E-02 
1524	 7.12460102264838E-02 
1525	 7.07701328432962E-02 
1526	 7.00031420784212E-02 
1527	 6.99551323033665E-02 
1528	 7.00958503181137E-02 
1529	 7.04018124586183E-02 
1530	 7.11816760004279E-02 
1531	 7.18379350432924E-02 
1532	 7.19325368899524E-02 
1533	 0.071847380251273 
1534	 7.19106327504995E-02 
1535	 7.13551157236133E-02 
1536	 7.09599239196345E-02 
1537	 7.17849129801275E-02 
1538	 7.23820912385752E-02 
1539	 7.21535059898119E-02 
1540	 7.18542754717634E-02 
1541	 7.18015892689232E-02 
1542	 7.14897724918879E-02 
1543	 7.11373005969981E-02 
1544	 7.16852226961018E-02 
1545	 0.072265120310351 
1546	 7.19547797537769E-02 
1547	 7.19162947755709E-02 
1548	 7.23572657903391E-02 
1549	 0.07211709343496 
1550	 7.23041360664673E-02 
1551	 7.30288830766158E-02 
1552	 0.073268224101898 
1553	 7.36001648717813E-02 
1554	 7.33374401979593E-02 
1555	 0.072737421120937 
1556	 7.30886589599855E-02 
1557	 7.35862426082845E-02 
1558	 7.34962129352763E-02 
1559	 7.33685360500595E-02 
1560	 0.073369280339101 
1561	 7.30411973526803E-02 
1562	 7.28745006860431E-02 
1563	 7.33428557269963E-02 
1564	 0.073597572407677 
1565	 0.0731962294192 
1566	 7.28175733479906E-02 
1567	 7.28262192240597E-02 
1568	 7.24150013121422E-02 
1569	 7.21649572378742E-02 
1570	 7.28386082351387E-02 
1571	 0.07280824508568 
1572	 0.072191572559851 
1573	 7.22680931807471E-02 
1574	 0.0726952726934 
1575	 7.26619816208041E-02 
1576	 0.072744938797683 
1577	 7.30976669324448E-02 
1578	 7.25637448302287E-02 
1579	 7.21942411832389E-02 
1580	 7.25565633561591E-02 
1581	 0.072882551224562 
1582	 7.34371473929131E-02 
1583	 7.37643910291489E-02 
1584	 7.32857207650706E-02 
1585	 7.33346097159503E-02 
1586	 7.35228873371323E-02 
1587	 7.33249131675892E-02 
1588	 7.42433327227528E-02 
1589	 0.074723331284659 
1590	 7.38208029092765E-02 
1591	 7.33654247826649E-02 
1592	 7.35697604711724E-02 
1593	 7.33577339905465E-02 
1594	 7.31552534614232E-02 
1595	 7.33255051001395E-02 
1596	 7.30964774496534E-02 
1597	 7.29605104614654E-02 
1598	 7.30415891639295E-02 
1599	 7.32171721438498E-02 
1600	 7.33995251406786E-02 
1601	 7.28396443789151E-02 
1602	 7.22848487960223E-02 
1603	 7.22492429972602E-02 
1604	 7.22278790943199E-02 
1605	 7.26865994595785E-02 
1606	 7.31330094850035E-02 
1607	 7.27411273105956E-02 
1608	 7.26763148292795E-02 
1609	 7.28615489741108E-02 
1610	 7.23154638127863E-02 
1611	 7.20128794417831E-02 
1612	 7.23565009348354E-02 
1613	 7.25843588047475E-02 
1614	 7.27446179882098E-02 
1615	 7.32810338332687E-02 
1616	 7.33514532059259E-02 
1617	 7.26457209658882E-02 
1618	 0.072745126180046 
1619	 7.34249424362426E-02 
1620	 7.36991976389051E-02 
1621	 7.37136897089647E-02 
1622	 7.38972361145687E-02 
1623	 0.074235646426004 
1624	 7.38485914417587E-02 
1625	 7.36235436527972E-02 
1626	 7.40128645370219E-02 
1627	 7.38851596126339E-02 
1628	 7.32971306377021E-02 
1629	 7.25471133793422E-02 
1630	 0.072333067907624 
1631	 7.26113377803699E-02 
1632	 0.072507246319484 
1633	 7.28558171823079E-02 
1634	 7.31774537459595E-02 
1635	 0.072479572209856 
1636	 7.24799999062755E-02 
1637	 7.35123214119542E-02 
1638	 7.38947535478098E-02 
1639	 7.35521368899444E-02 
1640	 7.35734837204751E-02 
1641	 7.36234496372536E-02 
1642	 7.32133734761797E-02 
1643	 7.31128718186263E-02 
1644	 0.073255671737672 
1645	 7.32631318087062E-02 
1646	 7.30577545957591E-02 
1647	 7.25607634931155E-02 
1648	 7.25834442533334E-02 
1649	 7.26952184370305E-02 
1650	 7.21261244554332E-02 
1651	 7.13397992012212E-02 
1652	 7.11488198303086E-02 
1653	 7.26976440364145E-02 
1654	 7.25712938871017E-02 
1655	 7.24082468878119E-02 
1656	 7.30891665167418E-02 
1657	 0.073212822078504 
1658	 7.29548398674524E-02 
1659	 7.36716322638344E-02 
1660	 7.38474740952764E-02 
1661	 7.23073411648482E-02 
1662	 7.20105686245523E-02 
1663	 7.30227692920128E-02 
1664	 7.30323289418441E-02 
1665	 7.24447856250214E-02 
1666	 7.24381344967889E-02 
1667	 7.26558735941082E-02 
1668	 7.40758355412542E-02 
1669	 7.40694360455347E-02 
1670	 7.29102882908698E-02 
1671	 7.29751951916502E-02 
1672	 7.34808808346824E-02 
1673	 7.32082949669674E-02 
1674	 7.34892474861234E-02 
1675	 7.36417775212313E-02 
1676	 7.30810413506492E-02 
1677	 7.32227409959271E-02 
1678	 7.35899303864704E-02 
1679	 7.27965488233091E-02 
1680	 0.071813092147143 
1681	 7.19717515633379E-02 
1682	 7.19321017112425E-02 
1683	 7.12106142553299E-02 
1684	 0.071429250744305 
1685	 7.17019338306013E-02 
1686	 7.14191084975596E-02 
1687	 0.071932273886894 
1688	 7.23417733033679E-02 
1689	 7.16920550939457E-02 
1690	 7.12610000233755E-02 
1691	 7.16178149395219E-02 
1692	 7.20860617295715E-02 
1693	 7.23421950227177E-02 
1694	 7.24682185019213E-02 
1695	 7.27157850695036E-02 
1696	 7.26850345600191E-02 
1697	 7.26665337173264E-02 
1698	 7.31485180710044E-02 
1699	 7.26705343076888E-02 
1700	 7.20743192458068E-02 
1701	 7.21551950812294E-02 
1702	 7.15973241452628E-02 
1703	 7.16399792764089E-02 
1704	 7.20850585767692E-02 
1705	 7.20574498946807E-02 
1706	 7.22030262038263E-02 
1707	 7.16996823012121E-02 
1708	 7.09004234610967E-02 
1709	 7.10711421725684E-02 
1710	 7.12935546288687E-02 
1711	 7.13307787930188E-02 
1712	 7.24425129807171E-02 
1713	 7.19605452986485E-02 
1714	 0.071721450819589 
1715	 7.14781241321764E-02 
1716	 7.10355544187412E-02 
1717	 0.071833636393157 
1718	 7.26181269659494E-02 
1719	 0.073358010577335 
1720	 7.24053201025316E-02 
1721	 7.06017244353879E-02 
1722	 7.07672673100404E-02 
1723	 7.05041839994105E-02 
1724	 7.07152339537059E-02 
1725	 7.35151689077181E-02 
1726	 0.074003946626378 
1727	 7.18889366468101E-02 
1728	 7.08425191679421E-02 
1729	 6.99433492148508E-02 
1730	 6.98986753356292E-02 
1731	 7.20030137886986E-02 
1732	 7.23738739367586E-02 
1733	 7.00763729752167E-02 
1734	 6.89891756808463E-02 
1735	 6.84280066590503E-02 
1736	 6.90345672006168E-02 
1737	 7.22507658841871E-02 
1738	 7.27005590627337E-02 
1739	 6.99205720956135E-02 
1740	 6.87365044465077E-02 
1741	 6.86424444931353E-02 
1742	 6.87855975589456E-02 
1743	 7.03068816875477E-02 
1744	 7.13012372849862E-02 
1745	 7.00562479395664E-02 
1746	 0.069805964642919 
1747	 6.96895958741432E-02 
1748	 6.95301818309537E-02 
1749	 6.96823300794075E-02 
1750	 0.069695717426304 
1751	 6.91216912133588E-02 
1752	 6.87799869041941E-02 
1753	 6.86736682570637E-02 
1754	 6.82648484769394E-02 
1755	 6.79862685892672E-02 
1756	 0.068673367686269 
1757	 0.068746390242413 
1758	 6.58708472510785E-02 
1759	 6.43174786526841E-02 
1760	 6.50980286235138E-02 
1761	 6.52822295394733E-02 
1762	 6.67301608102175E-02 
1763	 6.90343339738959E-02 
1764	 0.067587739526445 
1765	 6.56602164956478E-02 
1766	 6.65714756765183E-02 
1767	 6.46259812727036E-02 
1768	 6.21073372306581E-02 
1769	 0.063826962999676 
1770	 6.28463122292654E-02 
1771	 6.11057033538093E-02 
1772	 6.50574086502717E-02 
1773	 6.62805069850123E-02 
1774	 6.41045409079685E-02 
1775	 6.48685619525558E-02 
1776	 6.38162047728312E-02 
1777	 6.08863676623673E-02 
1778	 0.061365299700326 
1779	 0.063258703662199 
1780	 0.063424613576592 
1781	 6.52632215329889E-02 
1782	 6.39839240505654E-02 
1783	 5.79729315318372E-02 
1784	 5.91243653049352E-02 
1785	 0.063846434693534 
1786	 6.62836113000161E-02 
1787	 7.31519791435501E-02 
1788	 7.29222906278195E-02 
1789	 6.49962292748564E-02 
1790	 6.65616125038378E-02 
1791	 6.60417393681097E-02 
1792	 6.64494740394327E-02 
1793	 6.79537346715169E-02 
1794	 6.49323549262675E-02 
1795	 6.24047250690209E-02 
1796	 5.91004368052078E-02 
1797	 5.83422805337924E-02 
1798	 0.055335577889692 
1799	 4.78033548114623E-02 
1800	 5.34186379640427E-02 
1801	 4.91483801869381E-02 
1802	 2.84714735725884E-02 
1803	 8.48796699201549E-03 
1804	-5.20298436785114E-02 
1805	-5.11074577851725E-02 
1806	 5.60959982703282E-02 
1807	 0.155198943401137 
1808	 0.506960117644208 
1809	 0.73891521566679 
1810	 0.536046292920343 
1811	 0.515547386123665 
1812	 0.304644285919512 
1813	 0.293762855909119 
1814	 0.629179686635375 
1815	 0.790116814725665 
1816	 0.958180332081182 
1817	 0.449612238549021 
1818	 0.188563985628175 
1819	-0.213828032972614 
1820	-0.325036944896529 
1821	 5.02780914347271 
1822	-5.26798347688369 
1823	-3.12807438954414 
1824	-3.36232580261052 
1825	 18.8849382510014 
1826	 4.36999663548246 
1827	 1.97266604041592 
1828	 1.12867410174739 
1829	 3.78232600035338E-02 
1830	-3.68592215319234E-02 
1831	-0.154465502689405 
1832	-0.546598559047481 
1833	 3.95011722088372 
1834	 3.42222134831772 
1835	 5.99949391403171 
1836	 4.42901458600385 
1837	 1.98466834457134 
1838	 2.06349441128792 
1839	 61.0796550084713 
1840	 0.191583643666035 
1841	 0.835876018453764 
1842	 3.74783120358024 
1843	 26.610155933938 
1844	-2.04539600455285 
1845	-1.96319116606885 
1846	 0.944611090529565 
1847	 0.514599714904605 
1848	 0.568026096265891 
1849	 0.064609999710463 
1850	 0.443932002210445 
1851	-0.248148232547501 
1852	-3.6443589134463 
1853	 2.69647488415665 
1854	 1.25422524101377 
1855	 10.603591695504 
1856	 15.9917927750617 
1857	 5.50629732252683 
1858	 3.54008726717914 
1859	 2.35142285389065 
1860	 1.24261364239099 
1861	 1.06172544277687 
1862	 0.523933920727836 
1863	 0.320819326192493 
1864	-0.487251856070166 
1865	-0.638720155615971 
1866	 1.036046757124 
1867	-0.047674668172934 
1868	-0.750359283917306 
1869	-0.879860259178362 
1870	-14.0787327203364 
1871	 1.20904283689972 
1872	 0.12861707192788 
1873	-0.173454324385188 
1874	-0.238573147090038 
1875	-0.563907137918693 
1876	-0.32247223026282 
1877	 0.11066477630411 
1878	 6.35796321796813E-03 
1879	-0.162454671155076 
1880	-0.273955953595771 
1881	-1.29876795417404 
1882	-5.96585503354015 
1883	-1.83387513922124 
1884	 1.15323846109777 
1885	 2.68407062305723 
1886	 2.87203518494303 
1887	 1.80133734736867 
1888	 0.731903523807273 
1889	 0.370522764044601 
1890	-3.76258168992659E-02 
1891	-5.15450230629742E-02 
1892	-1.69791471191542 
1893	 0.328159543274762 
1894	 0.639480787709184 
1895	 1.13166699966668 
1896	 0.486091887031432 
1897	 0.762515015146734 
1898	 1.88998530850297 
1899	 24.5824217681895 
1900	-150.341697687152 
1901	-9.85620645991729 
1902	 0.916179752393794 
1903	 6.761728535704 
1904	-3.76701437205628 
1905	 42.8293428201611 
1906	-9.84025789062811 
1907	-3.08940578008096 
1908	 5.64762674436891 
1909	 2.1809395594332 
1910	 1.00325431455721 
1911	 0.768112788178406 
1912	 0.846818772769197 
1913	 0.899912610185042 
1914	 1.21804816210729 
1915	 1.79859594855238 
1916	 7.92873369389294 
1917	-6.24774472713514 
1918	-3.08118555460941 
1919	-0.191204992265282 
1920	 0.417821408255433 
1921	-23.3362249594259 
1922	-1.08633650275568 
1923	-0.216215897506973 
1924	-0.453693733735434 
1925	-0.3081585305207 
1926	-0.164073495358266 
1927	 4.8666563692024E-03 
1928	-0.545886489251878 
1929	-0.840023138523226 
1930	-0.487174410340957 
1931	-0.30604669475211 
1932	-9.88121232859053E-02 
1933	-0.218491372957954 
1934	-0.260487573369108 
1935	-0.196409386330556 
1936	-0.15691727864316 
1937	-9.03879896475808E-02 
1938	 0.263844445472566 
1939	 0.270538406195887 
1940	 0.155973662579396 
1941	-0.268828992799403 
1942	-0.31412333144287 
1943	-0.326173908127194 
1944	-0.233528747831749 
1945	-0.170399667237266 
1946	-0.331014876281325 
1947	-0.411315514585877 
1948	-0.358299132320075 
1949	-0.196120054345925 
1950	-0.091353728816648 
1951	-1.78655821371834E-02 
1952	 3.29943476630888E-02 
1953	-3.49230788694299E-02 
1954	-5.83593698324325E-02 
1955	 8.79011693614729E-02 
1956	 0.12156756410797 
1957	 5.77368463863943E-02 
1958	 1.01674104177131E-02 
1959	-1.51390281297461E-02 
1960	 5.55410176095205E-03 
1961	 3.28072224760761E-02 
1962	 5.91173340328997E-02 
1963	 0.079534797840965 
1964	 6.89858119531543E-02 
1965	 5.76946552374776E-02 
1966	 0.054069399576723 
1967	 5.19569084694641E-02 
1968	 4.28311915116597E-02 
1969	 3.84547055351006E-02 
1970	 3.97423954377002E-02 
1971	 4.03362592283046E-02 
1972	 0.043777260239485 
1973	 4.74531435226572E-02 
1974	 4.83357177144409E-02 
1975	 5.08895200080976E-02 
1976	 5.07657989631659E-02 
1977	 0.045063799343867 
1978	 4.33407534029873E-02 
1979	 4.39908655492931E-02 
1980	 4.46583269263486E-02 
1981	 4.45854241822558E-02 
1982	 4.96820227496712E-02 
1983	 5.51679164068522E-02 
1984	 0.054673621250509 
1985	 5.23229317528415E-02 
1986	 5.07761095730369E-02 
1987	 4.75816132085662E-02 
1988	 4.67663589127334E-02 
1989	 4.84032693059396E-02 
1990	 5.04921541111668E-02 
1991	 5.04213679435058E-02 
1992	 5.05512146713581E-02 
1993	 5.04378643013194E-02 
1994	 4.74538386599283E-02 
1995	 4.00687903742975E-02 
1996	 3.54515203212049E-02 
1997	 3.03838549974885E-02 
1998	 2.68668099528083E-02 
1999	 0.029948030257714 
2000	 3.52044022329838E-02 
2001	 4.22172832460452E-02 
2002	 4.01809513615251E-02 
2003	 4.01559535921637E-02 
2004	 4.46347443974412E-02 
2005	 4.32291250335639E-02 
2006	 4.77505191736259E-02 
2007	 4.87962478080127E-02 
2008	 4.58613843870291E-02 
2009	 4.39521770553387E-02 
2010	 4.00321758044697E-02 
2011	 3.92892534463828E-02 
2012	 3.78576728466846E-02 
2013	 4.27121302347288E-02 
2014	 5.32360283025884E-02 
2015	 5.37606899444489E-02 
2016	 5.46948079139083E-02 
2017	 5.13631250048766E-02 
2018	 3.70411204440798E-02 
2019	 3.70838344435068E-02 
2020	 4.72016233263242E-02 
2021	 5.09400233782993E-02 
2022	 0.054176456266702 
2023	 5.57331586188015E-02 
2024	 0.056028485301737 
2025	 5.05757408164006E-02 
2026	 5.14063707022856E-02 
2027	 0.054838057300028 
2028	 5.77161243324596E-02 
2029	 6.12485558932466E-02 
2030	 6.43044347521868E-02 
2031	 6.63606787965259E-02 
2032	 6.65230590397699E-02 
2033	 6.56309193703529E-02 
2034	 6.47841392172684E-02 
2035	 6.35963167260281E-02 
2036	 0.063971876617548 
2037	 6.39141995964911E-02 
2038	 6.16407962468154E-02 
2039	 0.059820844987018 
2040	 5.65436933684052E-02 
2041	 5.52124645320809E-02 
2042	 0.054397231894105 
2043	 5.45877393404152E-02 
2044	 5.67120923724645E-02 
2045	 5.69870978830445E-02 
2046	 5.77288717833834E-02 
2047	 0.058343035342844 
2048	 5.87543836660238E-02 
2049	 6.03360438213448E-02 
2050	 6.14254798840536E-02 
2051	 0.060914754078779 
2052	 6.08240271827184E-02 
2053	 6.20764362347919E-02 
2054	 5.99644425695425E-02 
2055	 5.68850233636107E-02 
2056	 5.57995249790025E-02 
2057	 0.052902519440274 
2058	 5.27448001729635E-02 
2059	 5.88912606264574E-02 
2060	 0.059873440533532 
2061	 6.00187669916583E-02 
2062	 5.56978053797924E-02 
2063	 5.52147298364812E-02 
2064	 5.61640039166367E-02 
2065	 5.73002298298265E-02 
2066	 6.26617291799766E-02 
2067	 6.45346999150922E-02 
2068	 6.40281425500733E-02 
2069	 6.44026965017112E-02 
2070	 6.42198648651637E-02 
2071	 6.55088768181478E-02 
2072	 6.49786634113945E-02 
2073	 6.32188855247718E-02 
2074	 5.94367463966351E-02 
2075	 5.90612895102738E-02 
2076	 5.84657703369666E-02 
2077	 5.92339341916409E-02 
2078	 0.064231850164851 
2079	 0.066273699048734 
2080	 6.74337785437999E-02 
2081	 6.72286575817194E-02 
2082	 6.59481510896656E-02 
2083	 6.31068659928434E-02 
2084	 0.062567184083751 
2085	 6.12581184208607E-02 
2086	 5.98055165376753E-02 
2087	 0.061819058253376 
2088	 6.23673950238042E-02 
2089	 6.21505099330503E-02 
2090	 0.064243305898023 
2091	 6.58891867951685E-02 
2092	 6.57284811202513E-02 
2093	 6.39531165881614E-02 
2094	 6.36107890543539E-02 
2095	 6.16197423092015E-02 
2096	 6.11278435600853E-02 
2097	 6.20784473200399E-02 
2098	 6.33029784572869E-02 
2099	 6.49543548565076E-02 
2100	 6.77764845246448E-02 
2101	 6.83574919273148E-02 
2102	 6.92102987557047E-02 
2103	 6.79103282312116E-02 
2104	 6.50330762503899E-02 
2105	 6.52459667031972E-02 
2106	 6.55717624999198E-02 
2107	 6.54441860068102E-02 
2108	 6.61664349799704E-02 
2109	 0.064911609817611 
2110	 6.52016244032012E-02 
2111	 6.71674589320177E-02 
2112	 6.73748103485407E-02 
2113	 6.67914437385493E-02 
2114	 6.51239213810024E-02 
2115	 6.45840226449643E-02 
2116	 6.30679402974862E-02 
2117	 6.20514280234008E-02 
2118	 6.21920390164987E-02 
2119	 6.30186664160503E-02 
2120	 6.38601850930335E-02 
2121	 0.064517730346796 
2122	 6.61098644781203E-02 
2123	 6.69060751734305E-02 
2124	 6.46811430523966E-02 
2125	 6.66422286384577E-02 
2126	 7.04112635351004E-02 
2127	 7.05399247842483E-02 
2128	 6.93429464052443E-02 
2129	 6.67022592628883E-02 
2130	 6.54482537172363E-02 
2131	 6.48578501695804E-02 
2132	 6.58354387785859E-02 
2133	 6.87723894394252E-02 
2134	 6.94451767440024E-02 
2135	 6.79639630748588E-02 
2136	 6.84736927314363E-02 
2137	 6.94481237233462E-02 
2138	 6.91808159691335E-02 
2139	 6.94300671541664E-02 
2140	 6.96417886212753E-02 
2141	 6.83620869029412E-02 
2142	 6.75469214892584E-02 
2143	 6.73412141858438E-02 
2144	 6.72697403576076E-02 
2145	 6.61813782687344E-02 
2146	 6.59349501858536E-02 
2147	 6.70281084685621E-02 
2148	 6.68253972790882E-02 
2149	 6.41164805634555E-02 
2150	 6.55154048355118E-02 
2151	 0.06700750709431 
2152	 6.54405811169892E-02 
2153	 6.67366648651528E-02 
2154	 0.068005367956403 
2155	 6.56526066160307E-02 
2156	 6.49135728164716E-02 
2157	 6.52420721542841E-02 
2158	 6.46154151992755E-02 
2159	 6.51097450536936E-02 
2160	 6.94192282951837E-02 
2161	 7.01072846219243E-02 
2162	 6.83019190025559E-02 
2163	 6.82440071085216E-02 
2164	 6.74282916645482E-02 
2165	 6.77197403643577E-02 
2166	 6.90573296263622E-02 
2167	 7.05690356292055E-02 
2168	 7.48650653879011E-02 
2169	 7.47689141868825E-02 
2170	 7.20020019904375E-02 
2171	 7.06685445293966E-02 
2172	 6.61932377225124E-02 
2173	 6.21934894699175E-02 
2174	 0.061051054073456 
2175	 6.22953897179839E-02 
2176	 6.65067600545415E-02 
2177	 6.91077201325444E-02 
2178	 7.16247845760968E-02 
2179	 7.09526854023659E-02 
2180	 6.60704069483199E-02 
2181	 6.19563174605702E-02 
2182	 6.01982748586606E-02 
2183	 5.94130263704705E-02 
2184	 5.83005217500322E-02 
2185	 5.93539249017461E-02 
2186	 0.060753462315472 
2187	 0.063557554713352 
2188	 6.27737573166091E-02 
2189	 6.11511250162732E-02 
2190	 6.03873259654697E-02 
2191	 5.56339895673236E-02 
2192	 5.49887054481565E-02 
2193	 5.88100767647631E-02 
2194	 6.04938068912964E-02 
2195	 6.34569458036494E-02 
2196	 6.47688262646779E-02 
2197	 6.38709937820785E-02 
2198	 6.44070387487422E-02 
2199	 6.57065278764574E-02 
2200	 6.45514374995078E-02 
2201	 6.19766189280261E-02 
2202	 5.93709791585779E-02 
2203	 5.96933700738187E-02 
2204	 5.88004965240532E-02 
2205	 6.15075907266572E-02 
2206	 6.78149131865036E-02 
2207	 6.57354391288187E-02 
2208	 6.24310628682852E-02 
2209	 0.061160722573943 
2210	 5.59740416555466E-02 
2211	 5.16317314109966E-02 
2212	 0.052849905131551 
2213	 5.51512110590735E-02 
2214	 5.51871908873707E-02 
2215	 5.15393051084542E-02 
2216	 4.79570395763739E-02 
2217	 4.95722353168734E-02 
2218	 5.22346389129577E-02 
2219	 5.25788005321967E-02 
2220	 5.85046112656041E-02 
2221	 0.059954420490779 
2222	 5.37864665268911E-02 
2223	 5.31093391111474E-02 
2224	 5.77809241420402E-02 
2225	 5.95700529482216E-02 
2226	 5.89342556000577E-02 
2227	 0.05851999122026 
2228	 0.058782291387475 
2229	 5.82206706615722E-02 
2230	 5.52513156095913E-02 
2231	 5.56187715275421E-02 
2232	 5.99508763235194E-02 
2233	 5.92878914134827E-02 
2234	 5.49155701477112E-02 
2235	 5.60688000836726E-02 
2236	 5.76080923345382E-02 
2237	 5.86645313717534E-02 
2238	 6.47267008145397E-02 
2239	 6.42983280926896E-02 
2240	 5.62572582341973E-02 
2241	 5.17462663966358E-02 
2242	 5.29367655476794E-02 
2243	 5.76508684009222E-02 
2244	 6.23644534374418E-02 
2245	 6.48504482421633E-02 
2246	 6.23325679162355E-02 
2247	 6.02433761291235E-02 
2248	 6.13619003724847E-02 
2249	 6.35210806694212E-02 
2250	 6.67844030977457E-02 
2251	 6.74389431253504E-02 
2252	 6.52185416674864E-02 
2253	 6.56418668994431E-02 
2254	 6.99683084526029E-02 
2255	 6.90729994393281E-02 
2256	 0.061874058248264 
2257	 5.68384714501658E-02 
2258	 4.99410502470775E-02 
2259	 4.34190542314328E-02 
2260	 4.14783231732854E-02 
2261	 4.95440786284927E-02 
2262	 0.052278045907099 
2263	 5.45163066651941E-02 
2264	 0.053714876510538 
2265	 5.09858489468808E-02 
2266	 0.050289953983693 
2267	 4.85738567915594E-02 
2268	 4.69425730739676E-02 
2269	 0.047148367031581 
2270	 4.72174510629013E-02 
2271	 4.35577785386163E-02 
2272	 4.25905590459997E-02 
2273	 4.47309347800502E-02 
2274	 4.76562792938323E-02 
2275	 5.54417488180006E-02 
2276	 5.60547243983269E-02 
2277	 5.21344913948589E-02 
2278	 5.13969620408076E-02 
2279	 4.57635429761759E-02 
2280	 4.33364628492496E-02 
2281	 4.57153896341893E-02 
2282	 4.79961723600146E-02 
2283	 4.34402093155562E-02 
2284	 3.97631199508058E-02 
2285	 3.96516182603914E-02 
2286	 4.18115438982599E-02 
2287	 4.91455127412748E-02 
2288	 5.34990238651337E-02 
2289	 5.26128879172518E-02 
2290	 5.31930123273143E-02 
2291	 4.83676750567274E-02 
2292	 0.036834562768199 
2293	 0.029133602902981 
2294	 3.02865716551031E-02 
2295	 3.78166160830315E-02 
2296	 4.76188497530705E-02 
2297	 4.98528762684571E-02 
2298	 0.045139117662233 
2299	 4.15504891133921E-02 
2300	 4.57668232425101E-02 
2301	 6.33710764942339E-02 
2302	 7.45648494966077E-02 
2303	 7.16042817068933E-02 
2304	 0.067491753965474 
2305	 6.00085034923101E-02 
2306	 5.04195347046448E-02 
2307	 4.45256279967659E-02 
2308	 0.0349136646937 
2309	 0.030077831988141 
2310	 3.87820091346151E-02 
2311	 4.22474084039003E-02 
2312	 4.46962121820597E-02 
2313	 4.81790500404767E-02 
2314	 3.79742189235327E-02 
2315	 0.033605664348844 
2316	 4.13439327355846E-02 
2317	 4.33618363084371E-02 
2318	 0.040796510649435 
2319	 4.44295512374469E-02 
2320	 4.62681411746678E-02 
2321	 4.26777449477801E-02 
2322	 3.93701073462772E-02 
2323	 3.35068383896995E-02 
2324	 3.09073715016056E-02 
2325	 4.75770779061978E-02 
2326	 0.070218046250558 
2327	 6.45087212808063E-02 
2328	 5.60171007383343E-02 
2329	 4.40983341760678E-02 
2330	 1.17454360176893E-02 
2331	 5.38890454601912E-03 
2332	 1.00387046527945E-02 
2333	 1.20024673196241E-02 
2334	 3.78102585056874E-02 
2335	 4.44928919837183E-02 
2336	 3.84988789231403E-02 
2337	 4.38574410283451E-02 
2338	 4.09619879424986E-02 
2339	 5.35515858160181E-02 
2340	 6.99264534313858E-02 
2341	 8.35374418587436E-02 
2342	 8.64499603803331E-02 
2343	 0.059706133352334 
2344	 4.62008370072748E-02 
2345	 4.54817417563933E-02 
2346	 3.46777548099189E-02 
2347	 6.40245755837901E-02 
2348	 9.64422140705193E-02 
2349	 6.68950412712862E-02 
2350	 4.41400614356217E-02 
2351	 5.91130532573124E-04 
2352	-5.71478163173187E-02 
2353	-5.60800241036827E-02 
2354	-5.78909191754624E-02 
2355	-4.63016429024791E-02 
2356	-1.44046855241116E-02 
2357	 2.29128044448712E-02 
2358	 6.75112569684981E-02 
2359	 7.69965458934914E-02 
2360	 7.46807114336812E-02 
2361	 7.18469479237353E-02 
2362	 5.47036889833613E-02 
2363	 5.18674077441278E-02 
2364	 6.68342941210735E-02 
2365	 5.31214948216116E-02 
2366	 0.027824906837511 
2367	 2.59673835956242E-02 
2368	 9.34948691447607E-03 
2369	-6.11490568968403E-03 
2370	 7.74189318185275E-03 
2371	 1.63014755146164E-03 
2372	-1.11993797410038E-02 
2373	-2.77167398690939E-02 
2374	-3.00545025110367E-02 
2375	-3.18791611618452E-02 
2376	-9.38114494965405E-02 
2377	-8.43777836402666E-02 
2378	-8.49928039225959E-02 
2379	-0.177044989287187 
2380	-0.239259970254387 
2381	-0.264737076642673 
2382	-0.220870064425214 
2383	-0.177094867253496 
2384	-7.70026639554254E-02 
2385	 1.13362274331172E-02 
2386	-1.60815763241492E-02 
2387	 1.00999985231733E-02 
2388	 0.031381662475678 
2389	-6.32245051295315E-02 
2390	-9.85468022762111E-02 
2391	-6.09633670949105E-02 
2392	-6.43135145506963E-02 
2393	 6.84948721365504E-03 
2394	 8.72705716662888E-02 
2395	-6.72845698365967E-03 
2396	-0.095135947601328 
2397	-0.121823928349599 
2398	-0.166297750830443 
2399	-0.13069974726336 
2400	-9.39290380309722E-02 
2401	-9.45684535774366E-02 
2402	-0.151627512584831 
2403	-0.247337586565398 
2404	-0.189848044698038 
2405	-0.199328939007059 
2406	-0.145321277550075 
2407	 1.11964432898132E-02 
2408	-7.68757723774346E-02 
2409	-0.133073015281442 
2410	-0.151292978805617 
2411	-0.39897588409233 
2412	-0.466428290334127 
2413	-0.379976108466679 
2414	-0.324885242466142 
2415	-0.201948088536438 
2416	-0.213340483874 
2417	-0.411219157585512 
2418	-0.99069999997499 
2419	-1.67320770581612 
2420	-1.12869930793138 
2421	-0.755349610446462 
2422	-0.352549442684654 
2423	-0.239984873147458 
2424	-0.362612050097724 
2425	-0.20330921692428 
2426	-5.27933194229667E-02 
2427	-1.34590129272643E-02 
2428	-0.395074697614128 
2429	-0.63709700682194 
2430	-0.712964886896274 
2431	-0.718805829574561 
2432	-0.475604504251094 
2433	-0.133936610037145 
2434	-0.565902639818394 
2435	-0.849160327687707 
2436	-1.01435727762219 
2437	-1.22571398600969 
2438	-1.28096265799312 
2439	-0.999378059433575 
2440	-1.01503162085445 
2441	-3.0236133724937 
2442	 0.997269211199953 
2443	 0.280226857535767 
2444	 1.44167669653611 
2445	 6.6743603252447 
2446	-18.6537174973061 
2447	-8.39474803134845 
2448	-5.65144082004775 
2449	-1.62208886941623 
2450	-1.23935919346795 
2451	-5.14423676792072 
2452	-5.14267406858898 
2453	-4.06291038691956 
2454	-2.64037666415711 
2455	-2.64283529322349E-02 
2456	 0.62848856446558 
2457	 0.879130985801125 
2458	 1.70119502028108E-02 
2459	-0.59651935133937 
2460	-1.40777035452939 
2461	 13.1255971735509 
2462	 9.60799125131875 
2463	 4.77068239589429 
2464	-0.417550520561515 
2465	-0.107324562556766 
2466	-0.342176669542319 
2467	 0.688452409581119 
2468	-1.61867984975234 
2469	 2.62953749873386 
2470	-2.05525490287236 
2471	-2.39657369642729 
2472	-2.87202624534421 
2473	-0.786813251124687 
2474	-0.405122289665076 
2475	 0.25036048097837 
2476	 0.317957328825968 
2477	 1.51696787733064 
2478	 0.870470360709729 
2479	 1.06364136299316 
2480	 1.20197744146308 
2481	 2.73578043407265 
2482	 22.3958866408025 
2483	 4.713447113258 
2484	-5.39163975002243 
2485	-1.26904984546905 
2486	-3.04606301768366 
2487	 40.3364729766527 
2488	 8.39392656883589 
2489	 1.36148252911354 
2490	 0.936577891027381 
2491	 0.806986691681192 
2492	-0.632698908747061 
2493	-8.08730208110968 
2494	-2.60824740478338 
2495	-1.26589321815101 
2496	 19.2052719767277 
2497	 226.546341544952 
2498	 0.21189456111086 
2499	 2.56264671463121 
2500	 0.976523216309234 
