Wavelength	rt0713west_far_sunny200000.asd
350	 0.064452047902042 
351	 6.33958422211931E-02 
352	 6.30346903672478E-02 
353	 6.28405708026192E-02 
354	 6.23573142518682E-02 
355	 6.20744836252122E-02 
356	 6.24148239755301E-02 
357	 6.26671898934133E-02 
358	 6.21502294488559E-02 
359	 6.18673105152072E-02 
360	 6.15857374039495E-02 
361	 6.13154153893234E-02 
362	 6.12319694808699E-02 
363	 6.12210712079214E-02 
364	 6.13419935104052E-02 
365	 6.13850407340884E-02 
366	 0.060698762968033 
367	 6.04840956465784E-02 
368	 6.04990213286068E-02 
369	 0.060320512268166 
370	 6.03316686133066E-02 
371	 6.04962189534961E-02 
372	 0.060532212525112 
373	 6.01424071366649E-02 
374	 6.01544699043161E-02 
375	 0.060139502912519 
376	 5.99852968842145E-02 
377	 6.01717322984178E-02 
378	 5.99287778077318E-02 
379	 5.97893129525009E-02 
380	 6.01130018831892E-02 
381	 5.97469182066455E-02 
382	 5.96287497377227E-02 
383	 0.05980020104908 
384	 5.99138643096511E-02 
385	 6.02663114560108E-02 
386	 6.03555164787945E-02 
387	 6.01265565934746E-02 
388	 6.00625153609872E-02 
389	 5.99615421581774E-02 
390	 5.98485496405543E-02 
391	 0.059844685359205 
392	 0.060247969710576 
393	 6.04730646545701E-02 
394	 6.04342670798446E-02 
395	 6.03020552344505E-02 
396	 6.03843733465675E-02 
397	 0.060432085164872 
398	 0.060408851379578 
399	 6.04783080721398E-02 
400	 0.060499150515334 
401	 6.05247855707575E-02 
402	 6.06030966725094E-02 
403	 6.07039536293448E-02 
404	 6.08415541253047E-02 
405	 6.09792599793195E-02 
406	 6.10625666991317E-02 
407	 6.10412261417662E-02 
408	 6.10479875483749E-02 
409	 6.11117619462998E-02 
410	 6.11552901480694E-02 
411	 6.13179859684577E-02 
412	 6.14495553287397E-02 
413	 6.14630754096409E-02 
414	 0.061531449453244 
415	 0.061655400156611 
416	 6.17796774315259E-02 
417	 6.18492982939832E-02 
418	 6.19719452684336E-02 
419	 6.21903088148156E-02 
420	 6.24577700456715E-02 
421	 0.062644449406362 
422	 6.27457182155958E-02 
423	 6.28755668714777E-02 
424	 6.31278507252158E-02 
425	 6.34916695822893E-02 
426	 0.063747025741404 
427	 6.39287864830086E-02 
428	 6.41912217976644E-02 
429	 6.45257275805555E-02 
430	 6.48936521978095E-02 
431	 6.52184601965749E-02 
432	 6.53931750040461E-02 
433	 6.56266389225504E-02 
434	 6.59061861064842E-02 
435	 6.61923555997357E-02 
436	 6.65415958671544E-02 
437	 6.68104410520357E-02 
438	 6.70666160126095E-02 
439	 6.74610585140434E-02 
440	 6.77872066488771E-02 
441	 6.81017778268351E-02 
442	 6.84155395368515E-02 
443	 6.86273823308968E-02 
444	 6.88680123758637E-02 
445	 6.91718951948263E-02 
446	 6.95211881252809E-02 
447	 6.98287602597494E-02 
448	 7.00942263680945E-02 
449	 0.07032627694827 
450	 7.05404177845902E-02 
451	 7.07352247463311E-02 
452	 7.09195708421338E-02 
453	 7.11220157165273E-02 
454	 7.14171951371781E-02 
455	 7.16481196938725E-02 
456	 7.18116337775027E-02 
457	 7.19669524127481E-02 
458	 7.21656670511031E-02 
459	 7.23237500849303E-02 
460	 7.24535259496446E-02 
461	 7.26603078777715E-02 
462	 0.07275131933208 
463	 0.072841699135626 
464	 0.073026337360611 
465	 7.31732533477592E-02 
466	 0.073327731625472 
467	 7.34967309416367E-02 
468	 0.073664243590296 
469	 7.37712206285602E-02 
470	 7.39001441366952E-02 
471	 0.074087755398133 
472	 7.42924816535338E-02 
473	 7.44802295053082E-02 
474	 7.46477668015655E-02 
475	 7.48226282760379E-02 
476	 7.51092649006961E-02 
477	 7.53264559847676E-02 
478	 7.55035843875903E-02 
479	 7.57957779804858E-02 
480	 0.075992786956997 
481	 7.62414052970903E-02 
482	 7.66029209829559E-02 
483	 7.68661923043381E-02 
484	 7.71964770045449E-02 
485	 7.75236155409198E-02 
486	 7.77525509211467E-02 
487	 7.81208270245109E-02 
488	 7.85032917137946E-02 
489	 7.88206019043369E-02 
490	 7.90674556346337E-02 
491	 0.079393997737126 
492	 7.98020035211423E-02 
493	 0.08023784622625 
494	 8.05933862888238E-02 
495	 8.09736807232781E-02 
496	 8.14221702397819E-02 
497	 8.19292355197868E-02 
498	 8.23408759010684E-02 
499	 8.26647106434814E-02 
500	 8.29732332158726E-02 
501	 8.34070331285655E-02 
502	 8.37929123215226E-02 
503	 8.41683586968247E-02 
504	 8.46066989443194E-02 
505	 8.50588087600814E-02 
506	 8.55476806367499E-02 
507	 8.60588713588353E-02 
508	 0.086552220113199 
509	 8.70886100258927E-02 
510	 8.76321226094179E-02 
511	 8.81537244724458E-02 
512	 8.86752377616997E-02 
513	 8.92253616681018E-02 
514	 8.98026239616884E-02 
515	 9.03856776662545E-02 
516	 9.09647432003095E-02 
517	 9.15640880432838E-02 
518	 9.21820072064779E-02 
519	 9.27848285037302E-02 
520	 9.34085477441065E-02 
521	 9.39894598093324E-02 
522	 9.45132559744091E-02 
523	 9.52108394515741E-02 
524	 9.57924605767932E-02 
525	 0.096302062038754 
526	 9.70017882600142E-02 
527	 9.76946295011833E-02 
528	 0.098327307448085 
529	 9.89056355431265E-02 
530	 9.95035634609851E-02 
531	 0.100129657981912 
532	 0.10078909281518 
533	 0.101466624484085 
534	 0.10207137014563 
535	 0.102718477276493 
536	 0.103409111427832 
537	 0.10400052194211 
538	 0.104615771727939 
539	 0.105222036254804 
540	 0.105793390414819 
541	 0.106444095163151 
542	 0.107145012964605 
543	 0.107821375440116 
544	 0.108393998739696 
545	 0.109010655301389 
546	 0.109676250946424 
547	 0.110349495349594 
548	 0.110938484990735 
549	 0.111550507879204 
550	 0.112190575597906 
551	 0.112830540885857 
552	 0.113476443873527 
553	 0.114077066198341 
554	 0.114653110053429 
555	 0.115301728591625 
556	 0.115905591517429 
557	 0.116478516129617 
558	 0.117049686787091 
559	 0.117618133185824 
560	 0.118097698016973 
561	 0.118550995487727 
562	 0.119111119894311 
563	 0.119570107593842 
564	 0.119955799684355 
565	 0.120298723194552 
566	 0.120564653463835 
567	 0.120885868761232 
568	 0.12122290406123 
569	 0.121500161563493 
570	 0.121866305735071 
571	 0.122123001459527 
572	 0.122256144271791 
573	 0.122464409314741 
574	 0.122662742662955 
575	 0.12284715045497 
576	 0.12301703003678 
577	 0.123140708579236 
578	 0.123218262169839 
579	 0.123241105737654 
580	 0.123201613182462 
581	 0.123143318028146 
582	 0.123031625002667 
583	 0.122843221089624 
584	 0.122597508686438 
585	 0.122236204526618 
586	 0.121713411330272 
587	 0.121030310135993 
588	 0.120436593712949 
589	 0.119988910770414 
590	 0.119664827675771 
591	 0.119343718053961 
592	 0.118991819243115 
593	 0.118501286949011 
594	 0.117844406096948 
595	 0.117231535524144 
596	 0.116491496551539 
597	 0.115656248974686 
598	 0.114860163186907 
599	 0.113964813433825 
600	 0.113199166069865 
601	 0.112672557073155 
602	 0.11221682614712 
603	 0.11191345154741 
604	 0.11172231730671 
605	 0.111577042378521 
606	 0.111473039336025 
607	 0.111373854458423 
608	 0.111292097639018 
609	 0.111287738985676 
610	 0.11127461414373 
611	 0.111235490679281 
612	 0.111178183253625 
613	 0.111135214986655 
614	 0.111077775486697 
615	 0.111036142348395 
616	 0.111048632481668 
617	 0.110907005105182 
618	 0.110815089093236 
619	 0.110829496797729 
620	 0.110701413332068 
621	 0.110573474597876 
622	 0.110535387729682 
623	 0.110596374500158 
624	 0.110469545626965 
625	 0.11029167201819 
626	 0.110132661150431 
627	 0.109985486950235 
628	 0.109934527128444 
629	 0.109933358806856 
630	 0.109909188296925 
631	 0.109786568980176 
632	 0.109720838527428 
633	 0.109696744307324 
634	 0.109626472829019 
635	 0.109582215708837 
636	 0.109473473027846 
637	 0.109288101116199 
638	 0.109141365451163 
639	 0.108999490687073 
640	 0.108795667263397 
641	 0.108505664533373 
642	 0.108315988730783 
643	 0.108084620353843 
644	 0.10772936434848 
645	 0.10723657718012 
646	 0.106765339844434 
647	 0.10646962192678 
648	 0.106361288685348 
649	 0.106148466052712 
650	 0.105864223568804 
651	 0.105538546283921 
652	 0.105212605078467 
653	 0.104861682092945 
654	 0.104344400039718 
655	 0.103647828480142 
656	 0.103042364973961 
657	 0.102561530457082 
658	 0.102161944818751 
659	 0.101786605106007 
660	 0.10143383660439 
661	 0.101121480714096 
662	 0.100825854908924 
663	 0.100515629517047 
664	 0.10030889338157 
665	 0.100100377805457 
666	 9.98588609252271E-02 
667	 9.97447186250949E-02 
668	 9.96076323118045E-02 
669	 9.94351079945344E-02 
670	 9.92722879726337E-02 
671	 9.91966982549729E-02 
672	 9.91783422154795E-02 
673	 9.91370421132674E-02 
674	 9.89681481793749E-02 
675	 9.88964581505247E-02 
676	 9.88887504332176E-02 
677	 9.88877853984614E-02 
678	 9.89110613613557E-02 
679	 9.89662340884098E-02 
680	 9.90184962612477E-02 
681	 9.90258441860375E-02 
682	 0.099037877425558 
683	 9.91120581393314E-02 
684	 9.91689229298323E-02 
685	 0.098935668241702 
686	 9.86959894129487E-02 
687	 9.85840230826623E-02 
688	 0.098610551039738 
689	 9.86369987360413E-02 
690	 9.84337099570188E-02 
691	 0.097964418869102 
692	 9.73296182785915E-02 
693	 9.67790306390933E-02 
694	 9.64934894718608E-02 
695	 9.64099622664291E-02 
696	 9.61693445998081E-02 
697	 9.54927143581405E-02 
698	 9.44766369239869E-02 
699	 9.34440510438161E-02 
700	 9.26902209860958E-02 
701	 9.20462159010505E-02 
702	 9.13607475371219E-02 
703	 9.05098894291462E-02 
704	 8.94021826763053E-02 
705	 8.82908413056655E-02 
706	 8.73216721001643E-02 
707	 8.62198595888284E-02 
708	 8.49728114251203E-02 
709	 8.36004719814234E-02 
710	 8.21334820460668E-02 
711	 0.080528495389927 
712	 7.87793865196984E-02 
713	 7.68763299093452E-02 
714	 7.47463319997368E-02 
715	 7.24457773022219E-02 
716	 6.97856423772384E-02 
717	 0.066981928596558 
718	 6.48495902795626E-02 
719	 6.32261957832042E-02 
720	 6.20610337218451E-02 
721	 6.09759915137097E-02 
722	 5.91948250590521E-02 
723	 5.70082152994741E-02 
724	 5.49728297704622E-02 
725	 5.31483106886357E-02 
726	 5.15130451081736E-02 
727	 4.98322237864531E-02 
728	 4.79477571902462E-02 
729	 4.58979389071248E-02 
730	 4.42447652557116E-02 
731	 4.30692845870864E-02 
732	 4.20759134607557E-02 
733	 4.11619212016727E-02 
734	 4.02572338152647E-02 
735	 3.94057729545424E-02 
736	 3.87783484815211E-02 
737	 0.038453755793109 
738	 3.83129131615855E-02 
739	 3.82192919175179E-02 
740	 3.81336354015815E-02 
741	 3.80757692232663E-02 
742	 3.80656313349572E-02 
743	 3.81027820527619E-02 
744	 3.80384185078387E-02 
745	 3.79796109735836E-02 
746	 3.79647180763398E-02 
747	 3.79045365791325E-02 
748	 3.78613928381954E-02 
749	 0.037828351985248 
750	 3.77980614941405E-02 
751	 3.78241809102463E-02 
752	 3.78178827712314E-02 
753	 3.77693694895794E-02 
754	 3.77160159728167E-02 
755	 3.76794798855511E-02 
756	 3.76163197994964E-02 
757	 3.74496063486293E-02 
758	 3.69528187566716E-02 
759	 3.60571009171397E-02 
760	 3.52384120253782E-02 
761	 3.53618746848372E-02 
762	 3.53497268517054E-02 
763	 3.56918038567374E-02 
764	 3.62846893468876E-02 
765	 3.68504259567436E-02 
766	 3.72385487631074E-02 
767	 3.74837603562876E-02 
768	 3.76546121839091E-02 
769	 3.78368131482095E-02 
770	 3.79889384974478E-02 
771	 3.81144416184308E-02 
772	 3.82289890278058E-02 
773	 3.83584475925355E-02 
774	 3.84853966779181E-02 
775	 3.86013411871573E-02 
776	 3.87021695669691E-02 
777	 3.87631300153328E-02 
778	 3.89285388679765E-02 
779	 3.91669442307225E-02 
780	 3.92744229823836E-02 
781	 3.94229754323751E-02 
782	 3.95823672240442E-02 
783	 0.039722464768993 
784	 3.99057887071675E-02 
785	 3.99854399350493E-02 
786	 4.00326043127686E-02 
787	 4.01602983621315E-02 
788	 4.02106760659875E-02 
789	 4.04655455159818E-02 
790	 0.040882476793268 
791	 4.11699296878172E-02 
792	 4.15278208206138E-02 
793	 4.17916930915921E-02 
794	 4.19334176749144E-02 
795	 4.22085323177584E-02 
796	 4.24435776158648E-02 
797	 0.042621923744125 
798	 4.27826073654663E-02 
799	 4.29692599387777E-02 
800	 4.31121665909847E-02 
801	 4.32808926164736E-02 
802	 4.35771408251077E-02 
803	 4.37110117864248E-02 
804	 4.39331364512074E-02 
805	 4.42087402213572E-02 
806	 4.41679847261979E-02 
807	 4.41040276189484E-02 
808	 4.39343252543026E-02 
809	 4.35869414608723E-02 
810	 4.31980458919173E-02 
811	 0.042771897312215 
812	 0.042222610837745 
813	 4.14947635463249E-02 
814	 4.09599053935933E-02 
815	 4.05414765374668E-02 
816	 0.040275610110163 
817	 4.02256567332699E-02 
818	 3.99506688313048E-02 
819	 3.96721766774692E-02 
820	 3.93898211655743E-02 
821	 3.87572295731175E-02 
822	 3.79067371746793E-02 
823	 3.70831100939541E-02 
824	 3.64497415529397E-02 
825	 3.59135141471609E-02 
826	 3.49754170233361E-02 
827	 3.38688527337731E-02 
828	 3.31108213959993E-02 
829	 3.23903939636276E-02 
830	 3.17235176058234E-02 
831	 3.11519285776373E-02 
832	 3.07435927412028E-02 
833	 3.05388534530663E-02 
834	 3.03519895674992E-02 
835	 3.01377758678252E-02 
836	 0.030061982891755 
837	 3.00363115929022E-02 
838	 3.00485251214896E-02 
839	 3.00778300931127E-02 
840	 3.00501934440958E-02 
841	 2.99403514434723E-02 
842	 2.98251549147146E-02 
843	 2.98029108414098E-02 
844	 2.98835601782632E-02 
845	 2.97949173194191E-02 
846	 0.02963634256276 
847	 2.97115085073708E-02 
848	 2.96405749517148E-02 
849	 2.95526293717235E-02 
850	 2.94811528509603E-02 
851	 2.92810376408581E-02 
852	 2.92888771514605E-02 
853	 0.029293331972594 
854	 2.91283075866535E-02 
855	 2.89742436770544E-02 
856	 2.88426192316282E-02 
857	 2.88499305418627E-02 
858	 2.89976587501447E-02 
859	 2.88081728648086E-02 
860	 2.87127752862465E-02 
861	 2.86820033742778E-02 
862	 2.85145816781563E-02 
863	 2.85451723050935E-02 
864	 2.86200442062708E-02 
865	 2.86053281253636E-02 
866	 2.84371992042675E-02 
867	 2.81666496566948E-02 
868	 2.80837513758066E-02 
869	 2.81554261355754E-02 
870	 2.79286953024168E-02 
871	 2.79695013351545E-02 
872	 2.79522531904721E-02 
873	 2.76931191395952E-02 
874	 2.77624635700768E-02 
875	 2.75915960210322E-02 
876	 2.74084443990683E-02 
877	 2.74826462647778E-02 
878	 2.73054006558621E-02 
879	 2.71467263360801E-02 
880	 2.71183615282985E-02 
881	 2.71902940975552E-02 
882	 0.027080104523591 
883	 0.026880877153934 
884	 2.67068186923091E-02 
885	 2.66583568672818E-02 
886	 2.67568456288095E-02 
887	 2.66732444058064E-02 
888	 2.63622971359092E-02 
889	 2.61305212538096E-02 
890	 2.59251009282816E-02 
891	 2.55879755476307E-02 
892	 2.50852482162194E-02 
893	 2.46694775700303E-02 
894	 2.43958036718968E-02 
895	 2.39467637170173E-02 
896	 2.32411315489705E-02 
897	 2.33245707803886E-02 
898	 2.32305177894405E-02 
899	 2.31262238333192E-02 
900	 2.32611913232756E-02 
901	 2.25978489523371E-02 
902	 0.023140656382644 
903	 2.38258724684254E-02 
904	 2.30594271636582E-02 
905	 2.27397405641012E-02 
906	 2.24999408807781E-02 
907	 2.25010465739079E-02 
908	 2.30011250132061E-02 
909	 2.18509888664614E-02 
910	 2.13069265448336E-02 
911	 2.19190749556955E-02 
912	 2.22722506401088E-02 
913	 2.21430196548862E-02 
914	 2.16585098898834E-02 
915	 2.12133294454166E-02 
916	 2.13000405214094E-02 
917	 2.15644278632521E-02 
918	 0.02180377853991 
919	 2.18014628844555E-02 
920	 2.13297599449925E-02 
921	 2.17135493791525E-02 
922	 2.17794911011827E-02 
923	 2.10069901342868E-02 
924	 2.12945141347151E-02 
925	 2.10729912851361E-02 
926	 2.04954015988503E-02 
927	 1.99304725688755E-02 
928	 1.83557819993592E-02 
929	 1.79056509273109E-02 
930	 1.85461018148899E-02 
931	 1.84907526738755E-02 
932	 1.61173892180085E-02 
933	 1.40143000356311E-02 
934	 1.25221204901323E-02 
935	 1.11517997674332E-02 
936	 1.34104781494473E-02 
937	 1.68102001705843E-02 
938	 1.75027750737891E-02 
939	 1.43983105750789E-02 
940	 1.62619114312276E-02 
941	 1.65824629924614E-02 
942	 1.59461376787845E-02 
943	 1.75734035068878E-02 
944	 1.71078406016461E-02 
945	 1.49418082322194E-02 
946	 0.013218204874074 
947	 1.41434925075184E-02 
948	 1.63163614654947E-02 
949	 0.017169197034084 
950	 1.66661398356668E-02 
951	 0.016537580639165 
952	 1.86482289219217E-02 
953	 1.67704049347173E-02 
954	 1.31420508636874E-02 
955	 1.48298723448587E-02 
956	 1.89976662959754E-02 
957	 1.97278313661018E-02 
958	 1.74844385736699E-02 
959	 1.68498870761449E-02 
960	 1.74708690423808E-02 
961	 1.87230868053657E-02 
962	 1.92464294833259E-02 
963	 1.80483475855223E-02 
964	 1.82563615807906E-02 
965	 1.87098942623171E-02 
966	 1.93147278376527E-02 
967	 0.020614244463446 
968	 2.01576851825734E-02 
969	 1.85345897026834E-02 
970	 1.75137815083147E-02 
971	 1.89726431709074E-02 
972	 1.95987791914384E-02 
973	 1.97609198694721E-02 
974	 1.98067665897735E-02 
975	 1.97130876208566E-02 
976	 1.97980906904394E-02 
977	 2.02932095417694E-02 
978	 2.06334999751569E-02 
979	 0.020025360258531 
980	 2.07754006387245E-02 
981	 2.09140734991048E-02 
982	 0.020365508586803 
983	 2.06033106829945E-02 
984	 2.00569681989214E-02 
985	 2.06352107692563E-02 
986	 0.021708953060637 
987	 2.11044610610285E-02 
988	 2.20286614613821E-02 
989	 0.02294852123751 
990	 2.27294960713498E-02 
991	 0.021331177275741 
992	 2.08056561563753E-02 
993	 2.19749546551968E-02 
994	 2.33800901774094E-02 
995	 2.26685387698185E-02 
996	 2.11615704565591E-02 
997	 2.24943884709083E-02 
998	 0.024633139199846 
999	 2.32346506277674E-02 
1000	 2.23864918292456E-02 
1001	 2.09319294540376E-02 
1002	 2.10474224217044E-02 
1003	 2.09399681126007E-02 
1004	 2.07206438611636E-02 
1005	 2.05875734901627E-02 
1006	 2.02091295289778E-02 
1007	 1.98973164153841E-02 
1008	 2.00669157099723E-02 
1009	 2.03998777183699E-02 
1010	 2.06329869011291E-02 
1011	 2.09518015262347E-02 
1012	 2.12907855087439E-02 
1013	 2.14167501853393E-02 
1014	 2.14878439138605E-02 
1015	 2.14982604694548E-02 
1016	 2.15149155994088E-02 
1017	 2.14008257510054E-02 
1018	 2.13580909474314E-02 
1019	 2.14177809712177E-02 
1020	 2.13615978299562E-02 
1021	 2.13351300000609E-02 
1022	 2.10757385757322E-02 
1023	 2.05088966699325E-02 
1024	 2.05005037082305E-02 
1025	 2.08431307921535E-02 
1026	 2.10983978118947E-02 
1027	 2.12396181316977E-02 
1028	 2.16651291990928E-02 
1029	 2.17181502142473E-02 
1030	 2.14103211620839E-02 
1031	 2.11852005375486E-02 
1032	 2.07453759598969E-02 
1033	 2.07298517657399E-02 
1034	 2.08003339913737E-02 
1035	 2.09283874776065E-02 
1036	 2.14530491482479E-02 
1037	 2.18191550178243E-02 
1038	 2.21879786176144E-02 
1039	 2.24447412255134E-02 
1040	 0.022285536210674 
1041	 2.22623509286369E-02 
1042	 2.20032097625243E-02 
1043	 2.11415998548588E-02 
1044	 2.10071220463339E-02 
1045	 2.12266406777534E-02 
1046	 2.12378703232978E-02 
1047	 0.021401778085689 
1048	 2.15729331461011E-02 
1049	 2.17323105763766E-02 
1050	 2.18101830998629E-02 
1051	 2.20311440182316E-02 
1052	 0.022088479061637 
1053	 2.18730067201065E-02 
1054	 0.021762658710862 
1055	 0.021562708783663 
1056	 2.15352522659285E-02 
1057	 2.15943253768297E-02 
1058	 2.18342187874491E-02 
1059	 0.021753750975035 
1060	 2.16129901161322E-02 
1061	 2.15806632455952E-02 
1062	 2.13258730937567E-02 
1063	 2.12847765511103E-02 
1064	 0.02161569763177 
1065	 2.16252823541079E-02 
1066	 2.14617744867971E-02 
1067	 2.13495843169152E-02 
1068	 2.10509543878879E-02 
1069	 2.09654203479988E-02 
1070	 2.10226020614228E-02 
1071	 2.10342822137725E-02 
1072	 2.10585632447676E-02 
1073	 2.12614181775354E-02 
1074	 2.13381407372349E-02 
1075	 2.13542083235391E-02 
1076	 2.14095543734569E-02 
1077	 2.16077366318543E-02 
1078	 2.14669991469591E-02 
1079	 2.10942356612695E-02 
1080	 2.08879482462896E-02 
1081	 2.03737479726107E-02 
1082	 2.02788713112367E-02 
1083	 2.05940317678374E-02 
1084	 2.06948876570788E-02 
1085	 2.10602141933576E-02 
1086	 2.10883356354549E-02 
1087	 2.07787612746358E-02 
1088	 2.05855043770784E-02 
1089	 2.03363661824945E-02 
1090	 1.98602989427719E-02 
1091	 0.019687725017212 
1092	 1.97104531656374E-02 
1093	 1.96509356542399E-02 
1094	 1.97100341562462E-02 
1095	 1.96658932816517E-02 
1096	 1.95639262493841E-02 
1097	 1.93684034468486E-02 
1098	 1.91130225535461E-02 
1099	 1.88416576200058E-02 
1100	 1.82732595207136E-02 
1101	 1.81350842368061E-02 
1102	 1.85018304060251E-02 
1103	 1.83615496059877E-02 
1104	 1.82443047057126E-02 
1105	 1.78484685304268E-02 
1106	 1.72913521613382E-02 
1107	 1.71504325953749E-02 
1108	 1.68754260415337E-02 
1109	 1.66042815175244E-02 
1110	 1.66538553722232E-02 
1111	 0.016789695026093 
1112	 1.66089898213321E-02 
1113	 1.68913191228637E-02 
1114	 1.68743332837688E-02 
1115	 1.57274089046078E-02 
1116	 1.49134396636627E-02 
1117	 1.47710218639554E-02 
1118	 1.44703558120353E-02 
1119	 1.39611341790974E-02 
1120	 1.32391646009938E-02 
1121	 1.38428517041892E-02 
1122	 9.77846908265426E-03 
1123	 8.30941141392916E-03 
1124	 1.20544516688473E-02 
1125	 1.22064168145295E-02 
1126	 0.014392647730016 
1127	 1.77213405553386E-02 
1128	 0.013163283787838 
1129	 1.16001651890088E-02 
1130	 1.15883459862497E-02 
1131	 1.18726817804311E-02 
1132	 1.12731374195285E-02 
1133	 1.20855369546206E-02 
1134	 1.41315804217705E-02 
1135	 1.39370201939615E-02 
1136	 1.32216728111449E-02 
1137	 1.30892463855007E-02 
1138	 1.17813004568944E-02 
1139	 0.012646662774053 
1140	 1.40224805090917E-02 
1141	 1.31355875743188E-02 
1142	 1.23318987389193E-02 
1143	 1.22669770914432E-02 
1144	 1.26598000521838E-02 
1145	 1.35226389595181E-02 
1146	 1.56119489851615E-02 
1147	 1.63725503282749E-02 
1148	 1.36976523446364E-02 
1149	 1.17829541382822E-02 
1150	 1.10362371549211E-02 
1151	 8.98985245874943E-03 
1152	 9.80986138487793E-03 
1153	 1.34300218156392E-02 
1154	 1.40198431532641E-02 
1155	 1.39774780312476E-02 
1156	 1.43415017902356E-02 
1157	 1.38559134331239E-02 
1158	 1.43471215369096E-02 
1159	 1.57235628377555E-02 
1160	 1.59913361936319E-02 
1161	 1.59510228734957E-02 
1162	 1.59345516965858E-02 
1163	 1.58922267144924E-02 
1164	 0.016268874929197 
1165	 1.65012363881484E-02 
1166	 1.67081693903782E-02 
1167	 1.72205882005129E-02 
1168	 1.74185309742134E-02 
1169	 1.74178530185826E-02 
1170	 1.77981261951209E-02 
1171	 1.78607030239314E-02 
1172	 1.72772688773216E-02 
1173	 1.71640498828139E-02 
1174	 1.72269736092681E-02 
1175	 1.75229128249735E-02 
1176	 1.77319326099899E-02 
1177	 1.80301068933321E-02 
1178	 1.81783367671481E-02 
1179	 1.79458465647061E-02 
1180	 1.74693560092346E-02 
1181	 1.75560359045113E-02 
1182	 1.80438157885367E-02 
1183	 1.79555840747938E-02 
1184	 0.017851317405642 
1185	 1.80856537607895E-02 
1186	 1.81274078802441E-02 
1187	 1.81176937814479E-02 
1188	 1.82443722337519E-02 
1189	 1.82065244643432E-02 
1190	 1.80365874607981E-02 
1191	 1.81844723359332E-02 
1192	 0.018249184571461 
1193	 1.84498495044803E-02 
1194	 1.83189639826616E-02 
1195	 1.82320852556614E-02 
1196	 1.81077945017644E-02 
1197	 1.80285002378201E-02 
1198	 1.82212051802813E-02 
1199	 1.83194048185865E-02 
1200	 1.82317893389562E-02 
1201	 1.80527348759011E-02 
1202	 1.80471155428371E-02 
1203	 1.81313635537621E-02 
1204	 1.82995923256021E-02 
1205	 0.018714359768165 
1206	 1.86854592489968E-02 
1207	 1.83362299268863E-02 
1208	 1.84307749839707E-02 
1209	 1.85941999325986E-02 
1210	 1.85599528367709E-02 
1211	 1.86782649699856E-02 
1212	 1.86460729516187E-02 
1213	 1.83538116548163E-02 
1214	 1.83560978783255E-02 
1215	 1.85929820886303E-02 
1216	 1.89949283439849E-02 
1217	 1.89486778957258E-02 
1218	 1.87824584552782E-02 
1219	 1.87633819651799E-02 
1220	 1.85492652128806E-02 
1221	 1.85089111176844E-02 
1222	 1.88137172921739E-02 
1223	 1.89566000079774E-02 
1224	 0.019013825210679 
1225	 1.90830817790169E-02 
1226	 1.91732337463899E-02 
1227	 1.92422601559503E-02 
1228	 1.91830842783384E-02 
1229	 1.91434963474212E-02 
1230	 1.92912573404631E-02 
1231	 1.94872350183842E-02 
1232	 1.94873293274678E-02 
1233	 1.94513070785455E-02 
1234	 1.95151263107663E-02 
1235	 1.95630029158036E-02 
1236	 1.95267190370902E-02 
1237	 0.019498252752567 
1238	 0.019561330124814 
1239	 1.95207247167475E-02 
1240	 1.95832793734695E-02 
1241	 1.95261342847797E-02 
1242	 1.93808398474188E-02 
1243	 1.95094902118393E-02 
1244	 1.94708805796486E-02 
1245	 1.93556865747575E-02 
1246	 1.96138840721011E-02 
1247	 0.019748666294316 
1248	 1.95761069463009E-02 
1249	 1.94942356834704E-02 
1250	 1.96337624637144E-02 
1251	 1.97705140005475E-02 
1252	 1.96682364907746E-02 
1253	 1.95098219959217E-02 
1254	 1.95784709105458E-02 
1255	 1.96992464301254E-02 
1256	 1.96081327565539E-02 
1257	 1.95267318520206E-02 
1258	 0.019583893529756 
1259	 1.94901121672207E-02 
1260	 0.019337549084764 
1261	 1.94321439938003E-02 
1262	 1.94498675198305E-02 
1263	 1.93481578666935E-02 
1264	 1.89564115673802E-02 
1265	 1.87045640092156E-02 
1266	 1.86689876497415E-02 
1267	 1.87602445993814E-02 
1268	 1.88598451377875E-02 
1269	 1.90139236342439E-02 
1270	 1.92073238691348E-02 
1271	 1.92073809171583E-02 
1272	 1.90318507895368E-02 
1273	 1.90381909417038E-02 
1274	 1.91875229145751E-02 
1275	 0.019152843971644 
1276	 1.91247540459916E-02 
1277	 1.92752708308048E-02 
1278	 1.93366572565455E-02 
1279	 1.91536858178649E-02 
1280	 1.90522301410497E-02 
1281	 1.91391071250262E-02 
1282	 1.94196000387828E-02 
1283	 1.93812855334367E-02 
1284	 1.93330512007343E-02 
1285	 1.93711444960525E-02 
1286	 1.92497507575887E-02 
1287	 1.90559558645997E-02 
1288	 0.018873593103743 
1289	 1.88805195418605E-02 
1290	 1.88453000840128E-02 
1291	 1.87884502887893E-02 
1292	 1.88058338897261E-02 
1293	 1.87813226722327E-02 
1294	 1.87531891993312E-02 
1295	 1.86582796916308E-02 
1296	 1.84118222967583E-02 
1297	 1.83989585019124E-02 
1298	 1.84061066950016E-02 
1299	 1.81462471027615E-02 
1300	 1.80601142579205E-02 
1301	 1.80600097522699E-02 
1302	 1.78719898646065E-02 
1303	 1.75770287868427E-02 
1304	 1.73269940987095E-02 
1305	 1.73711577065757E-02 
1306	 1.74228352186328E-02 
1307	 1.74349175421922E-02 
1308	 1.73421359993691E-02 
1309	 1.74481728842929E-02 
1310	 1.73140124706195E-02 
1311	 1.67174658637765E-02 
1312	 1.64594829390945E-02 
1313	 1.64564224967395E-02 
1314	 1.63538920636312E-02 
1315	 1.61912485121424E-02 
1316	 1.61258619635287E-02 
1317	 1.63629622911352E-02 
1318	 1.61438311880298E-02 
1319	 1.53678728091513E-02 
1320	 1.51715436346409E-02 
1321	 1.49263675577082E-02 
1322	 0.014992721797902 
1323	 1.53040328056982E-02 
1324	 1.56292140293036E-02 
1325	 1.54779974626139E-02 
1326	 1.51132037520043E-02 
1327	 1.49582873475842E-02 
1328	 1.45673612579694E-02 
1329	 1.41012462036627E-02 
1330	 1.42428046638527E-02 
1331	 1.44399016955881E-02 
1332	 1.45159051908542E-02 
1333	 1.45655949210226E-02 
1334	 0.013585096033156 
1335	 1.30270110153805E-02 
1336	 1.19929539495992E-02 
1337	 0.011706425614678 
1338	 1.22522764079596E-02 
1339	 1.20866800841745E-02 
1340	 1.11990203399216E-02 
1341	 1.14910911771269E-02 
1342	 1.31957497711736E-02 
1343	 1.30562041071338E-02 
1344	 1.22344699539561E-02 
1345	 0.012633638325402 
1346	 1.13853527267231E-02 
1347	 9.97700841936726E-03 
1348	 1.14868397744377E-02 
1349	 1.30732595292678E-02 
1350	 0.011225437254736 
1351	 9.80935192966349E-03 
1352	 1.75865804335738E-02 
1353	 2.21668418825996E-02 
1354	 9.39892754351809E-03 
1355	 5.35171159372721E-03 
1356	 3.1341671543693E-03 
1357	-7.30979141368264E-03 
1358	 5.08248026959582E-02 
1359	 9.98587034407866E-02 
1360	 6.15727271577635E-02 
1361	 4.85832649093167E-02 
1362	 9.06730769408033E-02 
1363	 4.00773046253136E-02 
1364	-8.01002050901512E-03 
1365	 2.96922729315655E-02 
1366	-3.65022383171643E-03 
1367	-3.06480381612392E-02 
1368	-4.90822946938301E-02 
1369	 0.163487660229977 
1370	 0.356139553971504 
1371	 0.271185669997736 
1372	 0.204185793335743 
1373	 0.247084962193324 
1374	 0.297209966263217 
1375	 0.124192046357914 
1376	 9.72651674165482E-02 
1377	 0.254972455966897 
1378	 0.337138617271764 
1379	 0.337562462138752 
1380	 0.247998860932046 
1381	 0.199554490565164 
1382	 0.223466875489715 
1383	 0.254463297096961 
1384	 0.19860337740851 
1385	 0.118701629107477 
1386	 0.130768221353687 
1387	 0.197370026954571 
1388	 0.115668313727471 
1389	-1.74495745759744E-02 
1390	-6.16771360622767E-03 
1391	 5.77768779723079E-02 
1392	 1.11117501302942E-02 
1393	 9.15632393150266E-02 
1394	 9.81498775218549E-02 
1395	 0.1997969231572 
1396	 0.1688401485419 
1397	-0.164857421073266 
1398	-0.202571332435709 
1399	-0.116853611307638 
1400	-0.139275219784986 
1401	-8.82436206360743E-02 
1402	 0.079568346948227 
1403	 0.250462254599248 
1404	 0.190266501602438 
1405	 0.017162799483175 
1406	-0.163273390478525 
1407	-0.135366185141729 
1408	-0.269186419824441 
1409	-0.223803947928052 
1410	 9.77644260622477E-02 
1411	 0.114604818952263 
1412	 5.9007898238286E-03 
1413	-2.08104766421932E-03 
1414	-1.87300411532663E-02 
1415	-2.54535841702943E-02 
1416	-4.99702243714646E-03 
1417	-1.96524464471638E-02 
1418	-5.85379585333562E-02 
1419	-4.10254771553805E-02 
1420	-2.02323722077253E-02 
1421	-1.15920570860293E-02 
1422	 1.15746995890377E-02 
1423	 2.63502509321098E-02 
1424	 3.29167979003672E-02 
1425	 0.031103605846058 
1426	 0.032179485367457 
1427	 0.02715951660643 
1428	 9.90767310590144E-03 
1429	 8.86084011693443E-03 
1430	 1.52920452767056E-02 
1431	 0.013369209512142 
1432	 1.06781071467657E-02 
1433	 1.18003923572422E-02 
1434	 1.19761293681959E-02 
1435	 1.38470539163868E-02 
1436	 2.94342942847092E-02 
1437	 2.62567320325697E-02 
1438	 1.52834241202713E-02 
1439	 0.010239031788317 
1440	 4.26241616395594E-03 
1441	 5.80770471233076E-03 
1442	 1.45053919817125E-02 
1443	 1.09621103528549E-02 
1444	 3.41479846084246E-03 
1445	 3.70275715943516E-03 
1446	 5.35740357789792E-03 
1447	 9.69532129757778E-03 
1448	 1.46815307898748E-02 
1449	 1.25803171070769E-02 
1450	 7.23567625060783E-03 
1451	 7.42397982103074E-03 
1452	 1.15931013814701E-02 
1453	 1.18329948278283E-02 
1454	 1.13082483828163E-02 
1455	 1.11142148749512E-02 
1456	 1.11944280904329E-02 
1457	 9.45777261037683E-03 
1458	 9.37785028994661E-03 
1459	 1.08019718803333E-02 
1460	 1.10640743089388E-02 
1461	 1.08442206161512E-02 
1462	 1.10521077947477E-02 
1463	 1.18693036608106E-02 
1464	 1.22682193363933E-02 
1465	 1.17639735016254E-02 
1466	 1.16655385150861E-02 
1467	 1.27443319185601E-02 
1468	 1.20528597848448E-02 
1469	 9.65674569473247E-03 
1470	 9.2887054290067E-03 
1471	 8.58371671180356E-03 
1472	 8.81783794251096E-03 
1473	 1.14063933771825E-02 
1474	 0.011584410948987 
1475	 1.04312463622621E-02 
1476	 1.03432299287829E-02 
1477	 1.05062983341158E-02 
1478	 1.00928489184249E-02 
1479	 9.31372410710301E-03 
1480	 9.48850568476271E-03 
1481	 9.47208664094606E-03 
1482	 9.7202309470078E-03 
1483	 1.12001873171621E-02 
1484	 1.14560298545875E-02 
1485	 1.04574581118716E-02 
1486	 1.07718476213265E-02 
1487	 1.13910444512531E-02 
1488	 1.20579908376349E-02 
1489	 0.013361816827879 
1490	 1.37937534058014E-02 
1491	 1.37716838882779E-02 
1492	 1.38735977632822E-02 
1493	 1.39187560915207E-02 
1494	 1.39075555789753E-02 
1495	 1.37721610884643E-02 
1496	 1.38603111193635E-02 
1497	 1.38346381605346E-02 
1498	 1.40350458627653E-02 
1499	 1.48007572211534E-02 
1500	 1.49855535733836E-02 
1501	 1.46516248573709E-02 
1502	 1.48352696724897E-02 
1503	 1.53199709522799E-02 
1504	 1.53821859184724E-02 
1505	 1.54359197732648E-02 
1506	 1.55441268806681E-02 
1507	 1.58037237717608E-02 
1508	 1.55654461920127E-02 
1509	 1.52611212726443E-02 
1510	 1.56509999659182E-02 
1511	 1.60984408958597E-02 
1512	 0.016016175950506 
1513	 1.59706624829538E-02 
1514	 1.63155478213029E-02 
1515	 1.63244187314584E-02 
1516	 1.60360243053164E-02 
1517	 1.61520302796812E-02 
1518	 1.62559525709692E-02 
1519	 1.61564038199977E-02 
1520	 1.64025175499598E-02 
1521	 1.68077562592423E-02 
1522	 0.016924895321074 
1523	 1.66875951777673E-02 
1524	 0.016455676609879 
1525	 1.66958632750665E-02 
1526	 1.69869820460034E-02 
1527	 1.69802999831579E-02 
1528	 1.70406421306624E-02 
1529	 1.71460170980411E-02 
1530	 0.017094597038955 
1531	 1.71411357129862E-02 
1532	 1.74607707157032E-02 
1533	 1.74975636887461E-02 
1534	 1.72017484322014E-02 
1535	 0.017236277449695 
1536	 1.73050568346317E-02 
1537	 1.71205071051023E-02 
1538	 1.71210848957701E-02 
1539	 1.72734658158752E-02 
1540	 1.72930176924215E-02 
1541	 1.72865396041015E-02 
1542	 1.74091643928602E-02 
1543	 1.75645378469169E-02 
1544	 1.76495569935639E-02 
1545	 1.76565157135836E-02 
1546	 1.77157622209779E-02 
1547	 0.017767408348121 
1548	 0.017670030231181 
1549	 0.017693008258327 
1550	 0.017768453540352 
1551	 1.77312054616887E-02 
1552	 1.77106923641001E-02 
1553	 1.76993676855571E-02 
1554	 1.76847440144457E-02 
1555	 1.76800348651324E-02 
1556	 1.77233114970822E-02 
1557	 1.78012553112248E-02 
1558	 1.77664489915911E-02 
1559	 1.75521152352976E-02 
1560	 1.75776203830298E-02 
1561	 0.017760331892873 
1562	 1.77132522410115E-02 
1563	 1.76960633333494E-02 
1564	 1.76680893842049E-02 
1565	 1.76483984429066E-02 
1566	 1.77812962209537E-02 
1567	 1.78596299827535E-02 
1568	 1.77995406221542E-02 
1569	 1.76802253873434E-02 
1570	 1.75943323060937E-02 
1571	 1.75537329104138E-02 
1572	 1.75811327931027E-02 
1573	 1.77164118642252E-02 
1574	 1.77556428531729E-02 
1575	 1.77916524820059E-02 
1576	 1.80064026747441E-02 
1577	 1.80301085959201E-02 
1578	 1.79186705640169E-02 
1579	 1.78123242635338E-02 
1580	 1.76811021825541E-02 
1581	 1.77647228546848E-02 
1582	 1.79453033240541E-02 
1583	 1.80053807379715E-02 
1584	 1.80059323188554E-02 
1585	 0.018002348173313 
1586	 1.79562254919738E-02 
1587	 1.80820197368148E-02 
1588	 1.82031385525314E-02 
1589	 1.80361635979435E-02 
1590	 1.79788531581306E-02 
1591	 1.78943533874702E-02 
1592	 1.77960416011694E-02 
1593	 1.80477616577313E-02 
1594	 1.80792620944716E-02 
1595	 0.017807306336494 
1596	 1.78032591330931E-02 
1597	 1.79436377170644E-02 
1598	 1.78793163510632E-02 
1599	 1.78180749517428E-02 
1600	 1.80324548340696E-02 
1601	 0.017933414382692 
1602	 1.76565771084646E-02 
1603	 1.79493314859869E-02 
1604	 1.80646347817839E-02 
1605	 1.77371908431258E-02 
1606	 1.78017186585461E-02 
1607	 0.018120076320165 
1608	 1.80559737703944E-02 
1609	 1.78995165567876E-02 
1610	 1.80734805744671E-02 
1611	 1.80475884365211E-02 
1612	 1.78124778324569E-02 
1613	 1.80129464019986E-02 
1614	 1.82236064286296E-02 
1615	 1.80650385722647E-02 
1616	 1.80369114169886E-02 
1617	 1.81012906472604E-02 
1618	 1.79753539659586E-02 
1619	 1.77490379866448E-02 
1620	 1.77595539678696E-02 
1621	 1.81290795027777E-02 
1622	 1.82215667038763E-02 
1623	 1.79943982074694E-02 
1624	 1.80708808030042E-02 
1625	 1.80542956034535E-02 
1626	 1.78859938627593E-02 
1627	 1.81059075445036E-02 
1628	 1.83032345849638E-02 
1629	 1.82644207827482E-02 
1630	 1.82495473046419E-02 
1631	 1.82831037128735E-02 
1632	 0.018173242193866 
1633	 1.79976308213562E-02 
1634	 1.80287579434675E-02 
1635	 1.82059255987678E-02 
1636	 1.82795186276807E-02 
1637	 1.81007029874247E-02 
1638	 1.79962124395345E-02 
1639	 1.80250905385401E-02 
1640	 1.80342334722949E-02 
1641	 1.82441509065762E-02 
1642	 1.82948692260778E-02 
1643	 1.79254519647585E-02 
1644	 1.78586155907275E-02 
1645	 1.82661439556943E-02 
1646	 1.84814957899946E-02 
1647	 1.84386028901339E-02 
1648	 1.83890301746869E-02 
1649	 1.80377414685574E-02 
1650	 1.77684621995029E-02 
1651	 1.79999890174793E-02 
1652	 1.80980185860267E-02 
1653	 1.79796518710656E-02 
1654	 1.79764582715268E-02 
1655	 0.018181289210418 
1656	 1.81695680070525E-02 
1657	 1.78381747539168E-02 
1658	 1.77546344747085E-02 
1659	 1.77804255571751E-02 
1660	 1.78333332957553E-02 
1661	 1.81042185761294E-02 
1662	 1.80619916698117E-02 
1663	 1.78077065740987E-02 
1664	 1.78782400359328E-02 
1665	 1.79045425827305E-02 
1666	 1.80064925671429E-02 
1667	 1.84464606747283E-02 
1668	 1.83778463637645E-02 
1669	 1.82449166486058E-02 
1670	 1.80886060475582E-02 
1671	 1.78780664501263E-02 
1672	 1.76054477637501E-02 
1673	 1.74452148780289E-02 
1674	 1.78121281777518E-02 
1675	 1.80019775834934E-02 
1676	 1.74191671090834E-02 
1677	 1.74983810212076E-02 
1678	 1.80779491064543E-02 
1679	 1.79442036001698E-02 
1680	 1.77819575423081E-02 
1681	 1.78342507542285E-02 
1682	 1.77268208450961E-02 
1683	 1.76658016853977E-02 
1684	 1.78040939652762E-02 
1685	 1.80585829317316E-02 
1686	 1.81353029321888E-02 
1687	 1.80452117986878E-02 
1688	 1.80295582556162E-02 
1689	 1.77717633213905E-02 
1690	 1.74116326330652E-02 
1691	 1.75631379068271E-02 
1692	 1.78003309740617E-02 
1693	 1.76863763307452E-02 
1694	 1.75382743030088E-02 
1695	 1.73027600880606E-02 
1696	 1.70702671085664E-02 
1697	 1.74118929821278E-02 
1698	 0.017812673023883 
1699	 1.77624649375413E-02 
1700	 1.79169177420457E-02 
1701	 1.79516095198666E-02 
1702	 0.017566691210266 
1703	 1.75092437446824E-02 
1704	 1.75125777520236E-02 
1705	 1.74898445643567E-02 
1706	 1.77200570758418E-02 
1707	 1.76019303272686E-02 
1708	 1.72129755888057E-02 
1709	 1.72037839413777E-02 
1710	 1.73310190680317E-02 
1711	 1.70789069557892E-02 
1712	 1.68307265646176E-02 
1713	 1.67086539818083E-02 
1714	 1.68829347201468E-02 
1715	 1.76542127468735E-02 
1716	 0.017537255101448 
1717	 1.73984510214596E-02 
1718	 1.72452099142204E-02 
1719	 1.70872307712991E-02 
1720	 1.70885158081269E-02 
1721	 1.74882676252375E-02 
1722	 0.017489196569827 
1723	 1.72859809094374E-02 
1724	 1.74166231755272E-02 
1725	 1.71022594816246E-02 
1726	 1.70183868246835E-02 
1727	 0.017227560294488 
1728	 1.71271054646543E-02 
1729	 1.73387095894383E-02 
1730	 1.73972463127656E-02 
1731	 1.71109166555392E-02 
1732	 1.71036983367512E-02 
1733	 0.017064613496477 
1734	 1.67343909955462E-02 
1735	 1.65593991965343E-02 
1736	 1.66951283725317E-02 
1737	 1.68315289618693E-02 
1738	 1.68795046718045E-02 
1739	 1.67718969272857E-02 
1740	 1.65524030602484E-02 
1741	 1.63820021925937E-02 
1742	 1.64573440414249E-02 
1743	 1.66330464288508E-02 
1744	 1.66237981287107E-02 
1745	 1.65673193596222E-02 
1746	 0.015989430254439 
1747	 1.58130258468152E-02 
1748	 0.016070374071148 
1749	 1.59569601666352E-02 
1750	 1.57268745956711E-02 
1751	 1.56886481729716E-02 
1752	 1.53867686984984E-02 
1753	 1.54257293387885E-02 
1754	 1.61980325061398E-02 
1755	 1.61473603794002E-02 
1756	 0.015454821031814 
1757	 1.49951342303456E-02 
1758	 1.50221235892628E-02 
1759	 1.55114429742852E-02 
1760	 1.62704927459172E-02 
1761	 1.61939131205332E-02 
1762	 1.55182650821459E-02 
1763	 1.48018153774792E-02 
1764	 0.014211437187222 
1765	 1.44635911205626E-02 
1766	 1.42940277625616E-02 
1767	 1.32998208946916E-02 
1768	 1.34890619895871E-02 
1769	 1.43708381409983E-02 
1770	 1.41036458930588E-02 
1771	 1.41929546139056E-02 
1772	 1.51902915202204E-02 
1773	 1.46394290429856E-02 
1774	 1.41901603550831E-02 
1775	 1.47895464796089E-02 
1776	 1.41996751547884E-02 
1777	 1.27496248684686E-02 
1778	 1.28097035225684E-02 
1779	 1.28405131158991E-02 
1780	 1.30586277686725E-02 
1781	 1.55130523537695E-02 
1782	 1.52067382059766E-02 
1783	 1.27772821107921E-02 
1784	 1.22171852873895E-02 
1785	 1.01737612519612E-02 
1786	 1.01246426831772E-02 
1787	 1.33372095905154E-02 
1788	 1.28887693467357E-02 
1789	 1.13450488165848E-02 
1790	 1.17956861872034E-02 
1791	 1.16301898743245E-02 
1792	 1.69838725707228E-02 
1793	 1.67919576832222E-02 
1794	 1.21546418439239E-02 
1795	 1.03603487788593E-02 
1796	 6.6259586693984E-03 
1797	 7.7015228709447E-03 
1798	 1.37533582996743E-02 
1799	 1.26006613792594E-02 
1800	 7.06499934262277E-03 
1801	 4.65606548617682E-03 
1802	 1.24061815022692E-03 
1803	 4.30687751169351E-03 
1804	 2.94546144820478E-02 
1805	 3.29574191170851E-02 
1806	 4.01945648119985E-03 
1807	 1.85374841270026E-03 
1808	-2.15127795710101E-03 
1809	-4.49441786810196E-03 
1810	 9.45089097683259E-02 
1811	 0.148226836781595 
1812	 6.50425917632016E-02 
1813	 4.10751584685649E-02 
1814	 2.81496772772477E-02 
1815	 9.04134327830075E-02 
1816	 0.269764081524603 
1817	 0.431239390930931 
1818	 0.423097123738549 
1819	 0.05037580340902 
1820	-0.203056328199611 
1821	-0.569361568015955 
1822	-0.635350862182481 
1823	-0.221068857098312 
1824	-7.88557809480442E-02 
1825	 0.314312914742302 
1826	 0.365580041646016 
1827	 0.035625931354165 
1828	-0.258442474440782 
1829	 1.53583996534084 
1830	 2.29906614179125 
1831	-0.518725624556794 
1832	-0.417275078413681 
1833	 0.407136649780992 
1834	 2.8237940590891 
1835	-14.0073576362701 
1836	-27.5799824036655 
1837	 1.07205518336206 
1838	 0.798064746774795 
1839	 2.13658987471665 
1840	 0.172984543231738 
1841	 0.71516355863356 
1842	 1.28155202204842 
1843	 1.0443006444658 
1844	 0.868044858691979 
1845	 1.02168597925365 
1846	 0.141096446016437 
1847	-0.595248871801214 
1848	-3.67190168623577 
1849	 0.874189606010428 
1850	 2.24710175045277 
1851	 6.89587836013365 
1852	 1.28244248736045 
1853	 1.5737963724846 
1854	-1.97499635978984 
1855	-1.55791846467742 
1856	-0.972528633044663 
1857	-0.255711750125886 
1858	-0.21865283716438 
1859	-0.260806819230965 
1860	 1.85513949670632 
1861	 0.385425783157312 
1862	 0.193487476766772 
1863	 1.00638323769637 
1864	-0.623197890184179 
1865	-0.973281141456493 
1866	-2.76613972234216 
1867	-5.98769324200214 
1868	-2.36074473552109 
1869	-1.25727940879781 
1870	-0.28461489447115 
1871	-3.16681247986517E-03 
1872	 0.616837351710516 
1873	 0.547203865797903 
1874	-4.77010734400269 
1875	 5.75534484338503 
1876	 7.74007061762575 
1877	-4.2972898799686 
1878	-3.05176629084269 
1879	-1.45619230119167 
1880	-1.47839820736287 
1881	-12.1722734141462 
1882	 24.9877638891692 
1883	 3.68116512984591 
1884	-110.70773107595 
1885	-1.24195893687798 
1886	-3.30215695244674 
1887	-194.404195889369 
1888	 371.825353337088 
1889	-18.4777956457855 
1890	-2.42547066215486 
1891	-1.93949618624892 
1892	-1.73361535435173 
1893	-2.3682082053987 
1894	-1.50936586098319 
1895	-1.66371618657319 
1896	-0.734600964914597 
1897	-0.372717755743494 
1898	-0.835854328434542 
1899	-0.186368327292275 
1900	 0.401809655545447 
1901	 0.149046449103992 
1902	 0.410626119290107 
1903	-0.10137435168803 
1904	-0.581034169891271 
1905	-0.482549323040793 
1906	-0.140396377283841 
1907	-0.312897747738408 
1908	-0.67919933049628 
1909	 2.55359063867249E-02 
1910	 0.181402149741296 
1911	 5.97047895688273E-02 
1912	-1.60931273443631E-02 
1913	 0.168346411920319 
1914	 35.9868572646565 
1915	-2.45383945398098 
1916	-1.02191208493984 
1917	-2.0075218840817 
1918	-0.80812236023333 
1919	-0.514153083767786 
1920	 6.29435405630519 
1921	 11.3616973468102 
1922	 4.76411200690966 
1923	 1.35500647572955 
1924	 0.84447438939498 
1925	 9.92912523118298E-02 
1926	-1.04714563088307E-02 
1927	 0.174552510914615 
1928	 0.287962309691045 
1929	-0.380103523210101 
1930	-7.28168946553361E-02 
1931	-8.96181252545439E-02 
1932	 2.01737090705323E-02 
1933	-0.236244990332415 
1934	-0.684753181033979 
1935	-0.164219390198574 
1936	-6.00924005044266E-02 
1937	-0.122862985307911 
1938	-4.53423980436505E-02 
1939	-4.50546950417888E-02 
1940	-9.65469141981097E-02 
1941	-0.056854195427653 
1942	 1.55654047324932E-02 
1943	-3.23254731994452E-02 
1944	-5.27593931799671E-02 
1945	-9.02606399913967E-02 
1946	-0.176173362663048 
1947	-0.164586556169646 
1948	-0.102057586272232 
1949	-7.23798488650125E-02 
1950	-2.36001949798869E-02 
1951	 8.83100357240413E-03 
1952	 0.017200647757978 
1953	-4.25337903159145E-03 
1954	-9.30865161525069E-03 
1955	-2.11593772768952E-02 
1956	-1.44741969373195E-02 
1957	 9.52082907431524E-03 
1958	 1.69849071255595E-02 
1959	 2.91993987539156E-02 
1960	 3.06653578744787E-02 
1961	 1.28220857495692E-02 
1962	 3.26177723856035E-03 
1963	 2.69254702187495E-03 
1964	 2.19478952458495E-03 
1965	 2.01503355114308E-03 
1966	 2.61444753972537E-03 
1967	 4.59159927863001E-03 
1968	 5.06873721431017E-03 
1969	 4.94287131769536E-03 
1970	 6.38079226996328E-03 
1971	 7.14932056719925E-03 
1972	 6.31734280255083E-03 
1973	 6.00583250810313E-03 
1974	 7.2662681843019E-03 
1975	 9.07303373003711E-03 
1976	 9.70334024813932E-03 
1977	 1.03371156882515E-02 
1978	 1.03859597235017E-02 
1979	 1.02827081609062E-02 
1980	 9.61245565369874E-03 
1981	 9.80280662948491E-03 
1982	 9.53103445533771E-03 
1983	 9.38704304859938E-03 
1984	 9.44597166751206E-03 
1985	 9.60815153190993E-03 
1986	 9.82637481262474E-03 
1987	 1.03630507476005E-02 
1988	 1.08196627353707E-02 
1989	 1.01325173751387E-02 
1990	 9.32542433375564E-03 
1991	 9.20766752461582E-03 
1992	 9.38967762457329E-03 
1993	 9.98461319654347E-03 
1994	 1.01015604550474E-02 
1995	 1.09063208752815E-02 
1996	 1.02582830787713E-02 
1997	 9.75328125737019E-03 
1998	 9.7585626759678E-03 
1999	 1.02086834196651E-02 
2000	 1.17174181269238E-02 
2001	 1.11457332210791E-02 
2002	 1.02297338538327E-02 
2003	 1.09486264000936E-02 
2004	 9.07298365761217E-03 
2005	 7.13265551653392E-03 
2006	 9.93702410355091E-03 
2007	 1.22743453278935E-02 
2008	 1.27837298131004E-02 
2009	 1.27892255554661E-02 
2010	 1.10755079166044E-02 
2011	 9.7982974699429E-03 
2012	 6.73850737579165E-03 
2013	 7.85445431377652E-03 
2014	 9.18650825887309E-03 
2015	 1.04066542162627E-02 
2016	 1.22528620586553E-02 
2017	 1.27650643754727E-02 
2018	 1.23047895542397E-02 
2019	 1.30540858028712E-02 
2020	 1.38718733989075E-02 
2021	 1.29766039035608E-02 
2022	 1.19901467429979E-02 
2023	 1.13433160687967E-02 
2024	 1.15902568819532E-02 
2025	 1.25376805145604E-02 
2026	 1.27932046536426E-02 
2027	 1.37136506258059E-02 
2028	 0.013446451416291 
2029	 1.23259944637093E-02 
2030	 1.17752676888435E-02 
2031	 1.17257107108518E-02 
2032	 1.20295440122921E-02 
2033	 1.27528782535041E-02 
2034	 1.25753263975333E-02 
2035	 1.27339233493998E-02 
2036	 1.37038758124948E-02 
2037	 1.40651810639324E-02 
2038	 1.35761945312421E-02 
2039	 1.32841372094703E-02 
2040	 1.24512966297313E-02 
2041	 1.21394932601086E-02 
2042	 1.20040938241477E-02 
2043	 1.21038680039915E-02 
2044	 1.25914062935754E-02 
2045	 1.26354318640114E-02 
2046	 1.29015202011096E-02 
2047	 1.32602864258741E-02 
2048	 1.45029449078487E-02 
2049	 1.50833758599608E-02 
2050	 1.38069661757774E-02 
2051	 1.40056388095026E-02 
2052	 1.43162490143967E-02 
2053	 1.31382783818698E-02 
2054	 0.013959829086119 
2055	 1.53637007857261E-02 
2056	 1.52834514146528E-02 
2057	 1.35003793660247E-02 
2058	 0.013283788651741 
2059	 0.012871603874383 
2060	 1.27843895522991E-02 
2061	 0.013360256656961 
2062	 1.43560775345272E-02 
2063	 1.50617940885147E-02 
2064	 1.53258441621131E-02 
2065	 1.45484579698208E-02 
2066	 1.42521458321431E-02 
2067	 0.01366665046222 
2068	 1.25884675673021E-02 
2069	 1.24853111369011E-02 
2070	 1.22851850432559E-02 
2071	 1.17071591493925E-02 
2072	 1.17733881186559E-02 
2073	 1.20729088290743E-02 
2074	 0.013021003116837 
2075	 1.30555174697467E-02 
2076	 1.24421947550292E-02 
2077	 1.27594252274023E-02 
2078	 1.33975554203205E-02 
2079	 1.35329237587314E-02 
2080	 1.37760297258153E-02 
2081	 1.49345033880973E-02 
2082	 1.47537223781089E-02 
2083	 1.35652538673408E-02 
2084	 1.35301661535823E-02 
2085	 1.33520937336736E-02 
2086	 1.34343332431889E-02 
2087	 1.44682009392153E-02 
2088	 1.47790439445493E-02 
2089	 0.014775210718361 
2090	 1.51411179847992E-02 
2091	 0.014670292297312 
2092	 1.41947420237921E-02 
2093	 1.35852980494269E-02 
2094	 1.36960163452585E-02 
2095	 1.38695814376477E-02 
2096	 1.38806166864664E-02 
2097	 1.46411874561199E-02 
2098	 1.49954423469035E-02 
2099	 1.49269509926613E-02 
2100	 1.42902513387524E-02 
2101	 1.44634854305806E-02 
2102	 1.48460886867237E-02 
2103	 1.40664432100733E-02 
2104	 1.37411359636511E-02 
2105	 1.40382255914678E-02 
2106	 1.39288162695584E-02 
2107	 1.43103502921076E-02 
2108	 1.49505282265487E-02 
2109	 0.01494519067474 
2110	 1.44600840727822E-02 
2111	 1.44133708471325E-02 
2112	 1.44676846370647E-02 
2113	 1.46386781043472E-02 
2114	 1.58065913097036E-02 
2115	 1.57997255525626E-02 
2116	 0.014541612901325 
2117	 1.43740789799692E-02 
2118	 1.41019233941341E-02 
2119	 1.40205310683485E-02 
2120	 1.44820875309044E-02 
2121	 1.55867193884571E-02 
2122	 1.56211696690078E-02 
2123	 1.51910697144119E-02 
2124	 1.57972772468546E-02 
2125	 1.59433192985043E-02 
2126	 1.55421104592519E-02 
2127	 1.60770652987856E-02 
2128	 1.59122155104861E-02 
2129	 0.015344175645544 
2130	 1.55442055133881E-02 
2131	 1.58762317133947E-02 
2132	 1.54939327139604E-02 
2133	 1.53713873782113E-02 
2134	 1.52740221545154E-02 
2135	 1.50084357474957E-02 
2136	 0.014673468131349 
2137	 1.44209527904145E-02 
2138	 1.44374169049241E-02 
2139	 1.43189541548675E-02 
2140	 1.45985915801221E-02 
2141	 1.55154486371885E-02 
2142	 1.58613805607131E-02 
2143	 1.57173806966894E-02 
2144	 1.67204775142893E-02 
2145	 0.017523455426476 
2146	 1.74221818364424E-02 
2147	 1.73423712773369E-02 
2148	 1.70211019430188E-02 
2149	 1.60181108833032E-02 
2150	 1.56197519761614E-02 
2151	 1.58372395689497E-02 
2152	 1.57431421344299E-02 
2153	 1.56425481957616E-02 
2154	 1.53596935847967E-02 
2155	 1.51957612843985E-02 
2156	 1.55191374974456E-02 
2157	 1.56110596469727E-02 
2158	 1.59379002161927E-02 
2159	 1.57273646276663E-02 
2160	 1.48995856624736E-02 
2161	 1.48661947691468E-02 
2162	 1.50700137136567E-02 
2163	 1.50978010185352E-02 
2164	 1.58123144638307E-02 
2165	 1.55964260971363E-02 
2166	 1.43067518863073E-02 
2167	 1.40023622660575E-02 
2168	 1.38211383280883E-02 
2169	 1.37685212397212E-02 
2170	 1.44444925048919E-02 
2171	 1.47201887251772E-02 
2172	 1.33747703313222E-02 
2173	 1.23224692215134E-02 
2174	 1.24581385705575E-02 
2175	 1.22428934833705E-02 
2176	 1.28841102483544E-02 
2177	 1.35420335180012E-02 
2178	 1.27054979460062E-02 
2179	 0.012309535590596 
2180	 1.22016537984426E-02 
2181	 0.013022286604359 
2182	 1.39289886187172E-02 
2183	 1.36486831449682E-02 
2184	 1.33309057890827E-02 
2185	 1.28890846778134E-02 
2186	 0.013039579174052 
2187	 1.36107267278812E-02 
2188	 1.35636272488939E-02 
2189	 1.37856960764539E-02 
2190	 1.40075908603253E-02 
2191	 1.40771537538561E-02 
2192	 1.39959747072027E-02 
2193	 1.32819877606139E-02 
2194	 1.35041262948491E-02 
2195	 1.47607569096897E-02 
2196	 1.43817166697768E-02 
2197	 1.33655732423552E-02 
2198	 0.013628100707176 
2199	 1.39845088975252E-02 
2200	 1.23836006357675E-02 
2201	 1.26790219971184E-02 
2202	 1.34961178518631E-02 
2203	 1.23569328379001E-02 
2204	 0.012713100051958 
2205	 0.01353319725501 
2206	 0.01341431063408 
2207	 1.35272580057082E-02 
2208	 0.012140988511784 
2209	 0.010676795958273 
2210	 1.14454617716965E-02 
2211	 1.21712253093876E-02 
2212	 1.27973093996283E-02 
2213	 1.35361420323959E-02 
2214	 1.33095786774041E-02 
2215	 1.35800826183508E-02 
2216	 1.43840426183962E-02 
2217	 1.45585839439415E-02 
2218	 0.015315959125626 
2219	 1.50572709551757E-02 
2220	 1.30288738894529E-02 
2221	 1.28362859024933E-02 
2222	 1.34473456391237E-02 
2223	 1.34294525743717E-02 
2224	 1.40148141415675E-02 
2225	 1.45251350377652E-02 
2226	 1.45413220261476E-02 
2227	 1.46718885794715E-02 
2228	 1.57089479871341E-02 
2229	 1.56205015479198E-02 
2230	 1.39379100446084E-02 
2231	 1.37709925795231E-02 
2232	 1.45248876148071E-02 
2233	 1.40794362175422E-02 
2234	 1.36529396982223E-02 
2235	 1.26871005688602E-02 
2236	 1.21211332161643E-02 
2237	 1.35264647846385E-02 
2238	 1.50543418350566E-02 
2239	 1.57705864634099E-02 
2240	 1.57127854833405E-02 
2241	 1.46151467521517E-02 
2242	 1.42078225234733E-02 
2243	 1.38221563228432E-02 
2244	 1.14722302265446E-02 
2245	 1.00049726682346E-02 
2246	 1.00164400310238E-02 
2247	 1.07728311823106E-02 
2248	 1.34934337028028E-02 
2249	 1.46934363745266E-02 
2250	 1.42766274908179E-02 
2251	 1.49479094079263E-02 
2252	 1.54481786914716E-02 
2253	 1.61593490449824E-02 
2254	 1.56939284252055E-02 
2255	 1.46452501752661E-02 
2256	 0.013288656917971 
2257	 9.8387120253086E-03 
2258	 7.99446731352347E-03 
2259	 6.70517150212565E-03 
2260	 6.5978131353057E-03 
2261	 9.40936068936448E-03 
2262	 1.02589126170682E-02 
2263	 1.05586968639043E-02 
2264	 1.16922283558149E-02 
2265	 0.012225197968409 
2266	 0.012395214187448 
2267	 1.33930365398045E-02 
2268	 1.40659873139947E-02 
2269	 1.44284513237178E-02 
2270	 0.014204926676158 
2271	 0.013223834987406 
2272	 1.33289787151324E-02 
2273	 1.35063512306955E-02 
2274	 1.29785445982276E-02 
2275	 1.34189926365118E-02 
2276	 1.34155138580851E-02 
2277	 1.15731363085826E-02 
2278	 1.07887334170431E-02 
2279	 1.11134335789738E-02 
2280	 1.06910778315204E-02 
2281	 9.58972225013719E-03 
2282	 9.6378581269738E-03 
2283	 8.91572562263617E-03 
2284	 8.87719397656127E-03 
2285	 1.04409501634383E-02 
2286	 1.14095665786651E-02 
2287	 1.23927816195702E-02 
2288	 1.37539078292297E-02 
2289	 1.15031649538281E-02 
2290	 8.54239275050821E-03 
2291	 4.95177409151062E-03 
2292	 3.45922122416938E-03 
2293	 5.87198629173305E-03 
2294	 5.36990820833822E-03 
2295	 7.58519352243308E-03 
2296	 9.88093643325119E-03 
2297	 8.3132624175895E-03 
2298	 8.96758721402033E-03 
2299	 8.40443739861425E-03 
2300	 6.80532017536611E-03 
2301	 9.55058430485545E-03 
2302	 1.29241918583605E-02 
2303	 1.33519573309528E-02 
2304	 1.39427187055391E-02 
2305	 0.011839540815621 
2306	 8.06216863820312E-03 
2307	 6.66314269724623E-03 
2308	 4.30271891406384E-03 
2309	 3.84751624440391E-03 
2310	 5.96992871546664E-03 
2311	 7.62781226087574E-03 
2312	 9.46312467395991E-03 
2313	 9.82541009230658E-03 
2314	 9.23227349172881E-03 
2315	 1.07943616059709E-02 
2316	 1.34359200156019E-02 
2317	 1.33683057269788E-02 
2318	 9.56895271026411E-03 
2319	 7.03408839602802E-03 
2320	 4.64129470052354E-03 
2321	 2.57236580786663E-03 
2322	 5.78119381831806E-03 
2323	 6.36021450952234E-03 
2324	 5.6044885668005E-03 
2325	 4.86214347875331E-03 
2326	 2.45350747083046E-03 
2327	 4.73731685062887E-03 
2328	 8.54905687064043E-03 
2329	 1.14944992790553E-02 
2330	 1.31262427562152E-02 
2331	 1.20460595703497E-02 
2332	 1.21498785940574E-02 
2333	 1.43522337815472E-02 
2334	 1.50321456165799E-02 
2335	 1.54216780869519E-02 
2336	 1.36059750633328E-02 
2337	 9.57356922738248E-03 
2338	 1.02902345694552E-02 
2339	 1.04778192554384E-02 
2340	 1.16656076468554E-02 
2341	 1.59481761695655E-02 
2342	 1.05453230724846E-02 
2343	 9.34467587715763E-05 
2344	-5.45701684448964E-03 
2345	-3.99891251475706E-03 
2346	 2.29824475504875E-03 
2347	 4.10129380494806E-03 
2348	 1.10244369741177E-03 
2349	-3.30181950265243E-03 
2350	-3.54292595611113E-03 
2351	 2.69870784245551E-03 
2352	 9.05851314784865E-03 
2353	 6.39568637541396E-03 
2354	-1.08977278421311E-02 
2355	-0.019531015053087 
2356	-1.31196862438242E-02 
2357	-1.29801083135483E-02 
2358	-3.73152422640911E-03 
2359	 1.43325796522368E-02 
2360	 1.37049519556674E-02 
2361	 5.43782363267835E-03 
2362	 6.27019690439377E-03 
2363	 6.15285298969194E-04 
2364	-1.49450042866674E-02 
2365	-2.15180161190432E-02 
2366	-2.53624382001101E-02 
2367	-2.64820257592784E-02 
2368	-1.92535935530321E-02 
2369	-1.47203827254625E-02 
2370	-0.013261066075372 
2371	-1.12794332627935E-02 
2372	-1.53889081575834E-02 
2373	-8.9019420091746E-03 
2374	 0.001944267332609 
2375	-1.78249897955145E-02 
2376	-2.73775244542736E-02 
2377	-2.49094994915234E-02 
2378	-3.09709013714713E-02 
2379	-2.41488971500381E-02 
2380	-0.027228025897163 
2381	-3.03481254824649E-02 
2382	-2.16707621408033E-02 
2383	-4.02032644153623E-02 
2384	-6.66661845764825E-02 
2385	-5.87152439043932E-02 
2386	-6.09252678170888E-02 
2387	-7.36295159083641E-02 
2388	-0.050018927392851 
2389	-3.34481066477733E-02 
2390	-4.44396122847052E-02 
2391	-1.90175495881224E-02 
2392	 1.95614828072316E-02 
2393	 4.73687285104455E-03 
2394	-2.14975462504161E-02 
2395	-2.80491620102954E-02 
2396	-1.70658807302469E-02 
2397	-2.44772330200476E-02 
2398	-5.29262896804778E-02 
2399	-6.70872601139689E-02 
2400	-8.81321355447716E-02 
2401	-8.70748591385742E-02 
2402	-4.96706255002626E-02 
2403	-3.57747253877281E-03 
2404	 1.70144192212635E-02 
2405	-1.08657631478204E-02 
2406	-2.94484748077443E-02 
2407	-5.60120382412569E-02 
2408	-0.100586697320366 
2409	-9.58414381516415E-02 
2410	-4.35229469105924E-02 
2411	-0.041129133568596 
2412	-8.36637624935314E-02 
2413	-9.61000577321409E-02 
2414	-8.25123884380206E-02 
2415	 2.66312666389457E-02 
2416	 9.07940595208081E-02 
2417	 1.93655724507941E-03 
2418	-8.68940128216307E-03 
2419	-6.99085222338796E-02 
2420	-0.130343417461113 
2421	-9.53934891536778E-02 
2422	-7.35416101846917E-02 
2423	-0.141841483334322 
2424	-0.19594385059628 
2425	-0.156685471425167 
2426	-0.144112909602769 
2427	-0.174201855558921 
2428	-0.180164060545415 
2429	-0.169949163167265 
2430	-0.165639034116 
2431	-0.177433859342343 
2432	-0.141492144905794 
2433	-0.122396082217746 
2434	-0.245944023805154 
2435	-0.311260264895455 
2436	-0.239985625049622 
2437	-0.203436002802929 
2438	-0.16828031499265 
2439	-0.142116402016217 
2440	-0.18678778842337 
2441	-0.316833251144819 
2442	-0.444692297948084 
2443	-0.378993120963277 
2444	-0.274565373017239 
2445	-0.230952772208771 
2446	-0.195252995463542 
2447	-0.249321258882879 
2448	-0.326054201241659 
2449	-0.443472601858524 
2450	-0.398575336218485 
2451	-0.225087183243459 
2452	-7.52593328288249E-02 
2453	-0.104615870408394 
2454	-0.241352088328067 
2455	-0.343377188314603 
2456	-0.254069439842721 
2457	 0.229643751783148 
2458	 0.251422303010301 
2459	 7.61517034456408E-02 
2460	 3.58834524403424E-02 
2461	-0.390109056926068 
2462	-0.563072480936564 
2463	-0.394090259448329 
2464	-0.915856640901975 
2465	-0.926968985612548 
2466	-0.445742694234955 
2467	-0.291103677495351 
2468	-0.174902770881198 
2469	-0.264033067190087 
2470	-0.687292439343977 
2471	-0.892782810285829 
2472	-0.454727089185515 
2473	 0.286871096197226 
2474	-0.424313290247435 
2475	-1.31536455702545 
2476	-4.05873520444975 
2477	 3.13203970754227 
2478	 0.818268508970597 
2479	 0.246159327577821 
2480	 0.347917658763171 
2481	 0.819987184735539 
2482	 1.33905116671574 
2483	 1.91363259792897 
2484	 3.39818353435246 
2485	 2.18987835343472 
2486	 1.77181806766592 
2487	 1.27659493609571 
2488	 0.397369563069048 
2489	 0.909710921373365 
2490	 0.944083157006181 
2491	 1.42606797878419 
2492	-2.216735983219 
2493	-8.05284585592631 
2494	-4.07435006908983 
2495	-5.74231525435225 
2496	 23.3294389215992 
2497	-4.8701979656437 
2498	 10.8284722003287 
2499	 1.77056625543819 
2500	 1.35729792955621 
