Wavelength	rt0713east_far200008.asd
350	 0.11970084209014 
351	 0.119747314998674 
352	 0.119111944882586 
353	 0.118956953091231 
354	 0.11939380350724 
355	 0.117871175898748 
356	 0.117604568786404 
357	 0.118259822662864 
358	 0.118534939626962 
359	 0.11828867200922 
360	 0.117759930253243 
361	 0.117351492938165 
362	 0.117450274979468 
363	 0.117421991117074 
364	 0.11714224266869 
365	 0.116839260559114 
366	 0.117167482465992 
367	 0.116879302255461 
368	 0.116765218913355 
369	 0.117431569486296 
370	 0.116833200270885 
371	 0.116634566122474 
372	 0.117028470925318 
373	 0.117262608986324 
374	 0.116794625139033 
375	 0.116715429871397 
376	 0.117173307360626 
377	 0.116831773820961 
378	 0.11679072849815 
379	 0.116778507626216 
380	 0.116482563347655 
381	 0.116435681908973 
382	 0.116734120986003 
383	 0.11717797037437 
384	 0.117394769369155 
385	 0.116992881941402 
386	 0.117005126486746 
387	 0.117418532418494 
388	 0.117017198144092 
389	 0.117328203823963 
390	 0.117757907292848 
391	 0.117707988971204 
392	 0.117577346510156 
393	 0.117493161511785 
394	 0.117559719282514 
395	 0.11776507138612 
396	 0.117659991883747 
397	 0.117772506011152 
398	 0.118053472576177 
399	 0.117954119565465 
400	 0.117719208118239 
401	 0.117775060904653 
402	 0.118164630658753 
403	 0.118029511721302 
404	 0.118168398288892 
405	 0.118401837352566 
406	 0.11832976158276 
407	 0.118528257165762 
408	 0.118568581143172 
409	 0.118429800645858 
410	 0.1185251829405 
411	 0.11863778447167 
412	 0.118725173615114 
413	 0.118793957523984 
414	 0.118875708456435 
415	 0.119117247455155 
416	 0.119347005164952 
417	 0.119363629984828 
418	 0.119653516863809 
419	 0.119895396454746 
420	 0.119981725043129 
421	 0.120094715018042 
422	 0.120299358442781 
423	 0.120498865491419 
424	 0.120667862134646 
425	 0.121108039278088 
426	 0.121436542367469 
427	 0.121685469517672 
428	 0.122039488266585 
429	 0.122178578843144 
430	 0.122451608668328 
431	 0.122842777525531 
432	 0.122855218324203 
433	 0.123206282137578 
434	 0.123689833940555 
435	 0.124005965099832 
436	 0.124197017102825 
437	 0.124502448688646 
438	 0.124921957332257 
439	 0.12530645823537 
440	 0.125522094354475 
441	 0.125812132099581 
442	 0.12623389610022 
443	 0.126515887004642 
444	 0.126736774451421 
445	 0.126987714608508 
446	 0.127333873436023 
447	 0.127724231928734 
448	 0.12808014144726 
449	 0.128370320262318 
450	 0.128608358349646 
451	 0.12885189816672 
452	 0.129067650125456 
453	 0.129283385380687 
454	 0.129695000227168 
455	 0.129998262006985 
456	 0.130101751668207 
457	 0.130100724143854 
458	 0.130597296610815 
459	 0.130853930215338 
460	 0.130789409961783 
461	 0.131029919627182 
462	 0.131343712208999 
463	 0.13156947040297 
464	 0.131666143546185 
465	 0.131901793375187 
466	 0.132061810423361 
467	 0.132203533380615 
468	 0.132478485949899 
469	 0.13268415294907 
470	 0.132837439939156 
471	 0.13299951157191 
472	 0.13326148753766 
473	 0.133269745473645 
474	 0.133391738067919 
475	 0.133909811307179 
476	 0.13410857575553 
477	 0.134376121237123 
478	 0.134734130459179 
479	 0.134964544287974 
480	 0.135205182445149 
481	 0.13549877092987 
482	 0.135842043002399 
483	 0.136160537907357 
484	 0.136558157051809 
485	 0.136902208391072 
486	 0.13706864878845 
487	 0.137435284250135 
488	 0.137909803074777 
489	 0.138335927847188 
490	 0.138545902119312 
491	 0.138823490557495 
492	 0.139250467591958 
493	 0.139775082952258 
494	 0.140120234341371 
495	 0.140447176158374 
496	 0.140824050617381 
497	 0.14125348336415 
498	 0.141567727452489 
499	 0.141987519830895 
500	 0.14253075300486 
501	 0.142852351524251 
502	 0.142992379744961 
503	 0.143220208812968 
504	 0.143744552925358 
505	 0.144236249414428 
506	 0.144803830955145 
507	 0.145437108971606 
508	 0.14602434195565 
509	 0.146500584657765 
510	 0.146939664443805 
511	 0.147437162243756 
512	 0.14811312747987 
513	 0.148622019036601 
514	 0.149111845548054 
515	 0.149863059057409 
516	 0.15042278138675 
517	 0.150958490240812 
518	 0.151532374846779 
519	 0.152012058812317 
520	 0.152527057262957 
521	 0.153073192698648 
522	 0.153624167949568 
523	 0.154175947718999 
524	 0.154791048521466 
525	 0.155438279868392 
526	 0.156025898997589 
527	 0.156552695908051 
528	 0.15710778284208 
529	 0.15772581235324 
530	 0.158310543192071 
531	 0.15897016061665 
532	 0.159661802017273 
533	 0.160281724182974 
534	 0.160732808764063 
535	 0.161270542541707 
536	 0.16195723727862 
537	 0.1626105892555 
538	 0.163092837150829 
539	 0.163633131765497 
540	 0.164375664787151 
541	 0.164875977388427 
542	 0.165356286723215 
543	 0.165937074696841 
544	 0.166649284719953 
545	 0.167300145864785 
546	 0.167946830511373 
547	 0.168628768573966 
548	 0.169291237328341 
549	 0.169890496150094 
550	 0.170451724388281 
551	 0.171039038447003 
552	 0.171763486519884 
553	 0.172382074112827 
554	 0.172868663076267 
555	 0.173456298973255 
556	 0.174034329946978 
557	 0.174635036646778 
558	 0.175273864014624 
559	 0.175859489039116 
560	 0.17623514197851 
561	 0.176526682663388 
562	 0.177014982804819 
563	 0.177552698554086 
564	 0.178055870017849 
565	 0.178436767816215 
566	 0.178568216264759 
567	 0.178748852492466 
568	 0.179076557719294 
569	 0.17952136713206 
570	 0.179854343968529 
571	 0.180135922976915 
572	 0.180432961677883 
573	 0.18079080017884 
574	 0.180985751273414 
575	 0.181159489731728 
576	 0.181456579054696 
577	 0.181755520134204 
578	 0.181964636698069 
579	 0.182208997915625 
580	 0.182694656695334 
581	 0.183025293032771 
582	 0.183154141230566 
583	 0.183128416863069 
584	 0.183092507316498 
585	 0.182704372016698 
586	 0.181967544557713 
587	 0.181069653116619 
588	 0.180430038563883 
589	 0.180033069843701 
590	 0.17990909542794 
591	 0.180123453389161 
592	 0.180216853051333 
593	 0.180133619265464 
594	 0.179987379980553 
595	 0.180119418349498 
596	 0.180077688045068 
597	 0.179987068446468 
598	 0.180223093454915 
599	 0.180193409209442 
600	 0.180089628136602 
601	 0.180075152158562 
602	 0.180105034543029 
603	 0.180065376209209 
604	 0.179997996182262 
605	 0.179988550290359 
606	 0.180046241422411 
607	 0.180095761917499 
608	 0.180105057096809 
609	 0.180096342995049 
610	 0.180191172157407 
611	 0.18028613755291 
612	 0.18028857277835 
613	 0.180273663779907 
614	 0.180342797908814 
615	 0.180430078307741 
616	 0.1804016211524 
617	 0.180485532075454 
618	 0.180567337708508 
619	 0.180561258410916 
620	 0.180473878803971 
621	 0.180576946064227 
622	 0.180628053551059 
623	 0.180374747671889 
624	 0.180419609073603 
625	 0.180327041848008 
626	 0.180023313846541 
627	 0.179824542351746 
628	 0.17996621269443 
629	 0.180184248823577 
630	 0.180263860335476 
631	 0.180409831783614 
632	 0.180479100792345 
633	 0.180500261840966 
634	 0.180573035060691 
635	 0.180657642780634 
636	 0.180729713656559 
637	 0.180813017414923 
638	 0.18100313641404 
639	 0.18110394931157 
640	 0.18107545545008 
641	 0.180949659378621 
642	 0.180848590867176 
643	 0.180494368933802 
644	 0.179860847858591 
645	 0.17914587894959 
646	 0.178451719969224 
647	 0.178101719665925 
648	 0.178239701467091 
649	 0.178614393209202 
650	 0.178449712339191 
651	 0.178162904903043 
652	 0.178432343425991 
653	 0.178162948711766 
654	 0.177591833251427 
655	 0.177085848752496 
656	 0.177104922101961 
657	 0.176931704680668 
658	 0.176783448382896 
659	 0.176853587502666 
660	 0.176657193961612 
661	 0.17644550519935 
662	 0.17622350017918 
663	 0.17587378216705 
664	 0.175593869810413 
665	 0.175494955414281 
666	 0.175531068817241 
667	 0.175415814700517 
668	 0.175205890497613 
669	 0.175064912388277 
670	 0.175109093307512 
671	 0.174977693413223 
672	 0.175005413757031 
673	 0.175167744313695 
674	 0.175105010289708 
675	 0.175225219298144 
676	 0.175371559403779 
677	 0.175405571905468 
678	 0.175498941901297 
679	 0.175649485467003 
680	 0.175793867376302 
681	 0.175863776423199 
682	 0.176004460919573 
683	 0.176199390876619 
684	 0.176197612299148 
685	 0.175406803663173 
686	 0.174797284788628 
687	 0.17459595293704 
688	 0.174684854245376 
689	 0.175016613876376 
690	 0.174772576906576 
691	 0.173888443595263 
692	 0.172828664502974 
693	 0.1723631862929 
694	 0.172638681580047 
695	 0.17331826662282 
696	 0.173780534087864 
697	 0.17324748404434 
698	 0.172055144117068 
699	 0.171006892977423 
700	 0.17058907582359 
701	 0.170604234674766 
702	 0.170694398594601 
703	 0.170467295661296 
704	 0.169901915695624 
705	 0.169393876433362 
706	 0.16906572158516 
707	 0.168239014224368 
708	 0.167617627613964 
709	 0.167032315189343 
710	 0.166087528921365 
711	 0.165061970518769 
712	 0.163899211980571 
713	 0.16236362609305 
714	 0.159984366150954 
715	 0.156659654299879 
716	 0.152636224737483 
717	 0.149037735960616 
718	 0.147149688677879 
719	 0.14716871923853 
720	 0.147590794739137 
721	 0.147001517950756 
722	 0.145031853032738 
723	 0.142175511623953 
724	 0.139629651747593 
725	 0.138486097756523 
726	 0.137045513651275 
727	 0.135257799837318 
728	 0.133418007628785 
729	 0.131436060066065 
730	 0.130274770009062 
731	 0.129861510795157 
732	 0.129483214854174 
733	 0.128580792581042 
734	 0.127309296262119 
735	 0.126069373542318 
736	 0.125547697163802 
737	 0.125422996871583 
738	 0.125378199599748 
739	 0.125274712986024 
740	 0.125502951901022 
741	 0.125767147149676 
742	 0.125878555337924 
743	 0.125787315340444 
744	 0.125977749937703 
745	 0.126043972269913 
746	 0.12594471010416 
747	 0.126239981397238 
748	 0.126173178656752 
749	 0.125947596659392 
750	 0.125885731106534 
751	 0.125837546130643 
752	 0.125803218445476 
753	 0.12574903511485 
754	 0.125651806655902 
755	 0.125730814585059 
756	 0.125675930278835 
757	 0.125192044034544 
758	 0.123727991809116 
759	 0.121413890290472 
760	 0.119285459622691 
761	 0.119313187478625 
762	 0.119502754411181 
763	 0.120698502254814 
764	 0.122250585774837 
765	 0.123402694606911 
766	 0.124741426322043 
767	 0.125581879069576 
768	 0.125918740085733 
769	 0.126338918271004 
770	 0.126576702061738 
771	 0.126735230267043 
772	 0.126922436494342 
773	 0.127064316802129 
774	 0.127289573041822 
775	 0.12751710892633 
776	 0.127634586512414 
777	 0.127921995437771 
778	 0.128243198599205 
779	 0.128482625362623 
780	 0.128602131588083 
781	 0.128999402456991 
782	 0.129282405298822 
783	 0.129251587979419 
784	 0.129500073949529 
785	 0.12943008747005 
786	 0.129188976419748 
787	 0.129152268004066 
788	 0.129283470789794 
789	 0.129570039263833 
790	 0.130021393270226 
791	 0.130665484301 
792	 0.131582030416704 
793	 0.13203112937925 
794	 0.131855959966433 
795	 0.131970096606837 
796	 0.132186331673131 
797	 0.132513995122995 
798	 0.132917246182046 
799	 0.133107083878349 
800	 0.132923257746864 
801	 0.132825882490079 
802	 0.133445753927232 
803	 0.133883798783408 
804	 0.134362063509658 
805	 0.134881280737492 
806	 0.135098594211102 
807	 0.134567159044058 
808	 0.133697626331546 
809	 0.132903994839762 
810	 0.132117746175405 
811	 0.130802112576327 
812	 0.129109114446616 
813	 0.127595357680194 
814	 0.126660592803603 
815	 0.125846388968981 
816	 0.125269940676233 
817	 0.125441059166833 
818	 0.125949247540519 
819	 0.126134029575868 
820	 0.12568048396217 
821	 0.124554572014597 
822	 0.12350477352844 
823	 0.12266621640534 
824	 0.121854160610986 
825	 0.120639646264183 
826	 0.119078047546704 
827	 0.117406572826735 
828	 0.11601447296039 
829	 0.114702005652092 
830	 0.113247084152554 
831	 0.112105936655979 
832	 0.112053056780403 
833	 0.111697996420944 
834	 0.111353316789033 
835	 0.111138305983977 
836	 0.11067591310187 
837	 0.110757838855462 
838	 0.110925511814082 
839	 0.110747779306365 
840	 0.110548247262756 
841	 0.110414374513548 
842	 0.110393146227486 
843	 0.110469470720372 
844	 0.110569310046117 
845	 0.110138461547948 
846	 0.10961897279046 
847	 0.109943738078861 
848	 0.109911674686985 
849	 0.109304558877478 
850	 0.108546140480735 
851	 0.108625518069118 
852	 0.108510070339828 
853	 0.108372679213153 
854	 0.108360738948996 
855	 0.108024232425955 
856	 0.107880593988182 
857	 0.107809279315329 
858	 0.107642137203443 
859	 0.107738371455856 
860	 0.107677365746473 
861	 0.107257732915828 
862	 0.106578045006117 
863	 0.106628417845656 
864	 0.106848055490882 
865	 0.106680415821638 
866	 0.105885085995788 
867	 0.106135137131014 
868	 0.105925814328973 
869	 0.104942803623388 
870	 0.104912419061489 
871	 0.105132906138229 
872	 0.10496959509284 
873	 0.104241131442762 
874	 0.10373376390807 
875	 0.103575653196431 
876	 0.103459904502379 
877	 0.103010594061045 
878	 0.102163202570293 
879	 0.101910797016159 
880	 0.101952688195593 
881	 0.101519248198717 
882	 0.10121883687337 
883	 0.100812065174035 
884	 0.100337019396601 
885	 0.100011018469429 
886	 9.94388449778406E-02 
887	 9.88795246108992E-02 
888	 9.85972867301168E-02 
889	 9.86755956124832E-02 
890	 9.76458552545372E-02 
891	 0.09640205322958 
892	 9.55363975550595E-02 
893	 9.41558308686507E-02 
894	 9.28737329499013E-02 
895	 9.17138833745126E-02 
896	 9.04622925928326E-02 
897	 0.088635840485873 
898	 8.88297723565844E-02 
899	 0.089706338438915 
900	 0.089318451290975 
901	 8.91862799709896E-02 
902	 8.95161502609504E-02 
903	 8.97662278292294E-02 
904	 8.91216192224287E-02 
905	 8.66561222327834E-02 
906	 8.66417556444385E-02 
907	 8.79700590929777E-02 
908	 8.59835647460519E-02 
909	 8.43466799272286E-02 
910	 8.41855049732384E-02 
911	 8.47280824950278E-02 
912	 8.40399413387692E-02 
913	 8.42112859449428E-02 
914	 8.32493749644632E-02 
915	 8.15093981486722E-02 
916	 8.20664564642693E-02 
917	 8.22217737606786E-02 
918	 8.22048842822047E-02 
919	 8.22808651257543E-02 
920	 8.22203643466448E-02 
921	 8.26620069657175E-02 
922	 8.21741268806332E-02 
923	 7.98367163924652E-02 
924	 7.65999088176403E-02 
925	 7.72158785978763E-02 
926	 7.84348295756674E-02 
927	 0.075756063446001 
928	 7.17754950303283E-02 
929	 7.15948636885473E-02 
930	 7.23703428579233E-02 
931	 6.68039691253576E-02 
932	 0.065082058666825 
933	 6.40060865719325E-02 
934	 6.35298297713308E-02 
935	 6.46453865664369E-02 
936	 6.48569375148691E-02 
937	 6.97502209802927E-02 
938	 6.97920924163854E-02 
939	 5.84727032247039E-02 
940	 5.48436459282396E-02 
941	 0.056416828559006 
942	 5.49157677294619E-02 
943	 4.51696733628176E-02 
944	 5.94397648610398E-02 
945	 6.29759682179405E-02 
946	 5.35667534813007E-02 
947	 5.09330110257881E-02 
948	 5.60335341008262E-02 
949	 5.58226200793204E-02 
950	 5.49302176855332E-02 
951	 6.41830753180681E-02 
952	 0.059692244563221 
953	 5.71126414890827E-02 
954	 5.85689051026991E-02 
955	 5.65766294681617E-02 
956	 5.84586454442957E-02 
957	 5.90302631654785E-02 
958	 5.98947324177824E-02 
959	 6.52994348970539E-02 
960	 6.13943117116122E-02 
961	 6.32037224583907E-02 
962	 6.87407161598201E-02 
963	 6.59254171834507E-02 
964	 6.43622002949956E-02 
965	 6.59419738012657E-02 
966	 6.83243593738798E-02 
967	 0.067876763167482 
968	 6.95385202688882E-02 
969	 6.82988778757883E-02 
970	 6.62434556378339E-02 
971	 7.02628434281501E-02 
972	 6.96056487613004E-02 
973	 6.69168493624941E-02 
974	 6.68972428657694E-02 
975	 7.24897644368959E-02 
976	 6.92936484057049E-02 
977	 0.067293887922512 
978	 6.90715656523663E-02 
979	 6.90164408758952E-02 
980	 7.11622163531053E-02 
981	 7.09786103523176E-02 
982	 6.96363860983204E-02 
983	 7.21946371142528E-02 
984	 7.38530307047673E-02 
985	 7.35280866203222E-02 
986	 7.26887742047222E-02 
987	 7.38698333636767E-02 
988	 7.48348357318434E-02 
989	 7.52884752327392E-02 
990	 7.59439698068052E-02 
991	 7.72872000280274E-02 
992	 0.073585214261617 
993	 7.57301475509995E-02 
994	 7.99187709608415E-02 
995	 7.47047558290489E-02 
996	 7.27488431579626E-02 
997	 7.46859724885026E-02 
998	 7.68930140562914E-02 
999	 7.53428441622251E-02 
1000	 7.58001439001131E-02 
1001	 7.75047311482656E-02 
1002	 0.076879748285427 
1003	 7.66920031831949E-02 
1004	 7.65313975007021E-02 
1005	 7.65109965350626E-02 
1006	 7.67550720673342E-02 
1007	 7.71308927174312E-02 
1008	 7.67015593210407E-02 
1009	 7.58054162625694E-02 
1010	 7.54065641749443E-02 
1011	 0.075497006012723 
1012	 7.59945157678159E-02 
1013	 7.72993941821827E-02 
1014	 7.79523363021987E-02 
1015	 7.82543437463305E-02 
1016	 7.86624103191828E-02 
1017	 7.91492896679881E-02 
1018	 7.92785329296177E-02 
1019	 7.92577358574859E-02 
1020	 7.93407010357061E-02 
1021	 7.91190502537851E-02 
1022	 7.90238456828195E-02 
1023	 7.94059777330039E-02 
1024	 7.96246005560237E-02 
1025	 7.98964489460267E-02 
1026	 8.03731372999226E-02 
1027	 8.07072897943833E-02 
1028	 8.11299783726783E-02 
1029	 8.12037810391684E-02 
1030	 8.12715778993745E-02 
1031	 8.08493791819017E-02 
1032	 7.94725674428688E-02 
1033	 7.93031672041713E-02 
1034	 7.92185332947534E-02 
1035	 7.96295748328994E-02 
1036	 8.14314799992344E-02 
1037	 8.22568044930315E-02 
1038	 8.30637747729018E-02 
1039	 8.32233890009227E-02 
1040	 8.29265999386636E-02 
1041	 8.28512968129169E-02 
1042	 8.30208045170052E-02 
1043	 8.34354879058432E-02 
1044	 8.33854151710676E-02 
1045	 8.32101086111111E-02 
1046	 8.32947430086498E-02 
1047	 8.31152729661368E-02 
1048	 8.31513014078341E-02 
1049	 8.36607524550444E-02 
1050	 8.39622021286411E-02 
1051	 8.42373757718363E-02 
1052	 0.084233435829529 
1053	 0.08398363347057 
1054	 8.40059972393753E-02 
1055	 8.37129404223356E-02 
1056	 8.37456268718719E-02 
1057	 8.40153747373373E-02 
1058	 0.084956426750432 
1059	 0.085018700717043 
1060	 8.48449494766319E-02 
1061	 8.47096279894854E-02 
1062	 8.40765117027458E-02 
1063	 0.083884270667858 
1064	 8.37972953383496E-02 
1065	 8.39680602338955E-02 
1066	 8.45628608271537E-02 
1067	 8.47892568798005E-02 
1068	 8.53516447466587E-02 
1069	 0.085379914254333 
1070	 8.47831118741529E-02 
1071	 8.43330962751099E-02 
1072	 8.32599682312959E-02 
1073	 8.28482669594162E-02 
1074	 8.29069911906216E-02 
1075	 8.35973785124867E-02 
1076	 8.35657359675368E-02 
1077	 8.38649523387218E-02 
1078	 8.36482684219107E-02 
1079	 8.25857809474658E-02 
1080	 8.20338571670064E-02 
1081	 8.17474746984983E-02 
1082	 8.14337580021184E-02 
1083	 8.06332622347087E-02 
1084	 8.06546496894212E-02 
1085	 8.17157665905513E-02 
1086	 8.18074555981278E-02 
1087	 8.24721677376258E-02 
1088	 8.22480012326267E-02 
1089	 8.03819808523742E-02 
1090	 7.87156403777181E-02 
1091	 7.84171002127882E-02 
1092	 7.86416999359385E-02 
1093	 7.85081523913638E-02 
1094	 7.99889436793983E-02 
1095	 7.94284822461356E-02 
1096	 7.66995949333663E-02 
1097	 0.075787280727546 
1098	 7.50252896776604E-02 
1099	 7.44061476106423E-02 
1100	 7.50175336260608E-02 
1101	 7.46881049363168E-02 
1102	 7.36668376859643E-02 
1103	 7.29641048487357E-02 
1104	 7.18259858187891E-02 
1105	 0.071605553276106 
1106	 7.12413168508437E-02 
1107	 6.95863312186346E-02 
1108	 6.94863348489247E-02 
1109	 6.93048038833192E-02 
1110	 0.068775608194106 
1111	 6.89106820201238E-02 
1112	 6.84634864132854E-02 
1113	 6.63204070149562E-02 
1114	 6.56346036382204E-02 
1115	 6.69909491093088E-02 
1116	 6.57049595090467E-02 
1117	 6.13162481826662E-02 
1118	 6.03641920982539E-02 
1119	 6.24589751092821E-02 
1120	 0.059890030864297 
1121	 5.87307465416728E-02 
1122	 5.37020137945786E-02 
1123	 4.99720392894409E-02 
1124	 4.90464424063099E-02 
1125	 4.44921072041583E-02 
1126	 5.59838449538089E-02 
1127	 5.45361715812335E-02 
1128	 3.08504837305472E-02 
1129	 3.56986227869549E-02 
1130	 6.48155695209044E-02 
1131	 6.50514528926845E-02 
1132	 5.86359488063912E-02 
1133	 5.83260346150422E-02 
1134	 5.14400043405837E-02 
1135	 4.60605731328919E-02 
1136	 4.49921011902938E-02 
1137	 0.046092655079623 
1138	 0.047489840208758 
1139	 4.17794506476727E-02 
1140	 4.63713893372513E-02 
1141	 5.45649500058188E-02 
1142	 5.23771697104268E-02 
1143	 4.99224998858658E-02 
1144	 5.05438671645875E-02 
1145	 4.76833284903421E-02 
1146	 5.03572503485261E-02 
1147	 6.05163143164332E-02 
1148	 6.00371614253716E-02 
1149	 5.36637587981999E-02 
1150	 5.30988837592178E-02 
1151	 5.16852938297696E-02 
1152	 5.14105351122068E-02 
1153	 5.45875223200632E-02 
1154	 5.64295287898536E-02 
1155	 0.05770132220497 
1156	 5.70173649835715E-02 
1157	 5.89806487474206E-02 
1158	 6.21162589016852E-02 
1159	 6.29029568607613E-02 
1160	 6.35321958181089E-02 
1161	 6.44413837675391E-02 
1162	 0.0641862665624 
1163	 6.38853551484917E-02 
1164	 6.45592801413308E-02 
1165	 6.61461930299249E-02 
1166	 6.70023194859122E-02 
1167	 0.067504178462929 
1168	 6.83287241007109E-02 
1169	 6.80441805232511E-02 
1170	 6.78748712513771E-02 
1171	 6.81989768292879E-02 
1172	 0.069322901748998 
1173	 6.96466239531582E-02 
1174	 6.97436559458714E-02 
1175	 7.02751200042871E-02 
1176	 7.01663572911549E-02 
1177	 7.08340085792469E-02 
1178	 7.22197394965797E-02 
1179	 7.16414996206013E-02 
1180	 7.10719774808555E-02 
1181	 7.12405035584492E-02 
1182	 7.08307452132782E-02 
1183	 7.10590268144313E-02 
1184	 7.14887644946632E-02 
1185	 7.12927461582245E-02 
1186	 7.10733401781568E-02 
1187	 7.13718294182183E-02 
1188	 7.17901396541271E-02 
1189	 7.16121431615651E-02 
1190	 7.13709278589705E-02 
1191	 7.13403624962923E-02 
1192	 7.12136984155031E-02 
1193	 7.09708399166703E-02 
1194	 7.09888879685356E-02 
1195	 7.14506950191129E-02 
1196	 7.18704714579579E-02 
1197	 7.16544891809952E-02 
1198	 7.17250288460187E-02 
1199	 7.22843165509645E-02 
1200	 7.23201062246674E-02 
1201	 7.27155976993772E-02 
1202	 7.33509871367579E-02 
1203	 7.29386692775312E-02 
1204	 7.28195511185253E-02 
1205	 7.33942258848803E-02 
1206	 7.33391415385641E-02 
1207	 0.073356806773157 
1208	 7.36921542042502E-02 
1209	 7.35731706590468E-02 
1210	 7.35141885715674E-02 
1211	 7.36980380198899E-02 
1212	 7.35617381051567E-02 
1213	 0.073149825353189 
1214	 7.29686492254349E-02 
1215	 7.29485333444826E-02 
1216	 7.33110162268703E-02 
1217	 7.37469286968023E-02 
1218	 7.42570922365952E-02 
1219	 7.50572788125996E-02 
1220	 0.075469129473876 
1221	 7.50754437367602E-02 
1222	 0.075032345117907 
1223	 7.51283751588232E-02 
1224	 7.49549847754193E-02 
1225	 0.075662943682468 
1226	 7.64357982529026E-02 
1227	 7.61666927404173E-02 
1228	 7.58182083317012E-02 
1229	 7.60727219457021E-02 
1230	 7.64376203776178E-02 
1231	 7.67936868017384E-02 
1232	 7.70775328725895E-02 
1233	 7.66998999006041E-02 
1234	 7.61521140360011E-02 
1235	 7.61367316021321E-02 
1236	 7.68100543257024E-02 
1237	 7.69326883043761E-02 
1238	 7.72012520242335E-02 
1239	 7.70656283140736E-02 
1240	 7.68203786725609E-02 
1241	 7.66688783627387E-02 
1242	 0.0769049777668 
1243	 7.70967985470332E-02 
1244	 7.67574123070118E-02 
1245	 7.65727693165165E-02 
1246	 0.0769141696071 
1247	 7.69030708864303E-02 
1248	 7.66441772605252E-02 
1249	 0.076542354203074 
1250	 7.62303788235159E-02 
1251	 7.63006814213211E-02 
1252	 7.69042361601485E-02 
1253	 7.73367411016146E-02 
1254	 7.72479113086288E-02 
1255	 7.66985042310268E-02 
1256	 7.66604511851263E-02 
1257	 7.70757159672137E-02 
1258	 7.67738574759338E-02 
1259	 7.61130142291656E-02 
1260	 7.59841549140171E-02 
1261	 7.55168572717844E-02 
1262	 7.49943448351245E-02 
1263	 7.46392037875375E-02 
1264	 7.51983351587206E-02 
1265	 0.07506405526757 
1266	 7.47926127662059E-02 
1267	 0.075312457866934 
1268	 7.52169893302987E-02 
1269	 7.48949846986215E-02 
1270	 7.49928617268499E-02 
1271	 7.48831606850617E-02 
1272	 7.50554279128272E-02 
1273	 7.52817851399686E-02 
1274	 7.50669938445699E-02 
1275	 7.51430288995101E-02 
1276	 7.54209533726015E-02 
1277	 7.50703133384088E-02 
1278	 0.074788467277275 
1279	 7.47499890114508E-02 
1280	 7.45394458149342E-02 
1281	 7.47068034046916E-02 
1282	 7.57112110799675E-02 
1283	 7.59256151065811E-02 
1284	 7.56891248022654E-02 
1285	 7.57343051174864E-02 
1286	 7.58893192469097E-02 
1287	 7.55151276399544E-02 
1288	 7.47613198573147E-02 
1289	 0.074712106214626 
1290	 7.48088564163866E-02 
1291	 7.42679666243714E-02 
1292	 0.074559633439709 
1293	 7.45575857642312E-02 
1294	 7.34647947123529E-02 
1295	 7.31537242310381E-02 
1296	 7.33843904433631E-02 
1297	 7.30854399503288E-02 
1298	 7.29285228221931E-02 
1299	 7.30770753561614E-02 
1300	 7.29462618837456E-02 
1301	 7.24575519768628E-02 
1302	 7.16759864586822E-02 
1303	 7.09450039083535E-02 
1304	 7.07814856141638E-02 
1305	 7.06765401900578E-02 
1306	 7.02416537055756E-02 
1307	 7.01477060751714E-02 
1308	 6.96321067055222E-02 
1309	 0.068174964533749 
1310	 6.77091252457198E-02 
1311	 6.79777442198165E-02 
1312	 6.78021682121484E-02 
1313	 6.79048230193005E-02 
1314	 6.74284573678251E-02 
1315	 6.62674505986437E-02 
1316	 6.58477838869051E-02 
1317	 6.55256007104813E-02 
1318	 0.064999092490577 
1319	 6.45675678043316E-02 
1320	 6.43854725845106E-02 
1321	 6.40863554177684E-02 
1322	 6.44510963346309E-02 
1323	 6.38307982594635E-02 
1324	 6.34820456570165E-02 
1325	 0.06256185028084 
1326	 6.09216042012179E-02 
1327	 6.00255700846515E-02 
1328	 5.84572758042643E-02 
1329	 5.73382005155669E-02 
1330	 5.72354490883404E-02 
1331	 5.73464706912373E-02 
1332	 5.85226530130295E-02 
1333	 5.80020572489111E-02 
1334	 5.58660121014441E-02 
1335	 5.56074928832229E-02 
1336	 5.59389778548648E-02 
1337	 5.57698722585537E-02 
1338	 5.70229206446404E-02 
1339	 5.71666596117159E-02 
1340	 5.58075238501471E-02 
1341	 0.054242012914721 
1342	 0.050920818102538 
1343	 5.09902838356057E-02 
1344	 5.37014401327375E-02 
1345	 5.36997359652735E-02 
1346	 5.71641399858624E-02 
1347	 0.060237270279954 
1348	 5.64370897230287E-02 
1349	 0.054392033688228 
1350	 5.47767204918763E-02 
1351	 6.11829526289426E-02 
1352	 8.95309056356689E-02 
1353	 8.82944604871281E-02 
1354	 2.99869315913833E-02 
1355	 1.12173538363601E-02 
1356	-3.92335905839542E-02 
1357	-8.45899953157185E-02 
1358	 0.153988574515209 
1359	 0.373879617290546 
1360	 0.216964490121884 
1361	 0.121707686968979 
1362	 0.296212183840663 
1363	 0.148139318916537 
1364	 6.29012953036676E-02 
1365	 0.410049138865293 
1366	 0.311091460372451 
1367	 0.157722823601306 
1368	 0.176970097924609 
1369	 0.614156527761404 
1370	 0.486861679974432 
1371	 5.18038722707215E-02 
1372	 8.33852380095991E-02 
1373	 0.537712075024917 
1374	 0.31836445649012 
1375	 7.88253109157933E-02 
1376	 0.207545204478367 
1377	 0.177543041671271 
1378	 0.306095331120584 
1379	 0.883632450727397 
1380	 1.05501768968236 
1381	 0.604739351535074 
1382	 0.509906056743944 
1383	 0.285220009721241 
1384	 0.411150580105316 
1385	 2.30658990441395 
1386	 1.89348958272202 
1387	 1.45871101530554 
1388	 1.96356491384366 
1389	 1.98379259329389 
1390	 1.2473386333119 
1391	 0.50098036956884 
1392	 1.2343095840263 
1393	 6.72938800899099 
1394	 13.0436098006449 
1395	 1.5090933352778 
1396	 3.15221130411426 
1397	 4.32117018635971 
1398	 0.491980293248093 
1399	 0.856441943825581 
1400	 1.25263449972416 
1401	 0.784170938579968 
1402	 1.08498496365809 
1403	 0.66222693639539 
1404	 0.840517290393031 
1405	 1.2593451122374 
1406	 1.06994245758292 
1407	 0.773020668809873 
1408	 0.743256360292737 
1409	 0.648155843873051 
1410	 0.382574239178291 
1411	 0.3321776343047 
1412	 0.570793138858412 
1413	 0.560020345657333 
1414	 0.279960874294474 
1415	 0.21474907665372 
1416	 0.289317426045359 
1417	 0.238587028562407 
1418	 8.02810590565364E-02 
1419	 8.60989817043514E-02 
1420	 0.195055261696935 
1421	 0.182087360136827 
1422	 0.152602827589341 
1423	 0.138282514812774 
1424	 5.41115914709487E-02 
1425	 3.93326443470291E-02 
1426	 0.107770208897676 
1427	 0.111544660513024 
1428	 8.46218978448503E-02 
1429	 7.58103430761071E-02 
1430	 6.96090448450137E-02 
1431	 4.49104854874479E-02 
1432	 8.82967650027602E-03 
1433	 5.55429931057112E-03 
1434	-3.31267386883242E-03 
1435	-1.21899992152762E-02 
1436	 2.45983419268837E-02 
1437	 2.25112455268845E-02 
1438	-4.92630617188096E-02 
1439	-2.73462698012236E-02 
1440	 5.65147316058573E-02 
1441	 9.04585689717737E-02 
1442	 6.32552866955471E-02 
1443	 4.85499701506486E-02 
1444	 7.12802007284636E-02 
1445	 8.01260275307422E-02 
1446	 4.96615013175565E-02 
1447	 3.58503369386085E-02 
1448	 4.03268131851838E-02 
1449	 2.91913802130521E-02 
1450	 3.83502295969367E-02 
1451	 5.86804964320913E-02 
1452	 6.24365338337595E-02 
1453	 5.55109418654174E-02 
1454	 5.07483567258391E-02 
1455	 5.81723676826341E-02 
1456	 5.65203043069689E-02 
1457	 4.00461436743388E-02 
1458	 3.84813678723443E-02 
1459	 4.73936302963297E-02 
1460	 0.049443367033699 
1461	 5.14097476070681E-02 
1462	 0.051038366269398 
1463	 4.69626393388375E-02 
1464	 4.58466802105734E-02 
1465	 4.56260806005916E-02 
1466	 4.28372275099026E-02 
1467	 0.038439513056475 
1468	 3.96299799198821E-02 
1469	 4.36933337600241E-02 
1470	 4.18008783250362E-02 
1471	 4.02955946936126E-02 
1472	 4.09478450806359E-02 
1473	 0.037539125189042 
1474	 3.70065635305168E-02 
1475	 4.07084243397559E-02 
1476	 4.34456805508197E-02 
1477	 0.044600046063832 
1478	 4.58804067329264E-02 
1479	 4.95953702002097E-02 
1480	 0.051143071204862 
1481	 5.20689719044904E-02 
1482	 5.07680443071229E-02 
1483	 0.045085465654755 
1484	 4.64899436056925E-02 
1485	 5.07142748259666E-02 
1486	 5.15591796895137E-02 
1487	 5.38547804792026E-02 
1488	 0.055651735519395 
1489	 5.52385616316832E-02 
1490	 5.54429481741921E-02 
1491	 5.66836105524164E-02 
1492	 5.75800537899784E-02 
1493	 5.80502855974667E-02 
1494	 5.84208814314294E-02 
1495	 5.92588953220383E-02 
1496	 5.94133932121875E-02 
1497	 5.80687687014847E-02 
1498	 5.83338043896537E-02 
1499	 5.99939574433683E-02 
1500	 6.02834851773728E-02 
1501	 6.03193541948353E-02 
1502	 6.10787652296596E-02 
1503	 6.13618166948246E-02 
1504	 0.0615935978503 
1505	 6.25476069411798E-02 
1506	 6.32525547095685E-02 
1507	 6.33727506560045E-02 
1508	 6.37617422411767E-02 
1509	 6.43707671213038E-02 
1510	 6.51197443323923E-02 
1511	 0.065181293693007 
1512	 6.50312518293331E-02 
1513	 6.54482966967467E-02 
1514	 6.55298023951446E-02 
1515	 6.58151383391273E-02 
1516	 0.066679703212488 
1517	 6.64007750509241E-02 
1518	 6.58711233671255E-02 
1519	 6.66370638486308E-02 
1520	 6.70663020034129E-02 
1521	 6.70318314261505E-02 
1522	 6.74288084866621E-02 
1523	 6.75267633120955E-02 
1524	 6.72692030563559E-02 
1525	 6.70945882167045E-02 
1526	 6.73551759295198E-02 
1527	 6.79409619241749E-02 
1528	 6.82409400198437E-02 
1529	 6.80505559310937E-02 
1530	 6.84374875368725E-02 
1531	 0.069321673692853 
1532	 6.90038376674798E-02 
1533	 6.87877552047164E-02 
1534	 6.93104284429311E-02 
1535	 6.89793576090552E-02 
1536	 6.85680985762643E-02 
1537	 6.89291196743282E-02 
1538	 6.92736445970577E-02 
1539	 6.91913852898212E-02 
1540	 6.91913338925485E-02 
1541	 6.96347753997675E-02 
1542	 0.07018999822787 
1543	 7.03278395323326E-02 
1544	 7.03264251720758E-02 
1545	 7.08042265850219E-02 
1546	 7.10514972415262E-02 
1547	 7.08035509123005E-02 
1548	 7.07571380587415E-02 
1549	 0.07081388613688 
1550	 7.06211436256405E-02 
1551	 7.01673285052418E-02 
1552	 7.01598951157347E-02 
1553	 7.03408669185781E-02 
1554	 7.01420500726182E-02 
1555	 7.07024120624976E-02 
1556	 7.16424496715563E-02 
1557	 7.15921850869511E-02 
1558	 7.15473439927124E-02 
1559	 7.21445667415968E-02 
1560	 7.20544114669026E-02 
1561	 7.13744723231443E-02 
1562	 7.11848444150812E-02 
1563	 7.16446617309384E-02 
1564	 7.21060279969309E-02 
1565	 7.17807983546678E-02 
1566	 7.17174470264341E-02 
1567	 7.18669998146509E-02 
1568	 7.08667140214321E-02 
1569	 7.02759127874454E-02 
1570	 7.08697497502544E-02 
1571	 7.12573498837924E-02 
1572	 7.14961988298805E-02 
1573	 7.22544743061552E-02 
1574	 7.27498316135245E-02 
1575	 7.19558208969638E-02 
1576	 7.11441053606019E-02 
1577	 7.14167483180746E-02 
1578	 7.18618183825296E-02 
1579	 7.20655471231024E-02 
1580	 7.20433577314135E-02 
1581	 7.19933316208676E-02 
1582	 7.20259604093196E-02 
1583	 7.17043829673186E-02 
1584	 7.17688818894527E-02 
1585	 7.20806597069334E-02 
1586	 7.18421092320561E-02 
1587	 7.18251221331786E-02 
1588	 0.071842879243069 
1589	 0.071900504891547 
1590	 7.21678805239615E-02 
1591	 7.25410129743728E-02 
1592	 7.30974502778107E-02 
1593	 7.32074039682718E-02 
1594	 7.27874530957822E-02 
1595	 7.17939593626865E-02 
1596	 7.14165960163297E-02 
1597	 7.22288047145555E-02 
1598	 7.26451715287773E-02 
1599	 7.26852767760333E-02 
1600	 7.28128192992876E-02 
1601	 7.21728740636471E-02 
1602	 7.13270436660498E-02 
1603	 7.18548737916316E-02 
1604	 7.24573355313639E-02 
1605	 7.22746664909293E-02 
1606	 7.27591798744718E-02 
1607	 0.073364657496805 
1608	 7.30554679981407E-02 
1609	 7.22123964474612E-02 
1610	 7.18128781632589E-02 
1611	 7.20398878263895E-02 
1612	 7.23615284015079E-02 
1613	 0.072872590483709 
1614	 7.32912774429928E-02 
1615	 7.33630858087208E-02 
1616	 7.30852366295393E-02 
1617	 7.32807196602052E-02 
1618	 7.39236330190654E-02 
1619	 7.34109280042097E-02 
1620	 7.30311628444568E-02 
1621	 7.35928698715178E-02 
1622	 7.35534020805409E-02 
1623	 7.33835034453345E-02 
1624	 7.37031928076928E-02 
1625	 7.38428390582523E-02 
1626	 7.38584129032183E-02 
1627	 7.45967550234251E-02 
1628	 7.51923736789121E-02 
1629	 7.46037171056746E-02 
1630	 7.42087554012244E-02 
1631	 7.37292457698193E-02 
1632	 7.30829980465297E-02 
1633	 7.32598750786007E-02 
1634	 0.07343730843421 
1635	 7.37220674324236E-02 
1636	 7.36684963451473E-02 
1637	 7.35100024475712E-02 
1638	 7.38213648825323E-02 
1639	 0.073043762525041 
1640	 7.26572986593995E-02 
1641	 7.35885219717277E-02 
1642	 7.36123090111228E-02 
1643	 7.36449297595159E-02 
1644	 0.073664748621161 
1645	 7.26349986538627E-02 
1646	 7.24845473306613E-02 
1647	 7.33503598197071E-02 
1648	 7.39952245372654E-02 
1649	 7.38988406062761E-02 
1650	 7.36947258735972E-02 
1651	 7.37949972556564E-02 
1652	 7.35950423012981E-02 
1653	 7.38460200172003E-02 
1654	 7.38855724345848E-02 
1655	 7.30298035242253E-02 
1656	 7.29418958695535E-02 
1657	 0.073691939484013 
1658	 7.38696786694408E-02 
1659	 7.39733076283744E-02 
1660	 7.39704383830836E-02 
1661	 7.36114139637524E-02 
1662	 7.37261880784833E-02 
1663	 7.39949712954816E-02 
1664	 7.42444138189578E-02 
1665	 7.47526838915792E-02 
1666	 7.45635025965377E-02 
1667	 7.41644506780596E-02 
1668	 7.48132120696231E-02 
1669	 7.45584003400549E-02 
1670	 7.45713702556553E-02 
1671	 7.43422330991946E-02 
1672	 7.34883078677934E-02 
1673	 7.32575987052054E-02 
1674	 7.42615279542904E-02 
1675	 7.47069743734222E-02 
1676	 7.43215642009296E-02 
1677	 0.074662547661987 
1678	 7.48831545102949E-02 
1679	 7.43468515091683E-02 
1680	 7.42568699073525E-02 
1681	 7.45512443641205E-02 
1682	 7.42052306277115E-02 
1683	 7.41272062954908E-02 
1684	 7.48549497482111E-02 
1685	 7.48544041523752E-02 
1686	 7.40870585868845E-02 
1687	 7.40270767317094E-02 
1688	 7.40034792849449E-02 
1689	 7.32961292813027E-02 
1690	 7.36760091124422E-02 
1691	 7.42262694268512E-02 
1692	 7.37317763757004E-02 
1693	 7.36919227337576E-02 
1694	 7.36057772011009E-02 
1695	 7.32855645460169E-02 
1696	 7.34327549923206E-02 
1697	 7.35842247409018E-02 
1698	 7.36388864889195E-02 
1699	 7.38452586674036E-02 
1700	 7.35499597066874E-02 
1701	 7.30489573008803E-02 
1702	 7.32243108600271E-02 
1703	 7.37256689469876E-02 
1704	 7.44028975441058E-02 
1705	 7.47456060141534E-02 
1706	 7.48284748855413E-02 
1707	 0.074243368241219 
1708	 7.27947874187489E-02 
1709	 7.23901734439475E-02 
1710	 7.28069834363447E-02 
1711	 7.28037567401263E-02 
1712	 7.31533129680719E-02 
1713	 7.40709593690023E-02 
1714	 7.39756456627977E-02 
1715	 7.30222100537581E-02 
1716	 7.36955029225955E-02 
1717	 7.29592741806162E-02 
1718	 7.13483304308693E-02 
1719	 7.23519924579269E-02 
1720	 7.41287806688426E-02 
1721	 7.42319490031099E-02 
1722	 7.46475368853647E-02 
1723	 7.48396415832008E-02 
1724	 7.36780137777975E-02 
1725	 7.28076746515528E-02 
1726	 7.27089163710117E-02 
1727	 7.28710414173644E-02 
1728	 7.20606830401141E-02 
1729	 7.14101200969891E-02 
1730	 7.28524894622855E-02 
1731	 7.34598917783988E-02 
1732	 0.072612713577578 
1733	 7.36909813663143E-02 
1734	 7.32096580130586E-02 
1735	 0.071187868826367 
1736	 7.24180212644172E-02 
1737	 0.071789441727531 
1738	 6.96512691816274E-02 
1739	 7.09615644254829E-02 
1740	 7.15834667608464E-02 
1741	 7.02635187533142E-02 
1742	 0.070462665403578 
1743	 7.06394081297232E-02 
1744	 6.91104201996979E-02 
1745	 6.96108135205586E-02 
1746	 0.071142835300426 
1747	 7.10162162913095E-02 
1748	 6.99689677993022E-02 
1749	 6.96065885121562E-02 
1750	 6.93908881368941E-02 
1751	 6.86002630486706E-02 
1752	 0.066542771352262 
1753	 0.066909745581708 
1754	 6.90603558823271E-02 
1755	 6.88254833441252E-02 
1756	 6.93659698196318E-02 
1757	 6.86892916129946E-02 
1758	 6.63369555018039E-02 
1759	 6.71664183313093E-02 
1760	 6.86241732337581E-02 
1761	 6.62915148651991E-02 
1762	 6.41178890845292E-02 
1763	 6.30110977689986E-02 
1764	 6.29873674247986E-02 
1765	 6.52908802639308E-02 
1766	 6.66121588502153E-02 
1767	 6.66670175344533E-02 
1768	 6.39162791963798E-02 
1769	 6.02162875672495E-02 
1770	 0.063081723549093 
1771	 6.53737096377489E-02 
1772	 6.43573903786421E-02 
1773	 6.44885855552742E-02 
1774	 0.060143787127082 
1775	 5.86794226349801E-02 
1776	 5.84748083228121E-02 
1777	 6.06382947737448E-02 
1778	 6.16903360151511E-02 
1779	 0.061480388693213 
1780	 6.14946930111056E-02 
1781	 6.28247921408965E-02 
1782	 6.06225828883108E-02 
1783	 5.48141031256697E-02 
1784	 5.55156808509858E-02 
1785	 5.69660533244215E-02 
1786	 5.58865541621738E-02 
1787	 5.83780423936891E-02 
1788	 5.97799750498281E-02 
1789	 5.79465515324141E-02 
1790	 6.64624034633282E-02 
1791	 7.16763044778817E-02 
1792	 7.17656453701436E-02 
1793	 6.36514237172386E-02 
1794	 5.18113971334936E-02 
1795	 4.36056926857482E-02 
1796	 5.30957571977102E-02 
1797	 6.45160154003843E-02 
1798	 6.00958284953491E-02 
1799	 5.96389944520478E-02 
1800	 2.05813027248697E-02 
1801	-7.5827486418183E-05 
1802	 0.040664606572952 
1803	 4.30024024376406E-02 
1804	 1.13667780860533E-02 
1805	 0.017022683293739 
1806	 4.31211725457603E-02 
1807	 0.068137120498257 
1808	 0.199054597651925 
1809	 0.352887436618102 
1810	 0.259840508705974 
1811	 0.203806165435228 
1812	 0.131130455991218 
1813	 0.21412487097192 
1814	-0.627641879855653 
1815	-0.66043272753509 
1816	 180.70790131903 
1817	 1.9244207833422 
1818	 0.370418695757318 
1819	-3.54659415020732E-02 
1820	-3.95295056066094 
1821	-0.569299028497222 
1822	-0.920887713625989 
1823	 2.70659862627688 
1824	 2.32673578197364 
1825	 1.43105189846707 
1826	 0.998441234882514 
1827	-28.4577888925286 
1828	-2.70960115568294 
1829	-1.86201842805411 
1830	-1.7159971311012 
1831	-0.765536825171193 
1832	-1.05402506189456 
1833	-1.1459819331739 
1834	-1.25290997470569 
1835	-3.98709694055188 
1836	 14.5478509430278 
1837	-1.71457288193468 
1838	-7.92828077021521 
1839	-0.303814790481445 
1840	-0.119397676966024 
1841	-0.271202687993086 
1842	-0.309002626355104 
1843	-0.396545679461959 
1844	-1.09792888794176 
1845	-4.17852233397875 
1846	-2.67794805378064 
1847	-1.77521255411903 
1848	 0.265712099745707 
1849	 0.455202331824878 
1850	 9.91346873900924E-02 
1851	 0.10926380057734 
1852	-1.26289331541599 
1853	-11.380919986659 
1854	 11.6334935731378 
1855	 4.18645730621495E-02 
1856	-0.154996777215735 
1857	-0.563939477406826 
1858	-1.12965313945027 
1859	-0.350017125815861 
1860	 1.10979175985329 
1861	 8.90834742249018 
1862	-1.63730454308646 
1863	-1.68244203974353 
1864	 8.41101798307384 
1865	 2.11935107334943 
1866	 0.266679656057447 
1867	 0.140841439608499 
1868	 0.678129016191094 
1869	-1.75678333201536 
1870	-0.220632942071998 
1871	-0.209951606807737 
1872	-0.864073867287109 
1873	-1.01832069864203 
1874	-0.390461782899003 
1875	-0.261494823127687 
1876	-0.20299797904085 
1877	-0.182265311309391 
1878	-6.09974588392792E-02 
1879	 0.737444282323205 
1880	 1.13384942667064 
1881	 0.614246989116548 
1882	 0.763099328852077 
1883	 0.554658695221164 
1884	-0.18163314932551 
1885	-1.04040516099086 
1886	 1.43158614367878 
1887	-1.91892554802541 
1888	 7.38059095091917E-02 
1889	 0.282032823966862 
1890	-1.38678229865847E-02 
1891	-0.188910528550143 
1892	-1.37402873835084 
1893	-1.70517224425387 
1894	-0.736473649445197 
1895	 0.284498438091224 
1896	 1.02830499336338 
1897	 2.35499683041955 
1898	 5.27193708420884 
1899	-8.43336714187631 
1900	-5.79652899683647 
1901	-1.40323710402145 
1902	-1.34063686351008 
1903	-1.59399823192222 
1904	-0.552985418259896 
1905	 2.2251306514756E-03 
1906	-0.233145007298176 
1907	-0.123143338749781 
1908	-4.81038406686013E-02 
1909	-3.15213429536308 
1910	 11.8598277988224 
1911	-3.20824087546506 
1912	-2.57712083667213 
1913	-2.05515010325451 
1914	 4.28503109651197E-02 
1915	-7.50054928432201E-02 
1916	-2.32277964135016 
1917	-1.84724025789831 
1918	-2.14242329880058 
1919	-3.41170648358532 
1920	-1.67447399502388 
1921	-0.804959253436525 
1922	-0.149545025066762 
1923	 8.56035282358572E-02 
1924	 0.145585330184879 
1925	 0.212160126429641 
1926	 0.2233363645769 
1927	-0.477464357969984 
1928	 2.86049374509483 
1929	-3.1860107815086 
1930	-0.260072808489096 
1931	 6.01311018695002E-02 
1932	 0.39205964052518 
1933	 1.13863005296826 
1934	 1.37394780482661 
1935	 1.84741601574139 
1936	-1.48686682748804E-02 
1937	-0.618421203567895 
1938	-0.747176399265181 
1939	-0.927041077761337 
1940	 41.822861083649 
1941	-1.65642952391753 
1942	-0.750305624013357 
1943	 0.738473479759981 
1944	 1.36042164302643 
1945	 0.627303945588471 
1946	 0.446807393674345 
1947	 0.45400026593737 
1948	 0.560506492771264 
1949	 0.667113448036134 
1950	 0.465920738861993 
1951	 0.291110681030562 
1952	 0.220292803224484 
1953	 0.150518518817998 
1954	 1.87549759875933E-02 
1955	-1.04501755356777E-02 
1956	 0.106450981271373 
1957	 0.103658691752032 
1958	 7.02711780609508E-02 
1959	 8.08892161783212E-02 
1960	 7.60569195303708E-02 
1961	 6.22600336572495E-02 
1962	 7.03051893335023E-02 
1963	 8.11101990450223E-02 
1964	 7.75479691546567E-02 
1965	 6.99726810339553E-02 
1966	 6.58942063537827E-02 
1967	 6.31790409994017E-02 
1968	 5.61416504439916E-02 
1969	 4.39201447949881E-02 
1970	 4.43048912767586E-02 
1971	 0.05543285602172 
1972	 5.91723139585918E-02 
1973	 0.058388958804573 
1974	 5.43563049561062E-02 
1975	 4.20126053831871E-02 
1976	 2.74650994688742E-02 
1977	 2.31967194735864E-02 
1978	 2.61978577847584E-02 
1979	 2.97605658348243E-02 
1980	 3.66351334961998E-02 
1981	 4.42769178483983E-02 
1982	 4.83738090920401E-02 
1983	 4.89653816391544E-02 
1984	 4.74109949562602E-02 
1985	 4.64536931731145E-02 
1986	 4.89015169702976E-02 
1987	 5.37024706422809E-02 
1988	 5.65108912409144E-02 
1989	 5.78591846221363E-02 
1990	 5.86274348631123E-02 
1991	 5.27050578710847E-02 
1992	 4.89357924064599E-02 
1993	 5.18172123852859E-02 
1994	 5.07535708225515E-02 
1995	 4.59244952043483E-02 
1996	 4.87814479040921E-02 
1997	 5.57524838738995E-02 
1998	 5.23385305078907E-02 
1999	 5.44397794176827E-02 
2000	 5.28672900784066E-02 
2001	 4.32838221794385E-02 
2002	 4.19269523928661E-02 
2003	 5.13189146749614E-02 
2004	 0.066160616528434 
2005	 7.95443528082495E-02 
2006	 8.85696535583151E-02 
2007	 8.57660746190581E-02 
2008	 8.09751063427897E-02 
2009	 7.54113327365888E-02 
2010	 6.60126724212347E-02 
2011	 5.82143048894805E-02 
2012	 4.99541849565752E-02 
2013	 4.12742627528359E-02 
2014	 4.18958997174233E-02 
2015	 4.63547495747307E-02 
2016	 4.34944165015866E-02 
2017	 4.93159681076495E-02 
2018	 5.68190498833128E-02 
2019	 5.74595459415302E-02 
2020	 5.53784749356875E-02 
2021	 5.00794702118508E-02 
2022	 5.03202921717225E-02 
2023	 4.85629523337428E-02 
2024	 4.83334020816505E-02 
2025	 5.38981883846683E-02 
2026	 5.67656612723461E-02 
2027	 5.67364676051606E-02 
2028	 5.85754144996659E-02 
2029	 6.11818413325813E-02 
2030	 6.10934871989112E-02 
2031	 5.61743521372996E-02 
2032	 0.050144457523278 
2033	 5.02435033556414E-02 
2034	 5.10448386779826E-02 
2035	 5.49420794218302E-02 
2036	 0.059967057156526 
2037	 5.93919094651941E-02 
2038	 0.057149477876498 
2039	 5.63883302068046E-02 
2040	 5.43921885962076E-02 
2041	 5.53660055689361E-02 
2042	 6.00588190770915E-02 
2043	 6.09051517284859E-02 
2044	 6.15824473759525E-02 
2045	 6.04808637056754E-02 
2046	 5.86263072216715E-02 
2047	 5.66212626348697E-02 
2048	 5.59772750749707E-02 
2049	 5.84823406953168E-02 
2050	 6.11101236632895E-02 
2051	 6.30468527488727E-02 
2052	 6.78210639574849E-02 
2053	 6.80210336188381E-02 
2054	 6.62364262489095E-02 
2055	 6.93129094538634E-02 
2056	 6.74850761217572E-02 
2057	 6.16604971566342E-02 
2058	 5.96007258521139E-02 
2059	 5.46515230424539E-02 
2060	 5.32277297286568E-02 
2061	 5.46419084892551E-02 
2062	 6.03795951370239E-02 
2063	 6.29175710666651E-02 
2064	 6.38589157919684E-02 
2065	 6.49727988279378E-02 
2066	 6.63666482594216E-02 
2067	 6.77490570871611E-02 
2068	 6.88283489875427E-02 
2069	 6.98917954363888E-02 
2070	 6.68522603169838E-02 
2071	 6.33432621013778E-02 
2072	 5.95291423513966E-02 
2073	 5.71128340505898E-02 
2074	 5.44951473828455E-02 
2075	 5.44517591374723E-02 
2076	 5.60655677306203E-02 
2077	 5.82453293990808E-02 
2078	 6.27486307354278E-02 
2079	 6.44653431264166E-02 
2080	 6.57145061872807E-02 
2081	 0.066288501283662 
2082	 6.66996723839821E-02 
2083	 6.72925651986774E-02 
2084	 6.76974982199583E-02 
2085	 6.85816109639914E-02 
2086	 6.91605127591095E-02 
2087	 6.92718036122862E-02 
2088	 6.80488872596088E-02 
2089	 6.62587312609207E-02 
2090	 6.75002902972943E-02 
2091	 6.80256645273332E-02 
2092	 6.76791062575496E-02 
2093	 6.92404545923031E-02 
2094	 6.88664553163209E-02 
2095	 6.56038751790629E-02 
2096	 0.064454646978971 
2097	 6.34450887790583E-02 
2098	 6.30880149907686E-02 
2099	 6.44534516499112E-02 
2100	 6.30746820350352E-02 
2101	 6.09826514775786E-02 
2102	 6.12977733773319E-02 
2103	 6.14514079679591E-02 
2104	 6.10629933434276E-02 
2105	 5.83303727114154E-02 
2106	 5.66274571533543E-02 
2107	 5.67823147241977E-02 
2108	 5.60452812139096E-02 
2109	 0.058915702455848 
2110	 6.48868928450435E-02 
2111	 6.76050752140683E-02 
2112	 6.70943305445739E-02 
2113	 6.60749261507024E-02 
2114	 6.18585320121588E-02 
2115	 5.99290432115486E-02 
2116	 5.84420300057237E-02 
2117	 5.75204170745085E-02 
2118	 5.63488221090013E-02 
2119	 5.65877357935114E-02 
2120	 5.77965192495712E-02 
2121	 5.90400935635322E-02 
2122	 5.98279046897893E-02 
2123	 6.41008072297426E-02 
2124	 6.79902516044186E-02 
2125	 6.75711342967666E-02 
2126	 0.068276061345453 
2127	 7.02162999045592E-02 
2128	 6.87440576224311E-02 
2129	 6.65865528601747E-02 
2130	 6.79899645724481E-02 
2131	 6.86372299907935E-02 
2132	 7.01815926463293E-02 
2133	 7.40974829683041E-02 
2134	 7.44442548553183E-02 
2135	 7.16537914972936E-02 
2136	 7.04765102690071E-02 
2137	 0.068130496457966 
2138	 6.72152648526761E-02 
2139	 6.75645723031009E-02 
2140	 6.79549458726047E-02 
2141	 6.84419720462007E-02 
2142	 6.81994985003817E-02 
2143	 0.068281310610897 
2144	 6.82616677532122E-02 
2145	 0.065588383915623 
2146	 6.53462540378848E-02 
2147	 6.43404474866248E-02 
2148	 6.01535841366661E-02 
2149	 5.83425253203564E-02 
2150	 5.84155066195724E-02 
2151	 6.05557965352471E-02 
2152	 0.06376896164247 
2153	 6.59809715030129E-02 
2154	 6.76826758067244E-02 
2155	 6.69903399231031E-02 
2156	 6.83414164987069E-02 
2157	 6.87547326718757E-02 
2158	 6.82969574882979E-02 
2159	 6.85628040713781E-02 
2160	 7.03069139955222E-02 
2161	 6.87105195659394E-02 
2162	 6.43846025227403E-02 
2163	 0.064092407644467 
2164	 6.35741924856663E-02 
2165	 6.31519376667108E-02 
2166	 0.066699982968223 
2167	 6.78188897901384E-02 
2168	 6.63423550692289E-02 
2169	 6.60337211052238E-02 
2170	 6.59939507004007E-02 
2171	 6.62665346650675E-02 
2172	 6.67071467879658E-02 
2173	 6.57984145658848E-02 
2174	 0.065734680939225 
2175	 6.89144241511239E-02 
2176	 7.00795916817919E-02 
2177	 6.78285316826121E-02 
2178	 6.80539088160545E-02 
2179	 6.50342299528983E-02 
2180	 6.35639322191724E-02 
2181	 6.96053661151668E-02 
2182	 7.03892442505082E-02 
2183	 6.85981594928918E-02 
2184	 6.76146343259079E-02 
2185	 6.29675418233679E-02 
2186	 6.23550194715224E-02 
2187	 6.57614095505653E-02 
2188	 6.60161015191063E-02 
2189	 6.80330068980605E-02 
2190	 6.73281175417825E-02 
2191	 6.06554371025314E-02 
2192	 5.85281440743045E-02 
2193	 5.90258279592051E-02 
2194	 0.057536211035326 
2195	 5.72173010349727E-02 
2196	 5.78721330950852E-02 
2197	 5.50523539681566E-02 
2198	 5.52023808983317E-02 
2199	 5.83370404347348E-02 
2200	 6.25379346270474E-02 
2201	 6.52904279395983E-02 
2202	 6.96694570475519E-02 
2203	 7.10743301070558E-02 
2204	 7.04100390989196E-02 
2205	 6.73031464601609E-02 
2206	 6.55701782707341E-02 
2207	 6.75715643936658E-02 
2208	 6.90333934298811E-02 
2209	 7.27357461780164E-02 
2210	 7.47484903937833E-02 
2211	 7.13921528680624E-02 
2212	 6.96668407177641E-02 
2213	 6.84848241740065E-02 
2214	 6.81314445809172E-02 
2215	 6.98370234587741E-02 
2216	 6.95151889817305E-02 
2217	 6.92512193741664E-02 
2218	 6.70893599793931E-02 
2219	 6.87580610909956E-02 
2220	 7.32991760611262E-02 
2221	 7.54664036153495E-02 
2222	 7.94460388889454E-02 
2223	 8.08301964195527E-02 
2224	 7.92421915145647E-02 
2225	 0.077788733767026 
2226	 7.51412527205478E-02 
2227	 7.50058089177081E-02 
2228	 7.40982840570567E-02 
2229	 7.47331617791995E-02 
2230	 8.15796449154402E-02 
2231	 0.080827975622602 
2232	 7.25813487041248E-02 
2233	 7.21886281107629E-02 
2234	 7.37376717285534E-02 
2235	 7.10265982074008E-02 
2236	 7.57871296541681E-02 
2237	 8.24186703966197E-02 
2238	 0.075772080104296 
2239	 7.15978530806098E-02 
2240	 6.91400182998623E-02 
2241	 6.32826032596427E-02 
2242	 6.63816481464841E-02 
2243	 7.57277045386489E-02 
2244	 8.01136194636387E-02 
2245	 7.87128256545645E-02 
2246	 7.37919693614994E-02 
2247	 6.40988518630691E-02 
2248	 0.058265883904763 
2249	 6.10662278743418E-02 
2250	 6.60751567629101E-02 
2251	 6.69628972767254E-02 
2252	 6.86984354695195E-02 
2253	 7.16570386215833E-02 
2254	 7.02938942262892E-02 
2255	 7.24970240306575E-02 
2256	 7.56708310967309E-02 
2257	 7.91345754439088E-02 
2258	 8.46537125513508E-02 
2259	 8.49487271962455E-02 
2260	 8.39729749248118E-02 
2261	 7.83403234648821E-02 
2262	 7.53153440712604E-02 
2263	 7.15479275029497E-02 
2264	 6.98063781407716E-02 
2265	 6.96888634810192E-02 
2266	 7.26336865591799E-02 
2267	 0.077629930580453 
2268	 8.06337765769697E-02 
2269	 8.87166054952893E-02 
2270	 0.08687329064733 
2271	 7.65239601568265E-02 
2272	 7.27583611436087E-02 
2273	 0.064990639060645 
2274	 6.00241292835213E-02 
2275	 5.99607316517766E-02 
2276	 0.06025447058193 
2277	 6.30582335942816E-02 
2278	 6.39004073107405E-02 
2279	 6.37398860942449E-02 
2280	 0.065980809470832 
2281	 6.76064735450476E-02 
2282	 6.88379049132722E-02 
2283	 7.08900333369677E-02 
2284	 7.82649946085859E-02 
2285	 7.21037464935586E-02 
2286	 0.064318009518262 
2287	 6.99154652323985E-02 
2288	 6.50692420238806E-02 
2289	 6.72636733281349E-02 
2290	 8.20192632242248E-02 
2291	 8.19084269382362E-02 
2292	 7.68222489347341E-02 
2293	 7.46917871561199E-02 
2294	 6.86375139935499E-02 
2295	 7.49173450818719E-02 
2296	 7.94102880478612E-02 
2297	 7.22728316048427E-02 
2298	 6.88101837937507E-02 
2299	 6.52509380431872E-02 
2300	 6.35914859428196E-02 
2301	 6.62285346799048E-02 
2302	 7.23782903516836E-02 
2303	 6.79223686384188E-02 
2304	 5.45579770380098E-02 
2305	 0.058348201493631 
2306	 5.98864643532038E-02 
2307	 5.71955932458789E-02 
2308	 6.73899021815637E-02 
2309	 6.79910295929101E-02 
2310	 6.27004854514731E-02 
2311	 6.21616818783239E-02 
2312	 6.46837259158016E-02 
2313	 0.077124061242508 
2314	 8.96161428391077E-02 
2315	 9.12390845232013E-02 
2316	 8.32786242097335E-02 
2317	 7.02721093066602E-02 
2318	 5.78358596833383E-02 
2319	 5.22289898540452E-02 
2320	 5.49305052977625E-02 
2321	 0.053221148190309 
2322	 5.10637073217212E-02 
2323	 6.77369448030985E-02 
2324	 8.20686097873802E-02 
2325	 8.52429543559823E-02 
2326	 9.08868707413839E-02 
2327	 7.88279036430631E-02 
2328	 6.39302326653504E-02 
2329	 7.02010638676328E-02 
2330	 6.39558071797178E-02 
2331	 4.30937725212232E-02 
2332	 3.58162823652165E-02 
2333	 3.93673799645005E-02 
2334	 0.049852023678235 
2335	 6.96746979775194E-02 
2336	 0.083189752511233 
2337	 7.91691031109092E-02 
2338	 5.85782000121223E-02 
2339	 4.32628826690919E-02 
2340	 4.69414360315372E-02 
2341	 3.07386191032623E-02 
2342	 3.28880674012177E-02 
2343	 4.90419376609361E-02 
2344	 4.76988680510629E-02 
2345	 9.61690446444918E-02 
2346	 0.132458833519024 
2347	 0.13422447407117 
2348	 0.159396574540099 
2349	 0.130985044256991 
2350	 0.112596084070953 
2351	 0.138898990960375 
2352	 0.127951022795154 
2353	 0.139128350473373 
2354	 0.115994129275002 
2355	 5.59995881448374E-02 
2356	 0.052182186114608 
2357	 4.26196400823015E-02 
2358	 4.21985200364355E-02 
2359	 7.83608810412282E-02 
2360	 8.94765848641067E-02 
2361	 0.066091999953851 
2362	 7.06579264396428E-02 
2363	 6.80127895113335E-02 
2364	 2.84780171242651E-02 
2365	 4.69923050266723E-02 
2366	 4.42595867877671E-02 
2367	 1.29475330380679E-02 
2368	 2.80348778396286E-02 
2369	 2.13184813332615E-02 
2370	 3.57124129208507E-02 
2371	 5.31245879077995E-02 
2372	 8.49281552148006E-02 
2373	 0.169205275511037 
2374	 0.212541248932914 
2375	 0.203227991855854 
2376	 0.165842713505774 
2377	 0.101564495463227 
2378	 5.36890144295227E-02 
2379	 9.20984147240952E-02 
2380	 0.162060183171985 
2381	 0.164480171992101 
2382	 5.79137081309486E-02 
2383	-1.14592362142362E-02 
2384	 0.061798627932546 
2385	-3.73692919582362E-02 
2386	-0.146326251361057 
2387	-3.95593161621245E-02 
2388	-7.10960739071509E-02 
2389	-1.20842392508593E-02 
2390	 9.99034589854932E-02 
2391	 0.078001599066826 
2392	 7.45776666030714E-02 
2393	 0.183828343012439 
2394	 0.388331621641244 
2395	 0.393591194066313 
2396	 0.177657769628943 
2397	 3.40871636344957E-02 
2398	-0.174770134887481 
2399	-0.333164984972103 
2400	-0.166151295366933 
2401	 3.23503193528989E-02 
2402	 0.164020882525435 
2403	 0.327115899433337 
2404	 0.270091479627439 
2405	 9.23584359787381E-02 
2406	 1.09987725460786E-02 
2407	 6.26095057490726E-02 
2408	 5.57714950581423E-02 
2409	 9.03322469592219E-02 
2410	 0.383490872186432 
2411	 0.473259234661867 
2412	 0.921750635087742 
2413	 1.71192989650587 
2414	 0.855465939065619 
2415	 0.659194334024944 
2416	 0.376514607634685 
2417	 3.69353933395962E-02 
2418	 0.158672605201517 
2419	 0.243116553565115 
2420	 0.235684561818298 
2421	 0.511606137695307 
2422	 3.82537132656969E-02 
2423	-2.30433296010701 
2424	-2.22305215803801 
2425	-0.681250292856869 
2426	 1.12974975654955 
2427	 1.37168473745924 
2428	 1.19138801875562 
2429	 0.855405552172222 
2430	 0.563939275208003 
2431	 0.262351974706612 
2432	-0.134708575805571 
2433	-0.322597971075321 
2434	-0.606495633617043 
2435	 6.56040708073847E-02 
2436	 1.64626292669912 
2437	 198.151235992628 
2438	-1.29663308556267 
2439	-1.67201254207451 
2440	-23.6158626147846 
2441	-13.6488247030757 
2442	-0.543329628420581 
2443	-0.135526041319216 
2444	-10.9351636601682 
2445	-5.56209929266818 
2446	-1.96134742758506 
2447	-0.732061867290163 
2448	-0.515080317610677 
2449	-0.179180142995209 
2450	-0.120462786918474 
2451	-0.437309618373611 
2452	-0.464969165443919 
2453	-0.510916992705584 
2454	 5.25973878828433E-02 
2455	 0.21951004985217 
2456	 0.177936426931622 
2457	 0.481527652898759 
2458	 0.588575471806232 
2459	 1.06631160621146 
2460	 3.07706648314497 
2461	 2.21088331606632 
2462	 1.48275889505084 
2463	 1.18055825935343 
2464	 0.967708216344496 
2465	 0.917688129297142 
2466	 1.3813059848718 
2467	 3.92430090923557 
2468	 6.60973493032463 
2469	 14.3990367625221 
2470	-7.922324799132 
2471	-11.5252792539276 
2472	-3.46399178339645 
2473	-1.05833659654226 
2474	-1.75381386131535 
2475	 0.148411401372498 
2476	 0.425921327083463 
2477	 0.393307307693974 
2478	 1.41454784978934 
2479	-5.01296148163346E-02 
2480	-5.01270959395113E-02 
2481	-0.527546914759912 
2482	-0.556072509474798 
2483	-0.579967769890659 
2484	-0.496737353376888 
2485	-0.312623398059354 
2486	-0.686685009439134 
2487	-2.05257977379941 
2488	-1.59811605713002 
2489	-0.452379974120659 
2490	 0.13089105826016 
2491	 0.466740823883933 
2492	 0.294241364982799 
2493	-0.288828134208278 
2494	-0.311686334465491 
2495	-0.804045676662936 
2496	-2.88985692239282 
2497	-3.08678152401847 
2498	-4.76752337658783 
2499	-0.857635240015708 
2500	 0.346310030999002 
