Wavelength	rt0713west_close_sunny_100007.asd
350	 6.66879103045346E-02 
351	 6.61058255162493E-02 
352	 6.56777210384245E-02 
353	 6.58911647256532E-02 
354	 6.64359594832744E-02 
355	 6.56510111199176E-02 
356	 6.49221232315159E-02 
357	 6.46990785490253E-02 
358	 6.49101891252888E-02 
359	 6.47070256358317E-02 
360	 6.45630558797077E-02 
361	 6.45777761036005E-02 
362	 6.45325651525135E-02 
363	 6.39582610009549E-02 
364	 6.37553842794889E-02 
365	 6.41550865390033E-02 
366	 6.41712703483446E-02 
367	 6.38821745751085E-02 
368	 6.36524896479626E-02 
369	 6.37156777896632E-02 
370	 0.063505922158687 
371	 0.063354396040282 
372	 6.33340437150881E-02 
373	 6.33406816077181E-02 
374	 6.32025877765671E-02 
375	 6.31107557626864E-02 
376	 6.31105040892159E-02 
377	 6.30019239015519E-02 
378	 6.30244726001545E-02 
379	 0.062911781238839 
380	 6.26150297792428E-02 
381	 6.31603466696228E-02 
382	 6.32006074395153E-02 
383	 6.29061581625024E-02 
384	 6.30665742067319E-02 
385	 6.31131006538855E-02 
386	 6.30706123946433E-02 
387	 6.30275470930671E-02 
388	 0.063078420497435 
389	 0.062893055951243 
390	 6.29077198625312E-02 
391	 6.33600234259544E-02 
392	 6.37481492648921E-02 
393	 6.36759331342507E-02 
394	 6.34074695647188E-02 
395	 6.33968446179556E-02 
396	 6.35833137648063E-02 
397	 6.37417718119822E-02 
398	 6.37441133476331E-02 
399	 6.35706570570622E-02 
400	 6.33785652900824E-02 
401	 6.33840826993487E-02 
402	 0.063582029134 
403	 6.34760279376125E-02 
404	 6.35167561861765E-02 
405	 6.36787748126031E-02 
406	 6.37693193584657E-02 
407	 6.37249731271512E-02 
408	 6.37348087941596E-02 
409	 0.063809982330107 
410	 6.37850166875417E-02 
411	 6.38478493206301E-02 
412	 6.39835048609926E-02 
413	 6.41101824622124E-02 
414	 6.40656931061287E-02 
415	 6.40896281364405E-02 
416	 6.41958260534966E-02 
417	 0.064312377908566 
418	 6.44752075454196E-02 
419	 0.064642029123188 
420	 6.47654566097656E-02 
421	 6.48042484275767E-02 
422	 6.49223547546475E-02 
423	 6.51566386026891E-02 
424	 6.54625547487755E-02 
425	 6.56707848949021E-02 
426	 0.065825331477892 
427	 6.60062549165315E-02 
428	 6.62842459059249E-02 
429	 6.65278606737659E-02 
430	 6.67043618426221E-02 
431	 0.066878409283874 
432	 0.067209703644453 
433	 6.73902499997493E-02 
434	 0.067569545569589 
435	 6.78896806224673E-02 
436	 6.81651089643367E-02 
437	 6.84306183702378E-02 
438	 6.87072379714964E-02 
439	 6.89977419905418E-02 
440	 6.92112632460334E-02 
441	 6.94402251452633E-02 
442	 6.97170876264057E-02 
443	 6.99574100879954E-02 
444	 7.02269792397693E-02 
445	 0.070483597962317 
446	 0.070692207506008 
447	 7.09682041587244E-02 
448	 0.071191481779055 
449	 7.13157746908986E-02 
450	 7.13780283479931E-02 
451	 7.16693674085333E-02 
452	 7.19427293285841E-02 
453	 7.20395582400345E-02 
454	 7.21315214308493E-02 
455	 7.23008949654665E-02 
456	 7.24877045216787E-02 
457	 7.26012971619816E-02 
458	 7.27410512038764E-02 
459	 7.28362937792732E-02 
460	 7.28940813739028E-02 
461	 7.30014410777124E-02 
462	 7.30672966524967E-02 
463	 0.073169200274123 
464	 7.33531793686123E-02 
465	 7.35020278516368E-02 
466	 7.35639346844282E-02 
467	 7.35926806696497E-02 
468	 7.36859646525514E-02 
469	 7.37899699458097E-02 
470	 7.38921010631405E-02 
471	 7.39950132398116E-02 
472	 7.41166994033427E-02 
473	 7.42433462809335E-02 
474	 7.43859937266966E-02 
475	 7.45512739471697E-02 
476	 7.47043804331208E-02 
477	 7.48944320930635E-02 
478	 7.50999067729914E-02 
479	 7.52591788658431E-02 
480	 7.54241987292389E-02 
481	 7.56805059142545E-02 
482	 7.60094984603803E-02 
483	 7.61676476609591E-02 
484	 7.64019116118519E-02 
485	 0.076701470972678 
486	 7.69748130872833E-02 
487	 7.72511121726285E-02 
488	 7.75160413429797E-02 
489	 7.77771363350765E-02 
490	 7.80636387756839E-02 
491	 7.83525462010992E-02 
492	 7.86982453530418E-02 
493	 7.91101807017185E-02 
494	 7.94503118620925E-02 
495	 0.079745485175306 
496	 8.00539249696199E-02 
497	 8.04319849992265E-02 
498	 8.07504925589016E-02 
499	 8.10115697124762E-02 
500	 8.12762564021931E-02 
501	 8.16729947912259E-02 
502	 8.20058395241186E-02 
503	 8.23606106897061E-02 
504	 8.28354453559326E-02 
505	 0.083227479725415 
506	 8.36800673029689E-02 
507	 0.084162375778703 
508	 8.45172140126128E-02 
509	 8.49465516109267E-02 
510	 8.54403939455677E-02 
511	 8.59465924296932E-02 
512	 8.64031835535242E-02 
513	 8.68701229470226E-02 
514	 8.73691717988437E-02 
515	 8.79012690872821E-02 
516	 8.84625060180397E-02 
517	 8.90324771294796E-02 
518	 8.95804162858866E-02 
519	 9.00694816628963E-02 
520	 0.090591466349606 
521	 0.091128563484221 
522	 9.16478233077044E-02 
523	 9.21340017131799E-02 
524	 9.27151387700404E-02 
525	 9.33530747861653E-02 
526	 9.39041000225515E-02 
527	 9.44626542397844E-02 
528	 9.49999618413113E-02 
529	 9.55105602274603E-02 
530	 9.60645543219503E-02 
531	 9.66701704188916E-02 
532	 9.73212488388707E-02 
533	 9.79907983061766E-02 
534	 9.86228334287248E-02 
535	 9.91674202092646E-02 
536	 9.96698559818139E-02 
537	 0.100272148683024 
538	 0.100854892831713 
539	 0.101448986423808 
540	 0.10208801632805 
541	 0.10270091085968 
542	 0.103308974999972 
543	 0.103922963235442 
544	 0.10455033722516 
545	 0.105211885530987 
546	 0.105854284399743 
547	 0.106453537750592 
548	 0.107057489107813 
549	 0.107680971369136 
550	 0.108291594741477 
551	 0.108862499666018 
552	 0.109501100667844 
553	 0.110120001317219 
554	 0.110706555457995 
555	 0.111339143548443 
556	 0.111909163376442 
557	 0.112448716495981 
558	 0.113004483057097 
559	 0.113576981856491 
560	 0.114116118353059 
561	 0.114595690762797 
562	 0.115014962709663 
563	 0.115417797552427 
564	 0.115821814694255 
565	 0.116198835592114 
566	 0.116434426987785 
567	 0.11671116104578 
568	 0.117017330134532 
569	 0.117293217382726 
570	 0.117665871945738 
571	 0.117981156584652 
572	 0.118196732615029 
573	 0.118407389729891 
574	 0.118659093716651 
575	 0.118936504695184 
576	 0.119192703999622 
577	 0.119343998900857 
578	 0.119504856017957 
579	 0.119681105374684 
580	 0.1198046838475 
581	 0.119819589724525 
582	 0.119758101107752 
583	 0.119643843874873 
584	 0.119464020030327 
585	 0.119186316312129 
586	 0.118794173958615 
587	 0.118291672940397 
588	 0.117761502733113 
589	 0.117388184981959 
590	 0.117221026834956 
591	 0.117123448001859 
592	 0.116854907632603 
593	 0.116497513755721 
594	 0.116153538997196 
595	 0.11573620790315 
596	 0.115206695052239 
597	 0.11460921501223 
598	 0.11403667124516 
599	 0.113478713392137 
600	 0.113003155633264 
601	 0.112632825117917 
602	 0.112297810907942 
603	 0.1120748492868 
604	 0.111937416787598 
605	 0.111837502753483 
606	 0.111796077988974 
607	 0.111774437880584 
608	 0.111758370038369 
609	 0.111761689774409 
610	 0.111795728170987 
611	 0.11178978794115 
612	 0.11171635945922 
613	 0.11172492604025 
614	 0.111703961354888 
615	 0.111663105702872 
616	 0.111665785898275 
617	 0.111605849907645 
618	 0.111525604815589 
619	 0.111481778986469 
620	 0.111538986729385 
621	 0.111455691813091 
622	 0.111325380943897 
623	 0.111292507414987 
624	 0.111166241858512 
625	 0.110972866250666 
626	 0.110767167990802 
627	 0.110624701390063 
628	 0.110615063747873 
629	 0.110678238907268 
630	 0.11071840328541 
631	 0.11060674870628 
632	 0.110616924752677 
633	 0.11068365323783 
634	 0.110609697076438 
635	 0.110580740614452 
636	 0.11052446190489 
637	 0.110403477362517 
638	 0.110259155685973 
639	 0.110190769780062 
640	 0.110102302748618 
641	 0.109890698740149 
642	 0.109683105520099 
643	 0.109423497380419 
644	 0.109060290824212 
645	 0.108565914342876 
646	 0.108172457041804 
647	 0.107928965011661 
648	 0.107814632238305 
649	 0.107760413512505 
650	 0.107589880669291 
651	 0.107344696066262 
652	 0.107131759040266 
653	 0.106766460030085 
654	 0.106343057306725 
655	 0.105912836404336 
656	 0.105498184816236 
657	 0.105132107661415 
658	 0.104788264543226 
659	 0.104452884645777 
660	 0.1042299675947 
661	 0.104009290155219 
662	 0.103787463117382 
663	 0.103628527131668 
664	 0.10350749784494 
665	 0.103374553500767 
666	 0.10320919459567 
667	 0.103049134240541 
668	 0.102901488157089 
669	 0.102805656208931 
670	 0.102781623249153 
671	 0.102712514621375 
672	 0.102637581855246 
673	 0.102602962885756 
674	 0.102644560040578 
675	 0.102589901393897 
676	 0.102564872128072 
677	 0.102639020257841 
678	 0.10258570499569 
679	 0.102578010191898 
680	 0.102643329809804 
681	 0.102727209194416 
682	 0.102706091051582 
683	 0.102719624251969 
684	 0.102748623587984 
685	 0.102520648003611 
686	 0.1021959485882 
687	 0.102062248405379 
688	 0.102233554932808 
689	 0.102220929428112 
690	 0.101999960532118 
691	 0.101588841039825 
692	 0.101056434400741 
693	 0.100684302035275 
694	 0.100543355108195 
695	 0.100484524176906 
696	 0.100125261118713 
697	 0.099480021547582 
698	 0.098685920500645 
699	 9.79476046739945E-02 
700	 9.71528858598588E-02 
701	 9.65660631893413E-02 
702	 9.60962585201724E-02 
703	 9.53662429864786E-02 
704	 9.44638586798711E-02 
705	 0.093522448465959 
706	 9.26237520888269E-02 
707	 9.16544423928302E-02 
708	 0.090520118791953 
709	 8.92939929795144E-02 
710	 8.80593312191394E-02 
711	 8.65384053797452E-02 
712	 8.49128611119064E-02 
713	 0.083194646806889 
714	 8.11363516258484E-02 
715	 7.88218056926616E-02 
716	 0.076235452899307 
717	 7.37100404163954E-02 
718	 7.15879771214517E-02 
719	 0.070126253569582 
720	 6.90635034426823E-02 
721	 6.77617536402161E-02 
722	 6.58799270253926E-02 
723	 6.36600738697837E-02 
724	 6.16103444767482E-02 
725	 0.059746305518299 
726	 5.79402870956883E-02 
727	 5.59710526296856E-02 
728	 5.37792595224585E-02 
729	 5.16824467028008E-02 
730	 0.049708535005716 
731	 4.81119497773854E-02 
732	 4.69506065586384E-02 
733	 4.56295573964485E-02 
734	 4.43330879180549E-02 
735	 4.32676324637991E-02 
736	 4.25830269761937E-02 
737	 4.20754102331143E-02 
738	 4.17242080314076E-02 
739	 4.15440302477891E-02 
740	 4.15070648532067E-02 
741	 0.041434175699017 
742	 4.13476484209036E-02 
743	 4.13537375459885E-02 
744	 4.12878954895989E-02 
745	 4.11972899451368E-02 
746	 4.11452072197238E-02 
747	 4.11848630840813E-02 
748	 4.11797710483742E-02 
749	 4.11273749058266E-02 
750	 4.10626202320814E-02 
751	 4.10089381925254E-02 
752	 4.09759055412258E-02 
753	 4.09813471412556E-02 
754	 4.10232492496478E-02 
755	 4.09367673879904E-02 
756	 4.07735876926632E-02 
757	 0.040521703111555 
758	 3.99205340674358E-02 
759	 3.89874663135339E-02 
760	 3.81616785500246E-02 
761	 3.82549326964631E-02 
762	 3.84609877837877E-02 
763	 3.88001093612991E-02 
764	 3.93657337986057E-02 
765	 4.01363338659543E-02 
766	 0.040454766524019 
767	 4.07497595527575E-02 
768	 4.11261067636614E-02 
769	 4.13605123816945E-02 
770	 4.14421839620375E-02 
771	 4.15639322437467E-02 
772	 0.041818186091109 
773	 4.19035863963986E-02 
774	 4.20239605760535E-02 
775	 4.22062383409352E-02 
776	 4.23946682882032E-02 
777	 4.25100287595555E-02 
778	 4.27460329711705E-02 
779	 4.30800814264026E-02 
780	 4.32663276311424E-02 
781	 4.33954929536075E-02 
782	 4.35715813994557E-02 
783	 4.38231563423589E-02 
784	 4.40064037843542E-02 
785	 4.41461123000441E-02 
786	 4.42710638199658E-02 
787	 4.44130379155215E-02 
788	 4.45621326432216E-02 
789	 4.48604859719452E-02 
790	 4.53166576777858E-02 
791	 4.58122938930442E-02 
792	 0.046177194051268 
793	 4.64610628501039E-02 
794	 0.046738888622856 
795	 4.70550462180701E-02 
796	 4.73230389332088E-02 
797	 4.75350215151197E-02 
798	 4.77273690324041E-02 
799	 4.79594471356561E-02 
800	 4.81978480887911E-02 
801	 4.84060217397401E-02 
802	 4.85818810297235E-02 
803	 4.89600597686095E-02 
804	 4.91777988162449E-02 
805	 4.91970647184906E-02 
806	 4.93645093899252E-02 
807	 0.049367453386145 
808	 4.90871879294973E-02 
809	 4.85781061961508E-02 
810	 4.82286926085974E-02 
811	 4.78700013553395E-02 
812	 4.73513110797833E-02 
813	 4.65883624157408E-02 
814	 4.59256973299822E-02 
815	 4.54229766272274E-02 
816	 0.045039719656404 
817	 4.46811137689971E-02 
818	 4.46403617241145E-02 
819	 0.044442513275854 
820	 4.38330506310927E-02 
821	 4.28682508694192E-02 
822	 4.18759244962414E-02 
823	 0.040943304293722 
824	 4.00560686905706E-02 
825	 3.91293374515984E-02 
826	 0.037923467370213 
827	 3.64656683883135E-02 
828	 3.50479075857308E-02 
829	 3.39896407763077E-02 
830	 0.033156908459924 
831	 3.24692926940616E-02 
832	 3.19186900427782E-02 
833	 3.12834719964304E-02 
834	 3.09484792049193E-02 
835	 3.09244335977366E-02 
836	 3.06861300325587E-02 
837	 3.04338121515264E-02 
838	 3.02153329511768E-02 
839	 3.00718332783248E-02 
840	 3.01201221628235E-02 
841	 3.00555431065159E-02 
842	 2.98441652735928E-02 
843	 2.95936427682506E-02 
844	 2.94873020247508E-02 
845	 0.029451687589143 
846	 2.94024255887509E-02 
847	 2.92722021965899E-02 
848	 2.91637754037835E-02 
849	 2.89414072232106E-02 
850	 2.86539618142413E-02 
851	 2.85946524327877E-02 
852	 2.86589871700787E-02 
853	 2.85988722652786E-02 
854	 2.83431540199393E-02 
855	 2.82423944524127E-02 
856	 2.82000938696083E-02 
857	 2.81596102517008E-02 
858	 2.80916228012039E-02 
859	 2.80665636127487E-02 
860	 2.77611879699373E-02 
861	 2.74558514593089E-02 
862	 2.75775272883887E-02 
863	 2.74303668719218E-02 
864	 2.73159589561763E-02 
865	 2.73024500981161E-02 
866	 2.71941401664905E-02 
867	 2.70182089196549E-02 
868	 0.026805270641186 
869	 2.66677425633452E-02 
870	 2.67972686664191E-02 
871	 2.66195154193903E-02 
872	 2.62891215008544E-02 
873	 2.60675855854135E-02 
874	 2.60740697777537E-02 
875	 2.60115833223517E-02 
876	 2.58071163172666E-02 
877	 2.55424715442741E-02 
878	 2.55639143493415E-02 
879	 2.52962528465252E-02 
880	 2.49021788166317E-02 
881	 0.024812116431304 
882	 2.47271255306394E-02 
883	 2.46338684974855E-02 
884	 2.45731879126973E-02 
885	 2.45824991743555E-02 
886	 2.43827410193232E-02 
887	 2.42063931759634E-02 
888	 2.40542898828385E-02 
889	 0.023633411052143 
890	 2.33349699799541E-02 
891	 0.023018427299006 
892	 2.26398707534782E-02 
893	 2.25229337852682E-02 
894	 2.18079147853997E-02 
895	 2.10868685467921E-02 
896	 2.09924574654178E-02 
897	 2.06731993847017E-02 
898	 2.07036198062437E-02 
899	 2.06216223416496E-02 
900	 2.00806153063761E-02 
901	 2.02800642083981E-02 
902	 2.05033148149071E-02 
903	 2.03551741921056E-02 
904	 0.019815448946131 
905	 1.99173084523392E-02 
906	 1.99978035527034E-02 
907	 1.99724889068982E-02 
908	 2.00581050813118E-02 
909	 1.90861958809869E-02 
910	 1.85155643348304E-02 
911	 1.88653815299124E-02 
912	 1.94075330347797E-02 
913	 1.88670076852814E-02 
914	 0.018534614258556 
915	 1.88080122813455E-02 
916	 1.87079070752862E-02 
917	 1.83877439107374E-02 
918	 1.81287507328213E-02 
919	 1.81877828111961E-02 
920	 1.87264824067955E-02 
921	 1.89561690815572E-02 
922	 1.86902581018386E-02 
923	 1.80871428652427E-02 
924	 1.77532672735884E-02 
925	 1.70488369330583E-02 
926	 0.016609781571679 
927	 1.69248341242275E-02 
928	 1.61968728140118E-02 
929	 1.58820808242813E-02 
930	 1.60326488389332E-02 
931	 1.59683961947989E-02 
932	 1.63694425949085E-02 
933	 1.71475002950977E-02 
934	 1.57799791388497E-02 
935	 1.11115095946996E-02 
936	 8.69120633752893E-03 
937	 0.010343495431986 
938	 1.27627644081441E-02 
939	 1.29333931965041E-02 
940	 1.39355742955709E-02 
941	 1.25223842124707E-02 
942	 1.13543480518441E-02 
943	 1.44962268930712E-02 
944	 1.49395178150289E-02 
945	 1.31029115693776E-02 
946	 1.13593703641788E-02 
947	 0.012021675193995 
948	 1.25539490967074E-02 
949	 1.19092760566365E-02 
950	 1.08278868984511E-02 
951	 1.09295504174077E-02 
952	 1.23622104940972E-02 
953	 1.43073263511417E-02 
954	 1.50046269209499E-02 
955	 1.31301491829188E-02 
956	 1.26226193309981E-02 
957	 1.35131847232551E-02 
958	 1.46220777183859E-02 
959	 1.45903907184411E-02 
960	 1.43582118662676E-02 
961	 1.46409863998479E-02 
962	 1.56426189849641E-02 
963	 0.016903476179357 
964	 1.63628745628592E-02 
965	 1.55158525320472E-02 
966	 1.53156894662305E-02 
967	 1.58384080575801E-02 
968	 1.55021781074376E-02 
969	 1.60524186525338E-02 
970	 1.70402868177363E-02 
971	 1.63448896363238E-02 
972	 1.57979780538753E-02 
973	 1.63773059222422E-02 
974	 1.72413201858546E-02 
975	 1.63494189341708E-02 
976	 1.59948675983455E-02 
977	 1.56348557268723E-02 
978	 1.57507486785627E-02 
979	 1.74463309745378E-02 
980	 1.82527568984917E-02 
981	 1.73767763372542E-02 
982	 0.016498411142689 
983	 1.81963962625558E-02 
984	 0.018408687163972 
985	 1.86384203708764E-02 
986	 1.91195651896237E-02 
987	 1.88518314595152E-02 
988	 1.84850570778971E-02 
989	 1.82846311975608E-02 
990	 1.84006848552302E-02 
991	 1.88019669045185E-02 
992	 1.89918694916803E-02 
993	 1.85951744492575E-02 
994	 1.84858986730577E-02 
995	 1.96905588064418E-02 
996	 1.90316143546102E-02 
997	 1.87907656151744E-02 
998	 1.92966282827832E-02 
999	 1.94217278080303E-02 
1000	 0.018909074108846 
1001	 1.55882618670741E-02 
1002	 1.54180231505163E-02 
1003	 1.52681034512969E-02 
1004	 1.49402043531964E-02 
1005	 1.48288768644506E-02 
1006	 1.47318666207055E-02 
1007	 1.46848618229503E-02 
1008	 1.50945360248415E-02 
1009	 1.53685567388902E-02 
1010	 1.56489428008902E-02 
1011	 1.58173573437406E-02 
1012	 1.58691804811155E-02 
1013	 1.58398906336126E-02 
1014	 1.56325382592451E-02 
1015	 1.51754229566649E-02 
1016	 1.51467295611628E-02 
1017	 1.49754783955573E-02 
1018	 1.50779633934946E-02 
1019	 1.59082206184375E-02 
1020	 1.60847936647091E-02 
1021	 1.59788307028485E-02 
1022	 1.59073865528107E-02 
1023	 1.56330321751542E-02 
1024	 1.53876097257739E-02 
1025	 1.52654279077255E-02 
1026	 1.55517114874593E-02 
1027	 1.57455370542642E-02 
1028	 0.016121796282107 
1029	 1.61556177429173E-02 
1030	 1.61656355842076E-02 
1031	 1.60252136872435E-02 
1032	 1.55668211450251E-02 
1033	 1.53787398006872E-02 
1034	 1.51930466686516E-02 
1035	 1.50917508972602E-02 
1036	 1.50441551761022E-02 
1037	 1.50435578795158E-02 
1038	 0.015087023353047 
1039	 1.53101036324297E-02 
1040	 1.52522556308373E-02 
1041	 1.54611003491525E-02 
1042	 0.015578599391809 
1043	 1.56157271581216E-02 
1044	 1.57842189185354E-02 
1045	 1.61057667675115E-02 
1046	 1.62410905372919E-02 
1047	 0.016484147920931 
1048	 1.64161068673486E-02 
1049	 1.59269643575222E-02 
1050	 1.58535155206029E-02 
1051	 1.57826363608841E-02 
1052	 1.57585273590634E-02 
1053	 1.61468445995979E-02 
1054	 1.62329399881807E-02 
1055	 0.015983966697025 
1056	 1.59448323762808E-02 
1057	 1.59452667994949E-02 
1058	 1.60320270052255E-02 
1059	 1.58378227263803E-02 
1060	 1.55587622936546E-02 
1061	 1.54237449885305E-02 
1062	 1.50548965315464E-02 
1063	 1.49383418244875E-02 
1064	 1.51362336973873E-02 
1065	 1.52159669371961E-02 
1066	 1.53051815064899E-02 
1067	 1.53265603682442E-02 
1068	 0.015377300534383 
1069	 1.53795221799001E-02 
1070	 1.52195295561767E-02 
1071	 1.51666080009156E-02 
1072	 1.50842467132977E-02 
1073	 1.52056813429566E-02 
1074	 0.015230695720871 
1075	 1.53218414232033E-02 
1076	 1.52889105530327E-02 
1077	 1.51161670211964E-02 
1078	 1.51410812904228E-02 
1079	 1.52938370029931E-02 
1080	 1.52438889231404E-02 
1081	 1.51724521120814E-02 
1082	 1.51769596490899E-02 
1083	 1.49929149150393E-02 
1084	 1.49295866156474E-02 
1085	 1.52178585574997E-02 
1086	 1.52250893152772E-02 
1087	 1.48510249350942E-02 
1088	 1.48098512625513E-02 
1089	 1.51055219201553E-02 
1090	 1.49536229068849E-02 
1091	 1.48344816014474E-02 
1092	 1.48532782129655E-02 
1093	 1.48151619537371E-02 
1094	 1.45591262778962E-02 
1095	 1.43380656868154E-02 
1096	 1.42213238082729E-02 
1097	 1.39829893674505E-02 
1098	 1.33960809211109E-02 
1099	 1.30580112044032E-02 
1100	 1.27993204338827E-02 
1101	 1.28521539119243E-02 
1102	 0.013512693669805 
1103	 1.35693090398297E-02 
1104	 1.38489129554212E-02 
1105	 0.013214165082595 
1106	 1.25837012269234E-02 
1107	 1.23303307508083E-02 
1108	 1.21198929293506E-02 
1109	 1.26533933205103E-02 
1110	 1.25236530423624E-02 
1111	 1.16975045488002E-02 
1112	 1.11496939123768E-02 
1113	 1.05284799501005E-02 
1114	 0.010019222911379 
1115	 9.39767064301706E-03 
1116	 9.5138568085019E-03 
1117	 1.14525005206747E-02 
1118	 1.10965983484067E-02 
1119	 8.28321394421486E-03 
1120	 7.23915205875404E-03 
1121	 3.99094850677471E-03 
1122	 3.87375890080155E-03 
1123	 5.0561800808978E-03 
1124	 6.33981725608272E-03 
1125	 7.1799745506329E-03 
1126	 3.7994672346439E-03 
1127	 2.30326127621044E-03 
1128	 5.52465303625703E-03 
1129	 6.86043558839791E-03 
1130	 7.08726317164587E-03 
1131	 7.62096376812819E-03 
1132	 9.85401845730175E-03 
1133	 9.18749905242503E-03 
1134	 4.45021350763245E-03 
1135	 5.54499925188834E-03 
1136	 1.04617209296518E-02 
1137	 1.11172872635217E-02 
1138	 1.27116931347876E-02 
1139	 1.26790714723021E-02 
1140	 9.95115841246516E-03 
1141	 7.18472950228249E-03 
1142	 7.31114120390128E-03 
1143	 8.91408914954797E-03 
1144	 9.16213867969232E-03 
1145	 8.12695591436659E-03 
1146	 7.56458347832057E-03 
1147	 8.25552521194109E-03 
1148	 9.8914999751879E-03 
1149	 9.84087793191754E-03 
1150	 9.85483515671066E-03 
1151	 9.18552352058573E-03 
1152	 9.45533550867858E-03 
1153	 1.01948673720485E-02 
1154	 1.04760633176274E-02 
1155	 1.08931359269975E-02 
1156	 1.05114715892675E-02 
1157	 1.09291603081177E-02 
1158	 1.09769635165387E-02 
1159	 1.07723420876293E-02 
1160	 1.11252838691197E-02 
1161	 1.12444367741848E-02 
1162	 1.14229378888867E-02 
1163	 1.19491838459147E-02 
1164	 1.19834202453874E-02 
1165	 1.18611058983225E-02 
1166	 0.012163362534084 
1167	 1.24168055614858E-02 
1168	 1.26167905415005E-02 
1169	 0.01288558231687 
1170	 1.27071918790696E-02 
1171	 1.26526349476026E-02 
1172	 1.26682408588891E-02 
1173	 1.26727478004568E-02 
1174	 1.25924673191576E-02 
1175	 1.26429124917785E-02 
1176	 0.012874259782087 
1177	 1.28738016187024E-02 
1178	 1.28619191182208E-02 
1179	 1.28916592733802E-02 
1180	 1.28790985730317E-02 
1181	 1.29090842373883E-02 
1182	 1.29300687090595E-02 
1183	 1.28857778023166E-02 
1184	 1.28965911513647E-02 
1185	 1.30082501426854E-02 
1186	 1.29905203343086E-02 
1187	 1.30124811041361E-02 
1188	 1.31096715955565E-02 
1189	 1.29316838294726E-02 
1190	 1.28974250171532E-02 
1191	 1.30418845938883E-02 
1192	 1.31472691964614E-02 
1193	 1.32076152675319E-02 
1194	 1.32898213065066E-02 
1195	 1.33204722564856E-02 
1196	 1.33345823771673E-02 
1197	 1.33543412958247E-02 
1198	 1.34893076059786E-02 
1199	 1.35801562445393E-02 
1200	 1.34750614600416E-02 
1201	 1.33932072722116E-02 
1202	 1.33729939944902E-02 
1203	 1.32660184596788E-02 
1204	 0.013308547619359 
1205	 1.36662172275713E-02 
1206	 1.36535713652342E-02 
1207	 1.34184374716022E-02 
1208	 1.36269457714146E-02 
1209	 1.37412407953392E-02 
1210	 1.34961207210754E-02 
1211	 1.34744735540542E-02 
1212	 0.013662268990371 
1213	 1.36161836105021E-02 
1214	 1.35723253375157E-02 
1215	 1.35924383436002E-02 
1216	 1.38473123507793E-02 
1217	 1.37962985526574E-02 
1218	 1.36246095927206E-02 
1219	 1.38253659808819E-02 
1220	 1.39775190269753E-02 
1221	 1.40870887299012E-02 
1222	 1.42270709384839E-02 
1223	 1.40903959764373E-02 
1224	 1.40590625325056E-02 
1225	 1.41973649656981E-02 
1226	 1.42084977855967E-02 
1227	 1.41560693168998E-02 
1228	 1.42173531542535E-02 
1229	 1.42868127522635E-02 
1230	 1.42632734411108E-02 
1231	 1.44197773022496E-02 
1232	 0.014589853023116 
1233	 1.44485286048694E-02 
1234	 1.43924663447746E-02 
1235	 1.43984891589052E-02 
1236	 1.44140307496474E-02 
1237	 1.44501651321268E-02 
1238	 1.45483894366717E-02 
1239	 1.47059156459415E-02 
1240	 1.46550813955691E-02 
1241	 1.47147834904642E-02 
1242	 1.47747356217621E-02 
1243	 1.46802948629495E-02 
1244	 1.46951505709456E-02 
1245	 1.46672873078005E-02 
1246	 1.45375255478486E-02 
1247	 1.44996126597226E-02 
1248	 1.45388911008979E-02 
1249	 1.45453784861917E-02 
1250	 1.45371993840422E-02 
1251	 1.45848573311344E-02 
1252	 1.46107096516957E-02 
1253	 1.45536149462125E-02 
1254	 1.45232153132298E-02 
1255	 1.45337474000586E-02 
1256	 0.014495247960012 
1257	 1.43852252084289E-02 
1258	 1.43851744177815E-02 
1259	 1.44606436203589E-02 
1260	 1.43715630987638E-02 
1261	 1.42792127815153E-02 
1262	 1.42460497952765E-02 
1263	 1.41818194689892E-02 
1264	 1.39069813170159E-02 
1265	 1.40795001874255E-02 
1266	 1.41742875811149E-02 
1267	 1.39047662223775E-02 
1268	 1.40479815603945E-02 
1269	 1.42086897245222E-02 
1270	 1.38955220923113E-02 
1271	 1.38022540785037E-02 
1272	 1.40614134743546E-02 
1273	 1.41432254276157E-02 
1274	 1.40553746312742E-02 
1275	 1.40792388559192E-02 
1276	 1.40795953084634E-02 
1277	 0.014071183745575 
1278	 1.41428483994524E-02 
1279	 1.41184494163148E-02 
1280	 1.41557828562335E-02 
1281	 1.42236397058835E-02 
1282	 0.014273251068265 
1283	 1.42803680533707E-02 
1284	 1.43482324675634E-02 
1285	 1.43195833361159E-02 
1286	 1.41476815676841E-02 
1287	 1.40504282767242E-02 
1288	 1.39897997607748E-02 
1289	 1.39160620203472E-02 
1290	 1.37502691253455E-02 
1291	 1.37273156228426E-02 
1292	 1.39434518366174E-02 
1293	 1.42016879887368E-02 
1294	 1.40613450334109E-02 
1295	 1.38253539011044E-02 
1296	 1.38685226601958E-02 
1297	 1.37267990027836E-02 
1298	 1.34377494660789E-02 
1299	 1.36001860428009E-02 
1300	 1.38002778302474E-02 
1301	 1.33362483838977E-02 
1302	 1.30988024995066E-02 
1303	 1.33961261463066E-02 
1304	 1.31343358568335E-02 
1305	 1.28910374577293E-02 
1306	 1.27833037961005E-02 
1307	 1.30943866767193E-02 
1308	 1.29729435504155E-02 
1309	 1.24577965975617E-02 
1310	 1.22627999187133E-02 
1311	 1.22837735336107E-02 
1312	 0.012209440837963 
1313	 0.012177259790667 
1314	 1.20761018589895E-02 
1315	 0.011809318356624 
1316	 1.16474787463269E-02 
1317	 1.15905073353573E-02 
1318	 1.14638325577022E-02 
1319	 1.12908528956411E-02 
1320	 1.12657841381715E-02 
1321	 1.12714315966729E-02 
1322	 1.12952729083919E-02 
1323	 1.10756675237534E-02 
1324	 1.10096707957892E-02 
1325	 0.010950060807085 
1326	 1.03854422195887E-02 
1327	 1.03746348930321E-02 
1328	 1.09530321458408E-02 
1329	 1.10044920374167E-02 
1330	 1.06878179236098E-02 
1331	 1.04788450025549E-02 
1332	 0.010384420306198 
1333	 9.9610133726439E-03 
1334	 9.47766609377341E-03 
1335	 9.19825836574822E-03 
1336	 8.83334506520392E-03 
1337	 8.53836661458982E-03 
1338	 8.48574631636676E-03 
1339	 8.80647267439168E-03 
1340	 9.41118888048917E-03 
1341	 9.61597382993815E-03 
1342	 1.05081424095501E-02 
1343	 1.05283977113613E-02 
1344	 8.7676855167342E-03 
1345	 8.36511995535376E-03 
1346	 8.87930062050002E-03 
1347	 8.49814196125326E-03 
1348	 8.03284706806874E-03 
1349	 8.24085731049289E-03 
1350	 6.90295495308165E-03 
1351	 6.73429109762136E-03 
1352	 1.61288282320419E-02 
1353	 2.09520669197183E-02 
1354	 1.83831858134991E-02 
1355	 1.36712237272744E-02 
1356	-1.96916210876015E-02 
1357	-4.66017747209603E-02 
1358	-1.75926601458792E-02 
1359	-5.74586202747817E-02 
1360	-0.102017525383097 
1361	-1.13926793032479E-02 
1362	 0.150782744616492 
1363	 0.163264631841426 
1364	 8.86146784589193E-02 
1365	 2.92893133930053E-02 
1366	-0.230081629648794 
1367	-0.478957593998335 
1368	-0.458336241613905 
1369	-0.196558031574295 
1370	-0.146005673778403 
1371	 9.30171833285781E-02 
1372	 0.108587610910827 
1373	-0.184163054549168 
1374	-0.277933766544843 
1375	-0.197744340941371 
1376	-8.63630510869721E-02 
1377	 0.758117915300562 
1378	 0.685338603604529 
1379	 0.152943862998087 
1380	 0.184200154716375 
1381	 0.332826934959052 
1382	 0.190115441088792 
1383	-5.85163970409383E-02 
1384	-0.158627352813935 
1385	-0.416087179923874 
1386	-0.313046302693149 
1387	 0.338021434681282 
1388	 0.462374377339948 
1389	 5.40998679941491E-02 
1390	-4.84876453276592E-02 
1391	-0.317863719244898 
1392	-0.496277182383456 
1393	 2.25831941601404E-02 
1394	 0.116728621012567 
1395	-0.356564989534649 
1396	-0.388040537141879 
1397	-0.156174949210432 
1398	-6.29291574634835E-02 
1399	 1.08530323653705E-02 
1400	 0.051583418611992 
1401	 0.142693559833256 
1402	 0.308109843967128 
1403	 0.156594291167549 
1404	-3.90913946045106E-02 
1405	-8.99673164930032E-02 
1406	-0.398198260262546 
1407	-0.396946406689824 
1408	-0.140345731451139 
1409	-2.30385426083637E-02 
1410	 4.87180126779171E-02 
1411	 0.075329911414338 
1412	 0.147475307561178 
1413	 0.111061449402581 
1414	-4.45053826262098E-02 
1415	-5.29451675249105E-02 
1416	-3.10481364318075E-02 
1417	-4.57084452213957E-02 
1418	-5.58596275175352E-02 
1419	-3.04214897468479E-02 
1420	 1.38873414739708E-02 
1421	 0.004916079420115 
1422	-3.80632785834456E-03 
1423	-9.59462616428548E-03 
1424	-5.43161026123733E-02 
1425	-5.06570330785234E-02 
1426	-3.89816789047024E-04 
1427	 3.5207567354019E-03 
1428	-0.016773869270955 
1429	-1.53009761645495E-02 
1430	-1.32865630550759E-02 
1431	-1.21156335617256E-02 
1432	 3.11279385501243E-03 
1433	 9.2493203796979E-03 
1434	-0.001380538710609 
1435	 4.41890900589578E-04 
1436	 1.02855708965028E-02 
1437	 2.37886343292362E-02 
1438	 2.31890798778991E-02 
1439	 2.00564729558931E-02 
1440	 7.49215212868873E-03 
1441	-4.77528242958472E-03 
1442	 1.36428078064907E-02 
1443	 2.28525013960936E-02 
1444	 1.29727210411925E-02 
1445	 0.013998383192655 
1446	 1.49822132577917E-02 
1447	 9.74042978833042E-03 
1448	 5.04342101506728E-03 
1449	 4.47240752383861E-03 
1450	 5.37666068160698E-03 
1451	 2.52935398515598E-03 
1452	 3.06886102639718E-03 
1453	 7.05960397869333E-03 
1454	 7.88942832790837E-03 
1455	 6.56177017875011E-03 
1456	 6.56956446184592E-03 
1457	 7.2027043512854E-03 
1458	 7.78403875228453E-03 
1459	 8.25009352501636E-03 
1460	 8.38868323630659E-03 
1461	 9.05007057598045E-03 
1462	 8.78018950915147E-03 
1463	 7.09921082390934E-03 
1464	 6.86931559702361E-03 
1465	 7.24658556270831E-03 
1466	 7.19568981831817E-03 
1467	 7.81212831817655E-03 
1468	 7.87602464385589E-03 
1469	 7.21335639220193E-03 
1470	 7.0585612512359E-03 
1471	 6.73222516469278E-03 
1472	 6.85702169198987E-03 
1473	 7.58773530548316E-03 
1474	 7.73309894420973E-03 
1475	 7.75384312394363E-03 
1476	 8.12989536816504E-03 
1477	 8.41973905731853E-03 
1478	 8.58729807188398E-03 
1479	 9.03971839808415E-03 
1480	 9.20244263485244E-03 
1481	 9.01742789558521E-03 
1482	 8.93663494340108E-03 
1483	 8.87803731219535E-03 
1484	 8.88611099662035E-03 
1485	 8.96423017352491E-03 
1486	 8.97261883251875E-03 
1487	 8.58109171677198E-03 
1488	 8.84872809521225E-03 
1489	 9.69542446487048E-03 
1490	 9.96376677919143E-03 
1491	 1.00599009009044E-02 
1492	 1.02771453084117E-02 
1493	 1.02247478277305E-02 
1494	 1.04454366725722E-02 
1495	 1.11273491277393E-02 
1496	 1.13789056857247E-02 
1497	 1.12594030087031E-02 
1498	 1.14416182894793E-02 
1499	 1.16814231290196E-02 
1500	 1.19201586019634E-02 
1501	 1.24638226402048E-02 
1502	 1.27415264808624E-02 
1503	 1.29131310185974E-02 
1504	 0.012892271344933 
1505	 1.26626435220293E-02 
1506	 1.24719981796094E-02 
1507	 1.25274646907253E-02 
1508	 0.012550969772703 
1509	 1.28728865717382E-02 
1510	 1.31796863388864E-02 
1511	 1.29440406691511E-02 
1512	 1.27212710315581E-02 
1513	 1.28315280031829E-02 
1514	 1.28841093855248E-02 
1515	 1.28655248835514E-02 
1516	 1.30295259369001E-02 
1517	 1.31378333159596E-02 
1518	 0.013094389572183 
1519	 1.31506425747588E-02 
1520	 1.31545038999521E-02 
1521	 1.29962055071022E-02 
1522	 1.29444790162708E-02 
1523	 1.29395551388392E-02 
1524	 1.29870666457147E-02 
1525	 1.31284950410204E-02 
1526	 0.01310013584287 
1527	 1.31850773080001E-02 
1528	 1.33812068102702E-02 
1529	 1.34630891709406E-02 
1530	 1.36649116629425E-02 
1531	 1.37069621421798E-02 
1532	 1.35752000071695E-02 
1533	 1.37368474687725E-02 
1534	 1.39047677003725E-02 
1535	 0.013801787080916 
1536	 0.013813398922847 
1537	 1.38878396923901E-02 
1538	 1.38335213343168E-02 
1539	 1.37039287848103E-02 
1540	 1.36998298487752E-02 
1541	 1.40096100334786E-02 
1542	 1.40767469496179E-02 
1543	 1.39570626544759E-02 
1544	 1.41732282223082E-02 
1545	 1.43210690858293E-02 
1546	 1.41044025087464E-02 
1547	 1.38908708791454E-02 
1548	 0.013993106265977 
1549	 0.013996282436748 
1550	 1.37747668380145E-02 
1551	 1.38281055845066E-02 
1552	 1.40891221404062E-02 
1553	 0.014137901122417 
1554	 0.014002482240618 
1555	 1.41974005269186E-02 
1556	 1.43536315552761E-02 
1557	 1.41004440817903E-02 
1558	 1.41519597401111E-02 
1559	 0.014266216468238 
1560	 1.41212698762978E-02 
1561	 1.41615472809505E-02 
1562	 1.41472747012278E-02 
1563	 1.39841014157961E-02 
1564	 1.39578582328935E-02 
1565	 1.40615980359932E-02 
1566	 1.42118630244604E-02 
1567	 1.41503791937712E-02 
1568	 1.39886166248557E-02 
1569	 1.39265563919001E-02 
1570	 1.38707426893879E-02 
1571	 1.40813064650947E-02 
1572	 1.42121439440767E-02 
1573	 1.39133577821906E-02 
1574	 1.39188941786182E-02 
1575	 1.41252097877225E-02 
1576	 1.40777660834088E-02 
1577	 1.41400085616104E-02 
1578	 1.41171979447199E-02 
1579	 1.39220358314391E-02 
1580	 0.013894245176594 
1581	 1.40116679535902E-02 
1582	 1.40593455176347E-02 
1583	 1.39694622736843E-02 
1584	 1.40042949872388E-02 
1585	 1.40431691520565E-02 
1586	 0.014036437579138 
1587	 1.40569223364857E-02 
1588	 1.39309463093708E-02 
1589	 1.39543861312533E-02 
1590	 1.41622706741358E-02 
1591	 1.41705693526708E-02 
1592	 0.014172778653994 
1593	 1.42222712902776E-02 
1594	 1.39928924200148E-02 
1595	 1.38473139907432E-02 
1596	 1.41092615427784E-02 
1597	 0.014228339346404 
1598	 1.40907157401531E-02 
1599	 1.41441987391142E-02 
1600	 0.01419861660831 
1601	 1.41126156120709E-02 
1602	 1.42249495834715E-02 
1603	 0.014366727746444 
1604	 1.41776382500399E-02 
1605	 1.39443199519658E-02 
1606	 1.39975098071291E-02 
1607	 0.014081134928417 
1608	 1.40507989424835E-02 
1609	 1.40997106014507E-02 
1610	 1.40364413690602E-02 
1611	 1.39626621741855E-02 
1612	 1.41357639079863E-02 
1613	 1.42192012373214E-02 
1614	 1.42444025417962E-02 
1615	 1.42524688617987E-02 
1616	 1.41287006057044E-02 
1617	 1.40608991932723E-02 
1618	 1.40614591722304E-02 
1619	 1.41197466623619E-02 
1620	 1.41755280666184E-02 
1621	 1.40784142264704E-02 
1622	 1.40081255448084E-02 
1623	 1.40463288740556E-02 
1624	 1.40044178022212E-02 
1625	 1.40423420849566E-02 
1626	 1.41479469165985E-02 
1627	 1.41979400730636E-02 
1628	 1.41411331893391E-02 
1629	 1.39444499131462E-02 
1630	 1.39429408119904E-02 
1631	 1.39238862611654E-02 
1632	 0.013845150926323 
1633	 0.014030194376327 
1634	 1.41592682480122E-02 
1635	 1.39670151019154E-02 
1636	 1.38824600560688E-02 
1637	 1.42463627172457E-02 
1638	 1.43748459706098E-02 
1639	 1.42402429776962E-02 
1640	 1.41567208083979E-02 
1641	 1.38564038412546E-02 
1642	 1.37822767372225E-02 
1643	 1.39822755467901E-02 
1644	 1.41313181591844E-02 
1645	 1.42007806372833E-02 
1646	 1.40335282929603E-02 
1647	 1.37381490552905E-02 
1648	 1.36044406951279E-02 
1649	 1.36390043088109E-02 
1650	 0.013486697826211 
1651	 1.35666372084474E-02 
1652	 1.39261527341986E-02 
1653	 1.39659403464476E-02 
1654	 1.40296855279402E-02 
1655	 1.40483692052899E-02 
1656	 1.40717318774788E-02 
1657	 1.41209608757152E-02 
1658	 1.40042853201262E-02 
1659	 1.37693195200881E-02 
1660	 1.38652872358506E-02 
1661	 1.41402806645431E-02 
1662	 1.41091790390291E-02 
1663	 1.40463364342746E-02 
1664	 1.40021868190586E-02 
1665	 1.38561502092749E-02 
1666	 1.37914023258394E-02 
1667	 0.013562394982023 
1668	 1.35936455678689E-02 
1669	 1.38836661733883E-02 
1670	 1.37631051662728E-02 
1671	 1.40786393646228E-02 
1672	 1.42902468765831E-02 
1673	 1.39282943352016E-02 
1674	 1.38802254845246E-02 
1675	 1.41422087870412E-02 
1676	 1.42531355122865E-02 
1677	 1.41454701857314E-02 
1678	 1.39905610407322E-02 
1679	 1.40069163693514E-02 
1680	 1.41549210982052E-02 
1681	 1.41833187309434E-02 
1682	 1.39276018550054E-02 
1683	 1.36730096230147E-02 
1684	 1.39728593243174E-02 
1685	 1.44075790847877E-02 
1686	 1.42812628102107E-02 
1687	 1.39620726398206E-02 
1688	 1.37347135722564E-02 
1689	 1.36441234036733E-02 
1690	 1.38592217497645E-02 
1691	 0.013959552789783 
1692	 1.37943181991695E-02 
1693	 1.36507462478315E-02 
1694	 1.35072024434013E-02 
1695	 1.36529859695214E-02 
1696	 1.37146313852534E-02 
1697	 1.32716125155362E-02 
1698	 1.32203171163802E-02 
1699	 1.34599422295784E-02 
1700	 0.013412964683691 
1701	 1.34542602807911E-02 
1702	 1.36234979690938E-02 
1703	 1.35614294776903E-02 
1704	 1.33091997427281E-02 
1705	 1.33401558156726E-02 
1706	 1.35271506976719E-02 
1707	 1.35884967924602E-02 
1708	 1.36724526398594E-02 
1709	 1.33782523431509E-02 
1710	 1.29386374457491E-02 
1711	 1.32120918126432E-02 
1712	 1.35100042859554E-02 
1713	 1.31445040930654E-02 
1714	 1.34538875452465E-02 
1715	 1.34939337804836E-02 
1716	 1.36177700468463E-02 
1717	 1.39278680537924E-02 
1718	 1.35977630262305E-02 
1719	 1.29064003546936E-02 
1720	 1.29536637289625E-02 
1721	 1.33306130356943E-02 
1722	 1.33054453404874E-02 
1723	 1.34131291321259E-02 
1724	 1.33861241785163E-02 
1725	 1.32508347004624E-02 
1726	 1.33350380228457E-02 
1727	 1.29894331351058E-02 
1728	 1.29360415231926E-02 
1729	 1.35597100876495E-02 
1730	 1.35551802255223E-02 
1731	 1.33060269566696E-02 
1732	 1.34041543055685E-02 
1733	 1.28658451546868E-02 
1734	 1.23946300803095E-02 
1735	 1.27149870429855E-02 
1736	 1.28268610101006E-02 
1737	 1.29118066276636E-02 
1738	 1.30113430456537E-02 
1739	 0.012794402312507 
1740	 1.24496579362991E-02 
1741	 0.01188909712783 
1742	 1.18790243863029E-02 
1743	 1.22494384206017E-02 
1744	 1.21937306069851E-02 
1745	 1.25603619230293E-02 
1746	 1.26501662490619E-02 
1747	 1.23587739964403E-02 
1748	 1.16859419487266E-02 
1749	 1.16886470947317E-02 
1750	 1.21621755320935E-02 
1751	 1.22447829917304E-02 
1752	 1.27951172295346E-02 
1753	 1.26800382438843E-02 
1754	 1.09968110517349E-02 
1755	 1.09553044861163E-02 
1756	 1.22123474274716E-02 
1757	 1.26083805162504E-02 
1758	 1.28805163801625E-02 
1759	 1.18491938017729E-02 
1760	 1.06879853968185E-02 
1761	 1.12206966783428E-02 
1762	 1.13662229636908E-02 
1763	 1.12547809765133E-02 
1764	 1.18674009418522E-02 
1765	 1.14324868911368E-02 
1766	 1.11230280275083E-02 
1767	 0.011971858985151 
1768	 1.15740731326178E-02 
1769	 9.95975683203944E-03 
1770	 9.80895786707199E-03 
1771	 0.010606280045519 
1772	 1.03162401988174E-02 
1773	 1.06659170200999E-02 
1774	 1.10629338172586E-02 
1775	 9.09589389762857E-03 
1776	 8.7748659766294E-03 
1777	 1.06017637183825E-02 
1778	 1.01914529323127E-02 
1779	 8.28243047048251E-03 
1780	 8.10937339912722E-03 
1781	 7.41408705923651E-03 
1782	 7.36210726624553E-03 
1783	 1.00615612974381E-02 
1784	 9.94468817284625E-03 
1785	 7.09925817444479E-03 
1786	 6.97350275988309E-03 
1787	 7.58934703348555E-03 
1788	 7.83522542914465E-03 
1789	 1.02092050778459E-02 
1790	 6.44322277949232E-03 
1791	 4.39585360476148E-03 
1792	 3.01139815278046E-03 
1793	 2.11641228307029E-03 
1794	 7.99185043097802E-03 
1795	 9.16095807278706E-03 
1796	 5.42276328157668E-03 
1797	 1.1484382709686E-03 
1798	-6.91086867798987E-03 
1799	-4.45117354436024E-03 
1800	 4.44006640095293E-03 
1801	 6.30401426079907E-03 
1802	-9.97253687784528E-03 
1803	-1.86064228375562E-02 
1804	-2.69480114188048E-02 
1805	-2.72554909747172E-02 
1806	 1.88213665495762E-02 
1807	 3.54324365025257E-02 
1808	 1.65087286757487E-02 
1809	 1.23119435443258E-02 
1810	-4.76896603780122E-02 
1811	-8.22510242747513E-02 
1812	-3.97191862472389E-03 
1813	-2.43871821194471E-02 
1814	-0.191996688986402 
1815	-0.213867260905868 
1816	-0.264976061984424 
1817	-4.49597681071173E-02 
1818	 0.272781347686951 
1819	-0.367542277988247 
1820	-0.589029838549038 
1821	-0.876141059956141 
1822	-0.98883887435717 
1823	-0.493295849246915 
1824	-0.14285299047314 
1825	 0.213007271396137 
1826	 0.508481051436769 
1827	-0.210326554050722 
1828	-0.14495139353045 
1829	 0.270148658691474 
1830	 0.238229826341522 
1831	-4.40741086252781 
1832	 94.2843370506794 
1833	 2.89350114702776 
1834	 1.79030613637772 
1835	 1.81597873538401E-02 
1836	-1.21763877034404 
1837	-5.66379351089752E-02 
1838	 0.139194919799149 
1839	 0.640241476094364 
1840	 0.619014565094897 
1841	 0.780940033716744 
1842	 1.7547385329891 
1843	 1.57170289409734 
1844	 0.260597686751963 
1845	 8.65074009042666E-02 
1846	 0.12364723580514 
1847	 4.11928691795792E-02 
1848	-0.322674279718514 
1849	-0.90085480050383 
1850	-1.38414181242646 
1851	-1.11446646518145 
1852	-0.430176826917602 
1853	-0.396119984279613 
1854	-0.579958665453983 
1855	-1.20381507842305 
1856	-1.77537667562096 
1857	 18.5563208459645 
1858	 10.9364945231376 
1859	-3.28252062207235 
1860	-1.00274039923264 
1861	-0.297970711562011 
1862	 0.352412810489312 
1863	-0.190653395706476 
1864	-13.2738296126929 
1865	 3.45344457731177 
1866	-3.57817203256847 
1867	-2.2592054557183 
1868	-4.4357163004468 
1869	-6.59917613850628 
1870	 2.40358170489551E-02 
1871	 0.301331862305399 
1872	-0.190823898959062 
1873	-8.14700712266292 
1874	 0.499434272311652 
1875	 1.37078414728049 
1876	 1.32638865475508 
1877	 0.534900784421768 
1878	 0.62027341466654 
1879	-3.32607411861397 
1880	-0.5040953728211 
1881	 5.36852717486075E-02 
1882	-0.358074250661959 
1883	-0.146182920858043 
1884	 0.138833720131507 
1885	 3.67980043995311E-02 
1886	 0.042477270783308 
1887	 0.600219678137646 
1888	 0.220813167964946 
1889	 0.245313161388027 
1890	 0.281687812269957 
1891	 0.232029878802735 
1892	 0.621445879314646 
1893	 0.133964552054804 
1894	 7.61526586688222E-02 
1895	 0.220883410241717 
1896	 0.543434995551125 
1897	 3.00052110319559 
1898	 0.783411123126007 
1899	-23.5000517844457 
1900	-2.90280996840319 
1901	 2.04866206142328E-02 
1902	 9.55472638406581E-02 
1903	 0.299651229850814 
1904	-8.84045751062474E-02 
1905	-0.641250222441159 
1906	-0.813441775695148 
1907	-0.793601710550599 
1908	-0.621752921412077 
1909	-1.5477951943785 
1910	-15.5851644105424 
1911	 2.40992358988204 
1912	 3.30840058811858 
1913	 4.04798682087464 
1914	-1.58115353928446 
1915	-0.86944539624305 
1916	-1.03740686923652 
1917	-0.929333955811941 
1918	-0.276365111629448 
1919	-0.509478176974873 
1920	-1.22511816884808 
1921	-0.471645991602079 
1922	-0.182678311692951 
1923	-0.571203720084176 
1924	-0.128740952828302 
1925	 0.592240496234136 
1926	 1.1878329472667 
1927	-0.63460931570222 
1928	 0.689544176246162 
1929	 0.681179051464415 
1930	 1.38258118399234 
1931	 1.40601738755158 
1932	 1.63672595647441 
1933	 0.779729289379229 
1934	 0.546553067430977 
1935	 0.71310610729098 
1936	 0.564666467960304 
1937	 0.30356102625473 
1938	 3.53234523820668E-02 
1939	-3.29833751604643E-02 
1940	-1.70291924643131E-02 
1941	 6.39332483599826E-02 
1942	 4.80318559713119E-02 
1943	 8.19003008225722E-02 
1944	 7.66930216339138E-02 
1945	-1.81994141969147E-02 
1946	-0.01597105959451 
1947	-7.31577023748619E-03 
1948	-5.13757093774931E-02 
1949	-5.10395089177531E-02 
1950	-1.97501621332463E-02 
1951	-3.67187061118134E-02 
1952	-4.17131713834245E-02 
1953	-4.47243478427587E-02 
1954	-5.02671555658895E-03 
1955	 1.99951241268263E-02 
1956	 2.38694419235709E-02 
1957	 2.16664337374707E-02 
1958	 1.81414354637037E-02 
1959	 3.31630803704148E-03 
1960	-4.91307274610746E-03 
1961	 4.58675483943743E-03 
1962	 8.78991681063804E-03 
1963	 1.11349779648897E-02 
1964	 0.014261021653308 
1965	 0.013115110702242 
1966	 1.26059402846122E-02 
1967	 1.15459322592984E-02 
1968	 1.03331428930063E-02 
1969	 1.04595948111171E-02 
1970	 1.17200926169436E-02 
1971	 0.013130996882646 
1972	 1.43581582590157E-02 
1973	 1.26663573979352E-02 
1974	 1.04929607288894E-02 
1975	 9.42128851286034E-03 
1976	 7.23574313012455E-03 
1977	 5.3832017666119E-03 
1978	 4.86802666467779E-03 
1979	 4.58093343894711E-03 
1980	 3.69051922039654E-03 
1981	 4.15656684463109E-03 
1982	 6.97400722079407E-03 
1983	 9.02027006523026E-03 
1984	 1.02495623836191E-02 
1985	 1.07425765510872E-02 
1986	 9.95309373187145E-03 
1987	 1.00978124242144E-02 
1988	 1.04175313533622E-02 
1989	 1.02158334359658E-02 
1990	 1.00854695224207E-02 
1991	 9.82596044714353E-03 
1992	 9.6636457647598E-03 
1993	 9.28980901668814E-03 
1994	 9.00520028770428E-03 
1995	 9.03320618449488E-03 
1996	 8.05970728114521E-03 
1997	 8.09650211722426E-03 
1998	 1.03834575988969E-02 
1999	 1.17731597982554E-02 
2000	 1.29906032181941E-02 
2001	 1.24037857775858E-02 
2002	 1.09426040591984E-02 
2003	 0.012687793975813 
2004	 1.38826091779824E-02 
2005	 1.21596885146217E-02 
2006	 1.04157508934892E-02 
2007	 9.14776314501436E-03 
2008	 6.58563794022828E-03 
2009	 5.99236055841787E-03 
2010	 1.01625019123063E-02 
2011	 1.02690596653892E-02 
2012	 8.17844558006824E-03 
2013	 7.23660157783966E-03 
2014	 6.45996635532374E-03 
2015	 5.35532738981268E-03 
2016	 5.8223352578719E-03 
2017	 7.38047969960289E-03 
2018	 8.4183148450645E-03 
2019	 7.53586219855818E-03 
2020	 7.03339109696072E-03 
2021	 7.72406107745608E-03 
2022	 8.36416176737816E-03 
2023	 9.62012879882903E-03 
2024	 9.92214238311925E-03 
2025	 9.47438221704336E-03 
2026	 9.56360653051234E-03 
2027	 9.83595593780971E-03 
2028	 9.30075868490911E-03 
2029	 8.9669532996658E-03 
2030	 9.50108521854454E-03 
2031	 9.00306088313321E-03 
2032	 8.56937266997506E-03 
2033	 9.38167293855867E-03 
2034	 9.68297628271163E-03 
2035	 9.5181407209007E-03 
2036	 9.97512200507319E-03 
2037	 0.01014793130623 
2038	 9.91055360159665E-03 
2039	 9.9138827295523E-03 
2040	 1.02420032264786E-02 
2041	 0.010331098073951 
2042	 1.02185687990319E-02 
2043	 1.01528735057572E-02 
2044	 1.00680531150281E-02 
2045	 1.00963788938427E-02 
2046	 9.85357054962826E-03 
2047	 9.41940222852396E-03 
2048	 9.21085254213386E-03 
2049	 9.05097942566752E-03 
2050	 9.04560067635236E-03 
2051	 1.00603616587629E-02 
2052	 1.05970778825614E-02 
2053	 1.04603496173553E-02 
2054	 1.07843528180591E-02 
2055	 1.04581539421985E-02 
2056	 1.03526325402785E-02 
2057	 1.05682436018429E-02 
2058	 1.06244596801711E-02 
2059	 1.05996083818862E-02 
2060	 0.010585153839437 
2061	 1.08768699733974E-02 
2062	 1.01653255696742E-02 
2063	 9.30521814302816E-03 
2064	 8.63430187596258E-03 
2065	 8.62108753602575E-03 
2066	 9.60987586635555E-03 
2067	 1.02879959666618E-02 
2068	 1.03441943677603E-02 
2069	 1.04843638769636E-02 
2070	 1.02341208226494E-02 
2071	 9.29510257889052E-03 
2072	 9.70707045207699E-03 
2073	 9.96335502960792E-03 
2074	 9.61074058920073E-03 
2075	 9.7456893724097E-03 
2076	 1.10977652021149E-02 
2077	 0.011063489308843 
2078	 1.00239735689328E-02 
2079	 9.80107303799721E-03 
2080	 9.51894360793454E-03 
2081	 9.35570604559133E-03 
2082	 9.35717931643131E-03 
2083	 1.03110076120783E-02 
2084	 1.08157276424286E-02 
2085	 1.05224900740614E-02 
2086	 1.09654408736865E-02 
2087	 1.12706795887652E-02 
2088	 1.14605869687145E-02 
2089	 1.14476306011676E-02 
2090	 1.06010147456682E-02 
2091	 1.00229433473586E-02 
2092	 0.010121819428631 
2093	 1.08162525605336E-02 
2094	 1.10634273178376E-02 
2095	 0.011851555603468 
2096	 1.19914633922956E-02 
2097	 1.14356496119151E-02 
2098	 1.10863792267325E-02 
2099	 1.05943318496475E-02 
2100	 0.01037631404588 
2101	 1.08133045417343E-02 
2102	 1.09388214286981E-02 
2103	 1.09092482040185E-02 
2104	 1.12919647526804E-02 
2105	 1.15730672440035E-02 
2106	 1.12271158248769E-02 
2107	 0.011313229516821 
2108	 1.22297712292743E-02 
2109	 1.24460080577931E-02 
2110	 1.20183893637764E-02 
2111	 1.21138048571611E-02 
2112	 1.20622981943984E-02 
2113	 1.17240817734043E-02 
2114	 1.11894309656637E-02 
2115	 1.06925245752082E-02 
2116	 9.76998130459458E-03 
2117	 9.34115621434767E-03 
2118	 8.75807802575873E-03 
2119	 8.91073280218512E-03 
2120	 1.01523044240389E-02 
2121	 1.03023934201819E-02 
2122	 0.010225460219931 
2123	 1.07841934853865E-02 
2124	 1.07879069932772E-02 
2125	 0.010785937588268 
2126	 1.13849020086168E-02 
2127	 1.12072025313594E-02 
2128	 1.04637604761654E-02 
2129	 1.09824246643951E-02 
2130	 0.011020243676618 
2131	 1.09264420515691E-02 
2132	 1.15782373090201E-02 
2133	 0.011099357339989 
2134	 1.11144950050195E-02 
2135	 1.15771387624467E-02 
2136	 1.15976558502993E-02 
2137	 1.14046153849338E-02 
2138	 1.12201575732466E-02 
2139	 1.08191878111591E-02 
2140	 1.04850517950156E-02 
2141	 9.99610047685419E-03 
2142	 9.97027405255463E-03 
2143	 1.01187829143821E-02 
2144	 1.02489062736265E-02 
2145	 1.09092395132952E-02 
2146	 1.11890568031955E-02 
2147	 0.011503719521966 
2148	 1.11158389056697E-02 
2149	 1.07519125974667E-02 
2150	 1.13335075397654E-02 
2151	 1.11641565978955E-02 
2152	 1.07556984601281E-02 
2153	 1.10537476412874E-02 
2154	 1.08648281884815E-02 
2155	 1.00092968854643E-02 
2156	 1.02685652204834E-02 
2157	 1.04506480563723E-02 
2158	 1.01909640009174E-02 
2159	 1.03553572816515E-02 
2160	 0.011653191862065 
2161	 1.18685681047764E-02 
2162	 1.14867629828162E-02 
2163	 1.13236263152165E-02 
2164	 1.09175303686981E-02 
2165	 1.02835955316445E-02 
2166	 9.42545067732185E-03 
2167	 9.04475849835506E-03 
2168	 8.58299444887228E-03 
2169	 8.31905056779608E-03 
2170	 8.3771509913449E-03 
2171	 8.64679609508458E-03 
2172	 8.89307912603117E-03 
2173	 8.99892373057716E-03 
2174	 1.04289502263803E-02 
2175	 1.08483680194777E-02 
2176	 1.01779049970437E-02 
2177	 1.06741255275771E-02 
2178	 1.05133172447939E-02 
2179	 9.65383753014325E-03 
2180	 1.03309244942728E-02 
2181	 1.11868294511572E-02 
2182	 1.09805059655515E-02 
2183	 1.15353484037609E-02 
2184	 1.11841626174877E-02 
2185	 9.95448793014557E-03 
2186	 9.09134565548141E-03 
2187	 0.006904284153912 
2188	 7.00474954043618E-03 
2189	 9.02076368347335E-03 
2190	 9.92151435982486E-03 
2191	 0.01270972933234 
2192	 1.32417494829427E-02 
2193	 1.06811429321026E-02 
2194	 0.010346455737587 
2195	 1.05246256328287E-02 
2196	 1.04824176477935E-02 
2197	 1.20997928680914E-02 
2198	 1.20938075261946E-02 
2199	 1.05496884784107E-02 
2200	 9.3899750165731E-03 
2201	 7.26881218705506E-03 
2202	 7.38534038320605E-03 
2203	 9.88936706648866E-03 
2204	 9.99219137486479E-03 
2205	 0.010505709705585 
2206	 1.05740471896736E-02 
2207	 1.06070327445065E-02 
2208	 1.16625909563685E-02 
2209	 1.16854005045518E-02 
2210	 0.013047383657261 
2211	 1.33282100838806E-02 
2212	 1.07326809679382E-02 
2213	 9.60387509824551E-03 
2214	 9.62941595900853E-03 
2215	 8.98273678659867E-03 
2216	 9.34390719687626E-03 
2217	 9.65757775833825E-03 
2218	 1.07295000076848E-02 
2219	 1.05864897232793E-02 
2220	 9.56274564260978E-03 
2221	 9.59379572083847E-03 
2222	 9.65925393832585E-03 
2223	 1.01033480539346E-02 
2224	 1.20779172001226E-02 
2225	 1.24536770132925E-02 
2226	 1.18372814497303E-02 
2227	 1.10988939680579E-02 
2228	 8.78670410790963E-03 
2229	 8.31843078600266E-03 
2230	 8.99815413623913E-03 
2231	 9.27028368244012E-03 
2232	 0.011035166734197 
2233	 1.13443474532825E-02 
2234	 1.05459467545585E-02 
2235	 9.1833341864395E-03 
2236	 1.00625657875485E-02 
2237	 9.95136833861625E-03 
2238	 8.69735870564342E-03 
2239	 1.03336220536813E-02 
2240	 9.63534467443289E-03 
2241	 7.5937488875652E-03 
2242	 8.19637865179674E-03 
2243	 9.1562293925348E-03 
2244	 1.08527021374646E-02 
2245	 0.012936957640286 
2246	 1.33583364027127E-02 
2247	 1.26509160802443E-02 
2248	 1.30728433656123E-02 
2249	 1.28571044327227E-02 
2250	 1.25732017877157E-02 
2251	 1.25786314181346E-02 
2252	 9.86350000284979E-03 
2253	 8.25276201361016E-03 
2254	 9.09411077608579E-03 
2255	 9.77160109918929E-03 
2256	 1.01036418851313E-02 
2257	 1.08541402448389E-02 
2258	 1.22425702248468E-02 
2259	 1.19084209394051E-02 
2260	 1.11334632953481E-02 
2261	 1.02772295993004E-02 
2262	 9.59743111714356E-03 
2263	 6.72856460218129E-03 
2264	 7.24434255183583E-03 
2265	 1.12470884581195E-02 
2266	 1.09977814069401E-02 
2267	 1.00881075312117E-02 
2268	 9.56822693117141E-03 
2269	 6.65683668827448E-03 
2270	 5.06631028943837E-03 
2271	 4.48430711041715E-03 
2272	 4.28492783069984E-03 
2273	 2.74428955901904E-03 
2274	 3.96357959127572E-03 
2275	 9.25594760568813E-03 
2276	 1.12391755357146E-02 
2277	 1.34320852006269E-02 
2278	 1.41574073937412E-02 
2279	 1.20964832339575E-02 
2280	 1.10609893818924E-02 
2281	 9.8890221650722E-03 
2282	 8.42411817767026E-03 
2283	 7.26918050991613E-03 
2284	 6.21312992282259E-03 
2285	 3.4748826685277E-03 
2286	 3.02457024121155E-03 
2287	 3.76215403604079E-03 
2288	 3.85365722603119E-03 
2289	 4.73804221146548E-03 
2290	 4.40763952270868E-03 
2291	 4.74681701487805E-03 
2292	 5.3684822153295E-03 
2293	 4.37016814171391E-03 
2294	 5.28957694765141E-03 
2295	 9.04194384989787E-03 
2296	 9.73726854126532E-03 
2297	 8.15668053982034E-03 
2298	 1.07250708860002E-02 
2299	 1.14383087880586E-02 
2300	 8.86226465189517E-03 
2301	 1.14824759706757E-02 
2302	 1.13405918587985E-02 
2303	 7.77436797468312E-03 
2304	 8.2962072042864E-03 
2305	 9.15476341007936E-03 
2306	 1.16051397891617E-02 
2307	 1.19179874813288E-02 
2308	 7.62963960885149E-03 
2309	 5.06194387179873E-03 
2310	 4.94946119570554E-03 
2311	 7.66425060055934E-03 
2312	 1.14024838805687E-02 
2313	 1.07806915132478E-02 
2314	 9.86660674520467E-03 
2315	 9.59348118115625E-03 
2316	 9.20322594461993E-03 
2317	 1.47401501166674E-02 
2318	 1.24360354865914E-02 
2319	 4.23636433913026E-03 
2320	 6.41696741859843E-03 
2321	 7.21341001935929E-03 
2322	 9.83154231764236E-03 
2323	 1.21599469348273E-02 
2324	 6.29190287309734E-03 
2325	 2.88523820770429E-03 
2326	 2.10338229801955E-03 
2327	 3.44875416198607E-03 
2328	 5.51183623006255E-03 
2329	 4.79320187046772E-03 
2330	 3.54342480604491E-03 
2331	 5.44961709363173E-03 
2332	 4.3880615286537E-03 
2333	 1.76152201077799E-03 
2334	 3.90862197265449E-03 
2335	 2.14514193950683E-03 
2336	-2.35291765910468E-04 
2337	 4.34659103084921E-03 
2338	 9.87668592648789E-03 
2339	 0.011394682024025 
2340	 1.03047479233127E-02 
2341	 8.81700819624656E-03 
2342	 0.0054455430284 
2343	-1.75776825294813E-04 
2344	-2.11506842351431E-04 
2345	 1.89034694508719E-03 
2346	-2.91751657556096E-03 
2347	-6.13208538327747E-03 
2348	-1.68953777096347E-03 
2349	-3.19094249234395E-03 
2350	-7.53562500815421E-03 
2351	 8.62116140917029E-04 
2352	 1.23803235711814E-03 
2353	-1.39718438437516E-03 
2354	 3.7309673544004E-03 
2355	-0.00458776763726 
2356	-8.43115109331022E-03 
2357	-2.70524224073878E-03 
2358	-3.72212713435016E-03 
2359	-2.20266636894347E-03 
2360	 7.06211650364332E-04 
2361	-1.14592149873671E-03 
2362	-2.47872340113759E-03 
2363	 2.32492862762515E-03 
2364	 6.64141284919017E-03 
2365	 6.77080135633296E-03 
2366	-3.01790332826461E-03 
2367	-0.020640449232717 
2368	-2.91535519951445E-02 
2369	-3.20216470550701E-02 
2370	-2.22029281005235E-02 
2371	-1.07406843708411E-02 
2372	-8.62099664453132E-03 
2373	-1.04092749905784E-02 
2374	-2.24275108523856E-02 
2375	-0.023632195769941 
2376	-2.40322476288222E-02 
2377	-2.89529339799211E-02 
2378	-2.12660731870373E-02 
2379	-1.72654151974976E-02 
2380	-1.74151057780225E-02 
2381	-9.93398560602103E-03 
2382	 7.66350340519938E-04 
2383	-3.14251940717648E-03 
2384	-1.95670428722343E-02 
2385	-2.50741773211199E-02 
2386	-4.02620102196664E-02 
2387	-6.21570637491835E-02 
2388	-7.15384388891269E-02 
2389	-8.23124596233226E-02 
2390	-6.06355646136976E-02 
2391	-3.17349830693252E-02 
2392	-1.61369153887684E-02 
2393	 1.68597958229671E-02 
2394	 1.30618603714312E-02 
2395	-2.47442339940974E-02 
2396	-2.87162637394737E-02 
2397	-3.35915828229347E-02 
2398	-6.61903370066751E-02 
2399	-6.49767216904878E-02 
2400	-3.85660285817077E-02 
2401	-1.06779086667438E-02 
2402	 1.83553096331454E-02 
2403	 3.56047778960936E-02 
2404	 2.23512684171043E-02 
2405	-3.28813993725634E-02 
2406	-5.06893472498373E-02 
2407	-3.31024458485255E-02 
2408	 8.46068196786707E-03 
2409	 6.67993352482259E-02 
2410	 4.24141443859165E-02 
2411	-2.65326851363489E-02 
2412	-9.56937019259298E-02 
2413	-9.89267566443123E-02 
2414	-2.12836084807295E-02 
2415	 7.30265113483078E-03 
2416	-4.52426168074298E-02 
2417	-0.139740447339611 
2418	-0.209042724381855 
2419	-0.253314318322541 
2420	-0.203596608211958 
2421	-0.1033496756504 
2422	-0.151260583664885 
2423	-0.272286044719334 
2424	-0.24791031471856 
2425	-0.128258166928078 
2426	-6.94678264183577E-02 
2427	 2.45277824236079E-02 
2428	 0.118440693400758 
2429	 1.88690445459489E-02 
2430	-8.90059894345519E-02 
2431	-2.15519496379076E-02 
2432	 1.10978407151227E-02 
2433	 0.020504615620234 
2434	 0.117274946143485 
2435	 6.09916016657881E-02 
2436	 1.05784424510111E-04 
2437	 4.52245284909632E-02 
2438	-3.59688473751678E-02 
2439	-3.42267774984816E-02 
2440	 1.71573280415085E-02 
2441	-2.21635658840549E-02 
2442	-1.52260564535378E-02 
2443	-1.03157216915072E-02 
2444	-0.161920795019525 
2445	-0.292446601499901 
2446	-0.522217408802912 
2447	-0.556766052806985 
2448	-0.466130599404373 
2449	 5.75989516671606E-02 
2450	 0.174855400222921 
2451	-0.391419431122665 
2452	-0.903336386481754 
2453	-0.965683536568271 
2454	-0.856939669220718 
2455	-0.566500207361697 
2456	-0.57508026832402 
2457	-0.353491850182162 
2458	 0.361270576521464 
2459	 0.411335651074157 
2460	-5.44456363460626E-03 
2461	-3.84084668419617E-02 
2462	 1.86539210816144E-02 
2463	-2.03098967315272E-02 
2464	 0.31636342851764 
2465	 0.366357406205305 
2466	-1.32861717186494E-02 
2467	 6.24147828180964 
2468	 0.362701370296889 
2469	-0.236971415405543 
2470	-1.57232848457202 
2471	 158.222696043256 
2472	 7.46986793446806 
2473	 3.7321611224109 
2474	 2.34147796396229 
2475	 5.90244559640469 
2476	 2.18141837292449 
2477	 1.06392144193663 
2478	 1.91470368361149 
2479	 4.27950523394681 
2480	 0.3057494118066 
2481	-8.33082485531033 
2482	 0.142585048705573 
2483	-1.20950522203326E-02 
2484	 9.64746419499195 
2485	 38.1712538633136 
2486	 14.8747778784707 
2487	-2.74435442653913 
2488	-3.94449470386731 
2489	 0.476124025192563 
2490	 0.981874212193283 
2491	 0.223675021341637 
2492	-4.40738473968978E-03 
2493	-0.086890543052071 
2494	-1.23302724017497 
2495	-0.730133041103056 
2496	-0.105327266864232 
2497	-0.158682069083427 
2498	 6.37479955480408E-02 
2499	 0.190308886231933 
2500	 3.31037141976658E-02 
