Wavelength	rt0713west_close_sunny_100008.asd
350	 5.67075965767579E-02 
351	 5.62020709102315E-02 
352	 0.056036641914209 
353	 5.62363759832405E-02 
354	 5.64419842530064E-02 
355	 5.58215734233229E-02 
356	 5.54157893896109E-02 
357	 5.53629556876812E-02 
358	 5.54211954090887E-02 
359	 5.51054530088189E-02 
360	 5.49116366219967E-02 
361	 5.49356095976415E-02 
362	 5.49462807987734E-02 
363	 5.45500535002013E-02 
364	 0.054370982759161 
365	 5.46212770858916E-02 
366	 5.47268744897404E-02 
367	 5.47331113725103E-02 
368	 5.45584587258204E-02 
369	 5.42299813382443E-02 
370	 5.41588895729101E-02 
371	 5.43832460026249E-02 
372	 5.44350681999993E-02 
373	 5.37817680997098E-02 
374	 0.053980189420049 
375	 5.41380938050561E-02 
376	 5.38746607681139E-02 
377	 5.38479965379669E-02 
378	 5.38861225682353E-02 
379	 5.39608989778568E-02 
380	 5.40817899427176E-02 
381	 0.054344604583632 
382	 5.42818464933242E-02 
383	 5.40934912931829E-02 
384	 5.42153178112212E-02 
385	 5.42513026795721E-02 
386	 5.40100134928795E-02 
387	 5.37934681254651E-02 
388	 5.43488589180311E-02 
389	 5.43966886825588E-02 
390	 5.41588091375046E-02 
391	 0.05409807441789 
392	 5.45112350501643E-02 
393	 5.47734214819917E-02 
394	 5.47977735428954E-02 
395	 5.47245225312589E-02 
396	 5.45811061317299E-02 
397	 5.45676413172842E-02 
398	 5.46494612425981E-02 
399	 5.46061502338045E-02 
400	 5.46306480971759E-02 
401	 5.46572856226173E-02 
402	 5.46653975814662E-02 
403	 5.48349914713958E-02 
404	 5.49602794234912E-02 
405	 5.49940352081602E-02 
406	 5.49737798790562E-02 
407	 5.50251150645875E-02 
408	 5.51183601522322E-02 
409	 5.52030490691347E-02 
410	 5.52274086111305E-02 
411	 5.53058344974167E-02 
412	 5.53718720200965E-02 
413	 5.53739968565532E-02 
414	 5.53488212372988E-02 
415	 5.55276489971986E-02 
416	 5.57352412506005E-02 
417	 5.57237168946515E-02 
418	 5.59247127369779E-02 
419	 5.60896428643692E-02 
420	 5.61568198352046E-02 
421	 5.63104960598876E-02 
422	 5.65344192584631E-02 
423	 0.056762051019316 
424	 5.69422107280775E-02 
425	 0.057096982173206 
426	 5.72799868257432E-02 
427	 5.75005805176181E-02 
428	 5.77453251775866E-02 
429	 0.058040561701736 
430	 5.82798755888388E-02 
431	 5.84656251873389E-02 
432	 5.87368477024864E-02 
433	 5.89343783922402E-02 
434	 5.91268404148844E-02 
435	 5.94044698837055E-02 
436	 5.97915386845059E-02 
437	 6.00699441447577E-02 
438	 6.02617263484936E-02 
439	 6.05147727737506E-02 
440	 6.07940498388406E-02 
441	 6.10921386637164E-02 
442	 0.061374840912677 
443	 6.15652775885984E-02 
444	 6.17903280149585E-02 
445	 6.20343732523084E-02 
446	 6.22641543057931E-02 
447	 6.25574778798074E-02 
448	 6.27743178347168E-02 
449	 0.06290457976592 
450	 6.30468100601301E-02 
451	 6.33317445598195E-02 
452	 6.35763428965133E-02 
453	 6.36700247517183E-02 
454	 6.37231657131447E-02 
455	 6.39423170696138E-02 
456	 6.41872840472427E-02 
457	 6.42547275973596E-02 
458	 6.43886076651836E-02 
459	 6.44733082577528E-02 
460	 6.45272575048124E-02 
461	 6.47071645946456E-02 
462	 6.47960327974198E-02 
463	 6.49013027473522E-02 
464	 6.51017534902583E-02 
465	 6.52262760842524E-02 
466	 0.065275791829837 
467	 6.53157936453248E-02 
468	 6.54320909401545E-02 
469	 6.55554418705145E-02 
470	 6.56604956184311E-02 
471	 6.57552012627931E-02 
472	 6.58854247838842E-02 
473	 6.59726004995001E-02 
474	 6.61064679536856E-02 
475	 6.63504969491092E-02 
476	 6.65261871441069E-02 
477	 6.66593720692921E-02 
478	 6.68046422035041E-02 
479	 6.70271125909243E-02 
480	 6.72725197225527E-02 
481	 6.75193991424624E-02 
482	 6.77563394535278E-02 
483	 6.79791743173267E-02 
484	 6.82160155354729E-02 
485	 6.84739498390876E-02 
486	 6.87527286741957E-02 
487	 6.90727521686099E-02 
488	 0.069322723106687 
489	 6.95232848495663E-02 
490	 6.98204494420602E-02 
491	 7.01226138660501E-02 
492	 7.04422511577253E-02 
493	 7.07821148232064E-02 
494	 7.10646456294393E-02 
495	 7.14055868752615E-02 
496	 7.17483020800497E-02 
497	 7.19850965024523E-02 
498	 7.23720167967636E-02 
499	 7.27456540127339E-02 
500	 7.30308505274175E-02 
501	 7.33519997422639E-02 
502	 7.37262670623158E-02 
503	 0.074120833135424 
504	 7.44931622292522E-02 
505	 7.48200558039867E-02 
506	 7.52745891528881E-02 
507	 7.58039734169086E-02 
508	 7.61851092279469E-02 
509	 7.64973229532291E-02 
510	 0.07690699546349 
511	 7.74595418241585E-02 
512	 7.78966158790856E-02 
513	 7.83506743228079E-02 
514	 7.88408866915107E-02 
515	 7.93398085087123E-02 
516	 7.98393143332301E-02 
517	 8.03793880845817E-02 
518	 8.09224364980981E-02 
519	 8.13375539444838E-02 
520	 8.18862323197508E-02 
521	 8.24326478579347E-02 
522	 8.28530239997952E-02 
523	 8.33765602897334E-02 
524	 8.39307356337051E-02 
525	 8.45004592203806E-02 
526	 8.51047974074822E-02 
527	 8.56346580267007E-02 
528	 8.61401753138548E-02 
529	 8.66706394629825E-02 
530	 8.72309036877335E-02 
531	 8.77833864213096E-02 
532	 8.83710355130503E-02 
533	 8.90303798213624E-02 
534	 8.95940840496522E-02 
535	 9.01099586806542E-02 
536	 9.06372199068587E-02 
537	 9.12250456423651E-02 
538	 9.18270167966368E-02 
539	 9.23927692494617E-02 
540	 9.29137240532271E-02 
541	 0.093517616914179 
542	 9.41100469024653E-02 
543	 9.46849436134015E-02 
544	 9.52916106481548E-02 
545	 9.59083065706526E-02 
546	 9.65081734855118E-02 
547	 9.70797526694894E-02 
548	 9.76398765201644E-02 
549	 9.82190859635218E-02 
550	 9.88011744923659E-02 
551	 9.93612505176558E-02 
552	 9.99231124925206E-02 
553	 0.100508594780629 
554	 0.101109862652615 
555	 0.101682887037713 
556	 0.102176027905882 
557	 0.102684298241262 
558	 0.103267736907766 
559	 0.103769297074538 
560	 0.104270499837134 
561	 0.104744363815932 
562	 0.105114069297097 
563	 0.105488269207423 
564	 0.105910722563446 
565	 0.10633988040452 
566	 0.106584175635573 
567	 0.106848964404428 
568	 0.107138401295157 
569	 0.107404349441425 
570	 0.107760525377871 
571	 0.10804447036441 
572	 0.108215554118697 
573	 0.108380355720258 
574	 0.108590752865078 
575	 0.108837416760346 
576	 0.109080473004494 
577	 0.109255763602746 
578	 0.109395409226286 
579	 0.109519258798861 
580	 0.10962945126401 
581	 0.109640458747022 
582	 0.109557036963081 
583	 0.109419855985596 
584	 0.109323632957673 
585	 0.109040894420831 
586	 0.108659264410807 
587	 0.108339566132901 
588	 0.107927633337406 
589	 0.107573213784144 
590	 0.107363988112442 
591	 0.107258478316921 
592	 0.106942308221261 
593	 0.106573189693614 
594	 0.106291979408911 
595	 0.105845491564366 
596	 0.105333089381741 
597	 0.104770532286175 
598	 0.104144771660922 
599	 0.103568000886844 
600	 0.103072775011255 
601	 0.102673178584972 
602	 0.102373386873964 
603	 0.102121172751656 
604	 0.101948200917442 
605	 0.10189376265051 
606	 0.101888517500163 
607	 0.101831315615547 
608	 0.101751929347381 
609	 0.101808197720972 
610	 0.101841294225439 
611	 0.101808246261094 
612	 0.101729383441182 
613	 0.101730275528366 
614	 0.101729583398555 
615	 0.101705465866155 
616	 0.101675717655847 
617	 0.101700775287093 
618	 0.101681635083563 
619	 0.101588192786973 
620	 0.101525149407769 
621	 0.101471033124106 
622	 0.101436541661612 
623	 0.101417584157363 
624	 0.101317971451366 
625	 0.101147164584474 
626	 0.100961814478685 
627	 0.100855269716612 
628	 0.100800900206204 
629	 0.100814758666752 
630	 0.100874007507697 
631	 0.100839793372178 
632	 0.100839527662371 
633	 0.100848085021523 
634	 0.100787469192841 
635	 0.100783515173979 
636	 0.100714015939527 
637	 0.100557305564543 
638	 0.100462799225597 
639	 0.100405540058415 
640	 0.100318060432575 
641	 0.100141555551128 
642	 9.99182826577065E-02 
643	 9.96556896977947E-02 
644	 9.93338908215953E-02 
645	 9.89231918874893E-02 
646	 0.09857225886555 
647	 9.83593969223241E-02 
648	 9.82793380562901E-02 
649	 9.81869601760799E-02 
650	 9.80272603485756E-02 
651	 9.78113070815132E-02 
652	 9.75718426007977E-02 
653	 9.71834685833323E-02 
654	 9.67988847131041E-02 
655	 9.64393276571481E-02 
656	 9.59711364998956E-02 
657	 9.56055249525248E-02 
658	 0.095290002912129 
659	 9.49566528505224E-02 
660	 9.46964379998583E-02 
661	 9.44725558922303E-02 
662	 9.42699776352932E-02 
663	 9.40959372328077E-02 
664	 9.40058442335464E-02 
665	 9.38953033706134E-02 
666	 9.37257754476096E-02 
667	 9.36130317583996E-02 
668	 9.35015756226944E-02 
669	 9.34003790698424E-02 
670	 9.33324147414682E-02 
671	 9.32868161542705E-02 
672	 9.32607572319194E-02 
673	 9.32283123669543E-02 
674	 9.31494736081413E-02 
675	 9.31324489285116E-02 
676	 9.31568673090066E-02 
677	 9.31842191578918E-02 
678	 9.32050274644607E-02 
679	 9.31545266271081E-02 
680	 9.31442655345289E-02 
681	 9.33049494565289E-02 
682	 9.32837581291307E-02 
683	 9.33065708726145E-02 
684	 9.33864245933903E-02 
685	 9.31796048916062E-02 
686	 9.29422882097009E-02 
687	 9.28529517091853E-02 
688	 9.29331242887628E-02 
689	 9.28520396409093E-02 
690	 9.26700633868215E-02 
691	 9.23611253005701E-02 
692	 9.18705713820738E-02 
693	 9.14725829335795E-02 
694	 9.12955667832951E-02 
695	 9.12269965303531E-02 
696	 9.08579433733355E-02 
697	 9.03001081903664E-02 
698	 8.95820119642487E-02 
699	 8.87984963922501E-02 
700	 8.81189557166694E-02 
701	 8.75850180489081E-02 
702	 8.70790411643416E-02 
703	 8.63672197924666E-02 
704	 8.54987831289891E-02 
705	 8.46154737689961E-02 
706	 8.37842613890057E-02 
707	 8.28127621139343E-02 
708	 8.17285672192663E-02 
709	 8.05798042426525E-02 
710	 7.93888234572386E-02 
711	 7.79513147631745E-02 
712	 7.64090428781904E-02 
713	 7.47776139915633E-02 
714	 0.072871628712999 
715	 7.08853502259834E-02 
716	 6.86423437440919E-02 
717	 6.62551832854161E-02 
718	 6.42827604063475E-02 
719	 6.28781016366676E-02 
720	 0.061786438108692 
721	 6.04469159266549E-02 
722	 5.87547570626919E-02 
723	 5.67586595408158E-02 
724	 5.48231057266869E-02 
725	 5.30273611887657E-02 
726	 5.13475231680006E-02 
727	 4.95051213888546E-02 
728	 4.73745190382217E-02 
729	 4.52922195209222E-02 
730	 4.34136758759517E-02 
731	 4.18858021933467E-02 
732	 4.06318170445893E-02 
733	 3.93351916523896E-02 
734	 3.81502320042287E-02 
735	 3.72126369841733E-02 
736	 3.65677372921399E-02 
737	 3.60283868443921E-02 
738	 3.56639372133902E-02 
739	 3.55265656821876E-02 
740	 3.54098336272794E-02 
741	 3.52833996477772E-02 
742	 3.52120791582084E-02 
743	 3.52669603383421E-02 
744	 3.51429726857677E-02 
745	 3.49814220464926E-02 
746	 3.49173765449968E-02 
747	 3.50107871712793E-02 
748	 0.034959662009136 
749	 3.48827260951501E-02 
750	 3.49206479859667E-02 
751	 3.49054516009538E-02 
752	 3.48508120288736E-02 
753	 3.48031516773488E-02 
754	 3.48065950417226E-02 
755	 3.47248344323338E-02 
756	 3.46122468779943E-02 
757	 3.44642555482639E-02 
758	 3.40876471697169E-02 
759	 3.34306314113614E-02 
760	 0.032846938836608 
761	 3.29721602212265E-02 
762	 3.30480877230977E-02 
763	 0.033262039716178 
764	 3.36696402270719E-02 
765	 3.42052187599833E-02 
766	 0.034521463235503 
767	 3.46976528874481E-02 
768	 3.48586415126369E-02 
769	 3.51510637309256E-02 
770	 3.52519116616842E-02 
771	 3.53497946239349E-02 
772	 0.035576452490851 
773	 3.56073923394208E-02 
774	 3.57314369132195E-02 
775	 3.59456228202736E-02 
776	 3.61276574892164E-02 
777	 3.62677491152642E-02 
778	 3.64483039489339E-02 
779	 3.66880986987612E-02 
780	 3.69301858076035E-02 
781	 3.70585799954482E-02 
782	 0.037183700620489 
783	 0.03739353068291 
784	 3.76348701783305E-02 
785	 3.78139302878006E-02 
786	 3.79777298634537E-02 
787	 3.82018352002112E-02 
788	 3.83895096117007E-02 
789	 3.86393150208642E-02 
790	 3.89794339295811E-02 
791	 3.93697753696374E-02 
792	 3.97682117552137E-02 
793	 4.00979688336234E-02 
794	 4.03590845433445E-02 
795	 4.06631879821167E-02 
796	 4.09477986566041E-02 
797	 4.11613118215744E-02 
798	 4.13139887656914E-02 
799	 4.15759653005947E-02 
800	 4.17924930711219E-02 
801	 4.19458337012295E-02 
802	 4.21228768159079E-02 
803	 4.25108236550747E-02 
804	 4.27142082276115E-02 
805	 4.26768859846746E-02 
806	 4.27495573125129E-02 
807	 4.28535845011025E-02 
808	 4.27281697690911E-02 
809	 4.22757255678071E-02 
810	 4.19074668826025E-02 
811	 4.16604146605281E-02 
812	 4.12679727509497E-02 
813	 4.04638074181865E-02 
814	 4.00345419257139E-02 
815	 3.96904680914531E-02 
816	 3.92900527300899E-02 
817	 3.89055703892303E-02 
818	 3.88133576465804E-02 
819	 3.86670299454567E-02 
820	 3.81630910248515E-02 
821	 3.70826164132768E-02 
822	 3.61233310356198E-02 
823	 3.53443409292713E-02 
824	 3.45841078240651E-02 
825	 3.36444163986755E-02 
826	 3.24102462196438E-02 
827	 3.10890352944117E-02 
828	 3.00457199507245E-02 
829	 2.90097839667676E-02 
830	 2.81744443565535E-02 
831	 2.75104172107177E-02 
832	 0.02686407184692 
833	 2.64441143866848E-02 
834	 2.60590864069244E-02 
835	 2.56645476589996E-02 
836	 2.54615907598676E-02 
837	 2.53327865999609E-02 
838	 2.52200423743473E-02 
839	 2.51161631573753E-02 
840	 2.51298541511957E-02 
841	 2.49960107105621E-02 
842	 2.47626794273078E-02 
843	 2.45842761406491E-02 
844	 2.44827403224605E-02 
845	 2.43653497795058E-02 
846	 2.42187619180955E-02 
847	 0.024082538810264 
848	 2.38995917230304E-02 
849	 2.38004496356578E-02 
850	 2.37710920615602E-02 
851	 2.36052156482828E-02 
852	 2.35757180574775E-02 
853	 2.35822914180334E-02 
854	 2.34927785755286E-02 
855	 2.32865139688308E-02 
856	 2.30346663113913E-02 
857	 0.022930031127026 
858	 2.30738942072282E-02 
859	 2.32137474139451E-02 
860	 2.29485524680226E-02 
861	 0.0225467984333 
862	 2.25033440168853E-02 
863	 2.23552639368893E-02 
864	 2.22438634686332E-02 
865	 2.22485316817319E-02 
866	 2.23180729638721E-02 
867	 2.20706325821447E-02 
868	 2.18783666121681E-02 
869	 2.18648081408232E-02 
870	 2.17076005539885E-02 
871	 2.16597819913845E-02 
872	 2.15671703405135E-02 
873	 2.13581189795453E-02 
874	 0.021331027934756 
875	 2.13428597002896E-02 
876	 2.11805317647464E-02 
877	 2.07702773886246E-02 
878	 2.05798664756774E-02 
879	 2.04421326703087E-02 
880	 2.03511704795977E-02 
881	 2.03276538139697E-02 
882	 2.01075278479136E-02 
883	 2.00183203154264E-02 
884	 1.99698939439047E-02 
885	 1.96263991214955E-02 
886	 1.95796366197376E-02 
887	 1.95168996961966E-02 
888	 1.93325096360613E-02 
889	 1.92560102128115E-02 
890	 1.91595742581898E-02 
891	 1.88465252171521E-02 
892	 1.83705932610776E-02 
893	 1.82861348897716E-02 
894	 1.78755176047899E-02 
895	 1.73537657513361E-02 
896	 1.71032786867442E-02 
897	 1.70259454807056E-02 
898	 0.016910909716677 
899	 1.67677491028788E-02 
900	 1.66892458126064E-02 
901	 1.66914647071123E-02 
902	 0.016739760578042 
903	 1.67085577310227E-02 
904	 1.65117584270349E-02 
905	 1.63783705901067E-02 
906	 1.64081597836363E-02 
907	 1.65620121066443E-02 
908	 1.65818378636062E-02 
909	 1.55398516678577E-02 
910	 1.51069377712943E-02 
911	 1.56069251557551E-02 
912	 1.59015673414202E-02 
913	 0.015841910775471 
914	 1.56870142372654E-02 
915	 1.55817929887654E-02 
916	 1.54553154592163E-02 
917	 1.54611431824744E-02 
918	 1.52697290473735E-02 
919	 1.50784669008061E-02 
920	 1.57539316149865E-02 
921	 1.56813130893819E-02 
922	 1.51545035756905E-02 
923	 1.47364298154727E-02 
924	 1.47561927738415E-02 
925	 1.43586918904183E-02 
926	 1.40413215599484E-02 
927	 1.43031416932002E-02 
928	 1.37978021150901E-02 
929	 1.31975406201322E-02 
930	 1.29428763056791E-02 
931	 0.013530904387391 
932	 1.56041119078627E-02 
933	 1.70317802231386E-02 
934	 1.69892367683532E-02 
935	 1.59778304268316E-02 
936	 1.30649002148975E-02 
937	 1.24945061268432E-02 
938	 1.21213742024745E-02 
939	 9.7324459450285E-03 
940	 1.04131631953591E-02 
941	 1.05910644054765E-02 
942	 1.10275032743086E-02 
943	 1.38636246058682E-02 
944	 1.56408585874192E-02 
945	 1.40652177424223E-02 
946	 1.14546458563094E-02 
947	 0.011772354821807 
948	 1.20370641584635E-02 
949	 1.08133961927733E-02 
950	 8.63490680378764E-03 
951	 7.42715700925783E-03 
952	 9.69546730439231E-03 
953	 1.27800975485744E-02 
954	 1.38708632212704E-02 
955	 1.15171037059728E-02 
956	 9.57743000796909E-03 
957	 1.04707466690895E-02 
958	 1.28391971403326E-02 
959	 1.33558085122396E-02 
960	 1.22653251079475E-02 
961	 1.18321684105491E-02 
962	 1.25267027404306E-02 
963	 1.32270658942868E-02 
964	 1.22572579928036E-02 
965	 1.25893276546907E-02 
966	 1.35494953701543E-02 
967	 1.23830094381752E-02 
968	 1.22675002243706E-02 
969	 1.35238480452628E-02 
970	 1.47540701770379E-02 
971	 1.39085563910422E-02 
972	 1.37018875815651E-02 
973	 1.36790976820569E-02 
974	 1.37293308817656E-02 
975	 1.42330800854661E-02 
976	 1.40837194260772E-02 
977	 1.34500320297524E-02 
978	 1.31609881120182E-02 
979	 1.39860265857719E-02 
980	 1.36263639254768E-02 
981	 1.31592086329962E-02 
982	 1.32822576069817E-02 
983	 1.39527911743797E-02 
984	 1.45383918399101E-02 
985	 0.01463456850688 
986	 1.47958226463822E-02 
987	 1.58210405754549E-02 
988	 1.50206888603847E-02 
989	 1.48922728107259E-02 
990	 1.56181018637053E-02 
991	 1.55233226546892E-02 
992	 0.015520267581573 
993	 1.56050548693227E-02 
994	 1.58084899818044E-02 
995	 1.60060522919294E-02 
996	 1.47218888845024E-02 
997	 1.47944101184732E-02 
998	 1.60419052968187E-02 
999	 1.64538074978632E-02 
1000	 1.67038625755896E-02 
1001	 1.42438470130973E-02 
1002	 1.40538421822387E-02 
1003	 1.40668441019088E-02 
1004	 1.44207423336296E-02 
1005	 1.45357292671401E-02 
1006	 1.46962941332394E-02 
1007	 1.46651266348856E-02 
1008	 1.42852754833745E-02 
1009	 1.43607767241012E-02 
1010	 1.42462447862063E-02 
1011	 1.40845549953183E-02 
1012	 1.44793359482673E-02 
1013	 1.46946504941918E-02 
1014	 1.47978748481169E-02 
1015	 1.49371555350872E-02 
1016	 1.49712648284313E-02 
1017	 0.014831420996876 
1018	 1.47476483420579E-02 
1019	 0.014589851745836 
1020	 1.45500147145151E-02 
1021	 1.46899437323474E-02 
1022	 1.43937099243679E-02 
1023	 1.43312737207316E-02 
1024	 1.45294019995724E-02 
1025	 1.44160637465689E-02 
1026	 1.46216115781368E-02 
1027	 1.46671234141516E-02 
1028	 1.47558045280047E-02 
1029	 0.014648423742046 
1030	 1.43905277884162E-02 
1031	 1.41916699681704E-02 
1032	 1.36997726100189E-02 
1033	 1.36924357989371E-02 
1034	 0.014148211752153 
1035	 0.014234327785451 
1036	 1.42097225679658E-02 
1037	 1.45059660495967E-02 
1038	 0.014889622747044 
1039	 1.50710767033763E-02 
1040	 1.56286625660532E-02 
1041	 0.015903020269795 
1042	 1.58298585019186E-02 
1043	 0.015215485393683 
1044	 1.48898440235449E-02 
1045	 0.014336436171632 
1046	 1.41362081768871E-02 
1047	 1.41538651773774E-02 
1048	 1.40711508426974E-02 
1049	 1.40101748369357E-02 
1050	 1.41556927871402E-02 
1051	 1.44645253258546E-02 
1052	 1.45644144715654E-02 
1053	 1.49131115668609E-02 
1054	 1.49807013111014E-02 
1055	 1.44123640248775E-02 
1056	 1.43125648558987E-02 
1057	 1.43642956680199E-02 
1058	 1.46040040317068E-02 
1059	 1.46499198172873E-02 
1060	 1.49389220948444E-02 
1061	 1.49225145683461E-02 
1062	 1.45115332127901E-02 
1063	 0.014432837934011 
1064	 1.44859573981714E-02 
1065	 1.44684996728963E-02 
1066	 0.014533697906648 
1067	 0.01453691024237 
1068	 1.44456175944248E-02 
1069	 1.44117844224833E-02 
1070	 1.44062444772873E-02 
1071	 1.43996431002892E-02 
1072	 1.44102979540626E-02 
1073	 1.44743818001954E-02 
1074	 1.43577142083889E-02 
1075	 1.41552512442375E-02 
1076	 1.39751736438892E-02 
1077	 1.35944575439065E-02 
1078	 1.34931893876594E-02 
1079	 1.35854292374094E-02 
1080	 1.35763900264913E-02 
1081	 0.013560338788126 
1082	 1.36797204783777E-02 
1083	 1.39755696857744E-02 
1084	 1.39927442560416E-02 
1085	 1.40697354523581E-02 
1086	 1.40243250455548E-02 
1087	 1.33971266399207E-02 
1088	 1.32292249547693E-02 
1089	 1.34473997427077E-02 
1090	 0.013550584444553 
1091	 1.34654614418961E-02 
1092	 1.35521182790833E-02 
1093	 1.33224076790994E-02 
1094	 1.24214482750473E-02 
1095	 1.22843741982055E-02 
1096	 1.25551305888087E-02 
1097	 1.25192893668541E-02 
1098	 1.28196675214885E-02 
1099	 1.28153054381545E-02 
1100	 1.22571123643064E-02 
1101	 1.21440625007384E-02 
1102	 1.23133406844983E-02 
1103	 1.22274615272199E-02 
1104	 1.22508067635322E-02 
1105	 1.21663452285352E-02 
1106	 0.011182192864429 
1107	 1.08964904971997E-02 
1108	 1.13650678176776E-02 
1109	 1.16949301535913E-02 
1110	 1.16537826089585E-02 
1111	 1.21397501412116E-02 
1112	 1.17403261216544E-02 
1113	 9.07954831617695E-03 
1114	 8.49737760948283E-03 
1115	 9.90210399739479E-03 
1116	 9.91059974297136E-03 
1117	 1.02050430370545E-02 
1118	 1.07420862633602E-02 
1119	 9.81772491671842E-03 
1120	 8.36004654494563E-03 
1121	 5.98793955751975E-03 
1122	 8.84032110686318E-03 
1123	 6.66222567322344E-03 
1124	 1.27520029195362E-03 
1125	 2.67213605897441E-03 
1126	 4.71904517304135E-03 
1127	 4.71825935028122E-03 
1128	 8.06567771835315E-03 
1129	 8.71936845279267E-03 
1130	 6.68998834170329E-03 
1131	 6.57431437728581E-03 
1132	 6.02662397192921E-03 
1133	 7.85610452762341E-03 
1134	 1.38891463079501E-02 
1135	 1.28083537739399E-02 
1136	 7.51474410367984E-03 
1137	 7.46174045457598E-03 
1138	 6.52373030424967E-03 
1139	 6.62801118293679E-03 
1140	 1.02026670794645E-02 
1141	 1.11479394785799E-02 
1142	 8.00096601395599E-03 
1143	 5.7869364549585E-03 
1144	 5.6864767661697E-03 
1145	 7.0324936302674E-03 
1146	 8.94847318451146E-03 
1147	 8.43498924343539E-03 
1148	 6.65334893616585E-03 
1149	 6.7580970908044E-03 
1150	 7.06812100207285E-03 
1151	 8.09479094363391E-03 
1152	 8.40184173832908E-03 
1153	 8.68499766711229E-03 
1154	 8.62468055196933E-03 
1155	 7.89910898107249E-03 
1156	 8.14514506819845E-03 
1157	 8.98993253295922E-03 
1158	 9.95212727286644E-03 
1159	 1.06447130180558E-02 
1160	 1.06347889362919E-02 
1161	 1.02597630250273E-02 
1162	 1.01672796652956E-02 
1163	 1.02847595059537E-02 
1164	 1.04978370202723E-02 
1165	 1.06805033451844E-02 
1166	 1.06994285458682E-02 
1167	 1.05714267320804E-02 
1168	 1.04186245310987E-02 
1169	 1.06518669231188E-02 
1170	 1.10083625043934E-02 
1171	 1.11399612765046E-02 
1172	 1.12668895701379E-02 
1173	 0.011425221419573 
1174	 1.15267477458169E-02 
1175	 1.14299756181138E-02 
1176	 1.15502148230215E-02 
1177	 1.16999042921549E-02 
1178	 1.16401939291731E-02 
1179	 1.15238987272005E-02 
1180	 1.15155543136583E-02 
1181	 1.16118707724287E-02 
1182	 1.16326700177876E-02 
1183	 1.15324352991732E-02 
1184	 1.14633512203817E-02 
1185	 1.13445500542362E-02 
1186	 1.12424181021513E-02 
1187	 1.15237950689555E-02 
1188	 1.18254920815959E-02 
1189	 1.17256816534472E-02 
1190	 1.16860350594229E-02 
1191	 1.17407679009923E-02 
1192	 1.16751915701192E-02 
1193	 1.14012664350168E-02 
1194	 1.14782828163562E-02 
1195	 1.18414300847348E-02 
1196	 1.17925987681908E-02 
1197	 1.16229404457559E-02 
1198	 1.16291092492056E-02 
1199	 0.011400199289812 
1200	 1.12318032924549E-02 
1201	 1.16067425933165E-02 
1202	 1.19645209629285E-02 
1203	 1.18630254654375E-02 
1204	 1.17515725988536E-02 
1205	 1.16879324553875E-02 
1206	 1.14734239108637E-02 
1207	 1.15524236737554E-02 
1208	 1.17789587193438E-02 
1209	 1.17761864683143E-02 
1210	 0.011852044789699 
1211	 1.18537002616991E-02 
1212	 1.17480859241407E-02 
1213	 0.011837422869593 
1214	 1.18566151052888E-02 
1215	 1.18563296233629E-02 
1216	 1.17302795852759E-02 
1217	 1.17344459239872E-02 
1218	 1.17963966403721E-02 
1219	 1.18535745642103E-02 
1220	 0.012011339964116 
1221	 1.20367253836077E-02 
1222	 1.20104886131402E-02 
1223	 0.012041491744164 
1224	 1.19689056473841E-02 
1225	 1.19485198194844E-02 
1226	 1.19606277204396E-02 
1227	 0.011896475963931 
1228	 0.011859218365528 
1229	 1.20273167721681E-02 
1230	 1.22655754606732E-02 
1231	 1.21438404123998E-02 
1232	 1.20238989157955E-02 
1233	 1.22091880674442E-02 
1234	 1.22258682721668E-02 
1235	 1.22618703052242E-02 
1236	 1.25340969703992E-02 
1237	 1.26867205318853E-02 
1238	 0.012723643721093 
1239	 1.26742323531401E-02 
1240	 0.012606566779794 
1241	 0.012553652023747 
1242	 0.01254301079701 
1243	 1.24674725569253E-02 
1244	 1.24881148070857E-02 
1245	 1.24933042450961E-02 
1246	 1.23436554842861E-02 
1247	 1.22764693984791E-02 
1248	 1.24017623900409E-02 
1249	 1.24867774099536E-02 
1250	 1.23259639316188E-02 
1251	 1.22374946637892E-02 
1252	 1.24135144032211E-02 
1253	 1.24244800940424E-02 
1254	 1.22923748276855E-02 
1255	 1.23770871432821E-02 
1256	 1.23772499186989E-02 
1257	 1.20575448827404E-02 
1258	 1.19602537954956E-02 
1259	 0.012110505073166 
1260	 1.21456354255477E-02 
1261	 1.21808021813709E-02 
1262	 1.21342593397948E-02 
1263	 1.21013588561813E-02 
1264	 1.19956861577699E-02 
1265	 1.17991476515657E-02 
1266	 1.16995378974074E-02 
1267	 1.16934053267748E-02 
1268	 0.011516209320862 
1269	 1.14700613276194E-02 
1270	 1.15770660437246E-02 
1271	 1.15025768797516E-02 
1272	 1.16179393883181E-02 
1273	 1.19398490198954E-02 
1274	 1.18622227806912E-02 
1275	 0.011646486360816 
1276	 1.17612836191729E-02 
1277	 1.19284248345055E-02 
1278	 1.19405232235028E-02 
1279	 1.19998019776261E-02 
1280	 1.21005712184122E-02 
1281	 1.21585349587469E-02 
1282	 1.19502749946228E-02 
1283	 1.18361132291894E-02 
1284	 1.18648986108228E-02 
1285	 1.19397790939148E-02 
1286	 1.19516593013646E-02 
1287	 1.18478879758488E-02 
1288	 1.18076164593392E-02 
1289	 1.17788288702622E-02 
1290	 1.15124295679169E-02 
1291	 1.14789170609586E-02 
1292	 1.16097169962262E-02 
1293	 1.17513049278554E-02 
1294	 1.18843760319089E-02 
1295	 1.16757530643897E-02 
1296	 0.011312052763206 
1297	 1.10777957821539E-02 
1298	 1.08902751139082E-02 
1299	 1.09212198851507E-02 
1300	 1.11455753961576E-02 
1301	 1.12273136004107E-02 
1302	 1.10544994808914E-02 
1303	 1.08235071930701E-02 
1304	 1.07073671735712E-02 
1305	 1.05488991019179E-02 
1306	 1.06039334163914E-02 
1307	 1.09902501501687E-02 
1308	 1.09087912206884E-02 
1309	 1.06131050338898E-02 
1310	 1.05673451544461E-02 
1311	 1.02882516479918E-02 
1312	 1.01622701150867E-02 
1313	 1.04661398117281E-02 
1314	 1.05748196356717E-02 
1315	 1.05127117683864E-02 
1316	 1.03480941376778E-02 
1317	 0.010119698181726 
1318	 1.00690461730399E-02 
1319	 9.88020707612166E-03 
1320	 9.75304950070615E-03 
1321	 9.69850402694052E-03 
1322	 1.00793775938125E-02 
1323	 1.00061299998947E-02 
1324	 9.7565572470122E-03 
1325	 9.89540428975837E-03 
1326	 9.50942545043682E-03 
1327	 9.08569469340935E-03 
1328	 9.37195944371996E-03 
1329	 8.99190024847539E-03 
1330	 8.52604067489032E-03 
1331	 9.01952762014666E-03 
1332	 8.93169178858375E-03 
1333	 8.3272703119532E-03 
1334	 8.31480485855959E-03 
1335	 8.49295016121235E-03 
1336	 8.49908520292283E-03 
1337	 8.41663657633235E-03 
1338	 9.40682891655898E-03 
1339	 9.3197216537582E-03 
1340	 7.24116766750814E-03 
1341	 6.81140193848361E-03 
1342	 7.48088099802228E-03 
1343	 7.42582963753022E-03 
1344	 7.87943715484268E-03 
1345	 8.25854746725991E-03 
1346	 8.10791535875438E-03 
1347	 7.60850174088516E-03 
1348	 7.08017868379763E-03 
1349	 7.28939118213125E-03 
1350	 5.63106556363304E-03 
1351	 4.18341689298429E-03 
1352	 6.7948024518537E-03 
1353	 8.12940932710344E-03 
1354	 4.3069513765686E-03 
1355	 1.74479353091848E-02 
1356	 2.46673594064749E-02 
1357	 4.64114720988387E-02 
1358	 6.55186442469349E-02 
1359	 2.32130147482214E-02 
1360	 6.58291007154852E-03 
1361	-2.73976278626289E-02 
1362	-5.80453418233108E-02 
1363	 6.87030183891114E-02 
1364	 0.137018013893635 
1365	 6.41634220759599E-02 
1366	-2.68772263676093E-02 
1367	 0.107082649425636 
1368	 0.173008818315263 
1369	 0.321047824250197 
1370	 0.374525096556988 
1371	 0.282770980944986 
1372	 0.224009347122844 
1373	 0.13374706654642 
1374	 3.27215216647296E-02 
1375	-0.195181300598595 
1376	-0.187199780683007 
1377	 2.95411821103624E-02 
1378	 0.133326145284174 
1379	 0.241561885477037 
1380	 0.279864190923213 
1381	 0.200412779571544 
1382	 0.110897634121239 
1383	 5.06111982292788E-02 
1384	-8.17510860126231E-02 
1385	-0.358549803394363 
1386	-0.309519902391604 
1387	-4.42935381757375E-02 
1388	-2.43500099460652E-02 
1389	 4.22394040722694E-03 
1390	 4.70202009346386E-02 
1391	-0.126480068089607 
1392	-0.311109561525311 
1393	 6.13111786043701E-02 
1394	 9.55326598287434E-02 
1395	-0.103181414762218 
1396	 4.21385359939313E-02 
1397	 0.181388056497076 
1398	 0.130802396524413 
1399	 0.154453207216682 
1400	 0.174871201233919 
1401	-0.109107184381659 
1402	-0.288305115050317 
1403	 6.23803373654448E-02 
1404	 0.218731428782278 
1405	 0.108892867711292 
1406	-0.119416325273954 
1407	-7.51688852628473E-02 
1408	-0.197979043948691 
1409	-0.23286214390596 
1410	-3.28716345317575E-02 
1411	 5.98007699176466E-02 
1412	 4.61027735603794E-02 
1413	 3.00891222973479E-02 
1414	 6.98843516785225E-02 
1415	 9.22191185855818E-02 
1416	 0.060691821987857 
1417	 1.59604657051744E-02 
1418	 5.20077474257312E-03 
1419	 1.99601526008659E-03 
1420	-0.026528519980713 
1421	-3.95855054579717E-02 
1422	-4.88431317879445E-02 
1423	-2.62645062679572E-02 
1424	 1.80068126260877E-02 
1425	 2.02331213589998E-02 
1426	 2.28038709281129E-02 
1427	 2.48901013593834E-02 
1428	 2.53828360695547E-03 
1429	-6.04382160819286E-03 
1430	 1.64677667780944E-03 
1431	 0.004652856981677 
1432	 2.17349724889561E-03 
1433	-6.55658103095617E-04 
1434	-6.47883578017746E-03 
1435	-3.34596356870129E-03 
1436	 4.16687558325953E-03 
1437	 1.23114569466449E-02 
1438	 2.19514008571307E-03 
1439	 5.67161920792461E-03 
1440	 1.76722794293293E-03 
1441	-9.23527876292161E-03 
1442	-1.2813145749519E-03 
1443	 5.86072542589942E-03 
1444	 5.1807682104999E-03 
1445	 4.65398380450038E-03 
1446	 6.39651087144022E-03 
1447	 7.71112562655405E-03 
1448	 1.12099589837203E-03 
1449	-4.2559070070979E-03 
1450	-1.23442414285698E-03 
1451	 1.15961164202994E-03 
1452	 2.68047213158491E-03 
1453	 6.12748180475387E-03 
1454	 7.63711806856759E-03 
1455	 5.19518024799825E-03 
1456	 4.73519292242488E-03 
1457	 6.37700025270834E-03 
1458	 7.06550397277894E-03 
1459	 6.63169639115931E-03 
1460	 6.05106635520167E-03 
1461	 5.60018831976024E-03 
1462	 6.56053738600082E-03 
1463	 8.19167460076016E-03 
1464	 7.32943972466822E-03 
1465	 5.76269866204156E-03 
1466	 6.73186951666878E-03 
1467	 6.62851092105748E-03 
1468	 6.13900301581573E-03 
1469	 9.62013898493618E-03 
1470	 1.04217305210887E-02 
1471	 6.60558787142895E-03 
1472	 5.88686184707879E-03 
1473	 7.84461453533329E-03 
1474	 7.81081087387914E-03 
1475	 6.28833342255013E-03 
1476	 6.37791375020742E-03 
1477	 7.46757000187606E-03 
1478	 7.37775944387588E-03 
1479	 7.29674034872042E-03 
1480	 7.15527002635378E-03 
1481	 6.05496709291904E-03 
1482	 5.85927954457628E-03 
1483	 6.1254025767587E-03 
1484	 6.59631321789429E-03 
1485	 7.17579514951268E-03 
1486	 7.79989543000362E-03 
1487	 9.26260880959164E-03 
1488	 9.28081998681636E-03 
1489	 8.11275278117977E-03 
1490	 8.15216540776469E-03 
1491	 8.37275549299098E-03 
1492	 8.37739388109711E-03 
1493	 8.88737327094466E-03 
1494	 9.04802073140486E-03 
1495	 8.58381325434767E-03 
1496	 8.63870715801151E-03 
1497	 9.14485533991851E-03 
1498	 9.31604887491283E-03 
1499	 9.44206420914092E-03 
1500	 9.48476389541918E-03 
1501	 9.29053869570905E-03 
1502	 9.26119866584278E-03 
1503	 9.37142950559957E-03 
1504	 9.44747878489659E-03 
1505	 9.63831345485211E-03 
1506	 9.59182003159652E-03 
1507	 9.48984031826838E-03 
1508	 9.35651424632092E-03 
1509	 9.3428511075095E-03 
1510	 9.49483514148798E-03 
1511	 9.80746918104402E-03 
1512	 1.01125090160922E-02 
1513	 1.02560113855097E-02 
1514	 1.03934897247233E-02 
1515	 1.02607435626093E-02 
1516	 9.83881940185236E-03 
1517	 9.77589038806082E-03 
1518	 9.89771844228202E-03 
1519	 1.00344806886017E-02 
1520	 1.03551737325763E-02 
1521	 1.03894151534741E-02 
1522	 1.01820576679004E-02 
1523	 1.00727432578089E-02 
1524	 1.01331499973876E-02 
1525	 1.02535313900036E-02 
1526	 1.02538164516131E-02 
1527	 1.02547980677545E-02 
1528	 1.02459426809476E-02 
1529	 1.03464278375409E-02 
1530	 1.05103008154158E-02 
1531	 1.05384521265388E-02 
1532	 0.010533582876669 
1533	 1.04671928534762E-02 
1534	 1.04003789916318E-02 
1535	 1.03262057871898E-02 
1536	 1.02786949631517E-02 
1537	 0.01040601985298 
1538	 1.04713218809493E-02 
1539	 1.04126341128571E-02 
1540	 1.04945560623825E-02 
1541	 1.05299029036895E-02 
1542	 1.04245279836866E-02 
1543	 1.04996249636107E-02 
1544	 1.06467082288404E-02 
1545	 0.010671320254507 
1546	 0.010609285981559 
1547	 1.06677042223666E-02 
1548	 1.06585914445213E-02 
1549	 1.03084653683519E-02 
1550	 0.010307730328246 
1551	 1.05750754674747E-02 
1552	 1.04808993439947E-02 
1553	 1.04794043937706E-02 
1554	 1.05882287176054E-02 
1555	 1.05965933408808E-02 
1556	 1.07418924326104E-02 
1557	 1.07637842211286E-02 
1558	 0.010613808335067 
1559	 1.05429851012273E-02 
1560	 1.04414864220273E-02 
1561	 1.04343390408884E-02 
1562	 1.06482271798441E-02 
1563	 1.07504020672147E-02 
1564	 1.07074608956582E-02 
1565	 1.06340383264974E-02 
1566	 1.05224558191153E-02 
1567	 1.05367649025511E-02 
1568	 1.06071538464859E-02 
1569	 1.06108083609928E-02 
1570	 1.06571447385412E-02 
1571	 1.06244582761863E-02 
1572	 0.010515451846427 
1573	 0.010704367726443 
1574	 1.09413374355334E-02 
1575	 1.07588471218181E-02 
1576	 1.05171676813617E-02 
1577	 1.05034957830963E-02 
1578	 1.04734249134356E-02 
1579	 1.05438449151043E-02 
1580	 1.06666593543067E-02 
1581	 1.06033232857098E-02 
1582	 1.06512830707907E-02 
1583	 1.07785925145128E-02 
1584	 1.07689724324407E-02 
1585	 1.07271476050712E-02 
1586	 1.07205508282615E-02 
1587	 0.010779603037114 
1588	 1.07623436772643E-02 
1589	 1.04915110266784E-02 
1590	 1.03371134231249E-02 
1591	 1.05434972924766E-02 
1592	 1.06895612735736E-02 
1593	 0.010727943843096 
1594	 1.07487683469355E-02 
1595	 1.04974708308495E-02 
1596	 1.02573778101068E-02 
1597	 1.04550934012873E-02 
1598	 1.06359913020529E-02 
1599	 0.010394719230012 
1600	 1.02789003163329E-02 
1601	 1.03983571981802E-02 
1602	 0.010267883376511 
1603	 1.01488007496853E-02 
1604	 1.03150177147068E-02 
1605	 1.04935399971063E-02 
1606	 1.05855077040351E-02 
1607	 1.07032220649589E-02 
1608	 0.010694791691245 
1609	 1.05826334267332E-02 
1610	 0.010600516303209 
1611	 1.06182479327184E-02 
1612	 1.06708000140513E-02 
1613	 1.06100917224875E-02 
1614	 1.04909278953453E-02 
1615	 1.07106325018741E-02 
1616	 1.08365390134002E-02 
1617	 0.010725498394046 
1618	 1.07537789622329E-02 
1619	 1.06516390339027E-02 
1620	 1.04924863454381E-02 
1621	 1.07177695457486E-02 
1622	 1.07681212539675E-02 
1623	 1.06598425484481E-02 
1624	 1.08582658571714E-02 
1625	 1.07835435410958E-02 
1626	 1.05738724200955E-02 
1627	 1.07243627489006E-02 
1628	 1.08382331735661E-02 
1629	 1.08321965834092E-02 
1630	 1.09050578512976E-02 
1631	 1.08597824432906E-02 
1632	 1.07273637271451E-02 
1633	 1.06986151936842E-02 
1634	 0.010677118870195 
1635	 1.04820159921995E-02 
1636	 1.02861115070007E-02 
1637	 0.01028227828909 
1638	 1.02200093098184E-02 
1639	 1.01759302704514E-02 
1640	 1.03967414189388E-02 
1641	 1.05472073497458E-02 
1642	 0.010385852786484 
1643	 1.03197121690658E-02 
1644	 0.010377141112505 
1645	 1.02166584867372E-02 
1646	 1.01832767375028E-02 
1647	 0.010406759236775 
1648	 1.05269550354986E-02 
1649	 1.05296345304912E-02 
1650	 1.05114535057154E-02 
1651	 1.06335570939222E-02 
1652	 1.05477106590078E-02 
1653	 0.010243120736763 
1654	 1.03035413308347E-02 
1655	 1.03943300686182E-02 
1656	 1.03199950467393E-02 
1657	 1.04317902430925E-02 
1658	 1.05394016317951E-02 
1659	 0.010432357838256 
1660	 1.03335184377846E-02 
1661	 1.03730871259256E-02 
1662	 1.03861249487106E-02 
1663	 1.03511324188419E-02 
1664	 1.04375830809818E-02 
1665	 1.05387228073381E-02 
1666	 1.04191066381588E-02 
1667	 1.03129486400536E-02 
1668	 1.04976570164164E-02 
1669	 1.02205271610365E-02 
1670	 1.00160120473123E-02 
1671	 1.00765649837389E-02 
1672	 9.82366500353803E-03 
1673	 9.62403612419235E-03 
1674	 1.01241655047844E-02 
1675	 1.05594150142105E-02 
1676	 1.02912821931315E-02 
1677	 1.00734490657193E-02 
1678	 1.05391499418001E-02 
1679	 1.06921906906584E-02 
1680	 1.02063947730963E-02 
1681	 1.04376441091118E-02 
1682	 0.010918235376549 
1683	 1.04109057393957E-02 
1684	 1.01037577345357E-02 
1685	 1.05452257078529E-02 
1686	 1.04520176424794E-02 
1687	 1.00285698627567E-02 
1688	 0.010085445742797 
1689	 1.00553785187755E-02 
1690	 9.7633982019032E-03 
1691	 9.78982047369657E-03 
1692	 1.00432355504397E-02 
1693	 1.02184216034283E-02 
1694	 1.02414848438984E-02 
1695	 1.02478241281755E-02 
1696	 1.02808032760919E-02 
1697	 1.02616244266648E-02 
1698	 0.010315473172283 
1699	 1.02148307380475E-02 
1700	 1.01433965581316E-02 
1701	 1.01765513150727E-02 
1702	 9.86114525842011E-03 
1703	 9.72728719589528E-03 
1704	 9.95038595561307E-03 
1705	 1.00051987401243E-02 
1706	 9.98561659926148E-03 
1707	 9.93719654411303E-03 
1708	 1.00287026018428E-02 
1709	 0.010146630511097 
1710	 9.7493799487516E-03 
1711	 9.4979869418983E-03 
1712	 9.50698417638731E-03 
1713	 9.16246554749358E-03 
1714	 9.25099498258703E-03 
1715	 9.83487650885825E-03 
1716	 9.49272319947164E-03 
1717	 9.26855292296804E-03 
1718	 9.52350166227804E-03 
1719	 9.74256627135001E-03 
1720	 9.53277377193371E-03 
1721	 9.46951278215976E-03 
1722	 9.63863932119074E-03 
1723	 9.44795055792887E-03 
1724	 9.40699965273082E-03 
1725	 9.7281217259516E-03 
1726	 9.62404891771257E-03 
1727	 9.10658061056448E-03 
1728	 9.08364294353971E-03 
1729	 9.64245277595529E-03 
1730	 9.60953399555345E-03 
1731	 9.42103301338162E-03 
1732	 9.60884171778317E-03 
1733	 9.32435982132801E-03 
1734	 9.33383323140683E-03 
1735	 9.72239839157458E-03 
1736	 9.31645934176501E-03 
1737	 9.03025389586169E-03 
1738	 9.24458034909589E-03 
1739	 9.04406762514227E-03 
1740	 9.32667721359223E-03 
1741	 9.72548295475773E-03 
1742	 9.24275078588304E-03 
1743	 8.95138409271905E-03 
1744	 8.93317122704635E-03 
1745	 8.72372921717052E-03 
1746	 8.36994057960108E-03 
1747	 8.39951958495009E-03 
1748	 8.39255730176515E-03 
1749	 8.51326692052644E-03 
1750	 9.3918582271043E-03 
1751	 9.56642731042327E-03 
1752	 9.14389680410463E-03 
1753	 9.09478711478629E-03 
1754	 8.64851440866496E-03 
1755	 8.79204940538171E-03 
1756	 1.00487569292841E-02 
1757	 9.91321768944849E-03 
1758	 9.96252955507631E-03 
1759	 9.89144072380729E-03 
1760	 7.96092363360974E-03 
1761	 7.29171690043183E-03 
1762	 7.97320714653318E-03 
1763	 7.99274021920461E-03 
1764	 8.81968702363209E-03 
1765	 9.36649719568899E-03 
1766	 8.75997456444785E-03 
1767	 8.71321131671891E-03 
1768	 8.81965809729785E-03 
1769	 8.78924611352145E-03 
1770	 8.34531657713801E-03 
1771	 7.29981160619694E-03 
1772	 7.20164373343564E-03 
1773	 7.95831746083772E-03 
1774	 8.0350150313695E-03 
1775	 7.31634838537367E-03 
1776	 7.31137801119165E-03 
1777	 7.25328824964687E-03 
1778	 7.17012510705523E-03 
1779	 7.82468828090588E-03 
1780	 8.28846408747877E-03 
1781	 8.63106378645458E-03 
1782	 8.12605553908071E-03 
1783	 7.10723376596691E-03 
1784	 6.88338645719811E-03 
1785	 5.48846157568866E-03 
1786	 5.01028077196302E-03 
1787	 6.39498273193824E-03 
1788	 0.007798842877625 
1789	 9.72186574336513E-03 
1790	 9.75015825546257E-03 
1791	 8.7885015893186E-03 
1792	 3.47870906509255E-03 
1793	 2.54373893286817E-03 
1794	 6.77007448958372E-03 
1795	 8.97580825274302E-03 
1796	 1.24135784992639E-02 
1797	 1.02076204540116E-02 
1798	 3.10310504956724E-03 
1799	 1.23967631124706E-03 
1800	 6.42211971083661E-03 
1801	 1.06036282530288E-02 
1802	 2.30919793573154E-02 
1803	 3.14253151199122E-02 
1804	 3.63183086171232E-02 
1805	 2.98753942613186E-02 
1806	-1.31329758102277E-02 
1807	-3.48270816682885E-02 
1808	-7.32507782466772E-02 
1809	-6.80299643499117E-02 
1810	 9.02579875685051E-02 
1811	 0.131550912800179 
1812	 0.122457039293828 
1813	 8.51825544587817E-02 
1814	-0.34552664271214 
1815	-0.41194673449121 
1816	 4.46151930641399E-02 
1817	 0.122808325986583 
1818	 0.110438281228147 
1819	-0.43937353091816 
1820	-0.689875688993038 
1821	 6.55122397589846E-02 
1822	 0.2092360882015 
1823	 0.486425031324298 
1824	 0.593369393058654 
1825	-1.72820855708591 
1826	-2.28050599225448 
1827	-0.314780239798418 
1828	-5.36050771055763E-02 
1829	 0.36761056375663 
1830	 0.645687388874454 
1831	-1.73150695067715 
1832	 20.2953976929041 
1833	-0.449831226994356 
1834	-0.602928981644044 
1835	-0.658257901692848 
1836	-1.75140680096164 
1837	 0.830565970001036 
1838	 0.483319127367429 
1839	-0.131596458935211 
1840	-0.294150128619412 
1841	 8.00816985719005E-03 
1842	-0.518473445197141 
1843	-0.547784754810443 
1844	 0.240052626991972 
1845	 0.402642054949605 
1846	 3.83299719673194E-02 
1847	 0.151691673851041 
1848	 1.20459766678617 
1849	 2.20873853782408 
1850	 1.94676576788807 
1851	 1.42769809162295 
1852	 0.375164476888298 
1853	 0.105183583648728 
1854	 0.113743744256571 
1855	 0.820106104881616 
1856	 1.3383311349393 
1857	-11.4602272209832 
1858	-7.06558942733308 
1859	 2.75859399736829 
1860	 1.64770635176762 
1861	 1.31944643554817 
1862	 1.38935451687432 
1863	 2.27939396997829 
1864	 32.2207968635096 
1865	-5.48191276240341 
1866	 2.43574640404593 
1867	 0.82667708352891 
1868	 0.390883347816301 
1869	-0.252975672768497 
1870	 0.515274400341932 
1871	 1.76756593061256 
1872	-0.558473973105084 
1873	 7.91228682381552 
1874	-0.100292631067569 
1875	 0.236932640835926 
1876	 0.142733838417086 
1877	 0.165868470653477 
1878	 0.43375251694097 
1879	-4.3932161370185 
1880	-1.05386397508533 
1881	-0.700257052026112 
1882	-0.286470461612114 
1883	-0.195668082477486 
1884	 0.329381109017416 
1885	-0.178819334271375 
1886	-1.62573495500985 
1887	 3.85540685463807 
1888	 0.892714484478727 
1889	 0.694983160344228 
1890	 0.453015234364524 
1891	 0.375388845206918 
1892	 1.68208579524066 
1893	 1.04161671057082 
1894	 0.149876422332932 
1895	 0.239122650626158 
1896	 1.03618801318488 
1897	 14.9164177270515 
1898	-2.90539202798612 
1899	 36.226625911362 
1900	 4.77938248563447 
1901	 0.73558217096709 
1902	 0.51443597058406 
1903	 0.707422657170787 
1904	 0.857327116072905 
1905	 0.476061491578528 
1906	 6.11586130200086E-02 
1907	-0.427309472547076 
1908	-0.643354997360218 
1909	-0.937112856820138 
1910	-23.6239798888818 
1911	 2.57441732392091 
1912	 0.519999808932492 
1913	 0.333187964453736 
1914	-0.362938174352122 
1915	 0.187948495176376 
1916	 0.440682344071904 
1917	 1.02948333543161 
1918	 0.880137064835624 
1919	 1.02875137325552 
1920	 0.960657114807627 
1921	-0.11398872263769 
1922	-0.252240064986696 
1923	-0.41824719672462 
1924	-0.499146976777422 
1925	 0.002747399060722 
1926	 0.42741595360942 
1927	 3.30010086974747 
1928	-0.802281697665524 
1929	-0.207222272894591 
1930	 0.54673088936763 
1931	 1.20904469556304 
1932	 2.69538866272577 
1933	 1.65757861065976 
1934	 0.664808753957109 
1935	 0.319825843224087 
1936	-0.313336486676833 
1937	-0.432137236999859 
1938	-0.396960216798106 
1939	-0.249067604616696 
1940	-4.66483994563955E-02 
1941	 0.139587626947797 
1942	 0.170831226533862 
1943	 0.154463196885573 
1944	 0.120984826055761 
1945	 6.34729399937491E-02 
1946	 0.056578100595922 
1947	 4.63504060707681E-02 
1948	 2.34807935497044E-02 
1949	 9.50559875137732E-03 
1950	-0.036278977347628 
1951	-4.82034346791352E-02 
1952	-3.64692382973966E-02 
1953	-2.82750254118219E-03 
1954	 4.73125201722309E-03 
1955	 1.20061687778138E-02 
1956	 1.12599859278571E-02 
1957	 5.64248740566821E-03 
1958	 6.0366423849054E-04 
1959	 1.55312626370434E-04 
1960	-3.53196445283596E-03 
1961	-7.39547412551583E-03 
1962	-5.19591014828007E-03 
1963	-6.06721762541088E-04 
1964	 3.69279343162471E-03 
1965	 3.90205750861357E-03 
1966	 5.69215347766261E-03 
1967	 6.57452367757821E-03 
1968	 6.91541348491391E-03 
1969	 7.81745425386894E-03 
1970	 1.12160440072775E-02 
1971	 0.010282954114903 
1972	 7.15997525181391E-03 
1973	 5.87174341270564E-03 
1974	 4.85743232495096E-03 
1975	 4.75581493845037E-03 
1976	 4.81003600538865E-03 
1977	 4.22762905060167E-03 
1978	 3.63448774557912E-03 
1979	 3.57521756588473E-03 
1980	 3.53187052313956E-03 
1981	 4.07531535246792E-03 
1982	 4.92767683297835E-03 
1983	 5.31482140265747E-03 
1984	 4.77062775424732E-03 
1985	 4.92710622327887E-03 
1986	 5.93457273608584E-03 
1987	 5.77463694502655E-03 
1988	 5.97271686836673E-03 
1989	 6.76493334945033E-03 
1990	 5.85704080097316E-03 
1991	 4.97772488075199E-03 
1992	 4.95503830022486E-03 
1993	 4.61507673516055E-03 
1994	 4.28351161077263E-03 
1995	 4.08853776091336E-03 
1996	 4.60335387379507E-03 
1997	 4.17867798225711E-03 
1998	 3.74085566213045E-03 
1999	 5.07260726692398E-03 
2000	 4.91959135889723E-03 
2001	 4.65000178224018E-03 
2002	 6.22746333071243E-03 
2003	 5.13213213912288E-03 
2004	 4.75387756611459E-03 
2005	 8.16373940257857E-03 
2006	 8.80736466123549E-03 
2007	 7.1426699336398E-03 
2008	 9.5015420423322E-03 
2009	 1.01517276639327E-02 
2010	 8.17357815827648E-03 
2011	 7.1880288975722E-03 
2012	 7.7898011988655E-03 
2013	 6.57612116033181E-03 
2014	 3.0032765428582E-03 
2015	 5.61442249829558E-03 
2016	 6.83894639392001E-03 
2017	 4.90535976887901E-03 
2018	 5.46677702988072E-03 
2019	 4.45327959010957E-03 
2020	 4.93436167327259E-03 
2021	 7.35836746736871E-03 
2022	 7.32268894273604E-03 
2023	 7.01811637899877E-03 
2024	 7.15123625105295E-03 
2025	 6.64306339601476E-03 
2026	 6.12981665294462E-03 
2027	 5.98901730638963E-03 
2028	 6.10804777446225E-03 
2029	 5.18976695288265E-03 
2030	 5.3539226287879E-03 
2031	 6.31583644519543E-03 
2032	 5.76981574518774E-03 
2033	 5.96563571553532E-03 
2034	 6.49896092585465E-03 
2035	 6.20902240363422E-03 
2036	 7.54206158896843E-03 
2037	 8.65784461016536E-03 
2038	 8.06894894705386E-03 
2039	 7.87412497514092E-03 
2040	 7.21369655726001E-03 
2041	 7.00916975396894E-03 
2042	 6.97567895720356E-03 
2043	 7.14558658525914E-03 
2044	 7.68119990481915E-03 
2045	 7.89678204088339E-03 
2046	 8.30442482127524E-03 
2047	 8.30682348801014E-03 
2048	 8.16565173368871E-03 
2049	 8.36346293408389E-03 
2050	 8.16522946694238E-03 
2051	 7.60922383329992E-03 
2052	 7.15448893762208E-03 
2053	 7.20449913550575E-03 
2054	 7.75154318094863E-03 
2055	 8.38479213548774E-03 
2056	 8.47453705694818E-03 
2057	 8.1541301450601E-03 
2058	 8.00296999878262E-03 
2059	 7.1287755902637E-03 
2060	 7.48701073474957E-03 
2061	 8.99475884162107E-03 
2062	 9.81410510146503E-03 
2063	 9.57563448167281E-03 
2064	 9.17068301308436E-03 
2065	 8.98946929178323E-03 
2066	 9.11062151652657E-03 
2067	 9.84076032074884E-03 
2068	 1.01421802142572E-02 
2069	 9.37589304201206E-03 
2070	 8.69714530188547E-03 
2071	 8.0782730112526E-03 
2072	 7.46569620567736E-03 
2073	 7.22771027619531E-03 
2074	 7.14143638261844E-03 
2075	 7.03155661768399E-03 
2076	 7.24837922678867E-03 
2077	 7.40165151903548E-03 
2078	 7.20175602541061E-03 
2079	 7.42216419512308E-03 
2080	 8.29299973092534E-03 
2081	 8.2101867761044E-03 
2082	 8.18096569752572E-03 
2083	 8.48086640537942E-03 
2084	 8.00049334335614E-03 
2085	 8.00052528883929E-03 
2086	 7.90428374343097E-03 
2087	 7.95524818056484E-03 
2088	 8.25958875938356E-03 
2089	 8.05714209108017E-03 
2090	 7.96645294726503E-03 
2091	 7.94844369793284E-03 
2092	 8.16415823771127E-03 
2093	 8.71179187743342E-03 
2094	 8.5522730985619E-03 
2095	 8.08193509861754E-03 
2096	 8.2378524002711E-03 
2097	 8.07082944311436E-03 
2098	 7.96615371624313E-03 
2099	 8.74308208328797E-03 
2100	 9.00253834307956E-03 
2101	 7.6765887230723E-03 
2102	 7.08185180900815E-03 
2103	 7.31819959732455E-03 
2104	 7.12840564533804E-03 
2105	 7.78900945949325E-03 
2106	 8.58204378064078E-03 
2107	 8.70904037298138E-03 
2108	 8.79497528464633E-03 
2109	 8.04428684544604E-03 
2110	 7.72601231431381E-03 
2111	 7.89333507038679E-03 
2112	 7.89998394369157E-03 
2113	 8.09263267308221E-03 
2114	 9.19164503665395E-03 
2115	 8.88797335007611E-03 
2116	 7.4813763639889E-03 
2117	 7.15350334244099E-03 
2118	 6.59526864304168E-03 
2119	 6.16403930585684E-03 
2120	 6.30487826799024E-03 
2121	 6.66952684074883E-03 
2122	 6.05738446361897E-03 
2123	 6.02423750308195E-03 
2124	 6.61369073457336E-03 
2125	 6.8642667917307E-03 
2126	 7.12123490257952E-03 
2127	 7.57911429592359E-03 
2128	 8.4736277686162E-03 
2129	 9.02542647965476E-03 
2130	 8.66855884808776E-03 
2131	 8.67394780990644E-03 
2132	 9.02900420494216E-03 
2133	 8.79769982660719E-03 
2134	 8.69561836768808E-03 
2135	 9.06583312646736E-03 
2136	 9.4708731587681E-03 
2137	 9.61003797685282E-03 
2138	 9.62731140713177E-03 
2139	 1.02984391104553E-02 
2140	 0.010319892559418 
2141	 9.24973829336957E-03 
2142	 8.82391098326894E-03 
2143	 8.77528665258127E-03 
2144	 8.45480663742332E-03 
2145	 7.79224484319623E-03 
2146	 7.44629301709638E-03 
2147	 7.35786286446143E-03 
2148	 7.24616628795304E-03 
2149	 7.23098103708243E-03 
2150	 7.76653637675402E-03 
2151	 8.16466565233921E-03 
2152	 8.12435683761683E-03 
2153	 8.27273509795048E-03 
2154	 8.33592084295397E-03 
2155	 7.74983198595051E-03 
2156	 7.33923375177711E-03 
2157	 7.45773367365266E-03 
2158	 0.007858396417567 
2159	 7.99553994273072E-03 
2160	 8.87962313449739E-03 
2161	 8.6428230937646E-03 
2162	 7.13889108544168E-03 
2163	 6.90382013154908E-03 
2164	 6.80757580876129E-03 
2165	 6.77243440787308E-03 
2166	 8.0470277200701E-03 
2167	 8.15836082259351E-03 
2168	 6.86121336137146E-03 
2169	 6.65202877687279E-03 
2170	 6.72958054546123E-03 
2171	 6.64195097772338E-03 
2172	 6.74691579110759E-03 
2173	 7.39588114002212E-03 
2174	 7.33548496254214E-03 
2175	 6.40713697131983E-03 
2176	 6.69379562866124E-03 
2177	 7.7461509163525E-03 
2178	 6.88545033002146E-03 
2179	 6.10662207536854E-03 
2180	 6.52915159195066E-03 
2181	 6.73388904844337E-03 
2182	 0.008390040418314 
2183	 1.03303184266856E-02 
2184	 1.03426510791728E-02 
2185	 8.44328553944449E-03 
2186	 7.5102955281842E-03 
2187	 6.53510620901667E-03 
2188	 5.80942895253896E-03 
2189	 5.34519901399383E-03 
2190	 4.97208897062233E-03 
2191	 4.20872100949932E-03 
2192	 4.62990845009416E-03 
2193	 6.53952212849149E-03 
2194	 6.65389972744851E-03 
2195	 6.25028301928829E-03 
2196	 6.34483257551734E-03 
2197	 5.7627001805134E-03 
2198	 5.2928244672045E-03 
2199	 5.48941301522921E-03 
2200	 5.49964270208189E-03 
2201	 5.91862718245864E-03 
2202	 4.90556406018359E-03 
2203	 5.12990051128251E-03 
2204	 7.09702916635159E-03 
2205	 7.08277843697261E-03 
2206	 7.18029276455745E-03 
2207	 8.79524485671915E-03 
2208	 8.3933127744233E-03 
2209	 6.82138869277879E-03 
2210	 6.55803902383167E-03 
2211	 5.51406321879905E-03 
2212	 4.13223911679305E-03 
2213	 3.79741150428313E-03 
2214	 3.38023308232086E-03 
2215	 4.39907129317936E-03 
2216	 6.31912092925259E-03 
2217	 6.13307443477834E-03 
2218	 4.65426895209011E-03 
2219	 5.60425157458464E-03 
2220	 6.73535355957766E-03 
2221	 6.67102912828102E-03 
2222	 8.10694962918088E-03 
2223	 8.34645973168725E-03 
2224	 5.71257554075662E-03 
2225	 4.84252110761071E-03 
2226	 6.13320715407226E-03 
2227	 6.41631407318094E-03 
2228	 5.12749480555171E-03 
2229	 5.05128344714382E-03 
2230	 6.08433067566576E-03 
2231	 6.43438389718202E-03 
2232	 7.59684287059171E-03 
2233	 8.0048772686371E-03 
2234	 7.45008716063043E-03 
2235	 6.73949700324201E-03 
2236	 7.6217935549627E-03 
2237	 6.89870386103785E-03 
2238	 7.18465385779306E-03 
2239	 7.65918633368598E-03 
2240	 5.78736605224532E-03 
2241	 4.64973058966533E-03 
2242	 5.06552913842281E-03 
2243	 5.98759958597038E-03 
2244	 7.21443898296388E-03 
2245	 8.04776194599549E-03 
2246	 7.63144087288865E-03 
2247	 6.47758225477323E-03 
2248	 6.52669791585088E-03 
2249	 6.56308906560987E-03 
2250	 5.65557858530352E-03 
2251	 6.08069377525801E-03 
2252	 6.78989512687698E-03 
2253	 6.51048700065862E-03 
2254	 5.51366984961565E-03 
2255	 4.51234586131672E-03 
2256	 3.59017613637148E-03 
2257	 2.9682769197298E-03 
2258	 4.0252349016557E-03 
2259	 3.61937734710782E-03 
2260	 3.19151728589059E-03 
2261	 1.51656576832628E-03 
2262	 5.20246808211521E-04 
2263	-3.90297113908672E-04 
2264	-8.47132743711322E-05 
2265	 4.77921268605645E-04 
2266	 1.52983743965256E-03 
2267	 4.99324743102307E-03 
2268	 5.60306260206503E-03 
2269	 4.16727379175703E-03 
2270	 3.59955805286806E-03 
2271	 2.11371110376418E-03 
2272	 9.53869624811723E-04 
2273	 7.67609535009142E-04 
2274	 6.30266978853808E-04 
2275	-5.03443811054649E-04 
2276	-8.49963886524164E-04 
2277	-8.35476271311175E-04 
2278	-5.1579927651034E-04 
2279	 1.48333771711179E-03 
2280	 2.37726319563298E-03 
2281	 2.89632966400363E-03 
2282	 3.67818089204813E-03 
2283	 4.34126552544199E-03 
2284	 4.56614403616434E-03 
2285	 6.1757774551844E-03 
2286	 6.14128351636934E-03 
2287	 4.56017530800261E-03 
2288	 3.63392032823983E-03 
2289	 2.33839231563333E-03 
2290	 2.90894829897592E-03 
2291	 5.8074378250042E-03 
2292	 0.00693594640601 
2293	 8.32851013611592E-03 
2294	 9.43800980188572E-03 
2295	 7.98032057601966E-03 
2296	 6.4224379983665E-03 
2297	 3.0419951830207E-03 
2298	 7.09503873128569E-04 
2299	 2.34387583797294E-03 
2300	 2.26489949079726E-03 
2301	 1.24730950931113E-03 
2302	 2.1000885489172E-03 
2303	 1.85971933809611E-03 
2304	 2.2608717841899E-03 
2305	 3.92844811138909E-03 
2306	 4.98684864144594E-03 
2307	 7.87215028280096E-03 
2308	 1.06932663442065E-02 
2309	 0.011285521206911 
2310	 1.09001761591201E-02 
2311	 7.58064923440232E-03 
2312	 3.87383915439249E-03 
2313	 3.57915951033058E-03 
2314	 3.48220967867689E-03 
2315	 5.13335253388093E-03 
2316	 5.56177317463404E-03 
2317	 5.20361830599125E-04 
2318	-9.92980852418657E-04 
2319	 2.17533010543936E-04 
2320	 3.58809951377911E-04 
2321	 4.1768922063239E-03 
2322	 6.65447676085126E-03 
2323	 3.82135144193385E-03 
2324	 1.70678614366228E-03 
2325	 1.47219421897821E-03 
2326	-5.00385920759507E-04 
2327	-2.40870560716141E-03 
2328	-2.39954603516263E-03 
2329	-3.95656612134655E-03 
2330	-4.77268372060039E-03 
2331	-3.51057026185666E-03 
2332	-5.39167251083744E-03 
2333	-3.94353247899857E-03 
2334	 2.06961182939191E-03 
2335	 6.38952743395392E-03 
2336	 8.23691471471882E-03 
2337	 2.16623571519961E-03 
2338	-6.48366632928987E-03 
2339	-4.64415478251481E-03 
2340	 1.47099315951254E-03 
2341	 2.81887515721654E-04 
2342	-1.73861847907863E-03 
2343	-5.89200941084464E-03 
2344	-1.25574633597568E-02 
2345	-1.26238567294921E-02 
2346	-5.74587254011728E-03 
2347	 3.44327891844709E-03 
2348	 2.61703715484985E-03 
2349	 2.78851866380642E-03 
2350	 3.91298090281262E-03 
2351	-9.24299654794118E-03 
2352	-1.62178100797064E-02 
2353	-1.20915761747035E-02 
2354	-5.05945376758267E-03 
2355	 8.58345135077993E-04 
2356	 9.98794315565981E-04 
2357	 2.00799489761488E-03 
2358	-1.16237777660964E-03 
2359	-4.55794573871726E-03 
2360	-4.61083227390914E-03 
2361	-4.13456817779336E-03 
2362	-6.14787621073018E-03 
2363	-1.41121656343222E-02 
2364	-0.015339876867401 
2365	-1.61542685725393E-02 
2366	-1.72488470717195E-02 
2367	-9.87064462576871E-03 
2368	 1.31612508278802E-03 
2369	 6.40373007467386E-03 
2370	-7.63087099376241E-03 
2371	-1.88522553959861E-02 
2372	-2.40114793449786E-02 
2373	-2.94024646661528E-02 
2374	-1.75258663734384E-02 
2375	 1.39718871480152E-03 
2376	 2.04969058323386E-02 
2377	 2.79277034262589E-02 
2378	 0.026623832681104 
2379	 2.98699469257498E-02 
2380	 0.019010999544619 
2381	 7.34076698796765E-03 
2382	 9.11739847844573E-03 
2383	-1.09972173983166E-02 
2384	-4.69621466191677E-02 
2385	-5.66188894178472E-02 
2386	-5.41342819326682E-02 
2387	-3.75595829299177E-02 
2388	-2.22477689898437E-02 
2389	-3.24699856155377E-02 
2390	-6.33683863868537E-02 
2391	-8.71448660091333E-02 
2392	-8.78810704287501E-02 
2393	-9.04486033405986E-02 
2394	-6.41087368445147E-02 
2395	-4.95677258446571E-02 
2396	-5.27005971887709E-02 
2397	-3.36093898537785E-02 
2398	-3.81597094023768E-02 
2399	-4.45698816622024E-02 
2400	-3.55903009586495E-02 
2401	-3.07771776729819E-02 
2402	-3.03573841466616E-02 
2403	-5.60652552832316E-02 
2404	-9.86024276093944E-02 
2405	-0.119635257627186 
2406	-0.101144480088471 
2407	-6.41135838038027E-02 
2408	-9.93179390785461E-03 
2409	 7.54695208283026E-04 
2410	-4.13786242525762E-02 
2411	-3.00704421712437E-02 
2412	-2.59686391760245E-02 
2413	-0.070879933666714 
2414	-9.40252268645782E-02 
2415	-0.135233838356633 
2416	-0.132923902348607 
2417	-9.27471110390249E-02 
2418	-0.111878536861005 
2419	-7.84784484423141E-02 
2420	-7.96458072644352E-02 
2421	-8.71279295135266E-02 
2422	-4.68694702147888E-02 
2423	-5.82333448959197E-02 
2424	-5.85532099035992E-02 
2425	-0.102659173589858 
2426	-8.77806814707728E-02 
2427	 1.89468414034883E-02 
2428	 8.75979491965281E-02 
2429	 0.138561357552416 
2430	 0.140070269307001 
2431	 4.15952185318369E-03 
2432	-0.155593711840093 
2433	-0.139574730783486 
2434	-9.07890146716121E-02 
2435	 4.34698683527806E-02 
2436	 0.105699044791152 
2437	 6.45752647229002E-02 
2438	 0.150770527022607 
2439	 8.31913100622275E-02 
2440	-2.73628886017442E-03 
2441	-4.01448384536888E-02 
2442	-0.161197118014542 
2443	-0.192072452489825 
2444	-6.35322436449463E-02 
2445	-0.015085193252591 
2446	-0.291144681900408 
2447	-0.520864952682682 
2448	-0.603498317823503 
2449	-0.595397258524288 
2450	-0.611466659594581 
2451	-0.708573438863534 
2452	-1.49861719792993 
2453	-1.18902362343318 
2454	-0.498954184233123 
2455	-0.403227131816073 
2456	-0.430050954855604 
2457	-8.37672855623796E-02 
2458	 2.18866709177071E-03 
2459	 4.24047781807989E-02 
2460	-2.59783061288149E-02 
2461	-0.40406871670078 
2462	-0.625697413598815 
2463	-0.655375637082637 
2464	-0.853548690292436 
2465	-1.68048717873033 
2466	-5.73844591539218 
2467	-34.0089703895805 
2468	-3.9496793777536 
2469	-2.35769352409246 
2470	-3.86813266664177 
2471	 143.672417186448 
2472	 4.98329890664622 
2473	 3.2790761996883 
2474	 1.30986080635013 
2475	 0.715775378530441 
2476	-0.306753275234397 
2477	-9.40425997683751E-02 
2478	 0.141727493153308 
2479	 3.8606117465128 
2480	 3.52436386259511 
2481	-34.0216723394964 
2482	 2.6316236761619 
2483	 1.63522088733088 
2484	 18.18477655153 
2485	 96.2897667774153 
2486	 42.5861269992622 
2487	-2.13842286975446 
2488	-5.2799335640835 
2489	 4.00764696826565 
2490	 0.980214469938341 
2491	 0.762693515578049 
2492	 0.72230720636401 
2493	 0.069502017845441 
2494	 0.789447287203033 
2495	 0.447516710416272 
2496	 3.58529316553297E-02 
2497	 0.471783196062032 
2498	 0.414134885338248 
2499	 0.390198022739833 
2500	 2.87342867724986 
